 LCModel (Version 6.3-1L) Copyright: S.W. Provencher.          Ref.: Magn. Reson. Med. 30:672-679 (1993).                
 Slice#2 Row#3 Col#5  PD_24_press_2_raw_act
 36 lines in following concentration table = NCONC+1
    Conc.  %SD /Cr+PCr  Metabolite                                         
    0.000 999%   0.000 Ala                                                 
    0.000 999%   0.000 Asp                                                 
 1.15E+03  50%   0.657 Cr                                                  
  602.336  98%   0.343 PCr                                                 
  226.041 128%   0.129 GABA                                                
  336.489  86%   0.192 Glc                                                 
 1.98E+03  34%   1.127 Gln                                                 
 1.86E+03  41%   1.057 Glu                                                 
  736.713  80%   0.420 GPC                                                 
  239.300 250%   0.136 PCh                                                 
  414.080  47%   0.236 GSH                                                 
 3.28E+03  23%   1.867 Ins                                                 
   32.240 999% 1.8E-02 Lac                                                 
 4.24E+03   4%   2.414 NAA                                                 
    0.000 999%   0.000 NAAG                                                
  337.463  19%   0.192 Scyllo                                              
  985.992  46%   0.562 Tau                                                 
  340.058  86%   0.194 -CrCH2                                              
  976.014   6%   0.556 GPC+PCh                                             
 4.24E+03   4%   2.414 NAA+NAAG                                            
 1.75E+03   8%   1.000 Cr+PCr                                              
 3.83E+03  31%   2.184 Glu+Gln                                             
 2.19E+03  67%   1.246 Lip13a                                              
  283.626 277%   0.162 Lip13b                                              
  249.845 169%   0.142 Lip09                                               
 2.34E+03  21%   1.332 MM09                                                
  516.638  54%   0.294 Lip20                                               
 4.89E+03  16%   2.784 MM20                                                
  743.757  37%   0.424 MM12                                                
 2.77E+03  22%   1.579 MM14                                                
    0.000 999%   0.000 MM17                                                
 2.47E+03  38%   1.408 Lip13a+Lip13b                                       
 5.98E+03  17%   3.410 MM14+Lip13a+Lip13b+MM12                             
 2.59E+03  18%   1.474 MM09+Lip09                                          
 5.40E+03  14%   3.078 MM20+Lip20                                          
   6 lines in following misc. output table
  FWHM = 0.069 ppm    S/N =   8                                            
  Data shift = 0.023 ppm                                                   
  Ph: -36 deg      -7.9 deg/ppm                                            
  alphaB,S = 8.4E-01,   2.6E+01                                            
   14 spline knots.   Ns = 8(1)                                            
  (13) 6 infls.   (15) 3 extrs.                                            
  498 points on ppm-axis = NY
      4.000000     3.992357     3.984714     3.977070     3.969427     3.961784     3.954141     3.946497     3.938854     3.931211
      3.923568     3.915925     3.908281     3.900638     3.892995     3.885352     3.877708     3.870065     3.862422     3.854779
      3.847136     3.839492     3.831849     3.824206     3.816563     3.808919     3.801276     3.793633     3.785990     3.778347
      3.770703     3.763060     3.755417     3.747774     3.740130     3.732487     3.724844     3.717201     3.709558     3.701914
      3.694271     3.686628     3.678985     3.671341     3.663698     3.656055     3.648412     3.640769     3.633125     3.625482
      3.617839     3.610196     3.602552     3.594909     3.587266     3.579623     3.571980     3.564336     3.556693     3.549050
      3.541407     3.533763     3.526120     3.518477     3.510834     3.503191     3.495547     3.487904     3.480261     3.472618
      3.464974     3.457331     3.449688     3.442045     3.434402     3.426758     3.419115     3.411472     3.403829     3.396185
      3.388542     3.380899     3.373256     3.365613     3.357969     3.350326     3.342683     3.335040     3.327396     3.319753
      3.312110     3.304467     3.296824     3.289180     3.281537     3.273894     3.266251     3.258607     3.250964     3.243321
      3.235678     3.228034     3.220391     3.212748     3.205105     3.197462     3.189818     3.182175     3.174532     3.166889
      3.159245     3.151602     3.143959     3.136316     3.128673     3.121029     3.113386     3.105743     3.098100     3.090456
      3.082813     3.075170     3.067527     3.059884     3.052240     3.044597     3.036954     3.029311     3.021667     3.014024
      3.006381     2.998738     2.991095     2.983451     2.975808     2.968165     2.960522     2.952878     2.945235     2.937592
      2.929949     2.922306     2.914662     2.907019     2.899376     2.891733     2.884089     2.876446     2.868803     2.861160
      2.853517     2.845873     2.838230     2.830587     2.822944     2.815300     2.807657     2.800014     2.792371     2.784728
      2.777084     2.769441     2.761798     2.754155     2.746511     2.738868     2.731225     2.723582     2.715939     2.708295
      2.700652     2.693009     2.685366     2.677722     2.670079     2.662436     2.654793     2.647150     2.639506     2.631863
      2.624220     2.616577     2.608933     2.601290     2.593647     2.586004     2.578361     2.570717     2.563074     2.555431
      2.547788     2.540144     2.532501     2.524858     2.517215     2.509572     2.501928     2.494285     2.486642     2.478999
      2.471355     2.463712     2.456069     2.448426     2.440783     2.433139     2.425496     2.417853     2.410210     2.402566
      2.394923     2.387280     2.379637     2.371994     2.364350     2.356707     2.349064     2.341421     2.333777     2.326134
      2.318491     2.310848     2.303205     2.295561     2.287918     2.280275     2.272632     2.264988     2.257345     2.249702
      2.242059     2.234416     2.226772     2.219129     2.211486     2.203843     2.196199     2.188556     2.180913     2.173270
      2.165627     2.157983     2.150340     2.142697     2.135054     2.127410     2.119767     2.112124     2.104481     2.096838
      2.089194     2.081551     2.073908     2.066265     2.058621     2.050978     2.043335     2.035692     2.028049     2.020405
      2.012762     2.005119     1.997476     1.989833     1.982190     1.974546     1.966903     1.959260     1.951617     1.943974
      1.936331     1.928688     1.921045     1.913402     1.905759     1.898115     1.890472     1.882829     1.875186     1.867543
      1.859900     1.852257     1.844614     1.836971     1.829327     1.821684     1.814041     1.806398     1.798755     1.791112
      1.783469     1.775826     1.768183     1.760540     1.752896     1.745253     1.737610     1.729967     1.722324     1.714681
      1.707038     1.699395     1.691752     1.684108     1.676465     1.668822     1.661179     1.653536     1.645893     1.638250
      1.630607     1.622964     1.615321     1.607677     1.600034     1.592391     1.584748     1.577105     1.569462     1.561819
      1.554176     1.546533     1.538890     1.531246     1.523603     1.515960     1.508317     1.500674     1.493031     1.485388
      1.477745     1.470102     1.462458     1.454815     1.447172     1.439529     1.431886     1.424243     1.416600     1.408957
      1.401314     1.393671     1.386027     1.378384     1.370741     1.363098     1.355455     1.347812     1.340169     1.332526
      1.324883     1.317240     1.309596     1.301953     1.294310     1.286667     1.279024     1.271381     1.263738     1.256095
      1.248452     1.240808     1.233165     1.225522     1.217879     1.210236     1.202593     1.194950     1.187307     1.179664
      1.172021     1.164377     1.156734     1.149091     1.141448     1.133805     1.126162     1.118519     1.110876     1.103233
      1.095590     1.087946     1.080303     1.072660     1.065017     1.057374     1.049731     1.042088     1.034445     1.026802
      1.019158     1.011515     1.003872     0.996229     0.988586     0.980943     0.973300     0.965657     0.958014     0.950371
      0.942727     0.935084     0.927441     0.919798     0.912155     0.904512     0.896869     0.889226     0.881583     0.873940
      0.866296     0.858653     0.851010     0.843367     0.835724     0.828081     0.820438     0.812795     0.805152     0.797508
      0.789865     0.782222     0.774579     0.766936     0.759293     0.751650     0.744007     0.736364     0.728721     0.721077
      0.713434     0.705791     0.698148     0.690505     0.682862     0.675219     0.667576     0.659933     0.652290     0.644646
      0.637003     0.629360     0.621717     0.614074     0.606431     0.598788     0.591145     0.583502     0.575858     0.568215
      0.560572     0.552929     0.545286     0.537643     0.530000     0.522357     0.514714     0.507071     0.499427     0.491784
      0.484141     0.476498     0.468855     0.461212     0.453569     0.445925     0.438282     0.430639     0.422996     0.415353
      0.407710     0.400067     0.392424     0.384780     0.377137     0.369494     0.361851     0.354208     0.346565     0.338922
      0.331278     0.323635     0.315992     0.308349     0.300706     0.293063     0.285420     0.277777     0.270133     0.262490
      0.254847     0.247204     0.239561     0.231918     0.224275     0.216631     0.208988     0.201345
 NY phased data points follow
  -1.44931E+02 -1.26137E+02 -1.29778E+02 -1.35534E+02 -1.28047E+02 -1.15239E+02 -1.05114E+02 -1.00813E+02 -9.86504E+01 -8.57211E+01
  -8.05674E+01 -9.09836E+01 -8.21236E+01 -8.86971E+01 -8.79546E+01 -1.01522E+02 -8.21649E+01 -9.98961E+01 -1.11355E+02 -1.12672E+02
  -1.06697E+02 -1.04775E+02 -9.97268E+01 -1.11955E+02 -1.07195E+02 -9.29657E+01 -9.24188E+01 -9.63500E+01 -8.95204E+01 -8.90859E+01
  -8.11672E+01 -8.38255E+01 -9.17356E+01 -8.27758E+01 -7.88111E+01 -8.81070E+01 -7.02245E+01 -8.06457E+01 -8.00112E+01 -8.51409E+01
  -7.66531E+01 -8.12118E+01 -7.24422E+01 -7.79069E+01 -6.63720E+01 -7.16471E+01 -5.97187E+01 -5.92846E+01 -6.41646E+01 -6.51025E+01
  -6.50214E+01 -7.55776E+01 -6.50021E+01 -6.56290E+01 -6.74755E+01 -6.93865E+01 -6.90578E+01 -7.78453E+01 -5.91764E+01 -6.56372E+01
  -5.45842E+01 -7.50896E+01 -6.45503E+01 -7.03018E+01 -6.82201E+01 -7.53117E+01 -6.04163E+01 -6.99694E+01 -6.00049E+01 -6.80319E+01
  -6.41150E+01 -5.60896E+01 -5.43911E+01 -7.09328E+01 -7.04197E+01 -4.55819E+01 -4.84127E+01 -5.37838E+01 -4.74033E+01 -6.25890E+01
  -4.39045E+01 -4.54644E+01 -5.61384E+01 -5.82489E+01 -4.79604E+01 -4.63652E+01 -4.94959E+01 -4.36531E+01 -4.66957E+01 -4.10291E+01
  -3.53002E+01 -4.13650E+01 -3.48703E+01 -4.14876E+01 -3.08446E+01 -3.83228E+01 -4.64419E+01 -4.59930E+01 -1.99435E+01 -1.02028E+01
  -1.10166E+00  1.49433E+01  1.88638E+01  2.46807E+01  2.52575E+01  1.50202E+01  1.74756E+01  8.62296E+00 -6.54152E+00 -3.08352E+01
  -3.12242E+01 -3.64161E+01 -3.37824E+01 -3.13032E+01 -3.75614E+01 -3.34662E+01 -4.70488E+01 -4.62031E+01 -4.73261E+01 -4.72285E+01
  -4.10773E+01 -4.44807E+01 -3.83494E+01 -2.25626E+01 -5.34923E+00 -4.70323E+00  1.64347E+01  3.13435E+00  3.11266E+00  3.74363E+00
   9.20716E+00 -1.00805E+01 -1.11662E+01 -1.96703E+01 -2.39948E+01 -3.35731E+01 -3.76496E+01 -3.79735E+01 -2.80711E+01 -3.73300E+01
  -4.18426E+01 -5.04947E+01 -3.77078E+01 -3.57879E+01 -4.42783E+01 -3.95606E+01 -4.13287E+01 -3.93887E+01 -3.35810E+01 -3.82884E+01
  -3.47874E+01 -3.66735E+01 -3.70160E+01 -3.60257E+01 -3.48542E+01 -4.35320E+01 -3.88868E+01 -3.39698E+01 -2.94121E+01 -4.08883E+01
  -2.90504E+01 -3.81408E+01 -3.01668E+01 -3.64166E+01 -2.71877E+01 -3.18185E+01 -4.37345E+01 -3.70168E+01 -3.21482E+01 -4.07005E+01
  -2.51767E+01 -4.07246E+01 -3.63669E+01 -4.47796E+01 -4.16498E+01 -5.93127E+01 -5.64372E+01 -4.52562E+01 -3.67555E+01 -4.41251E+01
  -4.23558E+01 -4.39204E+01 -3.77364E+01 -4.91964E+01 -4.24552E+01 -5.20511E+01 -3.95411E+01 -4.02525E+01 -3.41748E+01 -3.33399E+01
  -3.10815E+01 -3.21256E+01 -2.58643E+01 -3.11137E+01 -2.84532E+01 -2.66848E+01 -3.07046E+01 -2.84146E+01 -2.47899E+01 -2.35078E+01
  -3.05355E+01 -2.95975E+01 -1.86771E+01 -2.48275E+01 -3.39686E+01 -2.73693E+01 -3.41016E+01 -3.52842E+01 -2.53640E+01 -3.85686E+01
  -2.73771E+01 -3.49674E+01 -1.86997E+01 -2.73152E+01 -1.54030E+01 -1.85570E+01 -1.06816E+01 -9.01362E+00 -2.34965E+01 -3.87592E+01
  -1.88505E+01 -1.85553E+01 -1.62474E+01 -1.96730E+01 -1.80125E+01 -1.43905E+01 -1.22693E+01 -1.07997E+01 -6.03009E+00 -1.55334E+01
  -1.65736E+01  2.23488E+00 -2.99007E+00 -1.95515E+01 -4.95249E+00 -1.03688E+01  2.96293E+00 -1.09100E+01 -9.37695E-01  5.71462E-01
  -1.30972E+01 -4.03609E+00 -9.78419E+00 -3.00110E+00 -3.97919E+00 -5.31223E+00 -1.38081E+01 -9.26847E+00 -9.26744E+00 -2.37520E+01
   3.08462E+00 -1.26223E+01 -2.70136E+00 -3.39405E+00  1.88633E+01  2.61785E+01  5.49438E+01  7.99773E+01  1.06247E+02  9.51342E+01
   1.10157E+02  1.11406E+02  9.15233E+01  8.15544E+01  6.09450E+01  5.65541E+01  2.95484E+01  1.09785E+01 -4.06110E-01  5.38792E+00
   4.15077E+00 -5.56111E+00  1.58339E+00 -2.22164E+01 -2.42833E+01 -1.31969E+01 -1.70205E+01 -1.55481E+01 -1.68842E+01 -2.26175E+01
  -2.26084E+01 -8.36283E+00 -1.11560E+01 -1.65862E+01 -2.68401E+01 -1.69645E+01 -1.68251E+01 -1.89452E+01 -2.00006E+01 -2.85510E+01
  -1.64442E+01 -2.13850E+01 -2.20397E+01 -3.31125E+01 -3.07100E+01 -3.30024E+01 -1.76114E+01 -2.31033E+01 -2.41935E+01 -1.85663E+01
  -3.22472E+01 -4.12755E+01 -3.40265E+01 -2.71400E+01 -2.95714E+01 -2.89650E+01 -3.02788E+01 -3.58746E+01 -2.63685E+01 -2.75681E+01
  -3.43913E+01 -2.81167E+01 -2.25981E+01 -1.97107E+01 -2.06759E+01 -1.29477E+01 -1.92963E+01 -2.28564E+01 -1.86929E+01 -1.88995E+01
   2.32338E+00  3.80141E-01  1.58937E+00 -1.05281E+01 -3.48008E+00 -1.25441E+00 -3.41380E+00  5.98261E+00  2.64963E+00 -4.11937E+00
   8.33762E+00  3.40477E+00  1.04430E+01 -7.73225E+00  6.69775E+00 -8.51556E+00 -4.05538E+00  3.15329E+00  6.12903E+00 -1.32620E+01
  -1.12523E+01 -1.85585E+01 -1.03493E+01 -8.54665E+00  2.82157E+00  6.69305E+00 -6.68516E-01 -3.26858E+00 -8.02590E+00 -1.57879E+01
  -1.05951E+01  2.76113E+00 -4.42671E+00  1.06493E+01  1.33417E+00 -5.53316E+00 -6.14851E+00 -2.94128E+00 -3.85527E+00 -4.51968E+00
   8.44621E+00 -1.16652E+01  5.80849E+00 -9.13909E-01 -6.26116E+00 -9.92329E-01 -2.45935E+00 -4.23507E+00 -6.28393E-01 -6.05669E+00
   3.25986E+00 -6.27151E+00 -1.06966E+01 -7.84179E+00 -4.57053E+00 -9.49564E+00  1.92651E+00 -1.88922E+01 -1.27988E+01 -1.75467E+01
  -7.34291E+00 -2.24898E+01 -5.36791E+00 -5.82342E-01 -3.55981E+00 -8.40875E+00 -1.20507E+00 -1.23308E+01  5.71068E+00 -8.63167E+00
  -4.18604E+00 -9.03190E+00 -2.40277E+00  7.51754E-01 -8.04558E+00  1.29772E+01  1.67334E+00  1.20924E+01  4.34402E+00  1.04695E+01
  -4.03450E+00 -1.34702E+00 -4.24448E+00  1.53332E+01  1.51383E+01 -8.43175E-01  1.06841E+01  5.59206E+00  1.11681E+01 -7.22690E+00
   9.89263E+00  1.02844E+01  3.12330E+00 -4.70397E+00 -6.84766E+00 -1.14878E+01 -1.24505E+00  7.10432E+00 -6.20684E+00 -4.22197E+00
  -8.76007E+00 -1.02931E+01 -6.50363E+00  1.37665E-01 -3.98671E+00  3.68002E+00 -7.67171E+00 -1.58649E+01 -9.41869E+00 -3.84876E+00
   4.37548E+00  3.06374E-01  7.13886E+00 -3.39697E+00  2.12690E+00  4.89539E+00  1.14905E+01  8.48899E+00  9.61725E+00 -9.68494E+00
  -1.16682E+01 -8.76037E+00 -6.79920E+00 -1.34622E+01  5.24524E+00  6.77227E-02  5.92284E+00 -1.17172E+01  4.18125E-03  3.83267E+00
  -1.58570E+00 -4.01243E+00 -2.08574E+00  2.55498E+00  5.06954E+00  7.23053E+00  4.17835E+00  4.41440E+00  8.11008E-01 -9.63608E+00
  -5.17309E+00 -3.41571E-01  4.15932E+00  1.45395E+01  3.32499E+00  7.77208E+00  1.72609E+01  4.56337E+00  4.66549E+00 -2.10332E+01
   2.87314E+00  6.15348E-01  6.62020E+00 -2.14076E+00 -6.41757E-01  2.97224E+00 -2.59747E-01 -2.02599E+00  8.22116E+00  1.63434E+00
   8.36165E+00  9.77860E+00  1.20760E+00 -4.21839E+00  1.50618E+00  2.03579E+00  7.98484E+00  1.06881E-01  9.13196E+00 -2.18294E+00
  -1.13042E+00 -8.11769E+00  6.01112E+00  3.87142E-01 -2.58739E+00  5.61653E+00 -2.16824E+00 -1.03640E+01
 NY points of the fit to the data follow
  -1.19489E+02 -1.19838E+02 -1.20167E+02 -1.19114E+02 -1.17130E+02 -1.13680E+02 -1.08460E+02 -1.02110E+02 -9.57844E+01 -9.08401E+01
  -8.79724E+01 -8.63671E+01 -8.59111E+01 -8.69891E+01 -8.86268E+01 -9.07036E+01 -9.33566E+01 -9.64717E+01 -9.89858E+01 -9.98667E+01
  -9.98354E+01 -1.00953E+02 -1.01510E+02 -1.01834E+02 -1.01774E+02 -1.00622E+02 -9.81543E+01 -9.46255E+01 -9.07028E+01 -8.69704E+01
  -8.40662E+01 -8.24507E+01 -8.17570E+01 -8.15453E+01 -8.19718E+01 -8.31263E+01 -8.46083E+01 -8.58636E+01 -8.68901E+01 -8.74630E+01
  -8.64108E+01 -8.38781E+01 -7.97904E+01 -7.44217E+01 -6.93072E+01 -6.60714E+01 -6.46231E+01 -6.40474E+01 -6.46686E+01 -6.66207E+01
  -6.84731E+01 -7.00939E+01 -7.22724E+01 -7.46413E+01 -7.52158E+01 -7.36763E+01 -7.19416E+01 -7.05656E+01 -6.90575E+01 -6.77990E+01
  -6.71166E+01 -6.68978E+01 -6.67917E+01 -6.64540E+01 -6.61482E+01 -6.60554E+01 -6.56114E+01 -6.47169E+01 -6.36000E+01 -6.19991E+01
  -6.04094E+01 -5.86626E+01 -5.69314E+01 -5.58662E+01 -5.55586E+01 -5.55751E+01 -5.58670E+01 -5.62976E+01 -5.68616E+01 -5.68206E+01
  -5.60331E+01 -5.49267E+01 -5.31487E+01 -5.02912E+01 -4.75968E+01 -4.64202E+01 -4.56901E+01 -4.49908E+01 -4.52908E+01 -4.61307E+01
  -4.69946E+01 -4.79356E+01 -4.92792E+01 -5.09392E+01 -5.16125E+01 -5.05622E+01 -4.76916E+01 -4.05145E+01 -2.80876E+01 -1.13008E+01
   5.63260E+00  1.66971E+01  2.22471E+01  2.54185E+01  2.38756E+01  1.76740E+01  1.05860E+01  3.28786E+00 -7.10750E+00 -2.06062E+01
  -3.07114E+01 -3.41094E+01 -3.84378E+01 -4.33346E+01 -4.47663E+01 -4.50967E+01 -4.50113E+01 -4.49076E+01 -4.46509E+01 -4.42708E+01
  -4.24172E+01 -3.74801E+01 -2.95499E+01 -1.88279E+01 -7.42247E+00  6.03459E-01  4.72510E+00  7.32761E+00  7.21099E+00  3.90786E+00
  -4.32921E-01 -5.25814E+00 -1.18802E+01 -2.10405E+01 -2.87306E+01 -3.15309E+01 -3.40067E+01 -3.74705E+01 -3.81707E+01 -3.80477E+01
  -3.77873E+01 -3.73597E+01 -3.68823E+01 -3.65941E+01 -3.63283E+01 -3.61787E+01 -3.61819E+01 -3.62460E+01 -3.63708E+01 -3.65092E+01
  -3.65398E+01 -3.66006E+01 -3.65584E+01 -3.64063E+01 -3.63327E+01 -3.64545E+01 -3.67820E+01 -3.73049E+01 -3.77332E+01 -3.77442E+01
  -3.74382E+01 -3.70622E+01 -3.67511E+01 -3.67197E+01 -3.68610E+01 -3.70750E+01 -3.73500E+01 -3.75122E+01 -3.77766E+01 -3.84592E+01
  -3.93501E+01 -4.03297E+01 -4.10808E+01 -4.13492E+01 -4.14638E+01 -4.13331E+01 -4.11604E+01 -4.10301E+01 -4.07494E+01 -4.03536E+01
  -4.00316E+01 -3.98266E+01 -3.94476E+01 -3.90838E+01 -3.86994E+01 -3.75937E+01 -3.57148E+01 -3.38637E+01 -3.20941E+01 -3.07660E+01
  -2.96997E+01 -2.89313E+01 -2.84994E+01 -2.84024E+01 -2.88080E+01 -2.93471E+01 -2.91554E+01 -2.82072E+01 -2.67772E+01 -2.46293E+01
  -2.21709E+01 -1.99602E+01 -1.86830E+01 -1.88287E+01 -2.03866E+01 -2.30157E+01 -2.68040E+01 -3.03487E+01 -3.24735E+01 -3.33155E+01
  -3.30810E+01 -3.10451E+01 -2.77532E+01 -2.46928E+01 -2.24114E+01 -2.04328E+01 -1.91298E+01 -2.00225E+01 -2.20302E+01 -2.28893E+01
  -2.32612E+01 -2.39062E+01 -2.38215E+01 -2.25088E+01 -2.05442E+01 -1.92397E+01 -1.79509E+01 -1.64868E+01 -1.51088E+01 -1.44834E+01
  -1.47128E+01 -1.49309E+01 -1.48759E+01 -1.46176E+01 -1.36888E+01 -1.22329E+01 -1.08657E+01 -9.35090E+00 -8.30478E+00 -8.36883E+00
  -8.83174E+00 -8.74050E+00 -8.72962E+00 -9.34386E+00 -9.88195E+00 -9.59892E+00 -9.20438E+00 -8.74826E+00 -7.39647E+00 -5.34363E+00
  -3.64939E+00 -2.26206E+00 -7.22987E-01  3.15401E+00  1.34457E+01  3.04764E+01  5.40137E+01  7.92453E+01  9.66643E+01  1.04299E+02
   1.07962E+02  1.05527E+02  9.52091E+01  8.26828E+01  6.99458E+01  5.39989E+01  3.20405E+01  1.29370E+01  5.31640E+00 -9.41425E-01
  -1.07371E+01 -1.41177E+01 -1.52242E+01 -1.59724E+01 -1.65033E+01 -1.69438E+01 -1.74181E+01 -1.79193E+01 -1.84572E+01 -1.90282E+01
  -1.96119E+01 -2.01253E+01 -2.05835E+01 -2.10077E+01 -2.13446E+01 -2.16026E+01 -2.18073E+01 -2.19691E+01 -2.21144E+01 -2.22415E+01
  -2.23476E+01 -2.24665E+01 -2.25917E+01 -2.26946E+01 -2.27805E+01 -2.28646E+01 -2.29360E+01 -2.29777E+01 -2.30002E+01 -2.30095E+01
  -2.29926E+01 -2.29506E+01 -2.28910E+01 -2.28023E+01 -2.26841E+01 -2.25315E+01 -2.23373E+01 -2.20940E+01 -2.17945E+01 -2.14304E+01
  -2.09917E+01 -2.04684E+01 -1.98535E+01 -1.91386E+01 -1.83179E+01 -1.73890E+01 -1.63514E+01 -1.52079E+01 -1.39665E+01 -1.26396E+01
  -1.12445E+01 -9.80289E+00 -8.34021E+00 -6.88536E+00 -5.47003E+00 -4.12704E+00 -2.88897E+00 -1.78596E+00 -8.44578E-01 -8.63632E-02
   4.73067E-01  8.25412E-01  9.70365E-01  9.16223E-01  6.78831E-01  2.81142E-01 -2.48063E-01 -8.75134E-01 -1.56298E+00 -2.27116E+00
  -2.95142E+00 -3.56811E+00 -4.10349E+00 -4.54219E+00 -4.88584E+00 -5.13601E+00 -5.26159E+00 -5.24124E+00 -5.08244E+00 -4.77816E+00
  -4.32465E+00 -3.74893E+00 -3.11627E+00 -2.50491E+00 -1.93852E+00 -1.45012E+00 -1.14228E+00 -1.02619E+00 -1.06623E+00 -1.26921E+00
  -1.63100E+00 -2.13806E+00 -2.72687E+00 -3.32776E+00 -3.95500E+00 -4.58918E+00 -5.19227E+00 -5.76028E+00 -6.28977E+00 -6.77723E+00
  -7.21980E+00 -7.61436E+00 -7.95766E+00 -8.24606E+00 -8.47612E+00 -8.64439E+00 -8.74773E+00 -8.78284E+00 -8.74680E+00 -8.63683E+00
  -8.45087E+00 -8.18710E+00 -7.84427E+00 -7.42129E+00 -6.91797E+00 -6.33496E+00 -5.67448E+00 -4.93997E+00 -4.13666E+00 -3.27138E+00
  -2.35340E+00 -1.39417E+00 -4.07720E-01  5.90097E-01  1.58154E+00  2.54777E+00  3.46882E+00  4.32471E+00  5.09590E+00  5.76477E+00
   6.31591E+00  6.73724E+00  7.01998E+00  7.15964E+00  7.15585E+00  7.01300E+00  6.73940E+00  6.34716E+00  5.85103E+00  5.26819E+00
   4.61709E+00  3.91718E+00  3.18744E+00  2.44602E+00  1.70918E+00  9.91441E-01  3.04915E-01 -3.40383E-01 -9.37203E-01 -1.48051E+00
  -1.96773E+00 -2.39779E+00 -2.77131E+00 -3.08988E+00 -3.35639E+00 -3.57421E+00 -3.74740E+00 -3.87980E+00 -3.97546E+00 -4.03808E+00
  -4.07154E+00 -4.07932E+00 -4.06475E+00 -4.03051E+00 -3.97916E+00 -3.91281E+00 -3.83370E+00 -3.74354E+00 -3.64401E+00 -3.53620E+00
  -3.42131E+00 -3.30027E+00 -3.17421E+00 -3.04383E+00 -2.90992E+00 -2.77281E+00 -2.63313E+00 -2.49130E+00 -2.34799E+00 -2.20344E+00
  -2.05805E+00 -1.91187E+00 -1.76535E+00 -1.61866E+00 -1.47217E+00 -1.32581E+00 -1.17972E+00 -1.03376E+00 -8.88221E-01 -7.43121E-01
  -5.98678E-01 -4.54708E-01 -3.11285E-01 -1.68292E-01 -2.59836E-02  1.15685E-01  2.56578E-01  3.96939E-01  5.36691E-01  6.75940E-01
   8.14437E-01  9.52292E-01  1.08945E+00  1.22616E+00  1.36232E+00  1.49801E+00  1.63302E+00  1.76751E+00  1.90147E+00  2.03514E+00
   2.16838E+00  2.30125E+00  2.43359E+00  2.56564E+00  2.69737E+00  2.82902E+00  2.96039E+00  3.09158E+00  3.22248E+00  3.35335E+00
   3.48419E+00  3.61518E+00  3.74611E+00  3.87713E+00  4.00817E+00  4.13956E+00  4.27125E+00  4.40341E+00
 NY background values follow
    -1.292E+02   -1.283E+02   -1.274E+02   -1.266E+02   -1.257E+02   -1.248E+02   -1.240E+02   -1.231E+02   -1.222E+02   -1.214E+02
    -1.205E+02   -1.196E+02   -1.188E+02   -1.179E+02   -1.170E+02   -1.162E+02   -1.153E+02   -1.145E+02   -1.136E+02   -1.128E+02
    -1.119E+02   -1.111E+02   -1.102E+02   -1.094E+02   -1.085E+02   -1.077E+02   -1.068E+02   -1.060E+02   -1.051E+02   -1.043E+02
    -1.035E+02   -1.027E+02   -1.018E+02   -1.010E+02   -1.002E+02   -9.937E+01   -9.855E+01   -9.774E+01   -9.694E+01   -9.613E+01
    -9.534E+01   -9.454E+01   -9.375E+01   -9.296E+01   -9.218E+01   -9.140E+01   -9.063E+01   -8.986E+01   -8.910E+01   -8.833E+01
    -8.758E+01   -8.683E+01   -8.608E+01   -8.534E+01   -8.460E+01   -8.387E+01   -8.315E+01   -8.242E+01   -8.171E+01   -8.099E+01
    -8.029E+01   -7.959E+01   -7.889E+01   -7.820E+01   -7.751E+01   -7.683E+01   -7.616E+01   -7.549E+01   -7.482E+01   -7.416E+01
    -7.351E+01   -7.286E+01   -7.222E+01   -7.159E+01   -7.096E+01   -7.033E+01   -6.971E+01   -6.910E+01   -6.849E+01   -6.789E+01
    -6.730E+01   -6.671E+01   -6.613E+01   -6.555E+01   -6.498E+01   -6.442E+01   -6.386E+01   -6.331E+01   -6.276E+01   -6.223E+01
    -6.169E+01   -6.117E+01   -6.065E+01   -6.014E+01   -5.963E+01   -5.913E+01   -5.864E+01   -5.816E+01   -5.768E+01   -5.720E+01
    -5.673E+01   -5.627E+01   -5.582E+01   -5.536E+01   -5.492E+01   -5.448E+01   -5.405E+01   -5.362E+01   -5.320E+01   -5.278E+01
    -5.237E+01   -5.197E+01   -5.157E+01   -5.118E+01   -5.079E+01   -5.040E+01   -5.002E+01   -4.965E+01   -4.928E+01   -4.892E+01
    -4.856E+01   -4.821E+01   -4.786E+01   -4.751E+01   -4.717E+01   -4.684E+01   -4.651E+01   -4.618E+01   -4.586E+01   -4.554E+01
    -4.523E+01   -4.492E+01   -4.462E+01   -4.432E+01   -4.402E+01   -4.373E+01   -4.344E+01   -4.315E+01   -4.287E+01   -4.260E+01
    -4.232E+01   -4.205E+01   -4.179E+01   -4.153E+01   -4.127E+01   -4.101E+01   -4.076E+01   -4.051E+01   -4.026E+01   -4.002E+01
    -3.978E+01   -3.954E+01   -3.931E+01   -3.908E+01   -3.885E+01   -3.863E+01   -3.840E+01   -3.818E+01   -3.797E+01   -3.775E+01
    -3.754E+01   -3.733E+01   -3.712E+01   -3.692E+01   -3.671E+01   -3.651E+01   -3.631E+01   -3.611E+01   -3.592E+01   -3.572E+01
    -3.553E+01   -3.534E+01   -3.515E+01   -3.497E+01   -3.478E+01   -3.460E+01   -3.442E+01   -3.424E+01   -3.406E+01   -3.388E+01
    -3.370E+01   -3.352E+01   -3.335E+01   -3.317E+01   -3.300E+01   -3.283E+01   -3.266E+01   -3.249E+01   -3.232E+01   -3.215E+01
    -3.199E+01   -3.183E+01   -3.166E+01   -3.150E+01   -3.134E+01   -3.119E+01   -3.103E+01   -3.087E+01   -3.072E+01   -3.057E+01
    -3.042E+01   -3.028E+01   -3.013E+01   -2.999E+01   -2.985E+01   -2.971E+01   -2.957E+01   -2.943E+01   -2.930E+01   -2.917E+01
    -2.904E+01   -2.892E+01   -2.879E+01   -2.867E+01   -2.855E+01   -2.844E+01   -2.832E+01   -2.821E+01   -2.810E+01   -2.800E+01
    -2.789E+01   -2.779E+01   -2.769E+01   -2.760E+01   -2.751E+01   -2.742E+01   -2.733E+01   -2.725E+01   -2.717E+01   -2.709E+01
    -2.701E+01   -2.694E+01   -2.687E+01   -2.681E+01   -2.674E+01   -2.668E+01   -2.662E+01   -2.656E+01   -2.651E+01   -2.646E+01
    -2.641E+01   -2.636E+01   -2.631E+01   -2.627E+01   -2.623E+01   -2.619E+01   -2.615E+01   -2.611E+01   -2.608E+01   -2.605E+01
    -2.602E+01   -2.599E+01   -2.596E+01   -2.593E+01   -2.591E+01   -2.589E+01   -2.586E+01   -2.584E+01   -2.582E+01   -2.580E+01
    -2.579E+01   -2.577E+01   -2.575E+01   -2.574E+01   -2.572E+01   -2.571E+01   -2.570E+01   -2.569E+01   -2.568E+01   -2.567E+01
    -2.566E+01   -2.565E+01   -2.564E+01   -2.563E+01   -2.562E+01   -2.561E+01   -2.560E+01   -2.559E+01   -2.558E+01   -2.558E+01
    -2.557E+01   -2.556E+01   -2.555E+01   -2.554E+01   -2.553E+01   -2.552E+01   -2.551E+01   -2.549E+01   -2.548E+01   -2.547E+01
    -2.545E+01   -2.544E+01   -2.542E+01   -2.540E+01   -2.538E+01   -2.536E+01   -2.534E+01   -2.532E+01   -2.529E+01   -2.527E+01
    -2.524E+01   -2.521E+01   -2.518E+01   -2.515E+01   -2.511E+01   -2.508E+01   -2.504E+01   -2.500E+01   -2.496E+01   -2.491E+01
    -2.486E+01   -2.481E+01   -2.476E+01   -2.471E+01   -2.465E+01   -2.459E+01   -2.453E+01   -2.446E+01   -2.439E+01   -2.432E+01
    -2.425E+01   -2.417E+01   -2.409E+01   -2.401E+01   -2.393E+01   -2.384E+01   -2.375E+01   -2.366E+01   -2.357E+01   -2.347E+01
    -2.337E+01   -2.327E+01   -2.317E+01   -2.306E+01   -2.295E+01   -2.284E+01   -2.273E+01   -2.262E+01   -2.250E+01   -2.238E+01
    -2.226E+01   -2.214E+01   -2.202E+01   -2.189E+01   -2.176E+01   -2.163E+01   -2.150E+01   -2.137E+01   -2.123E+01   -2.109E+01
    -2.096E+01   -2.082E+01   -2.067E+01   -2.053E+01   -2.039E+01   -2.024E+01   -2.009E+01   -1.994E+01   -1.979E+01   -1.964E+01
    -1.949E+01   -1.934E+01   -1.918E+01   -1.902E+01   -1.887E+01   -1.871E+01   -1.855E+01   -1.839E+01   -1.822E+01   -1.806E+01
    -1.789E+01   -1.773E+01   -1.756E+01   -1.739E+01   -1.722E+01   -1.705E+01   -1.688E+01   -1.671E+01   -1.654E+01   -1.636E+01
    -1.619E+01   -1.601E+01   -1.583E+01   -1.565E+01   -1.547E+01   -1.529E+01   -1.511E+01   -1.493E+01   -1.474E+01   -1.456E+01
    -1.437E+01   -1.419E+01   -1.400E+01   -1.381E+01   -1.362E+01   -1.343E+01   -1.324E+01   -1.305E+01   -1.285E+01   -1.266E+01
    -1.246E+01   -1.227E+01   -1.207E+01   -1.187E+01   -1.168E+01   -1.148E+01   -1.128E+01   -1.108E+01   -1.087E+01   -1.067E+01
    -1.047E+01   -1.026E+01   -1.006E+01   -9.856E+00   -9.650E+00   -9.445E+00   -9.239E+00   -9.033E+00   -8.826E+00   -8.620E+00
    -8.413E+00   -8.206E+00   -8.000E+00   -7.793E+00   -7.587E+00   -7.381E+00   -7.175E+00   -6.970E+00   -6.765E+00   -6.560E+00
    -6.356E+00   -6.153E+00   -5.950E+00   -5.748E+00   -5.547E+00   -5.346E+00   -5.147E+00   -4.948E+00   -4.751E+00   -4.554E+00
    -4.359E+00   -4.165E+00   -3.972E+00   -3.780E+00   -3.590E+00   -3.401E+00   -3.214E+00   -3.029E+00   -2.845E+00   -2.662E+00
    -2.482E+00   -2.303E+00   -2.126E+00   -1.951E+00   -1.778E+00   -1.607E+00   -1.437E+00   -1.269E+00   -1.103E+00   -9.388E-01
    -7.760E-01   -6.148E-01   -4.551E-01   -2.969E-01   -1.402E-01    1.518E-02    1.692E-01    3.218E-01    4.732E-01    6.233E-01
     7.722E-01    9.200E-01    1.067E+00    1.212E+00    1.357E+00    1.500E+00    1.643E+00    1.785E+00    1.926E+00    2.066E+00
     2.205E+00    2.343E+00    2.481E+00    2.618E+00    2.755E+00    2.891E+00    3.026E+00    3.161E+00    3.296E+00    3.430E+00
     3.564E+00    3.697E+00    3.830E+00    3.963E+00    4.096E+00    4.229E+00    4.361E+00    4.493E+00
 Cr       Conc. = 1.15E+03
