 LCModel (Version 6.3-1L) Copyright: S.W. Provencher.          Ref.: Magn. Reson. Med. 30:672-679 (1993).                
 Slice#3 Row#12 Col#1  PD_24_press_2_raw_act
 36 lines in following concentration table = NCONC+1
    Conc.  %SD /Cr+PCr  Metabolite                                         
 1.64E+03  16%   0.000 Ala                                                 
    1.057 999%   0.000 Asp                                                 
    0.000 999%   0.000 Cr                                                  
    0.000 999%   0.000 PCr                                                 
    7.154 154%   0.000 GABA                                                
    5.344 206%   0.000 Glc                                                 
  816.628  34%   0.000 Gln                                                 
    0.000 999%   0.000 Glu                                                 
    0.000 999%   0.000 GPC                                                 
   39.938  28%   0.000 PCh                                                 
    0.000 999%   0.000 GSH                                                 
  253.664  49%   0.000 Ins                                                 
  305.910  85%   0.000 Lac                                                 
    0.000 999%   0.000 NAA                                                 
   57.450  96%   0.000 NAAG                                                
    3.047 117%   0.000 Scyllo                                              
    8.816 204%   0.000 Tau                                                 
   32.894  88%   0.000 -CrCH2                                              
   39.938  28%   0.000 GPC+PCh                                             
   57.450  96%   0.000 NAA+NAAG                                            
    0.000 999%   0.000 Cr+PCr                                              
  816.628  34%   0.000 Glu+Gln                                             
    0.000 999%   0.000 Lip13a                                              
    0.000 999%   0.000 Lip13b                                              
    0.000 999%   0.000 Lip09                                               
  568.529  14%   0.000 MM09                                                
   71.414  64%   0.000 Lip20                                               
 1.06E+03  13%   0.000 MM20                                                
  174.398  21%   0.000 MM12                                                
  772.193  11%   0.000 MM14                                                
  470.563  16%   0.000 MM17                                                
    0.000 999%   0.000 Lip13a+Lip13b                                       
  946.591  10%   0.000 MM14+Lip13a+Lip13b+MM12                             
  568.529  14%   0.000 MM09+Lip09                                          
 1.13E+03  13%   0.000 MM20+Lip20                                          
   6 lines in following misc. output table
  FWHM = 0.153 ppm    S/N =   5                                            
  Data shift = 0.046 ppm                                                   
  Ph: 122 deg      55.8 deg/ppm                                            
  alphaB,S = 8.5E+01,   2.7E+02                                            
    6 spline knots.   Ns = 9(2)                                            
  (15) 6 infls.   ( 9) 1 extrs.                                            
  498 points on ppm-axis = NY
      4.000000     3.992357     3.984714     3.977070     3.969427     3.961784     3.954141     3.946497     3.938854     3.931211
      3.923568     3.915925     3.908281     3.900638     3.892995     3.885352     3.877708     3.870065     3.862422     3.854779
      3.847136     3.839492     3.831849     3.824206     3.816563     3.808919     3.801276     3.793633     3.785990     3.778347
      3.770703     3.763060     3.755417     3.747774     3.740130     3.732487     3.724844     3.717201     3.709558     3.701914
      3.694271     3.686628     3.678985     3.671341     3.663698     3.656055     3.648412     3.640769     3.633125     3.625482
      3.617839     3.610196     3.602552     3.594909     3.587266     3.579623     3.571980     3.564336     3.556693     3.549050
      3.541407     3.533763     3.526120     3.518477     3.510834     3.503191     3.495547     3.487904     3.480261     3.472618
      3.464974     3.457331     3.449688     3.442045     3.434402     3.426758     3.419115     3.411472     3.403829     3.396185
      3.388542     3.380899     3.373256     3.365613     3.357969     3.350326     3.342683     3.335040     3.327396     3.319753
      3.312110     3.304467     3.296824     3.289180     3.281537     3.273894     3.266251     3.258607     3.250964     3.243321
      3.235678     3.228034     3.220391     3.212748     3.205105     3.197462     3.189818     3.182175     3.174532     3.166889
      3.159245     3.151602     3.143959     3.136316     3.128673     3.121029     3.113386     3.105743     3.098100     3.090456
      3.082813     3.075170     3.067527     3.059884     3.052240     3.044597     3.036954     3.029311     3.021667     3.014024
      3.006381     2.998738     2.991095     2.983451     2.975808     2.968165     2.960522     2.952878     2.945235     2.937592
      2.929949     2.922306     2.914662     2.907019     2.899376     2.891733     2.884089     2.876446     2.868803     2.861160
      2.853517     2.845873     2.838230     2.830587     2.822944     2.815300     2.807657     2.800014     2.792371     2.784728
      2.777084     2.769441     2.761798     2.754155     2.746511     2.738868     2.731225     2.723582     2.715939     2.708295
      2.700652     2.693009     2.685366     2.677722     2.670079     2.662436     2.654793     2.647150     2.639506     2.631863
      2.624220     2.616577     2.608933     2.601290     2.593647     2.586004     2.578361     2.570717     2.563074     2.555431
      2.547788     2.540144     2.532501     2.524858     2.517215     2.509572     2.501928     2.494285     2.486642     2.478999
      2.471355     2.463712     2.456069     2.448426     2.440783     2.433139     2.425496     2.417853     2.410210     2.402566
      2.394923     2.387280     2.379637     2.371994     2.364350     2.356707     2.349064     2.341421     2.333777     2.326134
      2.318491     2.310848     2.303205     2.295561     2.287918     2.280275     2.272632     2.264988     2.257345     2.249702
      2.242059     2.234416     2.226772     2.219129     2.211486     2.203843     2.196199     2.188556     2.180913     2.173270
      2.165627     2.157983     2.150340     2.142697     2.135054     2.127410     2.119767     2.112124     2.104481     2.096838
      2.089194     2.081551     2.073908     2.066265     2.058621     2.050978     2.043335     2.035692     2.028049     2.020405
      2.012762     2.005119     1.997476     1.989833     1.982190     1.974546     1.966903     1.959260     1.951617     1.943974
      1.936331     1.928688     1.921045     1.913402     1.905759     1.898115     1.890472     1.882829     1.875186     1.867543
      1.859900     1.852257     1.844614     1.836971     1.829327     1.821684     1.814041     1.806398     1.798755     1.791112
      1.783469     1.775826     1.768183     1.760540     1.752896     1.745253     1.737610     1.729967     1.722324     1.714681
      1.707038     1.699395     1.691752     1.684108     1.676465     1.668822     1.661179     1.653536     1.645893     1.638250
      1.630607     1.622964     1.615321     1.607677     1.600034     1.592391     1.584748     1.577105     1.569462     1.561819
      1.554176     1.546533     1.538890     1.531246     1.523603     1.515960     1.508317     1.500674     1.493031     1.485388
      1.477745     1.470102     1.462458     1.454815     1.447172     1.439529     1.431886     1.424243     1.416600     1.408957
      1.401314     1.393671     1.386027     1.378384     1.370741     1.363098     1.355455     1.347812     1.340169     1.332526
      1.324883     1.317240     1.309596     1.301953     1.294310     1.286667     1.279024     1.271381     1.263738     1.256095
      1.248452     1.240808     1.233165     1.225522     1.217879     1.210236     1.202593     1.194950     1.187307     1.179664
      1.172021     1.164377     1.156734     1.149091     1.141448     1.133805     1.126162     1.118519     1.110876     1.103233
      1.095590     1.087946     1.080303     1.072660     1.065017     1.057374     1.049731     1.042088     1.034445     1.026802
      1.019158     1.011515     1.003872     0.996229     0.988586     0.980943     0.973300     0.965657     0.958014     0.950371
      0.942727     0.935084     0.927441     0.919798     0.912155     0.904512     0.896869     0.889226     0.881583     0.873940
      0.866296     0.858653     0.851010     0.843367     0.835724     0.828081     0.820438     0.812795     0.805152     0.797508
      0.789865     0.782222     0.774579     0.766936     0.759293     0.751650     0.744007     0.736364     0.728721     0.721077
      0.713434     0.705791     0.698148     0.690505     0.682862     0.675219     0.667576     0.659933     0.652290     0.644646
      0.637003     0.629360     0.621717     0.614074     0.606431     0.598788     0.591145     0.583502     0.575858     0.568215
      0.560572     0.552929     0.545286     0.537643     0.530000     0.522357     0.514714     0.507071     0.499427     0.491784
      0.484141     0.476498     0.468855     0.461212     0.453569     0.445925     0.438282     0.430639     0.422996     0.415353
      0.407710     0.400067     0.392424     0.384780     0.377137     0.369494     0.361851     0.354208     0.346565     0.338922
      0.331278     0.323635     0.315992     0.308349     0.300706     0.293063     0.285420     0.277777     0.270133     0.262490
      0.254847     0.247204     0.239561     0.231918     0.224275     0.216631     0.208988     0.201345
 NY phased data points follow
  -3.63149E+00 -3.98970E+00 -3.54514E+00 -3.24374E+00 -1.93082E+00 -2.98989E+00 -5.75868E+00 -3.82419E+00 -2.69688E+00 -1.64593E+00
  -3.98967E+00 -3.05139E+00 -2.31761E+00 -2.61424E+00 -2.93933E+00 -1.83734E+00 -2.84509E+00 -3.69718E+00 -3.31354E+00 -4.15221E+00
  -2.64018E+00 -1.89980E+00 -2.36970E+00 -5.19093E-01 -8.07295E-01 -2.63451E+00 -4.43067E+00 -2.29873E+00 -3.15964E+00 -2.55863E+00
  -2.93114E+00 -3.80106E-03 -1.84983E+00 -3.55153E+00 -1.78455E+00 -1.97732E+00 -1.52490E+00 -2.13715E+00 -3.64472E+00 -8.02577E-01
  -2.11854E+00 -1.83760E+00 -1.70774E+00 -3.11291E+00 -2.78178E+00 -2.57217E+00 -3.15931E+00 -3.15569E+00 -2.94422E+00 -4.06932E+00
  -3.15050E+00 -2.40240E+00 -2.24914E+00 -3.22305E+00 -3.45587E+00 -3.27010E+00 -2.96292E+00 -3.41238E+00 -3.92937E+00 -3.35915E+00
  -4.25575E+00 -3.84625E+00 -4.24931E+00 -3.81604E+00 -3.55476E+00 -2.71121E+00 -3.18168E+00 -3.12225E+00 -3.97110E+00 -2.79648E+00
  -4.14447E+00 -2.32124E+00 -3.31754E+00 -1.96904E+00 -3.79411E+00 -2.08728E+00 -1.05308E+00 -2.64709E+00 -3.46066E+00 -4.18196E+00
  -3.89246E+00 -2.35494E+00 -2.91130E+00 -3.91271E+00 -3.00986E+00 -5.45861E+00 -2.83269E+00 -3.01636E+00 -2.68145E+00 -2.36680E+00
  -3.28482E+00 -2.53825E+00 -3.13825E+00 -9.42928E-01 -2.79893E+00  3.32033E-01 -3.00042E+00 -2.23599E+00 -2.97621E+00 -3.84933E+00
  -2.39438E+00 -3.78877E+00 -2.17945E+00 -3.24651E+00 -3.41555E+00 -5.14102E+00 -3.73673E+00 -3.87514E+00 -4.52337E+00 -3.13530E+00
  -5.92459E+00 -3.65243E+00 -4.61548E+00 -3.07029E+00 -3.52368E+00 -2.05759E+00 -3.02571E+00 -2.75875E+00 -3.89443E+00 -2.58387E+00
  -3.26731E+00 -4.13587E+00 -4.89907E+00 -3.59291E+00 -1.91699E+00 -3.42685E+00 -4.20985E+00 -2.74463E+00 -3.07451E+00 -3.31655E+00
  -3.83252E+00 -3.51684E+00 -3.22385E+00 -4.58003E+00 -5.25899E+00 -2.51664E+00 -3.00706E+00 -2.87866E+00 -2.74352E+00 -3.40914E+00
  -3.03336E+00 -2.81528E+00 -2.39923E+00 -1.76690E+00 -2.08937E+00 -3.96234E+00 -3.24288E+00 -4.71072E+00 -3.38872E+00 -3.39580E+00
  -3.48150E+00 -2.82262E+00 -3.15332E+00 -3.20099E+00 -3.65132E+00 -3.52145E+00 -1.61283E+00 -3.71698E+00 -2.16964E+00 -4.69725E+00
  -4.85961E+00 -1.72393E+00 -3.71683E+00 -3.02286E+00 -4.59621E+00 -2.82568E+00 -4.00556E+00 -3.48248E+00 -5.18377E+00 -3.55430E+00
  -4.52710E+00 -5.72327E+00 -5.47311E+00 -4.65370E+00 -5.59769E+00 -4.87645E+00 -3.98245E+00 -6.07862E+00 -6.41982E+00 -4.85241E+00
  -5.03932E+00 -4.55254E+00 -2.82415E+00 -4.64964E+00 -5.37216E+00 -4.88412E+00 -5.11984E+00 -4.88222E+00 -3.41355E+00 -4.85965E+00
  -3.12941E+00 -5.64105E+00 -5.65887E+00 -5.22427E+00 -4.21046E+00 -5.21269E+00 -4.88968E+00 -5.04011E+00 -6.35952E+00 -4.87033E+00
  -4.85633E+00 -5.17153E+00 -4.74715E+00 -4.50009E+00 -6.81583E+00 -4.35468E+00 -3.29411E+00 -4.62796E+00 -3.82224E+00 -2.66356E+00
  -4.47316E+00 -6.10263E+00 -3.76775E+00 -3.66767E+00 -2.97576E+00 -4.68170E+00 -3.47277E+00 -2.91864E+00 -4.93408E+00 -2.82068E+00
  -1.58428E+00 -2.28984E+00 -1.58414E+00 -1.43146E+00 -6.37195E-01 -1.27375E+00 -2.93005E+00 -1.63884E+00 -2.31014E+00  3.74921E-01
  -1.38309E-01 -1.35770E+00  1.47474E-02  6.43190E-01 -5.32402E-01 -1.70521E+00 -3.81106E-01 -1.71062E+00 -1.12771E+00 -1.71473E-01
  -5.26252E-01  4.39377E-01 -1.43751E+00 -4.48383E-01  4.96280E-01  1.13498E+00 -2.27242E-02  1.48774E+00  1.77519E+00  2.17553E+00
   1.43577E+00  2.46566E+00  1.40060E+00  1.12242E+00  1.14155E+00  1.71839E+00  7.67666E-02 -5.61391E-02 -8.28022E-01 -1.42482E+00
   4.08727E-01 -8.68055E-01 -2.41226E-01 -1.45775E+00 -2.55947E-01 -4.17645E-01 -2.35177E+00 -9.56224E-01 -2.89825E-02 -1.11547E+00
  -1.58428E+00 -2.31291E+00 -4.19397E-01 -4.43581E-01 -1.52438E+00 -2.28682E+00 -8.91650E-01 -1.24488E+00 -3.55216E-01 -1.83105E+00
  -1.76813E+00 -1.98196E+00 -4.00348E+00 -1.74761E+00 -3.81911E+00 -2.92761E+00 -4.44319E+00 -4.12388E+00 -4.54634E+00 -4.73630E+00
  -5.27467E+00 -4.22406E+00 -5.56326E+00 -6.07871E+00 -3.96970E+00 -4.80295E+00 -2.95054E+00 -3.80453E+00 -1.52541E+00 -2.68869E+00
  -2.29940E+00 -1.17201E+00 -7.18899E-01 -6.95161E-01 -3.76477E-01  2.14998E+00  2.27637E+00  3.68405E+00  4.42077E+00  3.69931E+00
   3.65770E+00  7.38284E+00  6.89245E+00  7.40841E+00  7.34499E+00  7.72710E+00  5.29665E+00  7.89331E+00  6.53408E+00  5.91022E+00
   4.95967E+00  6.16786E+00  3.81327E+00  6.05831E+00  4.13556E+00  5.32314E+00  5.36421E+00  5.86146E+00  5.41737E+00  5.47364E+00
   5.06608E+00  5.38642E+00  3.66297E+00  5.38316E+00  3.59475E+00  3.87325E+00  3.57082E+00  4.44336E+00  2.73916E+00  2.59068E+00
   2.66555E+00  1.89004E+00  1.83855E+00  3.41228E+00  2.88646E+00  3.32968E+00  1.33365E+00  5.59550E-01  5.15059E-01 -1.65181E-01
  -5.99045E-01  1.40677E+00  6.35666E-01 -9.63969E-01 -7.20185E-01  2.75779E-01  6.04596E-01 -4.31057E-01 -1.17870E+00 -1.25399E-01
  -1.69264E+00  8.97064E-01 -1.37459E+00 -2.66823E-01 -9.06907E-01  4.22008E-01 -1.24630E+00  1.61993E+00 -4.10674E-02  8.01897E-01
   1.61938E+00  6.97911E-01  2.53720E+00  4.20641E-02  5.03680E-01  9.68987E-01 -1.02469E+00  3.31012E-02 -1.86085E-01 -1.50439E+00
   4.26547E-01 -9.60922E-01 -1.57947E+00 -1.15968E+00  3.68296E-02 -1.26791E-01 -8.87445E-01  1.13003E-01  4.98132E-01 -3.34971E-01
   7.10779E-01 -8.82468E-01  1.26815E+00  2.10594E-01  7.27890E-01  9.88858E-02 -3.03447E-01 -4.05206E-01  2.77060E-01 -9.29892E-01
   5.72323E-01  4.56756E-01 -7.16130E-02  1.03473E-02  9.97021E-01 -2.85648E-01  9.88259E-01  3.05483E-01 -3.31412E-01 -4.98798E-01
  -1.72210E+00 -2.93943E-01 -1.44296E-01  1.24065E+00 -4.34571E-01 -9.09247E-01  6.55623E-01  1.09351E+00 -3.11595E-01 -1.23298E+00
  -1.36332E-01 -6.09713E-01 -8.60364E-01 -4.51198E-01 -2.24112E+00 -1.04742E-01 -7.42623E-01  3.10278E-01  2.55457E-01  4.72389E-01
  -4.81722E-01 -8.28240E-01  6.40819E-01  1.37214E+00  1.17357E+00 -2.94798E-01 -2.31147E-01 -6.87869E-01 -5.39943E-01  4.58756E-01
  -2.32340E+00 -4.49061E-01  1.29310E+00 -8.18121E-01  6.55421E-01  2.35251E-01  6.83006E-01 -4.19760E-03 -4.39302E-01 -1.16936E+00
  -1.01237E+00 -9.55348E-01 -2.24575E+00  3.65915E-01 -9.55862E-01  3.16494E-01  6.70371E-01  8.86267E-01 -1.34957E+00 -9.21426E-01
  -1.31015E-01 -7.22001E-01 -7.29387E-01  2.01753E-01 -1.44578E+00 -6.29013E-01 -6.32190E-01 -8.73876E-01 -1.12637E+00  1.57961E+00
  -1.86127E+00  2.04373E-01 -2.78050E-01  1.42921E+00  3.60784E-01  5.29888E-01 -1.65161E-01 -5.40990E-03  8.92112E-01  6.16058E-01
  -1.27935E+00  1.26683E+00 -3.64504E-01 -4.89159E-01  2.82737E-01 -9.78824E-01 -2.88211E-01  6.15256E-01  2.59926E-01 -9.61726E-01
   2.57488E-01  1.14060E+00 -8.76370E-01  9.72632E-02 -5.99185E-01  6.60523E-01 -2.84170E-01 -4.75767E-01
 NY points of the fit to the data follow
  -2.85933E+00 -2.87696E+00 -2.93060E+00 -2.89695E+00 -2.88622E+00 -2.77516E+00 -2.69603E+00 -2.57087E+00 -2.62161E+00 -2.49453E+00
  -2.70374E+00 -2.56123E+00 -2.91945E+00 -2.71791E+00 -3.10414E+00 -2.73529E+00 -3.17645E+00 -2.63964E+00 -3.12005E+00 -2.45156E+00
  -2.97362E+00 -2.22197E+00 -2.86978E+00 -2.08445E+00 -2.87498E+00 -2.08456E+00 -2.95881E+00 -2.15362E+00 -3.00447E+00 -2.17148E+00
  -2.96522E+00 -2.15508E+00 -2.89401E+00 -2.14539E+00 -2.82177E+00 -2.15778E+00 -2.74637E+00 -2.18646E+00 -2.70037E+00 -2.26880E+00
  -2.72625E+00 -2.40016E+00 -2.80455E+00 -2.56451E+00 -2.86864E+00 -2.68209E+00 -2.87151E+00 -2.74494E+00 -2.90742E+00 -2.83349E+00
  -2.96914E+00 -2.94658E+00 -3.05738E+00 -3.05642E+00 -3.11023E+00 -3.08841E+00 -3.13596E+00 -3.11927E+00 -3.15768E+00 -3.14742E+00
  -3.17608E+00 -3.16987E+00 -3.20631E+00 -3.20423E+00 -3.24060E+00 -3.24644E+00 -3.28335E+00 -3.29205E+00 -3.32406E+00 -3.33692E+00
  -3.37008E+00 -3.39761E+00 -3.43003E+00 -3.46355E+00 -3.48685E+00 -3.51953E+00 -3.53042E+00 -3.56055E+00 -3.55384E+00 -3.58335E+00
  -3.55671E+00 -3.57801E+00 -3.52780E+00 -3.52843E+00 -3.41878E+00 -3.34785E+00 -3.24875E+00 -3.11995E+00 -3.06770E+00 -2.88623E+00
  -2.90428E+00 -2.68229E+00 -2.78927E+00 -2.54965E+00 -2.74321E+00 -2.50977E+00 -2.76326E+00 -2.54020E+00 -2.82241E+00 -2.60713E+00
  -2.90163E+00 -2.69655E+00 -3.00082E+00 -2.81693E+00 -3.12299E+00 -2.96790E+00 -3.25277E+00 -3.12214E+00 -3.37248E+00 -3.26842E+00
  -3.48034E+00 -3.40451E+00 -3.56971E+00 -3.51943E+00 -3.62751E+00 -3.58864E+00 -3.64097E+00 -3.60250E+00 -3.61545E+00 -3.57941E+00
  -3.57963E+00 -3.55820E+00 -3.54750E+00 -3.53629E+00 -3.50515E+00 -3.48562E+00 -3.46655E+00 -3.45959E+00 -3.45313E+00 -3.45811E+00
  -3.46348E+00 -3.47959E+00 -3.49569E+00 -3.52133E+00 -3.54645E+00 -3.57988E+00 -3.61294E+00 -3.65169E+00 -3.68956E+00 -3.73060E+00
  -3.76994E+00 -3.81063E+00 -3.85038E+00 -3.88864E+00 -3.92711E+00 -3.96139E+00 -3.99738E+00 -4.02684E+00 -4.05996E+00 -4.08456E+00
  -4.11482E+00 -4.13523E+00 -4.16275E+00 -4.17764E+00 -4.20128E+00 -4.21070E+00 -4.23091E+00 -4.23672E+00 -4.25414E+00 -4.25650E+00
  -4.27155E+00 -4.27108E+00 -4.28363E+00 -4.28149E+00 -4.29246E+00 -4.28886E+00 -4.29600E+00 -4.29060E+00 -4.29344E+00 -4.28599E+00
  -4.28362E+00 -4.27583E+00 -4.26839E+00 -4.26119E+00 -4.25019E+00 -4.24985E+00 -4.25368E+00 -4.26416E+00 -4.29756E+00 -4.32798E+00
  -4.37788E+00 -4.42037E+00 -4.46523E+00 -4.48321E+00 -4.47387E+00 -4.45605E+00 -4.39487E+00 -4.32840E+00 -4.23220E+00 -4.15375E+00
  -4.07417E+00 -4.05594E+00 -4.10321E+00 -4.12632E+00 -4.22016E+00 -4.26676E+00 -4.36110E+00 -4.40664E+00 -4.45485E+00 -4.46849E+00
  -4.43178E+00 -4.40163E+00 -4.27576E+00 -4.21993E+00 -4.04149E+00 -3.98271E+00 -3.78644E+00 -3.73684E+00 -3.54087E+00 -3.49407E+00
  -3.29276E+00 -3.24321E+00 -3.02961E+00 -2.98140E+00 -2.76840E+00 -2.72014E+00 -2.51492E+00 -2.47852E+00 -2.33771E+00 -2.30798E+00
  -2.20411E+00 -2.16344E+00 -2.07898E+00 -1.99286E+00 -1.91893E+00 -1.85358E+00 -1.77494E+00 -1.74967E+00 -1.63958E+00 -1.68804E+00
  -1.56105E+00 -1.70816E+00 -1.58690E+00 -1.76898E+00 -1.57721E+00 -1.73470E+00 -1.45577E+00 -1.53481E+00 -1.13205E+00 -1.15842E+00
  -6.68019E-01 -6.97240E-01 -1.61198E-01 -2.26130E-01  3.22317E-01  2.10860E-01  7.37192E-01  5.71520E-01  1.03366E+00  8.16491E-01
   1.18681E+00  9.32582E-01  1.20712E+00  9.35977E-01  1.13178E+00  8.47466E-01  9.65193E-01  6.53800E-01  6.69931E-01  3.32913E-01
   2.84966E-01 -4.67549E-02 -1.35963E-01 -4.34373E-01 -5.51233E-01 -8.30852E-01 -9.65501E-01 -1.20903E+00 -1.35185E+00 -1.55794E+00
  -1.69501E+00 -1.86993E+00 -1.99626E+00 -2.14234E+00 -2.25810E+00 -2.38172E+00 -2.48728E+00 -2.58462E+00 -2.66809E+00 -2.75096E+00
  -2.82195E+00 -2.89474E+00 -2.95259E+00 -3.01118E+00 -3.05406E+00 -3.09689E+00 -3.12327E+00 -3.14756E+00 -3.15418E+00 -3.15601E+00
  -3.13793E+00 -3.11080E+00 -3.06028E+00 -2.99454E+00 -2.90048E+00 -2.78378E+00 -2.63300E+00 -2.45160E+00 -2.23047E+00 -1.97165E+00
  -1.66850E+00 -1.32230E+00 -9.28824E-01 -4.88343E-01  2.77535E-03  5.49044E-01  1.16223E+00  1.87479E+00  2.78463E+00  3.89760E+00
   4.60022E+00  5.80865E+00  6.04662E+00  7.17597E+00  6.76228E+00  7.58480E+00  6.34323E+00  7.24103E+00  5.58674E+00  6.58111E+00
   4.80863E+00  5.95540E+00  4.30344E+00  5.64537E+00  4.22446E+00  5.64208E+00  4.39671E+00  5.63858E+00  4.49838E+00  5.48294E+00
   4.40133E+00  5.12556E+00  4.12702E+00  4.64624E+00  3.76886E+00  4.03927E+00  3.30110E+00  3.38878E+00  2.83445E+00  2.85893E+00
   2.49489E+00  2.56199E+00  2.32427E+00  2.41280E+00  2.15580E+00  2.13108E+00  1.81528E+00  1.72159E+00  1.42172E+00  1.42802E+00
   1.05185E+00  1.08259E+00  7.45469E-01  7.68677E-01  4.37694E-01  4.00646E-01  3.94933E-02  1.02601E-01 -1.14871E-01 -1.89823E-02
  -1.52424E-01 -4.55789E-02 -1.27212E-01 -3.99070E-02 -1.04009E-01 -7.67485E-02 -1.34551E-01 -1.50677E-01 -1.92611E-01 -2.02097E-01
  -2.46404E-01 -2.66241E-01 -3.04165E-01 -3.39144E-01 -3.75719E-01 -4.29149E-01 -4.66245E-01 -4.89226E-01 -5.03904E-01 -5.08450E-01
  -5.05802E-01 -4.93163E-01 -4.73151E-01 -4.42917E-01 -4.05181E-01 -3.57279E-01 -3.02192E-01 -2.37548E-01 -1.66650E-01 -8.74435E-02
  -3.55829E-03  8.67398E-02  1.79511E-01  2.76215E-01  3.72676E-01  4.70176E-01  5.64422E-01  6.56650E-01  7.42589E-01  8.23586E-01
   8.95560E-01  9.60137E-01  1.01357E+00  1.05790E+00  1.08981E+00  1.11181E+00  1.12108E+00  1.12061E+00  1.10803E+00  1.08676E+00
   1.05479E+00  1.01582E+00  9.68083E-01  9.15440E-01  8.56207E-01  7.94266E-01  7.27888E-01  6.60862E-01  5.91324E-01  5.22895E-01
   4.53518E-01  3.86608E-01  3.19901E-01  2.56610E-01  1.94279E-01  1.35941E-01  7.89774E-02  2.62753E-02 -2.49046E-02 -7.17765E-02
  -1.17163E-01 -1.58348E-01 -1.98209E-01 -2.34067E-01 -2.68824E-01 -2.99820E-01 -3.29964E-01 -3.56602E-01 -3.82641E-01 -4.05424E-01
  -4.27844E-01 -4.47237E-01 -4.66484E-01 -4.82913E-01 -4.99389E-01 -5.13231E-01 -5.27287E-01 -5.38871E-01 -5.50815E-01 -5.60426E-01
  -5.70526E-01 -5.78414E-01 -5.86898E-01 -5.93276E-01 -6.00345E-01 -6.05399E-01 -6.11227E-01 -6.15120E-01 -6.19856E-01 -6.22728E-01
  -6.26505E-01 -6.28482E-01 -6.31416E-01 -6.32606E-01 -6.34801E-01 -6.35301E-01 -6.36850E-01 -6.36750E-01 -6.37737E-01 -6.37115E-01
  -6.37614E-01 -6.36545E-01 -6.36630E-01 -6.35184E-01 -6.34922E-01 -6.33163E-01 -6.32618E-01 -6.30613E-01 -6.29851E-01 -6.27665E-01
  -6.26750E-01 -6.24449E-01 -6.23451E-01 -6.21107E-01 -6.20103E-01 -6.17797E-01 -6.16871E-01 -6.14695E-01 -6.13950E-01 -6.12018E-01
  -6.11581E-01 -6.10038E-01 -6.10074E-01 -6.09111E-01 -6.09847E-01 -6.09740E-01 -6.11515E-01 -6.12684E-01
 NY background values follow
    -3.890E+00   -3.903E+00   -3.917E+00   -3.931E+00   -3.944E+00   -3.957E+00   -3.970E+00   -3.983E+00   -3.996E+00   -4.009E+00
    -4.022E+00   -4.035E+00   -4.047E+00   -4.060E+00   -4.072E+00   -4.085E+00   -4.097E+00   -4.109E+00   -4.121E+00   -4.133E+00
    -4.145E+00   -4.156E+00   -4.168E+00   -4.179E+00   -4.191E+00   -4.202E+00   -4.213E+00   -4.224E+00   -4.235E+00   -4.246E+00
    -4.257E+00   -4.268E+00   -4.278E+00   -4.289E+00   -4.299E+00   -4.310E+00   -4.320E+00   -4.330E+00   -4.340E+00   -4.350E+00
    -4.360E+00   -4.369E+00   -4.379E+00   -4.389E+00   -4.398E+00   -4.407E+00   -4.417E+00   -4.426E+00   -4.435E+00   -4.444E+00
    -4.452E+00   -4.461E+00   -4.470E+00   -4.478E+00   -4.487E+00   -4.495E+00   -4.503E+00   -4.512E+00   -4.520E+00   -4.528E+00
    -4.535E+00   -4.543E+00   -4.551E+00   -4.558E+00   -4.566E+00   -4.573E+00   -4.580E+00   -4.588E+00   -4.595E+00   -4.602E+00
    -4.609E+00   -4.615E+00   -4.622E+00   -4.629E+00   -4.635E+00   -4.642E+00   -4.648E+00   -4.654E+00   -4.660E+00   -4.666E+00
    -4.672E+00   -4.678E+00   -4.684E+00   -4.689E+00   -4.695E+00   -4.700E+00   -4.706E+00   -4.711E+00   -4.716E+00   -4.721E+00
    -4.726E+00   -4.731E+00   -4.736E+00   -4.740E+00   -4.745E+00   -4.749E+00   -4.754E+00   -4.758E+00   -4.762E+00   -4.766E+00
    -4.770E+00   -4.774E+00   -4.778E+00   -4.782E+00   -4.785E+00   -4.789E+00   -4.792E+00   -4.796E+00   -4.799E+00   -4.802E+00
    -4.805E+00   -4.808E+00   -4.811E+00   -4.814E+00   -4.817E+00   -4.819E+00   -4.822E+00   -4.824E+00   -4.827E+00   -4.829E+00
    -4.831E+00   -4.833E+00   -4.835E+00   -4.837E+00   -4.839E+00   -4.841E+00   -4.842E+00   -4.844E+00   -4.845E+00   -4.847E+00
    -4.848E+00   -4.849E+00   -4.850E+00   -4.851E+00   -4.852E+00   -4.853E+00   -4.854E+00   -4.854E+00   -4.855E+00   -4.855E+00
    -4.856E+00   -4.856E+00   -4.856E+00   -4.856E+00   -4.856E+00   -4.856E+00   -4.856E+00   -4.856E+00   -4.856E+00   -4.855E+00
    -4.855E+00   -4.854E+00   -4.854E+00   -4.853E+00   -4.852E+00   -4.851E+00   -4.850E+00   -4.849E+00   -4.848E+00   -4.847E+00
    -4.845E+00   -4.844E+00   -4.843E+00   -4.841E+00   -4.839E+00   -4.838E+00   -4.836E+00   -4.834E+00   -4.832E+00   -4.830E+00
    -4.828E+00   -4.825E+00   -4.823E+00   -4.821E+00   -4.818E+00   -4.816E+00   -4.813E+00   -4.810E+00   -4.808E+00   -4.805E+00
    -4.802E+00   -4.799E+00   -4.796E+00   -4.793E+00   -4.789E+00   -4.786E+00   -4.783E+00   -4.779E+00   -4.776E+00   -4.772E+00
    -4.768E+00   -4.764E+00   -4.761E+00   -4.757E+00   -4.753E+00   -4.749E+00   -4.744E+00   -4.740E+00   -4.736E+00   -4.731E+00
    -4.727E+00   -4.722E+00   -4.718E+00   -4.713E+00   -4.708E+00   -4.704E+00   -4.699E+00   -4.694E+00   -4.689E+00   -4.684E+00
    -4.678E+00   -4.673E+00   -4.668E+00   -4.662E+00   -4.657E+00   -4.652E+00   -4.646E+00   -4.640E+00   -4.635E+00   -4.629E+00
    -4.623E+00   -4.617E+00   -4.611E+00   -4.605E+00   -4.599E+00   -4.592E+00   -4.586E+00   -4.580E+00   -4.573E+00   -4.567E+00
    -4.560E+00   -4.554E+00   -4.547E+00   -4.540E+00   -4.534E+00   -4.527E+00   -4.520E+00   -4.513E+00   -4.506E+00   -4.499E+00
    -4.491E+00   -4.484E+00   -4.477E+00   -4.470E+00   -4.462E+00   -4.455E+00   -4.447E+00   -4.440E+00   -4.432E+00   -4.424E+00
    -4.416E+00   -4.408E+00   -4.401E+00   -4.393E+00   -4.385E+00   -4.377E+00   -4.368E+00   -4.360E+00   -4.352E+00   -4.344E+00
    -4.335E+00   -4.327E+00   -4.318E+00   -4.310E+00   -4.301E+00   -4.293E+00   -4.284E+00   -4.275E+00   -4.266E+00   -4.258E+00
    -4.249E+00   -4.240E+00   -4.231E+00   -4.222E+00   -4.213E+00   -4.203E+00   -4.194E+00   -4.185E+00   -4.176E+00   -4.166E+00
    -4.157E+00   -4.147E+00   -4.138E+00   -4.128E+00   -4.119E+00   -4.109E+00   -4.099E+00   -4.090E+00   -4.080E+00   -4.070E+00
    -4.060E+00   -4.050E+00   -4.040E+00   -4.030E+00   -4.020E+00   -4.010E+00   -4.000E+00   -3.990E+00   -3.979E+00   -3.969E+00
    -3.959E+00   -3.948E+00   -3.938E+00   -3.927E+00   -3.917E+00   -3.906E+00   -3.896E+00   -3.885E+00   -3.874E+00   -3.864E+00
    -3.853E+00   -3.842E+00   -3.831E+00   -3.820E+00   -3.810E+00   -3.799E+00   -3.788E+00   -3.777E+00   -3.766E+00   -3.755E+00
    -3.743E+00   -3.732E+00   -3.721E+00   -3.710E+00   -3.699E+00   -3.687E+00   -3.676E+00   -3.665E+00   -3.653E+00   -3.642E+00
    -3.630E+00   -3.619E+00   -3.607E+00   -3.596E+00   -3.584E+00   -3.572E+00   -3.561E+00   -3.549E+00   -3.537E+00   -3.526E+00
    -3.514E+00   -3.502E+00   -3.490E+00   -3.478E+00   -3.467E+00   -3.455E+00   -3.443E+00   -3.431E+00   -3.419E+00   -3.407E+00
    -3.395E+00   -3.383E+00   -3.371E+00   -3.358E+00   -3.346E+00   -3.334E+00   -3.322E+00   -3.310E+00   -3.298E+00   -3.285E+00
    -3.273E+00   -3.261E+00   -3.248E+00   -3.236E+00   -3.224E+00   -3.211E+00   -3.199E+00   -3.187E+00   -3.174E+00   -3.162E+00
    -3.149E+00   -3.137E+00   -3.124E+00   -3.112E+00   -3.099E+00   -3.087E+00   -3.074E+00   -3.062E+00   -3.049E+00   -3.036E+00
    -3.024E+00   -3.011E+00   -2.998E+00   -2.986E+00   -2.973E+00   -2.960E+00   -2.948E+00   -2.935E+00   -2.922E+00   -2.909E+00
    -2.897E+00   -2.884E+00   -2.871E+00   -2.858E+00   -2.846E+00   -2.833E+00   -2.820E+00   -2.807E+00   -2.794E+00   -2.782E+00
    -2.769E+00   -2.756E+00   -2.743E+00   -2.730E+00   -2.717E+00   -2.704E+00   -2.692E+00   -2.679E+00   -2.666E+00   -2.653E+00
    -2.640E+00   -2.627E+00   -2.614E+00   -2.601E+00   -2.588E+00   -2.576E+00   -2.563E+00   -2.550E+00   -2.537E+00   -2.524E+00
    -2.511E+00   -2.498E+00   -2.485E+00   -2.472E+00   -2.459E+00   -2.446E+00   -2.434E+00   -2.421E+00   -2.408E+00   -2.395E+00
    -2.382E+00   -2.369E+00   -2.356E+00   -2.343E+00   -2.331E+00   -2.318E+00   -2.305E+00   -2.292E+00   -2.279E+00   -2.266E+00
    -2.253E+00   -2.241E+00   -2.228E+00   -2.215E+00   -2.202E+00   -2.189E+00   -2.177E+00   -2.164E+00   -2.151E+00   -2.138E+00
    -2.126E+00   -2.113E+00   -2.100E+00   -2.087E+00   -2.075E+00   -2.062E+00   -2.049E+00   -2.037E+00   -2.024E+00   -2.011E+00
    -1.999E+00   -1.986E+00   -1.974E+00   -1.961E+00   -1.948E+00   -1.936E+00   -1.923E+00   -1.911E+00   -1.898E+00   -1.886E+00
    -1.873E+00   -1.861E+00   -1.849E+00   -1.836E+00   -1.824E+00   -1.811E+00   -1.799E+00   -1.787E+00   -1.774E+00   -1.762E+00
    -1.750E+00   -1.738E+00   -1.725E+00   -1.713E+00   -1.701E+00   -1.689E+00   -1.677E+00   -1.665E+00   -1.652E+00   -1.640E+00
    -1.628E+00   -1.616E+00   -1.604E+00   -1.592E+00   -1.580E+00   -1.568E+00   -1.557E+00   -1.545E+00
 Ala      Conc. = 1.64E+03
