 LCModel (Version 6.3-1L) Copyright: S.W. Provencher.          Ref.: Magn. Reson. Med. 30:672-679 (1993).                
 Slice#3 Row#2 Col#2  PD_24_press_2_raw_act
 36 lines in following concentration table = NCONC+1
    Conc.  %SD /Cr+PCr  Metabolite                                         
    0.000 999%   0.000 Ala                                                 
   27.011  84%   0.225 Asp                                                 
   24.539 221%   0.204 Cr                                                  
   95.578  65%   0.796 PCr                                                 
   11.806 115% 9.8E-02 GABA                                                
   14.506  94%   0.121 Glc                                                 
    0.000 999%   0.000 Gln                                                 
  258.675  48%   2.154 Glu                                                 
   16.273 327%   0.135 GPC                                                 
   29.150 179%   0.243 PCh                                                 
   66.933  63%   0.557 GSH                                                 
    0.000 999%   0.000 Ins                                                 
    0.000 999%   0.000 Lac                                                 
  193.954  31%   1.615 NAA                                                 
    0.000 999%   0.000 NAAG                                                
    5.197  86% 4.3E-02 Scyllo                                              
   26.250  86%   0.219 Tau                                                 
    3.760 802% 3.1E-02 -CrCH2                                              
   45.423  37%   0.378 GPC+PCh                                             
  193.954  31%   1.615 NAA+NAAG                                            
  120.118  38%   1.000 Cr+PCr                                              
  258.675  48%   2.154 Glu+Gln                                             
 1.01E+03  74%   8.374 Lip13a                                              
  197.099 205%   1.641 Lip13b                                              
  285.344  47%   2.376 Lip09                                               
 1.02E+03  22%   8.519 MM09                                                
  190.082  41%   1.582 Lip20                                               
 1.69E+03  20%  14.102 MM20                                                
  307.975  26%   2.564 MM12                                                
 1.13E+03  20%   9.403 MM14                                                
  334.048  39%   2.781 MM17                                                
 1.20E+03  39%  10.015 Lip13a+Lip13b                                       
 2.64E+03  14%  21.982 MM14+Lip13a+Lip13b+MM12                             
 1.31E+03  15%  10.895 MM09+Lip09                                          
 1.88E+03  17%  15.684 MM20+Lip20                                          
   6 lines in following misc. output table
  FWHM = 0.038 ppm    S/N =   2                                            
  Data shift =-0.015 ppm                                                   
  Ph: -99 deg     -44.3 deg/ppm                                            
  alphaB,S = 8.5E+01,   6.4E+00                                            
   14 spline knots.   Ns = 5(1)                                            
   2 inflections.     2 extrema                                            
  498 points on ppm-axis = NY
      4.000000     3.992357     3.984714     3.977070     3.969427     3.961784     3.954141     3.946497     3.938854     3.931211
      3.923568     3.915925     3.908281     3.900638     3.892995     3.885352     3.877708     3.870065     3.862422     3.854779
      3.847136     3.839492     3.831849     3.824206     3.816563     3.808919     3.801276     3.793633     3.785990     3.778347
      3.770703     3.763060     3.755417     3.747774     3.740130     3.732487     3.724844     3.717201     3.709558     3.701914
      3.694271     3.686628     3.678985     3.671341     3.663698     3.656055     3.648412     3.640769     3.633125     3.625482
      3.617839     3.610196     3.602552     3.594909     3.587266     3.579623     3.571980     3.564336     3.556693     3.549050
      3.541407     3.533763     3.526120     3.518477     3.510834     3.503191     3.495547     3.487904     3.480261     3.472618
      3.464974     3.457331     3.449688     3.442045     3.434402     3.426758     3.419115     3.411472     3.403829     3.396185
      3.388542     3.380899     3.373256     3.365613     3.357969     3.350326     3.342683     3.335040     3.327396     3.319753
      3.312110     3.304467     3.296824     3.289180     3.281537     3.273894     3.266251     3.258607     3.250964     3.243321
      3.235678     3.228034     3.220391     3.212748     3.205105     3.197462     3.189818     3.182175     3.174532     3.166889
      3.159245     3.151602     3.143959     3.136316     3.128673     3.121029     3.113386     3.105743     3.098100     3.090456
      3.082813     3.075170     3.067527     3.059884     3.052240     3.044597     3.036954     3.029311     3.021667     3.014024
      3.006381     2.998738     2.991095     2.983451     2.975808     2.968165     2.960522     2.952878     2.945235     2.937592
      2.929949     2.922306     2.914662     2.907019     2.899376     2.891733     2.884089     2.876446     2.868803     2.861160
      2.853517     2.845873     2.838230     2.830587     2.822944     2.815300     2.807657     2.800014     2.792371     2.784728
      2.777084     2.769441     2.761798     2.754155     2.746511     2.738868     2.731225     2.723582     2.715939     2.708295
      2.700652     2.693009     2.685366     2.677722     2.670079     2.662436     2.654793     2.647150     2.639506     2.631863
      2.624220     2.616577     2.608933     2.601290     2.593647     2.586004     2.578361     2.570717     2.563074     2.555431
      2.547788     2.540144     2.532501     2.524858     2.517215     2.509572     2.501928     2.494285     2.486642     2.478999
      2.471355     2.463712     2.456069     2.448426     2.440783     2.433139     2.425496     2.417853     2.410210     2.402566
      2.394923     2.387280     2.379637     2.371994     2.364350     2.356707     2.349064     2.341421     2.333777     2.326134
      2.318491     2.310848     2.303205     2.295561     2.287918     2.280275     2.272632     2.264988     2.257345     2.249702
      2.242059     2.234416     2.226772     2.219129     2.211486     2.203843     2.196199     2.188556     2.180913     2.173270
      2.165627     2.157983     2.150340     2.142697     2.135054     2.127410     2.119767     2.112124     2.104481     2.096838
      2.089194     2.081551     2.073908     2.066265     2.058621     2.050978     2.043335     2.035692     2.028049     2.020405
      2.012762     2.005119     1.997476     1.989833     1.982190     1.974546     1.966903     1.959260     1.951617     1.943974
      1.936331     1.928688     1.921045     1.913402     1.905759     1.898115     1.890472     1.882829     1.875186     1.867543
      1.859900     1.852257     1.844614     1.836971     1.829327     1.821684     1.814041     1.806398     1.798755     1.791112
      1.783469     1.775826     1.768183     1.760540     1.752896     1.745253     1.737610     1.729967     1.722324     1.714681
      1.707038     1.699395     1.691752     1.684108     1.676465     1.668822     1.661179     1.653536     1.645893     1.638250
      1.630607     1.622964     1.615321     1.607677     1.600034     1.592391     1.584748     1.577105     1.569462     1.561819
      1.554176     1.546533     1.538890     1.531246     1.523603     1.515960     1.508317     1.500674     1.493031     1.485388
      1.477745     1.470102     1.462458     1.454815     1.447172     1.439529     1.431886     1.424243     1.416600     1.408957
      1.401314     1.393671     1.386027     1.378384     1.370741     1.363098     1.355455     1.347812     1.340169     1.332526
      1.324883     1.317240     1.309596     1.301953     1.294310     1.286667     1.279024     1.271381     1.263738     1.256095
      1.248452     1.240808     1.233165     1.225522     1.217879     1.210236     1.202593     1.194950     1.187307     1.179664
      1.172021     1.164377     1.156734     1.149091     1.141448     1.133805     1.126162     1.118519     1.110876     1.103233
      1.095590     1.087946     1.080303     1.072660     1.065017     1.057374     1.049731     1.042088     1.034445     1.026802
      1.019158     1.011515     1.003872     0.996229     0.988586     0.980943     0.973300     0.965657     0.958014     0.950371
      0.942727     0.935084     0.927441     0.919798     0.912155     0.904512     0.896869     0.889226     0.881583     0.873940
      0.866296     0.858653     0.851010     0.843367     0.835724     0.828081     0.820438     0.812795     0.805152     0.797508
      0.789865     0.782222     0.774579     0.766936     0.759293     0.751650     0.744007     0.736364     0.728721     0.721077
      0.713434     0.705791     0.698148     0.690505     0.682862     0.675219     0.667576     0.659933     0.652290     0.644646
      0.637003     0.629360     0.621717     0.614074     0.606431     0.598788     0.591145     0.583502     0.575858     0.568215
      0.560572     0.552929     0.545286     0.537643     0.530000     0.522357     0.514714     0.507071     0.499427     0.491784
      0.484141     0.476498     0.468855     0.461212     0.453569     0.445925     0.438282     0.430639     0.422996     0.415353
      0.407710     0.400067     0.392424     0.384780     0.377137     0.369494     0.361851     0.354208     0.346565     0.338922
      0.331278     0.323635     0.315992     0.308349     0.300706     0.293063     0.285420     0.277777     0.270133     0.262490
      0.254847     0.247204     0.239561     0.231918     0.224275     0.216631     0.208988     0.201345
 NY phased data points follow
  -1.34541E+00 -6.83632E+00 -5.42372E-01 -2.02866E+00 -1.42267E+01 -3.94282E+00 -5.16693E+00  6.83545E+00 -3.72781E+00  1.75723E+00
   8.46302E+00 -1.27618E+00  1.17544E+01  1.20038E+01 -4.62365E+00  1.99996E+00  8.47034E+00  1.04351E+01  3.26563E+00  3.10332E+00
  -1.25131E+00  4.59990E+00 -2.15411E+00 -2.59572E+00  1.98092E-01 -1.06712E+01 -5.24082E+00  9.99353E+00  8.06902E+00  5.37821E+00
   6.69675E+00  4.35931E+00  6.85808E+00  2.11201E+00  2.28318E+00  3.18067E+00 -8.23978E-01  4.15737E+00 -5.63414E-01  2.75913E+00
  -2.59088E+00  4.26325E+00 -2.45859E+00  7.63022E+00  2.81280E+00 -1.80786E+00  6.91834E+00  2.63588E+00 -4.10038E+00  1.71145E+00
  -2.24796E+00 -1.29723E+00  1.59203E+00 -3.05525E+00 -4.66262E+00  4.20986E+00 -4.26570E-02  1.47443E-01 -2.74996E+00  3.92959E+00
  -1.44992E+00  6.89217E-01  3.77391E+00  8.11806E+00 -6.05842E+00  4.90793E-01  1.49425E+00 -5.00991E+00  3.14416E+00  6.55847E-01
   5.28569E+00  4.61525E+00 -1.84147E+00  1.10679E+01  5.62558E+00  1.92272E+00  8.20039E+00  3.68209E+00  4.30734E+00  8.93794E+00
  -2.16507E+00  1.96840E+00 -1.32134E+00  3.93150E+00  2.12237E+00 -6.21508E-01  6.01531E+00  6.93841E+00 -2.07225E+00  6.38855E+00
   6.78453E-01  5.26477E+00  9.84863E+00  4.71913E+00  2.18036E+00 -6.28680E+00 -4.67739E+00 -5.09590E+00 -6.21587E+00  2.74304E+00
  -1.57461E+00 -2.21214E+00 -1.00037E+01  7.15608E+00  9.46286E+00  1.44737E+01  9.39178E+00  1.17363E+01  1.21204E+01  7.60462E+00
   1.99152E+00  3.68930E+00  5.34428E+00 -2.30743E-01  2.35780E+00 -7.76424E-01 -5.40467E-01  8.36268E+00 -5.16756E+00 -2.06657E+00
  -3.97250E-01 -3.59978E+00 -1.06638E+01 -1.33493E+01 -5.45435E+00 -3.07464E+00 -1.63547E+00  1.08271E+00  8.20409E+00  8.76891E+00
   1.11126E+01  2.69132E+00  4.63246E+00  1.54278E+01  1.27427E+01  2.96824E+00 -5.33250E+00  9.85964E+00 -2.81003E+00  9.20702E+00
   1.40134E+00  6.52189E-02 -1.61755E+00  6.75839E+00 -2.60010E+00  9.38287E+00  3.47594E+00  5.31744E-01  3.50335E+00 -2.26585E+00
   1.83674E+01  1.02269E+01  6.14421E+00  3.25194E+00  6.14703E+00  5.51586E+00  9.21036E-02  8.09899E+00 -1.36952E+00  6.71664E+00
  -1.85806E+00  3.29178E+00  4.30447E+00  3.28409E+00 -1.95733E+00  2.21843E+00 -3.29397E+00  1.56866E+00 -4.67763E-01 -8.13685E-01
  -7.92506E-01  1.56776E+00  3.90555E+00 -5.58753E+00  3.10819E+00  1.10027E+01 -4.09149E+00  3.43861E+00  5.41612E-01  3.89684E+00
   5.56489E+00 -2.79872E+00 -1.46161E+00 -1.44697E+00  2.25420E+00  3.99123E+00  6.05349E+00  2.18912E+00  4.42758E+00  2.16220E+00
   8.02685E+00  1.54312E+00  2.14674E+00 -3.77991E+00  1.58954E+00  2.91129E+00  7.03898E+00  4.44122E+00  2.21117E+00  9.34917E-01
  -7.18198E+00  1.60426E+00 -6.45153E-02  5.86342E+00  1.06649E+00  2.10089E+00  4.45209E-01 -6.31697E+00  1.39733E+00  5.24951E+00
   6.79650E+00  2.03177E+00  6.60700E+00  1.17970E+01 -4.29550E+00  3.54248E+00  5.89448E+00  9.52094E+00  5.57826E+00  1.29729E+01
   1.78233E+01  1.16994E+01  1.04083E+01  1.08092E+01  1.91323E+00  1.34293E+01  4.35369E+00  4.22597E+00 -7.45999E+00  8.32559E+00
   1.57815E+01  1.09985E+01  4.66870E+00  1.78130E+01  1.10095E+01  1.51670E+01  6.56432E+00  1.94930E+01  8.64204E+00  2.15400E+00
   1.10696E+01  1.10921E+01  1.70086E+01  2.25461E+00  3.25553E+00  1.20553E+01  6.72270E+00  8.71088E+00  1.09184E+01  9.91706E+00
   1.74860E+01  1.06811E+01  1.26645E+01  1.18363E+01  3.44026E+00  1.77231E+01 -1.96983E+00 -6.45103E+00  4.85536E-02  6.16610E+00
   1.63364E+01  7.81954E+00  1.44593E+01  1.47627E+01  2.46350E+01  2.09956E+01  2.54027E+01  1.32464E+01  1.74779E+01  1.04435E+01
   9.52792E+00  1.08764E+01  1.60633E+01  6.32404E+00  9.35344E+00  1.26317E+00  6.69732E+00  1.18705E+01  1.53568E+00  7.38167E+00
   7.62992E+00  9.28826E+00  7.77895E+00  1.38523E+01  6.87289E+00  2.03333E+00  1.34794E+01  1.60111E+01  8.99199E+00  4.85309E+00
   3.02793E+00  6.26691E+00  7.41835E+00  5.34083E+00  4.33135E+00  2.28092E+00 -4.09320E+00  5.32188E+00  7.18118E+00 -5.36672E+00
   3.39529E+00 -2.93065E+00 -2.82003E+00  1.83806E+00  1.55781E+00  3.75896E+00  2.24805E+00 -3.92334E+00  4.86554E+00 -4.08594E+00
   2.67710E-01 -7.16311E+00  2.81901E+00 -3.60955E+00  1.71976E+00  2.29153E+00 -5.95456E+00 -5.23521E+00 -6.57595E+00 -4.40599E+00
   8.43377E+00  1.43784E+00 -2.49262E+00  1.04352E+00  7.94326E+00  5.12182E+00  9.30386E+00  4.25516E+00  1.22033E+01  1.73483E+01
   1.36716E+01  1.58718E+01  1.84639E+01  1.43453E+01  1.97955E+01  1.88837E+01  2.51775E+01  2.03561E+01  1.27330E+01  1.29394E+01
   1.33569E+01  1.35475E+01  1.02969E+01  1.59147E+01  2.06611E+01  2.36884E+01  1.83430E+01  1.11572E+01  1.21075E+01  6.34844E+00
   1.21517E+01  1.00695E+01  1.87180E+01  9.77722E+00  1.79997E+01  9.97980E+00  1.37130E+01  1.20848E+01  1.50293E+01  1.66812E+01
   1.43777E+01  1.24092E+01  6.97039E+00  1.20888E+01  8.53001E+00  2.00564E+00  5.47180E+00  7.37759E+00  1.63612E+01  7.30195E+00
   2.98560E+00  4.42851E+00  3.48792E+00  1.18477E+01  2.90168E+00  1.07996E+01  1.23378E+01 -1.34581E+00  8.67765E+00  1.73130E+00
   4.47777E+00  1.29986E+01  7.76746E+00  1.33028E+01  2.39825E+00  3.46913E+00  3.59162E+00  4.57387E+00  4.94317E+00 -4.32787E+00
  -8.79359E+00  1.19783E+00  3.66505E+00  7.30184E+00 -2.89683E-01  3.24653E+00 -1.47586E+00  1.41978E+01  5.01030E-01 -9.24212E-01
   1.29363E+01  3.33225E+00  4.25769E+00  6.11450E+00  6.47149E+00  4.89190E+00  1.17055E+01  1.19634E+00  6.94240E+00  5.75952E-01
   7.17323E+00  3.37425E-02  5.51088E+00  7.36453E+00  9.76048E+00  1.21420E+01  1.59822E+00  8.33368E-01  1.36961E+01  1.30980E-01
   3.45704E+00  4.69678E+00  4.91065E+00  5.29216E+00  1.48547E+00 -5.37412E+00  4.27870E+00  3.35627E+00 -2.02187E+00  8.48733E-01
   3.71978E-01 -3.33621E+00  1.19940E+01  3.89591E+00  1.09646E+00 -2.88423E+00  6.03742E+00  1.06743E+00  1.49783E+01  1.08597E+01
   8.85865E+00  4.85369E-01  1.23958E+01  7.20893E+00  3.62087E+00 -7.93684E-02  6.24851E+00  5.29222E+00  4.70234E+00  3.23507E+00
   5.00400E+00 -3.93347E+00  4.19118E+00  1.12787E+01  9.77486E+00  9.32358E+00  8.24604E+00  3.09923E-01 -5.14296E+00  1.03584E+01
   1.18807E+00  1.18282E+01  9.87773E+00  1.67014E+00 -2.93342E-01  6.01582E+00  1.04872E+00 -1.13757E+00  4.66550E+00  7.66589E+00
   5.17545E+00  2.33117E+00  7.28058E+00 -1.15966E+00  5.87912E+00 -2.34536E+00  6.65782E+00 -5.06352E-01  1.48763E+01  5.55119E+00
  -4.66605E+00  3.50231E+00 -1.79550E+00  2.01583E+00  4.78617E+00  2.68319E+00  3.92462E+00  4.57087E+00  4.77160E+00  4.86691E+00
   3.37958E+00  1.69212E+00  2.91560E+00  7.50080E-01  5.73748E+00  2.99743E+00  5.31261E+00 -1.27795E+00
 NY points of the fit to the data follow
   8.92086E-01  8.27025E-01  6.69080E-01  5.37084E-02 -1.13644E+00 -1.78307E+00 -1.39125E+00 -3.27183E-01  1.11596E+00  2.71460E+00
   4.32361E+00  5.82101E+00  6.84576E+00  6.72043E+00  5.21520E+00  3.55688E+00  2.85986E+00  2.12204E+00  1.46449E+00  1.33096E+00
   1.37458E+00  1.32114E+00  1.08225E+00  7.98551E-01  4.95530E-01 -8.64256E-02 -3.32706E-01  8.90726E-02  9.13028E-01  1.76958E+00
   2.44073E+00  3.01349E+00  3.71914E+00  4.45967E+00  4.80759E+00  4.32617E+00  3.35942E+00  3.02687E+00  2.67847E+00  1.99458E+00
   1.18829E+00  5.92989E-01  3.80301E-01  5.49522E-01  1.03463E+00  1.64620E+00  1.98761E+00  1.85160E+00  1.59845E+00  1.44881E+00
   1.39386E+00  1.38231E+00  1.37183E+00  1.40649E+00  1.48172E+00  1.51486E+00  1.49010E+00  1.47963E+00  1.45175E+00  1.39260E+00
   1.33699E+00  1.27501E+00  1.22356E+00  1.22500E+00  1.25766E+00  1.30393E+00  1.36106E+00  1.40519E+00  1.42591E+00  1.42451E+00
   1.35592E+00  1.20438E+00  1.08242E+00  1.09051E+00  1.22027E+00  1.38989E+00  1.57643E+00  1.68984E+00  1.71390E+00  1.69506E+00
   1.58161E+00  1.23869E+00  8.59905E-01  7.66791E-01  9.53888E-01  1.29666E+00  1.64923E+00  1.89377E+00  2.05899E+00  2.25175E+00
   2.39892E+00  2.30587E+00  1.95073E+00  1.61297E+00  1.38536E+00  1.20740E+00  1.03764E+00  5.31674E-01 -1.21804E+00 -3.67342E+00
  -4.45018E+00 -2.68052E+00  6.78130E-01  4.21259E+00  7.18045E+00  9.74161E+00  1.21046E+01  1.32993E+01  1.16774E+01  7.34795E+00
   3.72496E+00  2.64550E+00  2.41528E+00  2.33190E+00  2.29312E+00  2.33073E+00  2.39444E+00  2.43663E+00  2.44781E+00  2.39376E+00
   2.11361E+00  8.66434E-01 -1.41030E+00 -2.77658E+00 -1.92921E+00  6.85897E-01  3.85690E+00  6.69627E+00  9.05781E+00  1.12327E+01
   1.29069E+01  1.26429E+01  9.70309E+00  6.37578E+00  4.89943E+00  4.26875E+00  3.66798E+00  2.98986E+00  2.30107E+00  1.77224E+00
   1.71565E+00  2.07206E+00  2.54133E+00  3.03292E+00  3.38041E+00  3.42529E+00  3.27777E+00  3.00535E+00  2.83206E+00  2.76631E+00
   2.69328E+00  2.57353E+00  2.42074E+00  2.29029E+00  2.19736E+00  2.15352E+00  2.20932E+00  2.32464E+00  2.38160E+00  2.32675E+00
   2.14922E+00  1.91504E+00  1.73808E+00  1.65364E+00  1.61682E+00  1.62433E+00  1.73499E+00  1.95478E+00  2.14009E+00  2.16949E+00
   2.08446E+00  1.96941E+00  1.97439E+00  1.96586E+00  1.80799E+00  1.60760E+00  1.50085E+00  1.51298E+00  1.49721E+00  1.39388E+00
   1.31178E+00  1.37840E+00  1.61576E+00  1.77497E+00  1.50675E+00  1.01350E+00  6.20121E-01  5.21832E-01  6.89939E-01  9.60902E-01
   1.33878E+00  1.83536E+00  2.45821E+00  3.07433E+00  3.28745E+00  2.95490E+00  2.41256E+00  1.93460E+00  1.65996E+00  1.51325E+00
   1.39858E+00  1.42791E+00  1.68347E+00  2.14565E+00  2.60366E+00  2.92551E+00  3.34605E+00  3.84642E+00  4.23705E+00  4.27720E+00
   3.73692E+00  2.74602E+00  1.31952E+00  2.02511E-01  1.83459E-01  1.12547E+00  2.65688E+00  4.57796E+00  6.65939E+00  8.58459E+00
   9.30892E+00  8.03567E+00  5.27019E+00  2.15021E+00  2.71216E-01 -4.32529E-01 -4.27294E-01  3.58544E-01  2.02340E+00  4.17022E+00
   5.67662E+00  5.95572E+00  5.58539E+00  5.28261E+00  5.22561E+00  5.55800E+00  6.30525E+00  7.29044E+00  8.12240E+00  8.64150E+00
   8.66951E+00  8.10677E+00  7.16025E+00  6.33330E+00  6.05189E+00  6.32477E+00  6.98120E+00  8.01413E+00  9.19239E+00  1.01126E+01
   1.04840E+01  1.00596E+01  9.36150E+00  8.75644E+00  8.11758E+00  6.22219E+00  2.22314E+00 -4.55197E-01  5.99032E-01  4.52583E+00
   9.26381E+00  1.35243E+01  1.72059E+01  2.06529E+01  2.33618E+01  2.29914E+01  1.77028E+01  1.08516E+01  7.98635E+00  7.03133E+00
   6.30638E+00  5.65095E+00  5.21498E+00  4.93592E+00  4.68690E+00  4.55471E+00  4.52057E+00  4.56196E+00  4.65617E+00  4.72761E+00
   4.67063E+00  4.50666E+00  4.32983E+00  4.18886E+00  4.08902E+00  4.02163E+00  3.99505E+00  4.02245E+00  4.07802E+00  4.12888E+00
   4.17663E+00  4.21374E+00  4.23968E+00  4.26109E+00  4.27939E+00  4.29334E+00  4.30052E+00  4.29902E+00  4.28897E+00  4.26955E+00
   4.24086E+00  4.20257E+00  4.15577E+00  4.10158E+00  4.04121E+00  3.97662E+00  3.91061E+00  3.84619E+00  3.78584E+00  3.73126E+00
   3.68489E+00  3.65194E+00  3.63757E+00  3.64510E+00  3.67802E+00  3.74020E+00  3.83590E+00  3.96943E+00  4.14470E+00  4.36495E+00
   4.63266E+00  4.94963E+00  5.31683E+00  5.73387E+00  6.19858E+00  6.70680E+00  7.25263E+00  7.82850E+00  8.42531E+00  9.03236E+00
   9.63757E+00  1.02280E+01  1.07909E+01  1.13139E+01  1.17861E+01  1.21976E+01  1.25408E+01  1.28108E+01  1.30056E+01  1.31266E+01
   1.31788E+01  1.31698E+01  1.31108E+01  1.30159E+01  1.29018E+01  1.27868E+01  1.26891E+01  1.26251E+01  1.26066E+01  1.26387E+01
   1.27175E+01  1.28290E+01  1.29491E+01  1.30470E+01  1.30890E+01  1.30447E+01  1.28922E+01  1.26220E+01  1.22384E+01  1.17590E+01
   1.12106E+01  1.06249E+01  1.00327E+01  9.45997E+00  8.92500E+00  8.43815E+00  8.00291E+00  7.61773E+00  7.27802E+00  6.97797E+00
   6.71200E+00  6.47568E+00  6.26601E+00  6.08128E+00  5.92063E+00  5.78370E+00  5.67057E+00  5.58161E+00  5.51741E+00  5.47849E+00
   5.46527E+00  5.47800E+00  5.51699E+00  5.58255E+00  5.67503E+00  5.79452E+00  5.94083E+00  6.11353E+00  6.31197E+00  6.53521E+00
   6.78188E+00  7.04990E+00  7.33652E+00  7.63836E+00  7.95150E+00  8.27138E+00  8.59281E+00  8.90990E+00  9.21636E+00  9.50573E+00
   9.77164E+00  1.00079E+01  1.02087E+01  1.03688E+01  1.04838E+01  1.05506E+01  1.05671E+01  1.05328E+01  1.04481E+01  1.03150E+01
   1.01365E+01  9.91662E+00  9.66061E+00  9.37403E+00  9.06282E+00  8.73304E+00  8.39081E+00  8.04205E+00  7.69222E+00  7.34610E+00
   7.00776E+00  6.68060E+00  6.36744E+00  6.07039E+00  5.79089E+00  5.52966E+00  5.28693E+00  5.06256E+00  4.85619E+00  4.66714E+00
   4.49449E+00  4.33711E+00  4.19385E+00  4.06361E+00  3.94538E+00  3.83812E+00  3.74074E+00  3.65220E+00  3.57161E+00  3.49824E+00
   3.43142E+00  3.37047E+00  3.31475E+00  3.26365E+00  3.21675E+00  3.17368E+00  3.13414E+00  3.09774E+00  3.06411E+00  3.03296E+00
   3.00412E+00  2.97745E+00  2.95277E+00  2.92985E+00  2.90846E+00  2.88850E+00  2.86993E+00  2.85268E+00  2.83663E+00  2.82160E+00
   2.80750E+00  2.79429E+00  2.78198E+00  2.77052E+00  2.75979E+00  2.74969E+00  2.74017E+00  2.73126E+00  2.72298E+00  2.71526E+00
   2.70800E+00  2.70113E+00  2.69467E+00  2.68864E+00  2.68307E+00  2.67786E+00  2.67296E+00  2.66831E+00  2.66397E+00  2.65997E+00
   2.65630E+00  2.65287E+00  2.64963E+00  2.64657E+00  2.64376E+00  2.64122E+00  2.63891E+00  2.63674E+00  2.63470E+00  2.63282E+00
   2.63115E+00  2.62969E+00  2.62838E+00  2.62714E+00  2.62601E+00  2.62502E+00  2.62421E+00  2.62355E+00
 NY background values follow
     9.168E-01    9.198E-01    9.228E-01    9.259E-01    9.289E-01    9.320E-01    9.350E-01    9.381E-01    9.411E-01    9.442E-01
     9.472E-01    9.503E-01    9.533E-01    9.563E-01    9.594E-01    9.624E-01    9.655E-01    9.685E-01    9.716E-01    9.746E-01
     9.777E-01    9.807E-01    9.838E-01    9.868E-01    9.898E-01    9.929E-01    9.959E-01    9.990E-01    1.002E+00    1.005E+00
     1.008E+00    1.011E+00    1.014E+00    1.017E+00    1.020E+00    1.023E+00    1.026E+00    1.029E+00    1.032E+00    1.036E+00
     1.039E+00    1.042E+00    1.045E+00    1.048E+00    1.051E+00    1.054E+00    1.057E+00    1.060E+00    1.063E+00    1.066E+00
     1.069E+00    1.072E+00    1.075E+00    1.078E+00    1.081E+00    1.084E+00    1.087E+00    1.090E+00    1.093E+00    1.096E+00
     1.099E+00    1.103E+00    1.106E+00    1.109E+00    1.112E+00    1.115E+00    1.118E+00    1.121E+00    1.124E+00    1.127E+00
     1.130E+00    1.133E+00    1.136E+00    1.139E+00    1.142E+00    1.145E+00    1.148E+00    1.151E+00    1.154E+00    1.157E+00
     1.160E+00    1.163E+00    1.166E+00    1.170E+00    1.173E+00    1.176E+00    1.179E+00    1.182E+00    1.185E+00    1.188E+00
     1.191E+00    1.194E+00    1.197E+00    1.200E+00    1.203E+00    1.206E+00    1.209E+00    1.212E+00    1.215E+00    1.218E+00
     1.221E+00    1.224E+00    1.227E+00    1.230E+00    1.233E+00    1.237E+00    1.240E+00    1.243E+00    1.246E+00    1.249E+00
     1.252E+00    1.255E+00    1.258E+00    1.261E+00    1.264E+00    1.267E+00    1.270E+00    1.273E+00    1.276E+00    1.279E+00
     1.282E+00    1.285E+00    1.288E+00    1.291E+00    1.294E+00    1.297E+00    1.300E+00    1.304E+00    1.307E+00    1.310E+00
     1.313E+00    1.316E+00    1.319E+00    1.322E+00    1.325E+00    1.328E+00    1.331E+00    1.334E+00    1.337E+00    1.340E+00
     1.343E+00    1.346E+00    1.349E+00    1.352E+00    1.355E+00    1.358E+00    1.361E+00    1.364E+00    1.367E+00    1.371E+00
     1.374E+00    1.377E+00    1.380E+00    1.383E+00    1.386E+00    1.389E+00    1.392E+00    1.395E+00    1.398E+00    1.401E+00
     1.404E+00    1.407E+00    1.410E+00    1.413E+00    1.416E+00    1.419E+00    1.422E+00    1.425E+00    1.428E+00    1.431E+00
     1.434E+00    1.437E+00    1.441E+00    1.444E+00    1.447E+00    1.450E+00    1.453E+00    1.456E+00    1.459E+00    1.462E+00
     1.465E+00    1.468E+00    1.471E+00    1.474E+00    1.477E+00    1.480E+00    1.483E+00    1.486E+00    1.489E+00    1.492E+00
     1.495E+00    1.498E+00    1.501E+00    1.504E+00    1.508E+00    1.511E+00    1.514E+00    1.517E+00    1.520E+00    1.523E+00
     1.526E+00    1.529E+00    1.532E+00    1.535E+00    1.538E+00    1.541E+00    1.544E+00    1.547E+00    1.550E+00    1.553E+00
     1.556E+00    1.559E+00    1.562E+00    1.565E+00    1.568E+00    1.571E+00    1.574E+00    1.578E+00    1.581E+00    1.584E+00
     1.587E+00    1.590E+00    1.593E+00    1.596E+00    1.599E+00    1.602E+00    1.605E+00    1.608E+00    1.611E+00    1.614E+00
     1.617E+00    1.620E+00    1.623E+00    1.626E+00    1.629E+00    1.632E+00    1.635E+00    1.638E+00    1.641E+00    1.644E+00
     1.648E+00    1.651E+00    1.654E+00    1.657E+00    1.660E+00    1.663E+00    1.666E+00    1.669E+00    1.672E+00    1.675E+00
     1.678E+00    1.681E+00    1.684E+00    1.687E+00    1.690E+00    1.693E+00    1.696E+00    1.699E+00    1.702E+00    1.705E+00
     1.708E+00    1.711E+00    1.714E+00    1.718E+00    1.721E+00    1.724E+00    1.727E+00    1.730E+00    1.733E+00    1.736E+00
     1.739E+00    1.742E+00    1.745E+00    1.748E+00    1.751E+00    1.754E+00    1.757E+00    1.760E+00    1.763E+00    1.766E+00
     1.769E+00    1.772E+00    1.775E+00    1.778E+00    1.781E+00    1.784E+00    1.788E+00    1.791E+00    1.794E+00    1.797E+00
     1.800E+00    1.803E+00    1.806E+00    1.809E+00    1.812E+00    1.815E+00    1.818E+00    1.821E+00    1.824E+00    1.827E+00
     1.830E+00    1.833E+00    1.836E+00    1.839E+00    1.842E+00    1.845E+00    1.848E+00    1.851E+00    1.854E+00    1.857E+00
     1.861E+00    1.864E+00    1.867E+00    1.870E+00    1.873E+00    1.876E+00    1.879E+00    1.882E+00    1.885E+00    1.888E+00
     1.891E+00    1.894E+00    1.897E+00    1.900E+00    1.903E+00    1.906E+00    1.909E+00    1.912E+00    1.915E+00    1.918E+00
     1.921E+00    1.924E+00    1.927E+00    1.930E+00    1.934E+00    1.937E+00    1.940E+00    1.943E+00    1.946E+00    1.949E+00
     1.952E+00    1.955E+00    1.958E+00    1.961E+00    1.964E+00    1.967E+00    1.970E+00    1.973E+00    1.976E+00    1.979E+00
     1.982E+00    1.985E+00    1.988E+00    1.991E+00    1.994E+00    1.997E+00    2.000E+00    2.004E+00    2.007E+00    2.010E+00
     2.013E+00    2.016E+00    2.019E+00    2.022E+00    2.025E+00    2.028E+00    2.031E+00    2.034E+00    2.037E+00    2.040E+00
     2.043E+00    2.046E+00    2.049E+00    2.052E+00    2.055E+00    2.058E+00    2.061E+00    2.064E+00    2.067E+00    2.070E+00
     2.073E+00    2.077E+00    2.080E+00    2.083E+00    2.086E+00    2.089E+00    2.092E+00    2.095E+00    2.098E+00    2.101E+00
     2.104E+00    2.107E+00    2.110E+00    2.113E+00    2.116E+00    2.119E+00    2.122E+00    2.125E+00    2.128E+00    2.131E+00
     2.134E+00    2.137E+00    2.140E+00    2.143E+00    2.146E+00    2.150E+00    2.153E+00    2.156E+00    2.159E+00    2.162E+00
     2.165E+00    2.168E+00    2.171E+00    2.174E+00    2.177E+00    2.180E+00    2.183E+00    2.186E+00    2.189E+00    2.192E+00
     2.195E+00    2.198E+00    2.201E+00    2.204E+00    2.207E+00    2.210E+00    2.213E+00    2.216E+00    2.219E+00    2.223E+00
     2.226E+00    2.229E+00    2.232E+00    2.235E+00    2.238E+00    2.241E+00    2.244E+00    2.247E+00    2.250E+00    2.253E+00
     2.256E+00    2.259E+00    2.262E+00    2.265E+00    2.268E+00    2.271E+00    2.274E+00    2.277E+00    2.280E+00    2.283E+00
     2.286E+00    2.289E+00    2.293E+00    2.296E+00    2.299E+00    2.302E+00    2.305E+00    2.308E+00    2.311E+00    2.314E+00
     2.317E+00    2.320E+00    2.323E+00    2.326E+00    2.329E+00    2.332E+00    2.335E+00    2.338E+00    2.341E+00    2.344E+00
     2.347E+00    2.350E+00    2.353E+00    2.356E+00    2.359E+00    2.362E+00    2.366E+00    2.369E+00    2.372E+00    2.375E+00
     2.378E+00    2.381E+00    2.384E+00    2.387E+00    2.390E+00    2.393E+00    2.396E+00    2.399E+00    2.402E+00    2.405E+00
     2.408E+00    2.411E+00    2.414E+00    2.417E+00    2.420E+00    2.423E+00    2.426E+00    2.429E+00
 Asp      Conc. = 2.70E+01
