 LCModel (Version 6.3-1L) Copyright: S.W. Provencher.          Ref.: Magn. Reson. Med. 30:672-679 (1993).                
 Slice#2 Row#5 Col#9  PD_24_press_2_raw_act
 36 lines in following concentration table = NCONC+1
    Conc.  %SD /Cr+PCr  Metabolite                                         
    0.000 999%   0.000 Ala                                                 
    0.000 999%   0.000 Asp                                                 
 1.33E+03  36%   0.606 Cr                                                  
  866.295  56%   0.394 PCr                                                 
  307.802  98%   0.140 GABA                                                
   29.965 986% 1.4E-02 Glc                                                 
 1.21E+03  46%   0.552 Gln                                                 
 3.62E+03  18%   1.648 Glu                                                 
 1.22E+03   4%   0.553 GPC                                                 
    0.000 999%   0.000 PCh                                                 
  718.742  23%   0.327 GSH                                                 
 2.21E+03  26%   1.007 Ins                                                 
  180.088 156% 8.2E-02 Lac                                                 
 3.29E+03   8%   1.496 NAA                                                 
  922.883  31%   0.420 NAAG                                                
  274.589  22%   0.125 Scyllo                                              
  230.408 180%   0.105 Tau                                                 
  232.026  99%   0.106 -CrCH2                                              
 1.22E+03   4%   0.553 GPC+PCh                                             
 4.21E+03   4%   1.916 NAA+NAAG                                            
 2.20E+03   6%   1.000 Cr+PCr                                              
 4.83E+03  20%   2.200 Glu+Gln                                             
 4.88E-02 999% 2.2E-05 Lip13a                                              
    0.000 999%   0.000 Lip13b                                              
    0.000 999%   0.000 Lip09                                               
 2.48E+03  15%   1.128 MM09                                                
    0.163 999% 7.4E-05 Lip20                                               
 5.08E+03  13%   2.311 MM20                                                
  707.316  26%   0.322 MM12                                                
 3.06E+03  17%   1.393 MM14                                                
 1.86E+03  20%   0.848 MM17                                                
 4.88E-02 999% 2.2E-05 Lip13a+Lip13b                                       
 3.77E+03  16%   1.715 MM14+Lip13a+Lip13b+MM12                             
 2.48E+03  15%   1.128 MM09+Lip09                                          
 5.08E+03  13%   2.311 MM20+Lip20                                          
   6 lines in following misc. output table
  FWHM = 0.054 ppm    S/N =  10                                            
  Data shift = 0.023 ppm                                                   
  Ph: -41 deg      -6.7 deg/ppm                                            
  alphaB,S = 6.5E-01,   5.1E+01                                            
   14 spline knots.   Ns = 8(1)                                            
  (13) 5 infls.   ( 9) 1 extrs.                                            
  498 points on ppm-axis = NY
      4.000000     3.992357     3.984714     3.977070     3.969427     3.961784     3.954141     3.946497     3.938854     3.931211
      3.923568     3.915925     3.908281     3.900638     3.892995     3.885352     3.877708     3.870065     3.862422     3.854779
      3.847136     3.839492     3.831849     3.824206     3.816563     3.808919     3.801276     3.793633     3.785990     3.778347
      3.770703     3.763060     3.755417     3.747774     3.740130     3.732487     3.724844     3.717201     3.709558     3.701914
      3.694271     3.686628     3.678985     3.671341     3.663698     3.656055     3.648412     3.640769     3.633125     3.625482
      3.617839     3.610196     3.602552     3.594909     3.587266     3.579623     3.571980     3.564336     3.556693     3.549050
      3.541407     3.533763     3.526120     3.518477     3.510834     3.503191     3.495547     3.487904     3.480261     3.472618
      3.464974     3.457331     3.449688     3.442045     3.434402     3.426758     3.419115     3.411472     3.403829     3.396185
      3.388542     3.380899     3.373256     3.365613     3.357969     3.350326     3.342683     3.335040     3.327396     3.319753
      3.312110     3.304467     3.296824     3.289180     3.281537     3.273894     3.266251     3.258607     3.250964     3.243321
      3.235678     3.228034     3.220391     3.212748     3.205105     3.197462     3.189818     3.182175     3.174532     3.166889
      3.159245     3.151602     3.143959     3.136316     3.128673     3.121029     3.113386     3.105743     3.098100     3.090456
      3.082813     3.075170     3.067527     3.059884     3.052240     3.044597     3.036954     3.029311     3.021667     3.014024
      3.006381     2.998738     2.991095     2.983451     2.975808     2.968165     2.960522     2.952878     2.945235     2.937592
      2.929949     2.922306     2.914662     2.907019     2.899376     2.891733     2.884089     2.876446     2.868803     2.861160
      2.853517     2.845873     2.838230     2.830587     2.822944     2.815300     2.807657     2.800014     2.792371     2.784728
      2.777084     2.769441     2.761798     2.754155     2.746511     2.738868     2.731225     2.723582     2.715939     2.708295
      2.700652     2.693009     2.685366     2.677722     2.670079     2.662436     2.654793     2.647150     2.639506     2.631863
      2.624220     2.616577     2.608933     2.601290     2.593647     2.586004     2.578361     2.570717     2.563074     2.555431
      2.547788     2.540144     2.532501     2.524858     2.517215     2.509572     2.501928     2.494285     2.486642     2.478999
      2.471355     2.463712     2.456069     2.448426     2.440783     2.433139     2.425496     2.417853     2.410210     2.402566
      2.394923     2.387280     2.379637     2.371994     2.364350     2.356707     2.349064     2.341421     2.333777     2.326134
      2.318491     2.310848     2.303205     2.295561     2.287918     2.280275     2.272632     2.264988     2.257345     2.249702
      2.242059     2.234416     2.226772     2.219129     2.211486     2.203843     2.196199     2.188556     2.180913     2.173270
      2.165627     2.157983     2.150340     2.142697     2.135054     2.127410     2.119767     2.112124     2.104481     2.096838
      2.089194     2.081551     2.073908     2.066265     2.058621     2.050978     2.043335     2.035692     2.028049     2.020405
      2.012762     2.005119     1.997476     1.989833     1.982190     1.974546     1.966903     1.959260     1.951617     1.943974
      1.936331     1.928688     1.921045     1.913402     1.905759     1.898115     1.890472     1.882829     1.875186     1.867543
      1.859900     1.852257     1.844614     1.836971     1.829327     1.821684     1.814041     1.806398     1.798755     1.791112
      1.783469     1.775826     1.768183     1.760540     1.752896     1.745253     1.737610     1.729967     1.722324     1.714681
      1.707038     1.699395     1.691752     1.684108     1.676465     1.668822     1.661179     1.653536     1.645893     1.638250
      1.630607     1.622964     1.615321     1.607677     1.600034     1.592391     1.584748     1.577105     1.569462     1.561819
      1.554176     1.546533     1.538890     1.531246     1.523603     1.515960     1.508317     1.500674     1.493031     1.485388
      1.477745     1.470102     1.462458     1.454815     1.447172     1.439529     1.431886     1.424243     1.416600     1.408957
      1.401314     1.393671     1.386027     1.378384     1.370741     1.363098     1.355455     1.347812     1.340169     1.332526
      1.324883     1.317240     1.309596     1.301953     1.294310     1.286667     1.279024     1.271381     1.263738     1.256095
      1.248452     1.240808     1.233165     1.225522     1.217879     1.210236     1.202593     1.194950     1.187307     1.179664
      1.172021     1.164377     1.156734     1.149091     1.141448     1.133805     1.126162     1.118519     1.110876     1.103233
      1.095590     1.087946     1.080303     1.072660     1.065017     1.057374     1.049731     1.042088     1.034445     1.026802
      1.019158     1.011515     1.003872     0.996229     0.988586     0.980943     0.973300     0.965657     0.958014     0.950371
      0.942727     0.935084     0.927441     0.919798     0.912155     0.904512     0.896869     0.889226     0.881583     0.873940
      0.866296     0.858653     0.851010     0.843367     0.835724     0.828081     0.820438     0.812795     0.805152     0.797508
      0.789865     0.782222     0.774579     0.766936     0.759293     0.751650     0.744007     0.736364     0.728721     0.721077
      0.713434     0.705791     0.698148     0.690505     0.682862     0.675219     0.667576     0.659933     0.652290     0.644646
      0.637003     0.629360     0.621717     0.614074     0.606431     0.598788     0.591145     0.583502     0.575858     0.568215
      0.560572     0.552929     0.545286     0.537643     0.530000     0.522357     0.514714     0.507071     0.499427     0.491784
      0.484141     0.476498     0.468855     0.461212     0.453569     0.445925     0.438282     0.430639     0.422996     0.415353
      0.407710     0.400067     0.392424     0.384780     0.377137     0.369494     0.361851     0.354208     0.346565     0.338922
      0.331278     0.323635     0.315992     0.308349     0.300706     0.293063     0.285420     0.277777     0.270133     0.262490
      0.254847     0.247204     0.239561     0.231918     0.224275     0.216631     0.208988     0.201345
 NY phased data points follow
   1.28223E+00  6.33893E+00  1.14044E+01  2.17708E+01  2.09224E+01  2.80879E+01  2.83890E+01  3.88971E+01  4.60602E+01  4.30237E+01
   5.10012E+01  5.03938E+01  3.05166E+01  3.30743E+01  3.38279E+01  3.60074E+01  1.55851E+01  2.04017E+01  1.11079E+01  6.71544E+00
   4.10215E+00  1.46324E+01  6.60748E+00  1.70101E+01  1.69928E+01  1.75413E+01  2.43696E+01  1.76830E+01  2.61856E+01  1.42073E+01
   2.54208E+01  1.92723E+01  1.20599E+01  2.17319E+01  8.96225E+00  1.69260E+01  2.19170E+01  5.72401E+00  2.22114E+01  1.60310E+01
   1.67605E+01  1.58405E+01  8.87211E+00  1.74546E+01  3.01578E+01  2.79652E+01  3.15194E+01  2.85008E+01  2.14393E+01  2.12047E+01
   1.43549E+01  1.24792E+01  1.88191E+01  1.23238E+01  9.23550E+00  8.18214E+00  1.47367E+01  1.38187E+01  6.37583E+00  6.25807E+00
   6.48701E+00 -4.89005E+00  5.73121E+00 -5.18328E+00 -4.19813E+00  2.74698E-01 -6.63162E+00 -2.72955E-01 -4.63987E+00  9.58181E+00
   5.40175E+00  1.18804E+00  6.06454E+00  1.07787E+01  8.71711E+00  7.13447E+00 -6.65079E+00  4.20927E+00  6.32037E+00  8.31270E-01
   5.77851E+00  6.44799E+00  5.65484E+00  7.05829E+00  1.43955E+01  6.89610E+00  1.00785E+01  9.15925E+00  1.81469E+01  1.03123E+01
   1.11768E+01  1.16228E+01  1.87363E+01  2.26210E+01  3.45919E+01  2.12793E+01  4.07897E+01  4.63670E+01  6.15312E+01  7.26917E+01
   7.81819E+01  8.96440E+01  9.24326E+01  9.57107E+01  8.03436E+01  5.84449E+01  4.92131E+01  4.04336E+01  2.47471E+01  1.35704E+01
   1.44624E+01  2.11676E-01  6.42273E+00  5.02970E-01  2.50570E+00  6.06977E+00  1.10515E+01  1.93928E+01  1.07633E+01  1.88555E+01
   2.03973E+01  2.69139E+01  3.05087E+01  3.99614E+01  4.68783E+01  5.62116E+01  6.48729E+01  7.26996E+01  6.41887E+01  4.50137E+01
   3.20367E+01  2.95506E+01  1.71347E+01  1.11054E+01  9.59849E+00 -1.71225E-01  3.90756E+00 -2.78031E+00  1.79129E+00  1.63585E+00
   1.08172E+01  2.93932E+00  7.06891E+00  2.85560E+00 -2.24864E+00 -2.14559E+00 -7.02946E+00  8.47035E+00 -6.00516E+00 -1.95991E+00
  -5.88766E-02 -1.46910E+00  8.59822E-01 -3.36308E+00 -5.37090E+00 -9.03413E+00  1.76703E+00 -3.83426E+00 -5.81509E+00 -7.70340E+00
  -6.59586E+00 -7.56857E+00  1.51991E+00 -9.98771E+00 -5.24696E+00 -6.09402E+00 -2.67752E+00 -7.60102E+00 -1.22296E+01 -8.79405E+00
  -1.22275E+01 -2.02385E+01 -2.35142E+01 -2.70051E+01 -2.58960E+01 -2.00300E+01 -1.39741E+01 -1.34177E+01 -2.74376E+01 -8.05939E+00
  -1.59614E+01 -1.47107E+01 -2.16796E+01 -1.62700E+01 -1.32289E+01 -1.89049E+01 -1.09288E+01 -1.15051E+01 -1.05248E+01 -1.08137E+01
   2.73519E-01  2.05025E+00 -1.38901E+01 -6.99215E+00 -5.17599E+00 -6.00448E+00 -1.43911E+01 -2.38171E+00 -1.29519E+01 -1.07531E+01
  -1.47137E+01 -1.44805E+01  1.05103E+00  5.45018E+00 -2.17162E-01 -9.10230E-01 -5.10703E+00 -6.73963E+00 -1.52225E+01 -5.32520E+00
   1.26236E+00  1.12023E+00 -4.67460E+00  7.13391E+00  6.16775E+00  1.84927E+01  1.62745E+01  7.80274E+00  9.62463E+00  4.60949E+00
  -5.86764E+00 -2.21469E+01 -1.66081E+01  7.30819E+00 -4.09466E+00 -1.21959E-01  5.69064E+00  6.19230E+00  1.61254E+01  4.73832E+00
   1.73796E+01  4.53678E+00  4.61906E+00  5.73831E+00  7.30007E+00  6.28521E+00  1.08772E+01  1.50329E+01  1.27490E+01  8.30706E+00
   1.16003E+01  9.48448E+00  1.14324E+01  1.13625E+01  1.55219E+01  2.14771E+01  2.05044E+01  1.79105E+01  3.67752E+01  3.19981E+01
   4.28949E+01  5.27349E+01  4.75700E+01  6.13678E+01  7.67005E+01  8.45901E+01  9.11808E+01  1.07665E+02  1.12069E+02  1.26553E+02
   1.28878E+02  1.27267E+02  9.71599E+01  7.55991E+01  5.02674E+01  4.17913E+01  2.89972E+01  1.35508E+01  1.36748E+01  2.04339E+01
   1.21942E+01  1.44719E+01  1.43797E+01  1.67824E+01  2.11467E+01  1.46147E+01  7.11558E+00  1.81911E+01  6.95505E+00  8.89701E+00
   2.35065E+01  1.09043E+01  6.89366E+00  1.36579E+01  5.26059E+00  1.24163E+01  1.40128E+01  7.93562E+00  1.03559E+01  1.72143E+01
   1.32455E+01  2.71232E+00  6.97228E+00  1.78015E+00  7.29744E+00  1.16005E+01  5.67487E+00  1.27642E+01  3.11179E-01 -3.83872E+00
   1.70137E+01  7.86168E+00 -2.84484E+00  6.23497E+00  1.25838E+01  1.60545E+01  1.41323E+01  1.68518E+01  1.53448E+01  6.22462E+00
   1.82889E+01  1.23480E+01  1.68587E+01  1.35514E+01  1.60226E+01  5.06977E+00  1.11627E+01  6.05828E+00  4.06083E+00  6.32343E+00
   9.76054E+00  6.60268E+00  1.40899E+01  8.21908E+00  1.47166E+01  1.89877E+00  1.94687E+00  1.67328E+01  9.84904E+00  1.44319E+01
   2.20976E+01  2.22789E+01  1.08715E+01  2.02197E+01  9.84220E+00  1.70467E+01  1.54818E+01  1.24158E+01  9.49657E+00  3.72119E+00
   7.41318E+00  1.20346E+01  1.02483E+01  1.31616E+01 -1.56408E+00  1.04751E+01  8.33575E+00  5.76520E+00  7.27621E+00 -5.11847E+00
   7.01162E+00 -6.41724E+00  3.06230E+00  1.10782E+00 -1.63193E+00 -7.48636E+00  3.95812E+00 -1.55911E+00  1.71959E+00 -2.86942E+00
  -7.60872E-01 -6.33511E+00 -1.59453E+00  6.57302E-01 -7.57342E+00  1.48708E+00 -4.34219E+00  6.36399E+00  1.71224E+00 -4.18887E-01
   9.07012E-01 -8.80091E+00 -6.60372E+00 -1.66920E+00 -7.19118E+00 -1.02428E+01 -5.39862E+00 -7.51373E+00 -6.98390E+00 -5.11488E+00
  -8.96984E+00 -4.39946E+00 -7.87579E+00 -4.24292E+00 -1.02603E+00 -1.10415E+01 -2.50166E+01 -6.73531E+00  2.27038E+00 -9.07719E+00
  -4.22302E+00 -1.04208E+00  3.65891E+00 -4.02917E+00 -4.66628E+00 -1.61678E+00 -2.04702E+00  5.64479E+00  4.18032E+00  3.36849E-01
   5.82881E+00  5.30621E+00  4.56333E+00  3.47017E+00  3.81312E+00  1.16683E+01  1.06074E+01  7.90550E+00  1.50695E+01  3.68398E+00
   6.16903E+00  4.94383E+00  8.99965E+00  7.91848E+00 -2.90354E+00 -1.93903E+00  2.97096E+00 -4.40597E+00 -1.17257E+01 -1.73791E+01
  -3.41897E+00 -1.07888E+01 -1.54491E+01 -8.18176E+00 -5.02508E+00 -7.48678E+00 -1.49195E+01 -6.28102E+00 -3.55753E+00 -4.09544E+00
  -7.15157E+00 -2.34060E+00 -6.64219E+00 -1.02578E+01 -2.01508E+00 -8.38853E+00 -2.19913E+00 -1.30229E+01 -3.95573E+00 -1.09202E+01
  -1.13311E+01 -9.79931E+00 -5.34732E+00 -9.51609E+00 -9.19919E+00 -7.70262E+00 -6.60993E+00 -3.79390E+00 -1.25452E+01 -9.90858E+00
  -1.27685E+01 -3.37718E+00 -7.80544E+00 -1.25525E+01 -7.09646E+00 -1.19747E+00 -1.83953E+01 -9.29968E+00 -1.01676E+01 -1.40797E+01
  -1.28162E+01 -1.69809E+00 -8.37269E+00 -1.34732E+01 -9.52765E+00 -1.14430E+01 -1.43585E+01 -2.59215E+00 -1.67652E+01 -9.93511E+00
  -5.08579E+00 -6.73969E+00 -5.91850E+00 -6.17725E+00 -2.21924E+00  5.13693E-01  5.00598E-01 -4.63397E+00 -7.15217E-01 -4.63376E+00
  -6.17133E+00 -6.91386E+00  2.18690E+00 -5.24681E+00 -3.13485E+00 -3.28264E+00 -1.00479E+01 -2.96114E+00 -2.25115E+00 -3.29358E+00
  -9.82829E+00 -1.58544E+00 -1.35138E+01 -6.40836E+00 -4.46772E+00  1.15767E+00  6.22031E-01  2.71788E+00
 NY points of the fit to the data follow
   9.00862E+00  1.07367E+01  1.38107E+01  1.87300E+01  2.32136E+01  2.71635E+01  3.14953E+01  3.65737E+01  4.18928E+01  4.62572E+01
   4.82484E+01  4.68478E+01  4.20800E+01  3.55089E+01  2.94446E+01  2.46310E+01  2.04980E+01  1.68988E+01  1.40593E+01  1.23579E+01
   1.09181E+01  1.04443E+01  1.13018E+01  1.18931E+01  1.26529E+01  1.39323E+01  1.57173E+01  1.78216E+01  1.98771E+01  2.21668E+01
   2.41578E+01  2.46401E+01  2.36672E+01  2.22977E+01  2.05106E+01  1.77262E+01  1.41220E+01  1.12788E+01  1.02511E+01  1.09200E+01
   1.26271E+01  1.47210E+01  1.67401E+01  1.85024E+01  2.01190E+01  2.18068E+01  2.31456E+01  2.31473E+01  2.12613E+01  1.79281E+01
   1.44467E+01  1.18312E+01  9.97629E+00  8.70295E+00  7.86824E+00  7.48927E+00  7.51414E+00  7.81373E+00  8.27738E+00  8.70183E+00
   8.61165E+00  7.89252E+00  6.70275E+00  5.65237E+00  5.02466E+00  4.74252E+00  4.75440E+00  5.08412E+00  5.61524E+00  6.10539E+00
   6.46507E+00  6.67175E+00  6.64973E+00  6.34425E+00  5.89833E+00  5.47275E+00  5.05751E+00  4.60291E+00  4.34873E+00  5.32330E+00
   6.36445E+00  6.89231E+00  7.44010E+00  8.37821E+00  9.68007E+00  1.10977E+01  1.22564E+01  1.26331E+01  1.17376E+01  9.60399E+00
   7.56499E+00  6.56169E+00  6.53046E+00  8.88870E+00  1.84816E+01  3.03744E+01  3.85826E+01  4.58824E+01  5.53470E+01  6.77766E+01
   8.17146E+01  9.41709E+01  1.00597E+02  9.60386E+01  8.03647E+01  6.11539E+01  4.54144E+01  3.31020E+01  2.20597E+01  1.29191E+01
   7.24126E+00  4.11066E+00  2.41653E+00  1.73435E+00  1.45147E+00  1.34027E+00  1.47481E+00  2.28889E+00  6.23709E+00  1.48073E+01
   2.15831E+01  2.65295E+01  3.20947E+01  3.97287E+01  4.90510E+01  5.87563E+01  6.61227E+01  6.74318E+01  6.05301E+01  4.81622E+01
   3.63702E+01  2.75671E+01  1.99314E+01  1.26800E+01  6.85368E+00  3.05214E+00  7.43944E-01 -7.34918E-03  1.99099E-01  8.32665E-01
   1.56817E+00  2.09003E+00  2.16402E+00  1.81800E+00  1.25796E+00  6.05888E-01 -1.36899E-01 -8.99232E-01 -1.55576E+00 -2.09064E+00
  -2.54886E+00 -2.93951E+00 -3.41027E+00 -4.11546E+00 -4.71022E+00 -5.00289E+00 -5.01264E+00 -4.90498E+00 -5.20588E+00 -5.89836E+00
  -6.69067E+00 -7.31688E+00 -7.59955E+00 -7.50768E+00 -7.40595E+00 -7.70281E+00 -8.45382E+00 -9.47828E+00 -1.05407E+01 -1.12618E+01
  -1.15151E+01 -1.16662E+01 -1.19382E+01 -1.25425E+01 -1.32164E+01 -1.35973E+01 -1.35128E+01 -1.31202E+01 -1.26984E+01 -1.26762E+01
  -1.27246E+01 -1.23789E+01 -1.14936E+01 -1.02484E+01 -8.97469E+00 -7.90795E+00 -6.86644E+00 -5.44516E+00 -3.72232E+00 -2.14729E+00
  -1.30299E+00 -1.11462E+00 -1.45169E+00 -2.11249E+00 -2.87180E+00 -3.32803E+00 -3.11854E+00 -2.31568E+00 -9.89827E-01  6.76623E-01
   2.20603E+00  3.20612E+00  3.05748E+00  2.54061E+00  1.55955E+00 -4.82196E-01 -3.12233E+00 -5.56070E+00 -6.70515E+00 -6.59376E+00
  -6.05235E+00 -4.26094E+00 -1.09417E+00  2.54871E+00  5.41608E+00  6.90110E+00  7.12330E+00  5.65015E+00  1.69961E+00 -3.31017E+00
  -7.61503E+00 -1.05690E+01 -1.18465E+01 -1.09349E+01 -7.25455E+00 -1.82946E+00  3.02183E+00  6.17413E+00  7.99465E+00  9.37086E+00
   9.99003E+00  9.94504E+00  1.00749E+01  1.07300E+01  1.14178E+01  1.16019E+01  1.18619E+01  1.25261E+01  1.29808E+01  1.25478E+01
   1.17243E+01  1.11259E+01  1.09393E+01  1.13537E+01  1.27504E+01  1.51644E+01  1.78010E+01  2.07143E+01  2.52309E+01  2.93567E+01
   3.24238E+01  3.70030E+01  4.99227E+01  6.65800E+01  7.90347E+01  8.90177E+01  9.86235E+01  1.07758E+02  1.15537E+02  1.22132E+02
   1.24759E+02  1.17554E+02  9.88997E+01  7.67459E+01  5.91071E+01  4.56254E+01  3.35777E+01  2.34071E+01  1.68828E+01  1.30426E+01
   1.06968E+01  9.60239E+00  9.13173E+00  8.91193E+00  8.76407E+00  8.58199E+00  8.19974E+00  7.62258E+00  6.99869E+00  6.40377E+00
   5.84000E+00  5.35094E+00  5.00953E+00  4.83880E+00  4.81304E+00  4.86506E+00  4.96016E+00  5.09698E+00  5.26688E+00  5.47454E+00
   5.73829E+00  6.04795E+00  6.40227E+00  6.78181E+00  7.15694E+00  7.51931E+00  7.87777E+00  8.22615E+00  8.55124E+00  8.85401E+00
   9.14557E+00  9.41813E+00  9.64718E+00  9.81584E+00  9.92029E+00  9.96036E+00  9.93495E+00  9.84921E+00  9.71581E+00  9.54644E+00
   9.35419E+00  9.15388E+00  8.95953E+00  8.78479E+00  8.64249E+00  8.54435E+00  8.49986E+00  8.51596E+00  8.59655E+00  8.74296E+00
   8.95351E+00  9.22344E+00  9.54472E+00  9.90706E+00  1.02979E+01  1.07034E+01  1.11079E+01  1.14952E+01  1.18492E+01  1.21545E+01
   1.23970E+01  1.25651E+01  1.26491E+01  1.26424E+01  1.25422E+01  1.23501E+01  1.20736E+01  1.17295E+01  1.13564E+01  1.10206E+01
   1.05519E+01  9.82005E+00  9.01115E+00  8.20371E+00  7.36985E+00  6.42548E+00  5.32052E+00  4.20797E+00  3.04306E+00  1.78485E+00
   7.05666E-01  2.24593E-03 -3.75304E-01 -5.07638E-01 -3.91843E-01 -9.22357E-02  1.39551E-01  8.73022E-02 -1.88854E-01 -5.17323E-01
  -8.35821E-01 -1.18213E+00 -1.55038E+00 -1.87913E+00 -2.16124E+00 -2.40854E+00 -2.62590E+00 -2.82742E+00 -3.01995E+00 -3.20594E+00
  -3.38593E+00 -3.55894E+00 -3.72331E+00 -3.87647E+00 -4.01550E+00 -4.13680E+00 -4.23666E+00 -4.31102E+00 -4.35589E+00 -4.36693E+00
  -4.33990E+00 -4.27024E+00 -4.15369E+00 -3.98585E+00 -3.76279E+00 -3.48059E+00 -3.13602E+00 -2.72638E+00 -2.25023E+00 -1.70725E+00
  -1.09899E+00 -4.28645E-01  2.98103E-01  1.07331E+00  1.88613E+00  2.72330E+00  3.56889E+00  4.40503E+00  5.21199E+00  5.96916E+00
   6.65541E+00  7.25054E+00  7.73574E+00  8.09499E+00  8.31534E+00  8.38813E+00  8.30893E+00  8.07838E+00  7.70166E+00  7.18864E+00
   6.55283E+00  5.81118E+00  4.98278E+00  4.08838E+00  3.14900E+00  2.18540E+00  1.21685E+00  2.60910E-01 -6.67414E-01 -1.55553E+00
  -2.39382E+00 -3.17522E+00 -3.89550E+00 -4.55246E+00 -5.14608E+00 -5.67767E+00 -6.15002E+00 -6.56660E+00 -6.93169E+00 -7.24964E+00
  -7.52503E+00 -7.76213E+00 -7.96526E+00 -8.13824E+00 -8.28479E+00 -8.40799E+00 -8.51077E+00 -8.59551E+00 -8.66451E+00 -8.71958E+00
  -8.76249E+00 -8.79452E+00 -8.81694E+00 -8.83068E+00 -8.83678E+00 -8.83592E+00 -8.82889E+00 -8.81613E+00 -8.79823E+00 -8.77553E+00
  -8.74854E+00 -8.71753E+00 -8.68290E+00 -8.64476E+00 -8.60345E+00 -8.55911E+00 -8.51205E+00 -8.46236E+00 -8.41028E+00 -8.35584E+00
  -8.29927E+00 -8.24062E+00 -8.18014E+00 -8.11780E+00 -8.05379E+00 -7.98806E+00 -7.92085E+00 -7.85215E+00 -7.78214E+00 -7.71078E+00
  -7.63821E+00 -7.56438E+00 -7.48949E+00 -7.41350E+00 -7.33658E+00 -7.25863E+00 -7.17982E+00 -7.10008E+00 -7.01961E+00 -6.93834E+00
  -6.85641E+00 -6.77373E+00 -6.69046E+00 -6.60651E+00 -6.52209E+00 -6.43708E+00 -6.35162E+00 -6.26560E+00 -6.17919E+00 -6.09231E+00
  -6.00511E+00 -5.91748E+00 -5.82953E+00 -5.74115E+00 -5.65248E+00 -5.56342E+00 -5.47409E+00 -5.38433E+00
 NY background values follow
     1.344E+00    1.316E+00    1.288E+00    1.260E+00    1.232E+00    1.204E+00    1.176E+00    1.148E+00    1.120E+00    1.091E+00
     1.063E+00    1.034E+00    1.006E+00    9.768E-01    9.479E-01    9.190E-01    8.899E-01    8.607E-01    8.314E-01    8.020E-01
     7.725E-01    7.428E-01    7.130E-01    6.831E-01    6.531E-01    6.230E-01    5.927E-01    5.623E-01    5.317E-01    5.010E-01
     4.702E-01    4.392E-01    4.081E-01    3.768E-01    3.454E-01    3.139E-01    2.821E-01    2.503E-01    2.182E-01    1.860E-01
     1.537E-01    1.211E-01    8.844E-02    5.557E-02    2.253E-02   -1.069E-02   -4.409E-02   -7.766E-02   -1.114E-01   -1.454E-01
    -1.796E-01   -2.139E-01   -2.485E-01   -2.833E-01   -3.183E-01   -3.535E-01   -3.890E-01   -4.247E-01   -4.607E-01   -4.969E-01
    -5.334E-01   -5.701E-01   -6.071E-01   -6.444E-01   -6.819E-01   -7.197E-01   -7.578E-01   -7.963E-01   -8.350E-01   -8.740E-01
    -9.133E-01   -9.530E-01   -9.929E-01   -1.033E+00   -1.074E+00   -1.115E+00   -1.156E+00   -1.198E+00   -1.240E+00   -1.282E+00
    -1.325E+00   -1.368E+00   -1.412E+00   -1.456E+00   -1.500E+00   -1.544E+00   -1.590E+00   -1.635E+00   -1.681E+00   -1.727E+00
    -1.774E+00   -1.821E+00   -1.869E+00   -1.917E+00   -1.965E+00   -2.014E+00   -2.063E+00   -2.113E+00   -2.163E+00   -2.213E+00
    -2.263E+00   -2.314E+00   -2.366E+00   -2.417E+00   -2.469E+00   -2.521E+00   -2.573E+00   -2.626E+00   -2.679E+00   -2.732E+00
    -2.785E+00   -2.839E+00   -2.892E+00   -2.946E+00   -3.000E+00   -3.054E+00   -3.109E+00   -3.163E+00   -3.218E+00   -3.273E+00
    -3.328E+00   -3.383E+00   -3.438E+00   -3.493E+00   -3.548E+00   -3.603E+00   -3.658E+00   -3.714E+00   -3.769E+00   -3.824E+00
    -3.880E+00   -3.935E+00   -3.990E+00   -4.045E+00   -4.100E+00   -4.156E+00   -4.211E+00   -4.265E+00   -4.320E+00   -4.375E+00
    -4.429E+00   -4.483E+00   -4.537E+00   -4.590E+00   -4.643E+00   -4.695E+00   -4.747E+00   -4.798E+00   -4.849E+00   -4.898E+00
    -4.948E+00   -4.996E+00   -5.043E+00   -5.090E+00   -5.136E+00   -5.180E+00   -5.224E+00   -5.266E+00   -5.308E+00   -5.348E+00
    -5.387E+00   -5.425E+00   -5.461E+00   -5.496E+00   -5.529E+00   -5.561E+00   -5.592E+00   -5.621E+00   -5.648E+00   -5.674E+00
    -5.698E+00   -5.720E+00   -5.740E+00   -5.759E+00   -5.775E+00   -5.790E+00   -5.802E+00   -5.813E+00   -5.821E+00   -5.827E+00
    -5.831E+00   -5.833E+00   -5.833E+00   -5.830E+00   -5.825E+00   -5.818E+00   -5.808E+00   -5.797E+00   -5.784E+00   -5.769E+00
    -5.752E+00   -5.733E+00   -5.712E+00   -5.690E+00   -5.665E+00   -5.640E+00   -5.612E+00   -5.583E+00   -5.553E+00   -5.521E+00
    -5.488E+00   -5.453E+00   -5.418E+00   -5.380E+00   -5.342E+00   -5.303E+00   -5.262E+00   -5.221E+00   -5.178E+00   -5.135E+00
    -5.090E+00   -5.045E+00   -4.999E+00   -4.952E+00   -4.905E+00   -4.857E+00   -4.808E+00   -4.759E+00   -4.709E+00   -4.659E+00
    -4.608E+00   -4.557E+00   -4.506E+00   -4.454E+00   -4.403E+00   -4.351E+00   -4.299E+00   -4.247E+00   -4.195E+00   -4.143E+00
    -4.091E+00   -4.040E+00   -3.988E+00   -3.937E+00   -3.886E+00   -3.835E+00   -3.785E+00   -3.735E+00   -3.686E+00   -3.637E+00
    -3.589E+00   -3.541E+00   -3.494E+00   -3.448E+00   -3.403E+00   -3.358E+00   -3.314E+00   -3.271E+00   -3.229E+00   -3.188E+00
    -3.148E+00   -3.110E+00   -3.072E+00   -3.035E+00   -3.000E+00   -2.966E+00   -2.933E+00   -2.902E+00   -2.872E+00   -2.844E+00
    -2.817E+00   -2.792E+00   -2.768E+00   -2.746E+00   -2.725E+00   -2.707E+00   -2.690E+00   -2.675E+00   -2.662E+00   -2.651E+00
    -2.642E+00   -2.635E+00   -2.630E+00   -2.627E+00   -2.626E+00   -2.627E+00   -2.631E+00   -2.636E+00   -2.643E+00   -2.652E+00
    -2.664E+00   -2.677E+00   -2.692E+00   -2.709E+00   -2.728E+00   -2.749E+00   -2.772E+00   -2.797E+00   -2.823E+00   -2.852E+00
    -2.882E+00   -2.914E+00   -2.948E+00   -2.983E+00   -3.021E+00   -3.060E+00   -3.101E+00   -3.144E+00   -3.188E+00   -3.234E+00
    -3.282E+00   -3.331E+00   -3.382E+00   -3.435E+00   -3.489E+00   -3.546E+00   -3.603E+00   -3.662E+00   -3.723E+00   -3.785E+00
    -3.849E+00   -3.915E+00   -3.982E+00   -4.050E+00   -4.120E+00   -4.191E+00   -4.264E+00   -4.339E+00   -4.414E+00   -4.491E+00
    -4.570E+00   -4.649E+00   -4.730E+00   -4.812E+00   -4.895E+00   -4.979E+00   -5.064E+00   -5.150E+00   -5.237E+00   -5.325E+00
    -5.413E+00   -5.502E+00   -5.592E+00   -5.683E+00   -5.774E+00   -5.865E+00   -5.957E+00   -6.050E+00   -6.143E+00   -6.236E+00
    -6.329E+00   -6.423E+00   -6.516E+00   -6.610E+00   -6.704E+00   -6.798E+00   -6.891E+00   -6.985E+00   -7.079E+00   -7.172E+00
    -7.265E+00   -7.357E+00   -7.450E+00   -7.542E+00   -7.633E+00   -7.724E+00   -7.814E+00   -7.904E+00   -7.993E+00   -8.081E+00
    -8.168E+00   -8.255E+00   -8.340E+00   -8.425E+00   -8.509E+00   -8.591E+00   -8.673E+00   -8.754E+00   -8.833E+00   -8.912E+00
    -8.989E+00   -9.065E+00   -9.139E+00   -9.213E+00   -9.285E+00   -9.356E+00   -9.425E+00   -9.493E+00   -9.560E+00   -9.625E+00
    -9.689E+00   -9.751E+00   -9.812E+00   -9.871E+00   -9.928E+00   -9.984E+00   -1.004E+01   -1.009E+01   -1.014E+01   -1.019E+01
    -1.024E+01   -1.028E+01   -1.032E+01   -1.037E+01   -1.040E+01   -1.044E+01   -1.048E+01   -1.051E+01   -1.054E+01   -1.057E+01
    -1.060E+01   -1.062E+01   -1.064E+01   -1.066E+01   -1.068E+01   -1.070E+01   -1.071E+01   -1.072E+01   -1.073E+01   -1.074E+01
    -1.074E+01   -1.074E+01   -1.074E+01   -1.074E+01   -1.073E+01   -1.072E+01   -1.071E+01   -1.070E+01   -1.069E+01   -1.067E+01
    -1.065E+01   -1.063E+01   -1.061E+01   -1.059E+01   -1.056E+01   -1.053E+01   -1.050E+01   -1.047E+01   -1.044E+01   -1.040E+01
    -1.036E+01   -1.033E+01   -1.028E+01   -1.024E+01   -1.020E+01   -1.015E+01   -1.011E+01   -1.006E+01   -1.001E+01   -9.955E+00
    -9.902E+00   -9.847E+00   -9.791E+00   -9.733E+00   -9.674E+00   -9.614E+00   -9.553E+00   -9.490E+00   -9.426E+00   -9.360E+00
    -9.294E+00   -9.226E+00   -9.157E+00   -9.087E+00   -9.016E+00   -8.944E+00   -8.871E+00   -8.797E+00   -8.722E+00   -8.646E+00
    -8.569E+00   -8.491E+00   -8.413E+00   -8.333E+00   -8.253E+00   -8.172E+00   -8.090E+00   -8.008E+00   -7.925E+00   -7.841E+00
    -7.756E+00   -7.671E+00   -7.586E+00   -7.500E+00   -7.413E+00   -7.326E+00   -7.238E+00   -7.150E+00   -7.062E+00   -6.973E+00
    -6.884E+00   -6.795E+00   -6.705E+00   -6.615E+00   -6.525E+00   -6.435E+00   -6.344E+00   -6.253E+00   -6.163E+00   -6.072E+00
    -5.981E+00   -5.890E+00   -5.799E+00   -5.708E+00   -5.617E+00   -5.527E+00   -5.436E+00   -5.346E+00
 Cr       Conc. = 1.33E+03
