 LCModel (Version 6.3-1L) Copyright: S.W. Provencher.          Ref.: Magn. Reson. Med. 30:672-679 (1993).                
 Slice#3 Row#2 Col#5  PD_24_press_2_raw_act
 36 lines in following concentration table = NCONC+1
    Conc.  %SD /Cr+PCr  Metabolite                                         
   48.398 231%   1.327 Ala                                                 
   17.066  59%   0.468 Asp                                                 
   36.470 159%   1.000 Cr                                                  
    0.000 999%   0.000 PCr                                                 
   10.464  57%   0.287 GABA                                                
   10.378  58%   0.285 Glc                                                 
    0.000 999%   0.000 Gln                                                 
  166.823 130%   4.574 Glu                                                 
   61.325  41%   1.682 GPC                                                 
    0.000 999%   0.000 PCh                                                 
    0.000 999%   0.000 GSH                                                 
  770.681  38%  21.132 Ins                                                 
   22.242 497%   0.610 Lac                                                 
  124.298  59%   3.408 NAA                                                 
    0.000 999%   0.000 NAAG                                                
    3.471  58% 9.5E-02 Scyllo                                              
   17.282  58%   0.474 Tau                                                 
    3.678 168%   0.101 -CrCH2                                              
   61.325  41%   1.682 GPC+PCh                                             
  124.298  59%   3.408 NAA+NAAG                                            
   36.470 159%   1.000 Cr+PCr                                              
  166.823 130%   4.574 Glu+Gln                                             
    0.000 999%   0.000 Lip13a                                              
  343.305  56%   9.413 Lip13b                                              
   71.927 192%   1.972 Lip09                                               
 1.79E+03  16%  48.987 MM09                                                
   62.849 152%   1.723 Lip20                                               
 2.61E+03  19%  71.588 MM20                                                
    0.000 999%   0.000 MM12                                                
    0.000 999%   0.000 MM14                                                
 1.32E+03  19%  36.232 MM17                                                
  343.305  56%   9.413 Lip13a+Lip13b                                       
  343.305  56%   9.413 MM14+Lip13a+Lip13b+MM12                             
 1.86E+03  15%  50.959 MM09+Lip09                                          
 2.67E+03  19%  73.311 MM20+Lip20                                          
   6 lines in following misc. output table
  FWHM = 0.069 ppm    S/N =   1                                            
  Data shift = 0.054 ppm                                                   
  Ph:  29 deg      21.8 deg/ppm                                            
  alphaB,S = 1.3E+00,   2.6E+00                                            
   14 spline knots.   Ns = 5(1)                                            
  ( 8) 4 infls.   ( 7) 3 extrs.                                            
  498 points on ppm-axis = NY
      4.000000     3.992357     3.984714     3.977070     3.969427     3.961784     3.954141     3.946497     3.938854     3.931211
      3.923568     3.915925     3.908281     3.900638     3.892995     3.885352     3.877708     3.870065     3.862422     3.854779
      3.847136     3.839492     3.831849     3.824206     3.816563     3.808919     3.801276     3.793633     3.785990     3.778347
      3.770703     3.763060     3.755417     3.747774     3.740130     3.732487     3.724844     3.717201     3.709558     3.701914
      3.694271     3.686628     3.678985     3.671341     3.663698     3.656055     3.648412     3.640769     3.633125     3.625482
      3.617839     3.610196     3.602552     3.594909     3.587266     3.579623     3.571980     3.564336     3.556693     3.549050
      3.541407     3.533763     3.526120     3.518477     3.510834     3.503191     3.495547     3.487904     3.480261     3.472618
      3.464974     3.457331     3.449688     3.442045     3.434402     3.426758     3.419115     3.411472     3.403829     3.396185
      3.388542     3.380899     3.373256     3.365613     3.357969     3.350326     3.342683     3.335040     3.327396     3.319753
      3.312110     3.304467     3.296824     3.289180     3.281537     3.273894     3.266251     3.258607     3.250964     3.243321
      3.235678     3.228034     3.220391     3.212748     3.205105     3.197462     3.189818     3.182175     3.174532     3.166889
      3.159245     3.151602     3.143959     3.136316     3.128673     3.121029     3.113386     3.105743     3.098100     3.090456
      3.082813     3.075170     3.067527     3.059884     3.052240     3.044597     3.036954     3.029311     3.021667     3.014024
      3.006381     2.998738     2.991095     2.983451     2.975808     2.968165     2.960522     2.952878     2.945235     2.937592
      2.929949     2.922306     2.914662     2.907019     2.899376     2.891733     2.884089     2.876446     2.868803     2.861160
      2.853517     2.845873     2.838230     2.830587     2.822944     2.815300     2.807657     2.800014     2.792371     2.784728
      2.777084     2.769441     2.761798     2.754155     2.746511     2.738868     2.731225     2.723582     2.715939     2.708295
      2.700652     2.693009     2.685366     2.677722     2.670079     2.662436     2.654793     2.647150     2.639506     2.631863
      2.624220     2.616577     2.608933     2.601290     2.593647     2.586004     2.578361     2.570717     2.563074     2.555431
      2.547788     2.540144     2.532501     2.524858     2.517215     2.509572     2.501928     2.494285     2.486642     2.478999
      2.471355     2.463712     2.456069     2.448426     2.440783     2.433139     2.425496     2.417853     2.410210     2.402566
      2.394923     2.387280     2.379637     2.371994     2.364350     2.356707     2.349064     2.341421     2.333777     2.326134
      2.318491     2.310848     2.303205     2.295561     2.287918     2.280275     2.272632     2.264988     2.257345     2.249702
      2.242059     2.234416     2.226772     2.219129     2.211486     2.203843     2.196199     2.188556     2.180913     2.173270
      2.165627     2.157983     2.150340     2.142697     2.135054     2.127410     2.119767     2.112124     2.104481     2.096838
      2.089194     2.081551     2.073908     2.066265     2.058621     2.050978     2.043335     2.035692     2.028049     2.020405
      2.012762     2.005119     1.997476     1.989833     1.982190     1.974546     1.966903     1.959260     1.951617     1.943974
      1.936331     1.928688     1.921045     1.913402     1.905759     1.898115     1.890472     1.882829     1.875186     1.867543
      1.859900     1.852257     1.844614     1.836971     1.829327     1.821684     1.814041     1.806398     1.798755     1.791112
      1.783469     1.775826     1.768183     1.760540     1.752896     1.745253     1.737610     1.729967     1.722324     1.714681
      1.707038     1.699395     1.691752     1.684108     1.676465     1.668822     1.661179     1.653536     1.645893     1.638250
      1.630607     1.622964     1.615321     1.607677     1.600034     1.592391     1.584748     1.577105     1.569462     1.561819
      1.554176     1.546533     1.538890     1.531246     1.523603     1.515960     1.508317     1.500674     1.493031     1.485388
      1.477745     1.470102     1.462458     1.454815     1.447172     1.439529     1.431886     1.424243     1.416600     1.408957
      1.401314     1.393671     1.386027     1.378384     1.370741     1.363098     1.355455     1.347812     1.340169     1.332526
      1.324883     1.317240     1.309596     1.301953     1.294310     1.286667     1.279024     1.271381     1.263738     1.256095
      1.248452     1.240808     1.233165     1.225522     1.217879     1.210236     1.202593     1.194950     1.187307     1.179664
      1.172021     1.164377     1.156734     1.149091     1.141448     1.133805     1.126162     1.118519     1.110876     1.103233
      1.095590     1.087946     1.080303     1.072660     1.065017     1.057374     1.049731     1.042088     1.034445     1.026802
      1.019158     1.011515     1.003872     0.996229     0.988586     0.980943     0.973300     0.965657     0.958014     0.950371
      0.942727     0.935084     0.927441     0.919798     0.912155     0.904512     0.896869     0.889226     0.881583     0.873940
      0.866296     0.858653     0.851010     0.843367     0.835724     0.828081     0.820438     0.812795     0.805152     0.797508
      0.789865     0.782222     0.774579     0.766936     0.759293     0.751650     0.744007     0.736364     0.728721     0.721077
      0.713434     0.705791     0.698148     0.690505     0.682862     0.675219     0.667576     0.659933     0.652290     0.644646
      0.637003     0.629360     0.621717     0.614074     0.606431     0.598788     0.591145     0.583502     0.575858     0.568215
      0.560572     0.552929     0.545286     0.537643     0.530000     0.522357     0.514714     0.507071     0.499427     0.491784
      0.484141     0.476498     0.468855     0.461212     0.453569     0.445925     0.438282     0.430639     0.422996     0.415353
      0.407710     0.400067     0.392424     0.384780     0.377137     0.369494     0.361851     0.354208     0.346565     0.338922
      0.331278     0.323635     0.315992     0.308349     0.300706     0.293063     0.285420     0.277777     0.270133     0.262490
      0.254847     0.247204     0.239561     0.231918     0.224275     0.216631     0.208988     0.201345
 NY phased data points follow
   3.33771E+01  2.57499E+01  2.51695E+01  3.56296E+01  2.05800E+01  2.78870E+01  3.81389E+01  3.30544E+01  2.83647E+01  2.96689E+01
   1.75365E+01  3.11751E+01  1.93619E+01  3.73276E+01  3.39090E+01  2.51748E+01  2.77214E+01  3.59070E+01  3.39815E+01  2.88626E+01
   3.53205E+01  1.94589E+01  3.23083E+01  2.90178E+01  2.51786E+01  2.31507E+01  3.25898E+01  2.99473E+01  1.61595E+01  2.83140E+01
   2.57916E+01  1.18165E+01  2.52583E+01  2.36339E+01  2.16807E+01  1.91139E+01  3.38516E+01  1.98885E+01  3.74757E+01  2.27890E+01
   2.36132E+01  3.49601E+01  1.98916E+01  2.92635E+01  1.69303E+01  2.17883E+01  1.13565E+01  2.82536E+01  2.38887E+01  3.61509E+01
   3.19995E+01  2.67405E+01  3.40443E+01  1.63417E+01  2.78717E+01  3.50116E+01  2.40741E+01  1.83498E+01  2.09152E+01  2.81053E+01
   3.03249E+01  2.23648E+01  2.93954E+01  2.62894E+01  1.89467E+01  2.17114E+01  1.33885E+01  2.33562E+01  2.58102E+01  2.80966E+01
   2.44721E+01  2.53571E+01  2.84013E+01  2.68573E+01  1.68985E+01  3.17430E+01  2.56595E+01  2.83150E+01  2.18919E+01  2.02207E+01
   2.67741E+01  2.82559E+01  1.44717E+01  2.08581E+01  2.49972E+01  1.92351E+01  2.82930E+01  1.05114E+01  2.27848E+01  2.11296E+01
   2.12793E+01  2.76940E+01  2.80806E+01  2.63502E+01  1.40915E+01  1.95741E+01  2.06144E+01  2.77718E+01  2.49002E+01  2.18061E+01
   1.15299E+01  1.70562E+00  1.83976E+01  2.08223E+01  1.62242E+01  2.83329E+01  2.74222E+01  3.12841E+01  6.53943E+00  1.74933E+01
   2.30045E+01  1.46394E+01  2.26131E+01  2.63579E+01  2.32892E+01  1.60559E+01  1.65870E+01  1.53780E+01  2.18097E+01  2.11251E+01
   2.46483E+01  2.17586E+01  1.80149E+01  2.29379E+01  1.96273E+01  2.03480E+01  5.27896E+00  1.80563E+01  1.80693E+01  1.35541E+01
   1.16467E+01  2.26402E+01  1.10295E+01  2.33270E+01  1.44735E+01  1.32406E+01  4.75131E+00  2.39254E+01  7.40221E+00  1.84892E+01
   1.52569E+01  7.67590E+00  1.78190E+01  8.46014E+00  2.45170E+01  1.78660E+01  1.67571E+01  1.77674E+01  1.72566E+01  1.40391E+01
   1.43351E+01  1.22303E+01  1.34738E+01  1.37639E+01  2.49596E+01  2.27973E+01  2.18855E+01  1.18674E+01  2.51664E+01  1.52983E+01
   1.79752E+01  1.87770E+01  1.87621E+01  1.19784E+01  1.61612E+01  1.10129E+01  1.45774E+01  1.03201E+01  4.80076E+00  1.25391E+01
   1.27514E+01  4.97585E+00  8.45316E+00  1.84328E+01  1.70132E+01  1.56909E+01  1.56053E+01 -7.24890E-01  2.08645E+01  1.50194E+01
   1.63075E+00  1.48510E+01  1.45085E+01  1.79642E+01  6.72162E+00  7.52853E+00  1.17490E+01  2.04150E+00  1.48116E+01  1.49685E+00
   6.71389E+00  1.03421E+01  1.28553E+01  1.51838E+01  1.94862E+01  1.90822E+01  1.49890E+01  1.49733E+01  8.09563E+00  1.42812E+01
   9.23445E+00  1.71132E+01  1.25575E+01 -1.19998E+01  1.67540E+01  5.63934E+00  9.43694E+00  1.98895E+01  1.65285E+01  1.03925E+01
   1.31811E+01  2.18875E+01  1.55549E+01  4.98448E+00  1.86965E+01  1.34356E+01  1.14666E+01  1.15536E+01  1.29670E+00  1.51025E+01
   1.88608E+01  1.33131E+01  2.20958E+01  8.22080E+00  2.03963E+00  1.59989E+01  1.70489E+01  3.21443E+01  2.47879E+01  1.26452E+01
   1.17583E+01  2.17534E+01  6.58567E+00  1.47178E+01  2.23584E+01  1.39775E+01  1.49735E+01  9.96475E+00  1.63672E+01  1.74193E+01
   2.32734E+01  9.13321E+00  1.68860E+01  2.54869E+01  2.34977E+01  1.27942E+01  2.18338E+01  2.86937E+01  1.75965E+01  1.79938E+01
   2.37555E+01  1.58247E+00  1.14668E+01  1.07671E+01  1.72967E+01  1.52037E+01  2.48737E+01  1.20540E+01  1.85983E+01  1.37083E+01
   1.37288E+01  2.41150E+01  2.39443E+01  2.06107E+01  1.80946E+01  7.83870E+00  2.65640E+01  1.83074E+01  1.60697E+01  1.41826E+01
   5.82589E+00  9.15858E+00  2.83213E+00  1.50213E+01  1.51295E+01 -1.77432E+00  1.02493E+01  9.92420E+00  5.98207E+00  3.34852E+00
   8.73890E+00  4.34817E+00  4.05399E+00 -9.57625E+00  2.68607E+00 -4.06065E+00  3.42547E+00  1.28838E+01 -1.39553E+01 -3.62477E+00
  -1.12396E+01 -1.06667E+01  3.85559E+00 -3.45631E-01  7.78614E+00 -1.40419E-01  1.93819E+00  5.18223E+00  2.21881E+00  8.09084E-01
   2.35584E+00  1.59706E+00 -1.31013E+01  4.25156E+00 -1.33583E+01  4.01426E+00  4.92839E+00 -4.44097E+00  1.44707E+01  1.20149E+01
   1.01773E+01  2.47554E+01  7.44354E+00  1.75194E+01  2.38780E+01  1.78305E+01  2.03909E+01  2.10472E+01  2.47874E+01  1.32629E+01
   1.17110E+01  2.44745E+01  2.39393E+01  1.70919E+01  1.45114E+01  6.28073E+00  1.74980E+01  2.51730E-01  7.14600E-01  6.32131E+00
  -5.52704E+00 -9.05433E+00  8.33219E+00  2.94717E-01  2.71629E+00  1.98250E+00 -3.83111E+00 -1.53421E+01  4.78855E+00  8.28571E+00
  -3.85208E+00  9.33594E+00  1.00666E+01  4.79064E+00  1.88649E+00  2.25466E+00  1.02445E+01  1.76013E+01  1.43988E+01  2.63339E+00
   7.16244E+00  4.99135E+00  1.37211E+00  1.20318E+01  1.07643E+01  7.54715E+00  1.96136E+01  1.26410E+00  2.11813E+00  1.94723E+01
   5.93439E+00  3.33248E+00 -6.77232E+00 -2.98741E+00 -1.09071E+00 -8.92909E+00 -2.80185E+00 -1.49621E+00  5.75062E+00 -6.02229E+00
  -2.79445E+00  2.18038E+00  3.39550E+00 -3.87984E+00 -4.84354E+00  1.35072E+01  1.27660E+01 -8.66425E-01 -1.19805E+01 -6.99640E+00
   2.12418E+00 -8.94988E+00  1.10856E+01 -1.53514E+01  1.06579E-01 -8.69966E+00 -3.89547E+00  4.36260E-01  1.08247E+01  1.68610E+00
  -8.59241E-01  7.18735E+00  1.08511E+01  1.73141E+01  9.17076E+00  8.00568E+00  1.14656E+01  6.33092E-01  1.01767E+01  1.35834E+01
   1.44010E+01  7.19545E+00  1.12944E+01  1.22567E+01  1.43626E+01  1.36882E+01  6.38518E+00  2.35387E+01  1.03598E+01  1.39303E+01
   1.85184E+01  1.17013E+01  7.73476E+00  2.19963E+01  1.18687E+01  3.10635E+00  2.04926E+01  6.50619E+00  1.76490E+01  1.29027E+01
   1.62902E+01  1.90951E+01  1.00368E+01  2.00460E+01  2.10646E+01  1.44487E+01  1.55344E+01  8.19264E+00  1.32823E+01  2.15450E+01
   9.15048E-01  2.43810E+01  8.17757E+00  1.05264E+01  4.04129E+00  1.43568E+01  3.66451E+00  4.89265E+00  3.01452E+00  4.84300E+00
   1.09467E+01  7.29936E+00  7.55771E+00  4.67558E+00  1.70302E+01  2.08453E+01  8.10850E+00  8.41425E+00  1.22757E+01  5.30901E+00
   5.49111E+00  7.38581E-01  3.42839E+00  6.23175E+00  8.37558E+00 -3.11379E+00  4.12759E+00  2.24196E+01 -6.57025E+00  1.01323E+01
  -1.36137E-01  2.32604E+00  7.62936E+00  2.10595E+00  5.87823E+00 -1.97938E-01  7.63994E+00 -5.25014E+00  9.00242E+00  7.62293E+00
   4.73639E+00  1.43398E+01  4.55150E+00  6.13234E+00  2.07517E+00  5.75106E+00  2.08107E+00  6.48655E+00  8.33547E-01  3.00983E+00
   1.33970E+01  1.91766E-01  9.97627E-03  5.75677E+00  9.63352E+00  7.82077E+00  1.55979E+01  4.04525E+00  1.14398E+01  1.56843E-01
   4.51623E+00  4.65261E+00  1.33148E+01 -7.06128E-01  4.94352E+00 -3.39350E+00  4.32778E+00  5.10155E+00
 NY points of the fit to the data follow
   2.93203E+01  2.83611E+01  2.79446E+01  2.76661E+01  2.73892E+01  2.72922E+01  2.77546E+01  2.81538E+01  2.75165E+01  2.65823E+01
   2.64853E+01  2.71578E+01  2.78169E+01  2.80086E+01  2.78572E+01  2.74369E+01  2.69313E+01  2.66586E+01  2.65323E+01  2.63757E+01
   2.62264E+01  2.60368E+01  2.56828E+01  2.52850E+01  2.53713E+01  2.58835E+01  2.62686E+01  2.63232E+01  2.61493E+01  2.57457E+01
   2.49350E+01  2.42866E+01  2.46036E+01  2.53592E+01  2.51852E+01  2.49066E+01  2.54751E+01  2.64971E+01  2.70245E+01  2.65429E+01
   2.55371E+01  2.54159E+01  2.72368E+01  2.78636E+01  2.39039E+01  1.91136E+01  1.95822E+01  2.51159E+01  3.10729E+01  3.42351E+01
   3.37995E+01  3.01701E+01  2.52271E+01  2.20230E+01  2.20756E+01  2.31560E+01  2.30601E+01  2.20738E+01  2.13482E+01  2.18819E+01
   2.34993E+01  2.54717E+01  2.69851E+01  2.68010E+01  2.51864E+01  2.30484E+01  2.16811E+01  2.17599E+01  2.19377E+01  2.17729E+01
   2.20087E+01  2.28173E+01  2.35490E+01  2.38014E+01  2.37914E+01  2.34982E+01  2.28412E+01  2.22992E+01  2.20539E+01  2.18531E+01
   2.16231E+01  2.11765E+01  2.02981E+01  1.97191E+01  2.02058E+01  2.13287E+01  2.17621E+01  2.09450E+01  1.94395E+01  1.80165E+01
   1.70562E+01  1.71855E+01  1.77853E+01  1.81995E+01  1.88025E+01  1.98156E+01  2.08792E+01  2.24597E+01  2.55827E+01  2.35048E+01
   1.64505E+01  1.29911E+01  1.63608E+01  2.23404E+01  2.66127E+01  2.84399E+01  2.73260E+01  2.33315E+01  1.98193E+01  1.87580E+01
   1.85675E+01  1.84665E+01  1.84556E+01  1.84720E+01  1.85004E+01  1.85176E+01  1.85391E+01  1.85509E+01  1.85099E+01  1.84499E+01
   1.84396E+01  1.86079E+01  1.92938E+01  1.94685E+01  1.83530E+01  1.73944E+01  1.77588E+01  1.89406E+01  1.99280E+01  2.03809E+01
   2.02639E+01  1.95025E+01  1.85675E+01  1.80678E+01  1.78849E+01  1.77277E+01  1.75594E+01  1.73719E+01  1.72086E+01  1.70977E+01
   1.69901E+01  1.68553E+01  1.66718E+01  1.64459E+01  1.62448E+01  1.61015E+01  1.59897E+01  1.58673E+01  1.57148E+01  1.55413E+01
   1.53600E+01  1.51913E+01  1.50473E+01  1.49145E+01  1.47771E+01  1.46152E+01  1.44138E+01  1.43044E+01  1.43261E+01  1.43259E+01
   1.42165E+01  1.39284E+01  1.35930E+01  1.34101E+01  1.34096E+01  1.34917E+01  1.35248E+01  1.34608E+01  1.33227E+01  1.31426E+01
   1.29844E+01  1.28400E+01  1.27471E+01  1.28109E+01  1.28215E+01  1.26171E+01  1.22908E+01  1.21224E+01  1.21949E+01  1.23033E+01
   1.23129E+01  1.21782E+01  1.19347E+01  1.18435E+01  1.19736E+01  1.20466E+01  1.19274E+01  1.17254E+01  1.15915E+01  1.15866E+01
   1.16787E+01  1.18049E+01  1.18583E+01  1.17032E+01  1.14826E+01  1.14025E+01  1.14709E+01  1.15735E+01  1.16515E+01  1.17126E+01
   1.16039E+01  1.13410E+01  1.10624E+01  1.10320E+01  1.12053E+01  1.12995E+01  1.14119E+01  1.15512E+01  1.15578E+01  1.15699E+01
   1.16800E+01  1.18672E+01  1.12093E+01  1.01573E+01  1.00397E+01  1.09403E+01  1.19288E+01  1.23436E+01  1.26173E+01  1.31066E+01
   1.30494E+01  1.20086E+01  1.07827E+01  1.00596E+01  1.00180E+01  1.05386E+01  1.14547E+01  1.24689E+01  1.31509E+01  1.33974E+01
   1.34409E+01  1.34163E+01  1.33890E+01  1.34205E+01  1.35681E+01  1.37951E+01  1.41024E+01  1.45016E+01  1.48779E+01  1.53352E+01
   1.57742E+01  1.59509E+01  1.59128E+01  1.60270E+01  1.63599E+01  1.66784E+01  1.70083E+01  1.75432E+01  1.81048E+01  1.83010E+01
   1.81323E+01  1.78128E+01  1.75082E+01  1.72843E+01  1.76689E+01  1.98590E+01  2.13492E+01  1.78889E+01  1.34626E+01  1.32507E+01
   1.65286E+01  1.98224E+01  2.16175E+01  2.16248E+01  1.92183E+01  1.56659E+01  1.35295E+01  1.28062E+01  1.23065E+01  1.18932E+01
   1.14735E+01  1.09745E+01  1.04961E+01  1.01199E+01  9.82765E+00  9.58462E+00  9.36609E+00  9.14577E+00  8.89013E+00  8.60486E+00
   8.31528E+00  8.03814E+00  7.77805E+00  7.53483E+00  7.32468E+00  7.15505E+00  7.00324E+00  6.85811E+00  6.72963E+00  6.61462E+00
   6.50965E+00  6.42117E+00  6.35589E+00  6.31339E+00  6.29506E+00  6.30942E+00  6.36354E+00  6.46220E+00  6.61382E+00  6.82445E+00
   7.09793E+00  7.44042E+00  7.85711E+00  8.34966E+00  8.91615E+00  9.55130E+00  1.02455E+01  1.09847E+01  1.17512E+01  1.25247E+01
   1.32811E+01  1.39941E+01  1.46370E+01  1.51837E+01  1.56112E+01  1.59011E+01  1.60406E+01  1.60235E+01  1.58516E+01  1.55357E+01
   1.51004E+01  1.46033E+01  1.41142E+01  1.31161E+01  1.15192E+01  1.04695E+01  1.03001E+01  1.02308E+01  9.61610E+00  8.52368E+00
   7.56800E+00  6.96202E+00  5.97799E+00  4.74222E+00  3.90438E+00  3.78316E+00  4.16037E+00  4.66638E+00  5.13608E+00  5.28476E+00
   5.00070E+00  4.70900E+00  4.68531E+00  4.53683E+00  4.25378E+00  4.37583E+00  4.99226E+00  5.70599E+00  6.22467E+00  6.62032E+00
   7.17881E+00  7.62563E+00  7.72705E+00  7.76806E+00  7.95536E+00  8.22107E+00  8.38745E+00  8.36370E+00  8.10274E+00  7.52699E+00
   6.76795E+00  6.06866E+00  5.48547E+00  4.99914E+00  4.61152E+00  4.31844E+00  4.10890E+00  3.96817E+00  3.88080E+00  3.83272E+00
   3.81252E+00  3.81176E+00  3.82470E+00  3.84769E+00  3.87863E+00  3.91651E+00  3.96120E+00  4.01303E+00  4.07270E+00  4.14102E+00
   4.21897E+00  4.30782E+00  4.40911E+00  4.52463E+00  4.65630E+00  4.80617E+00  4.97656E+00  5.17007E+00  5.38955E+00  5.63792E+00
   5.91804E+00  6.23263E+00  6.58424E+00  6.97512E+00  7.40695E+00  7.88045E+00  8.39521E+00  8.94945E+00  9.54000E+00  1.01620E+01
   1.08088E+01  1.14717E+01  1.21402E+01  1.28023E+01  1.34446E+01  1.40531E+01  1.46132E+01  1.51105E+01  1.55315E+01  1.58643E+01
   1.60992E+01  1.62291E+01  1.62498E+01  1.61605E+01  1.59634E+01  1.56642E+01  1.52714E+01  1.47961E+01  1.42508E+01  1.36494E+01
   1.30066E+01  1.23370E+01  1.16545E+01  1.09720E+01  1.03007E+01  9.65022E+00  9.02825E+00  8.44079E+00  7.89196E+00  7.38411E+00
   6.91809E+00  6.49358E+00  6.10941E+00  5.76369E+00  5.45396E+00  5.17733E+00  4.93078E+00  4.71134E+00  4.51624E+00  4.34282E+00
   4.18853E+00  4.05096E+00  3.92801E+00  3.81789E+00  3.71909E+00  3.63023E+00  3.55002E+00  3.47728E+00  3.41111E+00  3.35079E+00
   3.29573E+00  3.24531E+00  3.19894E+00  3.15609E+00  3.11643E+00  3.07972E+00  3.04573E+00  3.01413E+00  2.98462E+00  2.95694E+00
   2.93103E+00  2.90680E+00  2.88412E+00  2.86279E+00  2.84260E+00  2.82348E+00  2.80546E+00  2.78849E+00  2.77248E+00  2.75723E+00
   2.74268E+00  2.72880E+00  2.71566E+00  2.70323E+00  2.69140E+00  2.68002E+00  2.66907E+00  2.65861E+00  2.64869E+00  2.63925E+00
   2.63017E+00  2.62135E+00  2.61283E+00  2.60470E+00  2.59697E+00  2.58956E+00  2.58236E+00  2.57531E+00  2.56851E+00  2.56202E+00
   2.55585E+00  2.54985E+00  2.54396E+00  2.53818E+00  2.53262E+00  2.52734E+00  2.52228E+00  2.51731E+00
 NY background values follow
     2.703E+01    2.694E+01    2.685E+01    2.676E+01    2.668E+01    2.659E+01    2.650E+01    2.641E+01    2.633E+01    2.624E+01
     2.615E+01    2.607E+01    2.598E+01    2.589E+01    2.580E+01    2.572E+01    2.563E+01    2.554E+01    2.546E+01    2.537E+01
     2.528E+01    2.519E+01    2.511E+01    2.502E+01    2.493E+01    2.485E+01    2.476E+01    2.467E+01    2.459E+01    2.450E+01
     2.441E+01    2.432E+01    2.424E+01    2.415E+01    2.406E+01    2.398E+01    2.389E+01    2.380E+01    2.372E+01    2.363E+01
     2.354E+01    2.345E+01    2.337E+01    2.328E+01    2.319E+01    2.311E+01    2.302E+01    2.293E+01    2.285E+01    2.276E+01
     2.267E+01    2.259E+01    2.250E+01    2.241E+01    2.233E+01    2.224E+01    2.215E+01    2.207E+01    2.198E+01    2.189E+01
     2.181E+01    2.172E+01    2.163E+01    2.155E+01    2.146E+01    2.138E+01    2.129E+01    2.120E+01    2.112E+01    2.103E+01
     2.095E+01    2.086E+01    2.077E+01    2.069E+01    2.060E+01    2.052E+01    2.043E+01    2.034E+01    2.026E+01    2.017E+01
     2.009E+01    2.000E+01    1.992E+01    1.983E+01    1.975E+01    1.966E+01    1.957E+01    1.949E+01    1.940E+01    1.932E+01
     1.923E+01    1.915E+01    1.906E+01    1.898E+01    1.889E+01    1.881E+01    1.872E+01    1.864E+01    1.856E+01    1.847E+01
     1.839E+01    1.830E+01    1.822E+01    1.813E+01    1.805E+01    1.797E+01    1.788E+01    1.780E+01    1.771E+01    1.763E+01
     1.755E+01    1.746E+01    1.738E+01    1.730E+01    1.721E+01    1.713E+01    1.705E+01    1.696E+01    1.688E+01    1.680E+01
     1.672E+01    1.663E+01    1.655E+01    1.647E+01    1.639E+01    1.630E+01    1.622E+01    1.614E+01    1.606E+01    1.598E+01
     1.590E+01    1.581E+01    1.573E+01    1.565E+01    1.557E+01    1.549E+01    1.541E+01    1.533E+01    1.525E+01    1.517E+01
     1.509E+01    1.501E+01    1.493E+01    1.485E+01    1.477E+01    1.469E+01    1.461E+01    1.453E+01    1.445E+01    1.437E+01
     1.429E+01    1.421E+01    1.413E+01    1.406E+01    1.398E+01    1.390E+01    1.382E+01    1.374E+01    1.367E+01    1.359E+01
     1.351E+01    1.343E+01    1.336E+01    1.328E+01    1.320E+01    1.313E+01    1.305E+01    1.297E+01    1.290E+01    1.282E+01
     1.275E+01    1.267E+01    1.260E+01    1.252E+01    1.245E+01    1.237E+01    1.230E+01    1.222E+01    1.215E+01    1.207E+01
     1.200E+01    1.192E+01    1.185E+01    1.178E+01    1.170E+01    1.163E+01    1.156E+01    1.149E+01    1.141E+01    1.134E+01
     1.127E+01    1.120E+01    1.112E+01    1.105E+01    1.098E+01    1.091E+01    1.084E+01    1.077E+01    1.070E+01    1.063E+01
     1.056E+01    1.049E+01    1.042E+01    1.035E+01    1.028E+01    1.021E+01    1.014E+01    1.007E+01    1.000E+01    9.934E+00
     9.866E+00    9.798E+00    9.730E+00    9.663E+00    9.595E+00    9.528E+00    9.461E+00    9.395E+00    9.328E+00    9.262E+00
     9.196E+00    9.130E+00    9.065E+00    8.999E+00    8.934E+00    8.869E+00    8.805E+00    8.740E+00    8.676E+00    8.612E+00
     8.549E+00    8.485E+00    8.422E+00    8.359E+00    8.296E+00    8.234E+00    8.172E+00    8.110E+00    8.048E+00    7.987E+00
     7.926E+00    7.865E+00    7.804E+00    7.744E+00    7.684E+00    7.624E+00    7.565E+00    7.506E+00    7.447E+00    7.388E+00
     7.330E+00    7.272E+00    7.214E+00    7.157E+00    7.100E+00    7.043E+00    6.986E+00    6.930E+00    6.874E+00    6.819E+00
     6.764E+00    6.709E+00    6.654E+00    6.600E+00    6.546E+00    6.493E+00    6.439E+00    6.387E+00    6.334E+00    6.282E+00
     6.230E+00    6.179E+00    6.128E+00    6.077E+00    6.026E+00    5.976E+00    5.927E+00    5.877E+00    5.828E+00    5.780E+00
     5.732E+00    5.684E+00    5.636E+00    5.589E+00    5.542E+00    5.496E+00    5.450E+00    5.404E+00    5.359E+00    5.314E+00
     5.269E+00    5.225E+00    5.181E+00    5.138E+00    5.095E+00    5.052E+00    5.010E+00    4.968E+00    4.926E+00    4.885E+00
     4.844E+00    4.804E+00    4.764E+00    4.724E+00    4.685E+00    4.646E+00    4.607E+00    4.569E+00    4.531E+00    4.494E+00
     4.457E+00    4.420E+00    4.384E+00    4.348E+00    4.312E+00    4.277E+00    4.243E+00    4.208E+00    4.174E+00    4.141E+00
     4.108E+00    4.075E+00    4.042E+00    4.010E+00    3.979E+00    3.947E+00    3.917E+00    3.886E+00    3.856E+00    3.826E+00
     3.797E+00    3.768E+00    3.739E+00    3.711E+00    3.683E+00    3.655E+00    3.628E+00    3.601E+00    3.575E+00    3.549E+00
     3.523E+00    3.498E+00    3.473E+00    3.448E+00    3.424E+00    3.400E+00    3.376E+00    3.353E+00    3.330E+00    3.307E+00
     3.285E+00    3.263E+00    3.242E+00    3.221E+00    3.200E+00    3.179E+00    3.159E+00    3.139E+00    3.120E+00    3.101E+00
     3.082E+00    3.063E+00    3.045E+00    3.027E+00    3.010E+00    2.993E+00    2.976E+00    2.959E+00    2.943E+00    2.927E+00
     2.912E+00    2.896E+00    2.881E+00    2.867E+00    2.852E+00    2.838E+00    2.824E+00    2.811E+00    2.798E+00    2.785E+00
     2.772E+00    2.760E+00    2.747E+00    2.736E+00    2.724E+00    2.713E+00    2.701E+00    2.691E+00    2.680E+00    2.670E+00
     2.660E+00    2.650E+00    2.640E+00    2.631E+00    2.622E+00    2.613E+00    2.604E+00    2.595E+00    2.587E+00    2.579E+00
     2.571E+00    2.564E+00    2.556E+00    2.549E+00    2.542E+00    2.535E+00    2.528E+00    2.522E+00    2.516E+00    2.510E+00
     2.504E+00    2.498E+00    2.493E+00    2.487E+00    2.482E+00    2.477E+00    2.472E+00    2.467E+00    2.463E+00    2.458E+00
     2.454E+00    2.450E+00    2.446E+00    2.442E+00    2.438E+00    2.435E+00    2.431E+00    2.428E+00    2.425E+00    2.421E+00
     2.418E+00    2.415E+00    2.413E+00    2.410E+00    2.407E+00    2.405E+00    2.402E+00    2.400E+00    2.398E+00    2.396E+00
     2.393E+00    2.391E+00    2.389E+00    2.387E+00    2.386E+00    2.384E+00    2.382E+00    2.380E+00    2.379E+00    2.377E+00
     2.376E+00    2.374E+00    2.373E+00    2.371E+00    2.370E+00    2.368E+00    2.367E+00    2.366E+00    2.364E+00    2.363E+00
     2.362E+00    2.361E+00    2.359E+00    2.358E+00    2.357E+00    2.356E+00    2.355E+00    2.354E+00    2.353E+00    2.351E+00
     2.350E+00    2.349E+00    2.348E+00    2.347E+00    2.346E+00    2.345E+00    2.344E+00    2.343E+00    2.342E+00    2.342E+00
     2.341E+00    2.340E+00    2.339E+00    2.338E+00    2.337E+00    2.336E+00    2.335E+00    2.334E+00    2.333E+00    2.333E+00
     2.332E+00    2.331E+00    2.330E+00    2.329E+00    2.328E+00    2.327E+00    2.326E+00    2.325E+00
 Ala      Conc. = 4.84E+01
