 LCModel (Version 6.3-1L) Copyright: S.W. Provencher.          Ref.: Magn. Reson. Med. 30:672-679 (1993).                
 Slice#2 Row#4 Col#11  PD_24_press_2_raw_act
 36 lines in following concentration table = NCONC+1
    Conc.  %SD /Cr+PCr  Metabolite                                         
  208.214 190%   0.302 Ala                                                 
  100.876 193%   0.146 Asp                                                 
  379.275 135%   0.550 Cr                                                  
  310.893 165%   0.450 PCr                                                 
   51.441 238% 7.5E-02 GABA                                                
   41.064 291% 5.9E-02 Glc                                                 
    0.000 999%   0.000 Gln                                                 
  579.990 133%   0.840 Glu                                                 
    0.000 999%   0.000 GPC                                                 
  265.579  14%   0.385 PCh                                                 
    0.000 999%   0.000 GSH                                                 
  934.604  49%   1.354 Ins                                                 
  109.494 431%   0.159 Lac                                                 
  917.138  25%   1.329 NAA                                                 
  463.161  52%   0.671 NAAG                                                
   89.419  37%   0.130 Scyllo                                              
  191.335  97%   0.277 Tau                                                 
  627.491  23%   0.909 -CrCH2                                              
  265.579  14%   0.385 GPC+PCh                                             
 1.38E+03  10%   2.000 NAA+NAAG                                            
  690.168  15%   1.000 Cr+PCr                                              
  579.990 133%   0.840 Glu+Gln                                             
 7.27E+03  21%  10.540 Lip13a                                              
    0.000 999%   0.000 Lip13b                                              
 1.96E+03  29%   2.835 Lip09                                               
 1.84E+03  33%   2.668 MM09                                                
 1.06E+03  41%   1.533 Lip20                                               
 1.67E+03  43%   2.423 MM20                                                
 1.28E+03  46%   1.850 MM12                                                
   50.658 999% 7.3E-02 MM14                                                
 1.45E+03  29%   2.107 MM17                                                
 7.27E+03  21%  10.540 Lip13a+Lip13b                                       
 8.60E+03  12%  12.463 MM14+Lip13a+Lip13b+MM12                             
 3.80E+03  10%   5.503 MM09+Lip09                                          
 2.73E+03  23%   3.956 MM20+Lip20                                          
   6 lines in following misc. output table
  FWHM = 0.099 ppm    S/N =   3                                            
  Data shift = 0.015 ppm                                                   
  Ph: -26 deg     -12.3 deg/ppm                                            
  alphaB,S = 8.5E+01,   5.9E+02                                            
   14 spline knots.   Ns =11(1)                                            
   2 inflections.     1 extrema                                            
  498 points on ppm-axis = NY
      4.000000     3.992357     3.984714     3.977070     3.969427     3.961784     3.954141     3.946497     3.938854     3.931211
      3.923568     3.915925     3.908281     3.900638     3.892995     3.885352     3.877708     3.870065     3.862422     3.854779
      3.847136     3.839492     3.831849     3.824206     3.816563     3.808919     3.801276     3.793633     3.785990     3.778347
      3.770703     3.763060     3.755417     3.747774     3.740130     3.732487     3.724844     3.717201     3.709558     3.701914
      3.694271     3.686628     3.678985     3.671341     3.663698     3.656055     3.648412     3.640769     3.633125     3.625482
      3.617839     3.610196     3.602552     3.594909     3.587266     3.579623     3.571980     3.564336     3.556693     3.549050
      3.541407     3.533763     3.526120     3.518477     3.510834     3.503191     3.495547     3.487904     3.480261     3.472618
      3.464974     3.457331     3.449688     3.442045     3.434402     3.426758     3.419115     3.411472     3.403829     3.396185
      3.388542     3.380899     3.373256     3.365613     3.357969     3.350326     3.342683     3.335040     3.327396     3.319753
      3.312110     3.304467     3.296824     3.289180     3.281537     3.273894     3.266251     3.258607     3.250964     3.243321
      3.235678     3.228034     3.220391     3.212748     3.205105     3.197462     3.189818     3.182175     3.174532     3.166889
      3.159245     3.151602     3.143959     3.136316     3.128673     3.121029     3.113386     3.105743     3.098100     3.090456
      3.082813     3.075170     3.067527     3.059884     3.052240     3.044597     3.036954     3.029311     3.021667     3.014024
      3.006381     2.998738     2.991095     2.983451     2.975808     2.968165     2.960522     2.952878     2.945235     2.937592
      2.929949     2.922306     2.914662     2.907019     2.899376     2.891733     2.884089     2.876446     2.868803     2.861160
      2.853517     2.845873     2.838230     2.830587     2.822944     2.815300     2.807657     2.800014     2.792371     2.784728
      2.777084     2.769441     2.761798     2.754155     2.746511     2.738868     2.731225     2.723582     2.715939     2.708295
      2.700652     2.693009     2.685366     2.677722     2.670079     2.662436     2.654793     2.647150     2.639506     2.631863
      2.624220     2.616577     2.608933     2.601290     2.593647     2.586004     2.578361     2.570717     2.563074     2.555431
      2.547788     2.540144     2.532501     2.524858     2.517215     2.509572     2.501928     2.494285     2.486642     2.478999
      2.471355     2.463712     2.456069     2.448426     2.440783     2.433139     2.425496     2.417853     2.410210     2.402566
      2.394923     2.387280     2.379637     2.371994     2.364350     2.356707     2.349064     2.341421     2.333777     2.326134
      2.318491     2.310848     2.303205     2.295561     2.287918     2.280275     2.272632     2.264988     2.257345     2.249702
      2.242059     2.234416     2.226772     2.219129     2.211486     2.203843     2.196199     2.188556     2.180913     2.173270
      2.165627     2.157983     2.150340     2.142697     2.135054     2.127410     2.119767     2.112124     2.104481     2.096838
      2.089194     2.081551     2.073908     2.066265     2.058621     2.050978     2.043335     2.035692     2.028049     2.020405
      2.012762     2.005119     1.997476     1.989833     1.982190     1.974546     1.966903     1.959260     1.951617     1.943974
      1.936331     1.928688     1.921045     1.913402     1.905759     1.898115     1.890472     1.882829     1.875186     1.867543
      1.859900     1.852257     1.844614     1.836971     1.829327     1.821684     1.814041     1.806398     1.798755     1.791112
      1.783469     1.775826     1.768183     1.760540     1.752896     1.745253     1.737610     1.729967     1.722324     1.714681
      1.707038     1.699395     1.691752     1.684108     1.676465     1.668822     1.661179     1.653536     1.645893     1.638250
      1.630607     1.622964     1.615321     1.607677     1.600034     1.592391     1.584748     1.577105     1.569462     1.561819
      1.554176     1.546533     1.538890     1.531246     1.523603     1.515960     1.508317     1.500674     1.493031     1.485388
      1.477745     1.470102     1.462458     1.454815     1.447172     1.439529     1.431886     1.424243     1.416600     1.408957
      1.401314     1.393671     1.386027     1.378384     1.370741     1.363098     1.355455     1.347812     1.340169     1.332526
      1.324883     1.317240     1.309596     1.301953     1.294310     1.286667     1.279024     1.271381     1.263738     1.256095
      1.248452     1.240808     1.233165     1.225522     1.217879     1.210236     1.202593     1.194950     1.187307     1.179664
      1.172021     1.164377     1.156734     1.149091     1.141448     1.133805     1.126162     1.118519     1.110876     1.103233
      1.095590     1.087946     1.080303     1.072660     1.065017     1.057374     1.049731     1.042088     1.034445     1.026802
      1.019158     1.011515     1.003872     0.996229     0.988586     0.980943     0.973300     0.965657     0.958014     0.950371
      0.942727     0.935084     0.927441     0.919798     0.912155     0.904512     0.896869     0.889226     0.881583     0.873940
      0.866296     0.858653     0.851010     0.843367     0.835724     0.828081     0.820438     0.812795     0.805152     0.797508
      0.789865     0.782222     0.774579     0.766936     0.759293     0.751650     0.744007     0.736364     0.728721     0.721077
      0.713434     0.705791     0.698148     0.690505     0.682862     0.675219     0.667576     0.659933     0.652290     0.644646
      0.637003     0.629360     0.621717     0.614074     0.606431     0.598788     0.591145     0.583502     0.575858     0.568215
      0.560572     0.552929     0.545286     0.537643     0.530000     0.522357     0.514714     0.507071     0.499427     0.491784
      0.484141     0.476498     0.468855     0.461212     0.453569     0.445925     0.438282     0.430639     0.422996     0.415353
      0.407710     0.400067     0.392424     0.384780     0.377137     0.369494     0.361851     0.354208     0.346565     0.338922
      0.331278     0.323635     0.315992     0.308349     0.300706     0.293063     0.285420     0.277777     0.270133     0.262490
      0.254847     0.247204     0.239561     0.231918     0.224275     0.216631     0.208988     0.201345
 NY phased data points follow
   2.81808E+00  4.50963E+00  1.10009E+01  4.18347E+00  2.45475E+00  5.17393E+00 -1.59279E+00 -1.01373E+00 -2.10215E+00 -1.77739E+00
   1.08773E+01  9.04855E+00  7.47308E+00  7.44785E+00  6.44827E+00  1.04739E+01  1.84407E+00  2.75641E+00 -6.75827E-02  4.98262E+00
   5.75189E+00  2.41600E+00  4.23792E+00 -3.48547E-01  5.70685E+00 -3.98439E-01  4.70893E+00  9.90554E+00  5.13286E+00 -5.04750E+00
  -1.36884E+00  5.73012E+00  6.42877E+00  9.39615E+00  2.89033E+00  5.96098E+00  1.13351E+01  8.26851E+00  4.31726E+00  8.66826E+00
   1.76840E+01  6.92960E+00  1.06833E+01  4.27874E+00  1.41611E+01  4.98147E+00  1.75472E+00  5.97623E+00  1.38839E+01  9.74247E+00
   1.32912E+01  7.21254E+00  1.26449E+01  4.33128E+00  1.34395E+01  7.27997E+00  8.09176E+00  8.17718E+00  1.34174E+01 -1.94360E+00
   9.29673E+00  7.73034E+00  8.26077E+00  3.89335E+00  8.29429E+00  2.61675E+00  6.28251E+00  3.73990E+00  7.56925E+00 -6.46798E-01
   2.37681E+00  7.36174E+00  1.33826E+01  6.95006E+00  6.63186E+00  2.13215E+00 -2.16132E-01  3.33302E+00  4.42591E+00  1.12438E+01
   9.45160E+00  4.90834E+00  1.22212E+01  1.05503E+01  8.06739E+00  5.78012E+00  6.58236E+00  8.94146E+00  1.20628E+01  5.71263E+00
   8.05070E+00  9.65475E+00  2.10227E+01  1.75596E+00  1.78394E+01  2.11475E+01  5.26833E+00  1.18545E+01  1.48389E+01  5.48336E+00
   9.90594E+00  9.58626E+00  1.29598E+01  1.89314E+01  3.12002E+01  2.92777E+01  2.64182E+01  9.36321E+00  1.31040E+01  6.16601E+00
   1.17900E+01  2.69905E+00  7.51882E+00  4.86857E+00  1.23728E+01  5.11471E+00  4.55687E+00  7.05597E+00  7.78728E+00  1.20626E+01
   1.63464E+01  1.58296E+01  1.86188E+01  7.91216E+00  1.60360E+01  1.44679E+01  9.42487E+00  1.98289E+01  1.82054E+01  2.01838E+01
   1.91825E+01  1.82229E+01  1.45144E+01  1.17038E+01  7.79076E+00  1.31603E+01  1.83881E+00  1.04815E+01  8.40727E+00  9.83889E+00
   5.47508E+00 -2.71801E+00  1.96956E+00  7.86507E+00  9.63751E+00  4.26292E+00 -4.33106E+00  3.07123E+00  6.25165E+00  1.02622E+01
   1.00806E+01  2.18796E+00  9.57237E+00  9.26990E+00  6.49848E+00  7.21920E-01  8.62076E+00  1.78364E+00  3.54243E-01  1.04213E+00
   2.50230E+00  6.24812E+00  2.64811E-01 -4.36498E+00  9.33894E+00 -1.78074E+00 -6.74561E-01  2.90434E+00  1.25441E+00 -3.47722E+00
  -3.52319E-01 -5.19939E+00 -3.34303E+00 -4.72160E+00  6.78165E+00  4.24024E+00 -1.01474E+00 -1.81587E+00 -5.36736E+00 -2.89972E+00
   4.79738E+00 -1.72912E+00  4.63030E+00  2.99297E+00 -4.47151E+00 -2.76010E+00  2.08054E+00 -4.40659E+00  8.73751E-01 -1.00624E+01
  -1.87762E+00  1.05787E+00  5.58794E+00 -1.25425E+00  3.27012E+00  6.20350E+00  5.38048E+00  5.69863E+00 -3.96893E-01  2.97735E+00
  -1.09125E+00  2.16078E+00 -3.62748E-02  8.55448E+00  2.66846E+00  7.46799E+00  8.06715E+00  8.67626E+00  7.66912E+00  4.38518E+00
   7.19742E+00  8.04747E+00  8.89949E+00  2.36981E+00  4.97462E+00  7.99052E+00  3.41172E+00  1.27573E+01  7.55681E+00  1.29233E+01
   7.16345E+00  5.23662E-01  3.34414E+00  1.70036E+00  3.47257E+00  9.03053E+00  5.35000E+00  4.12992E+00  8.60287E+00  4.85568E+00
  -2.07312E+00  3.51338E+00  4.16962E+00  1.67883E+01  7.94002E+00  7.68433E+00  3.97472E+00  5.20779E+00  1.44288E+01  8.37204E+00
   4.32763E+00  5.92217E+00  6.72137E+00  4.73278E+00  8.96389E+00  1.15193E+01  4.45750E+00  1.53320E+01  1.53449E+01  9.14865E+00
   1.99838E+01  1.98930E+01  2.80765E+01  2.03479E+01  3.16799E+01  2.90452E+01  3.05522E+01  3.14523E+01  3.58348E+01  2.80916E+01
   3.71132E+01  3.95908E+01  4.18310E+01  3.50274E+01  2.97089E+01  2.63820E+01  1.92765E+01  8.89890E+00  9.81753E+00  1.25235E+01
   7.08126E+00  1.14685E+01  1.20314E+01  7.88318E+00  1.96392E+00  7.28929E+00  1.26789E+01  1.30976E+01  8.34277E+00  2.06969E+00
   7.99099E+00  2.29690E+00  2.17223E-01  6.26049E+00  7.37584E+00  3.66886E+00  5.51013E+00  1.04091E+01  4.31371E+00  7.64402E+00
   1.00395E+01  6.32151E+00  2.83184E-01  6.61830E+00  4.49380E+00 -5.64762E-01  6.36401E+00  5.29283E+00  1.66744E+00  1.06690E+01
   5.16778E+00  7.76144E+00  6.33287E+00  7.66687E+00  6.56683E+00  8.63767E+00  1.51240E+01  1.19183E+01  7.64127E+00  9.07039E+00
   8.38909E+00  1.61113E+01  1.45668E+01  8.72147E+00  8.33880E+00  1.36910E+01  1.01605E+01  1.14896E+01  1.09224E+01  1.13652E+01
   1.80915E+01  1.05924E+01  1.31134E+01  8.56970E+00  1.16144E+01  7.13479E+00  1.09443E+01  1.56791E+01  1.15451E+01  1.65355E+01
   1.06482E+01  9.13093E+00  4.51305E+00  1.57405E+01  7.88063E+00  1.19113E+01  7.82002E+00  1.10730E+01  1.79858E+01  1.42125E+01
   1.30048E+01  1.30311E+01  1.87001E+01  1.68362E+01  1.79146E+01  7.35532E+00  2.60059E+01  2.13517E+01  2.09345E+01  2.31877E+01
   1.24639E+01  2.38610E+01  1.54389E+01  2.32183E+01  1.72489E+01  1.99732E+01  2.71343E+01  2.73628E+01  2.43571E+01  3.08457E+01
   2.67754E+01  2.25443E+01  2.81199E+01  2.04267E+01  2.87187E+01  2.30326E+01  2.80061E+01  2.58583E+01  2.09766E+01  2.96599E+01
   2.52726E+01  2.79002E+01  2.23606E+01  2.80503E+01  2.56854E+01  2.21371E+01  2.22768E+01  2.82970E+01  1.80249E+01  2.74674E+01
   2.73649E+01  2.35718E+01  2.27790E+01  2.85751E+01  1.62282E+01  1.86263E+01  2.00748E+01  2.50701E+01  2.62095E+01  2.40801E+01
   9.02192E+00  1.50842E+01  1.32410E+01  2.94539E+01  3.04843E+01  2.09223E+01  2.69812E+01  2.33062E+01  2.58303E+01  2.40257E+01
   2.14374E+01  2.06999E+01  3.15843E+01  2.18896E+01  1.87462E+01  2.43224E+01  1.93074E+01  2.77149E+01  2.23343E+01  2.14093E+01
   1.63801E+01  2.17530E+01  2.44917E+01  2.82081E+01  1.71166E+01  2.53252E+01  1.80130E+01  1.44029E+01  1.86786E+01  1.52960E+01
   2.30539E+01  1.36209E+01  1.66301E+01  1.36767E+01  1.51809E+01  1.35123E+01  3.74942E+00  9.65792E+00  1.49083E+01  5.64466E+00
   9.93313E+00  5.22699E+00  6.51408E+00  6.06475E+00  5.37403E+00  1.10070E+01  1.73735E+01  1.49471E+01  6.83283E+00  3.90128E+00
   3.95018E+00 -4.23236E+00  1.96731E+00  4.11052E+00 -6.51637E+00  1.37308E+00  2.48233E+00 -1.75683E+00 -2.16998E+00 -2.48803E+00
   4.08915E+00 -2.01315E+00  8.48044E+00 -4.16241E+00 -3.82482E+00  6.72182E+00  3.12328E+00 -2.86606E+00  5.20386E+00 -1.61687E-01
  -9.91398E+00  1.95562E+00 -7.35516E+00 -3.84347E+00 -6.40427E+00 -8.63859E-01 -2.92844E-01 -1.20642E+00  5.80956E+00 -1.30658E+00
  -8.61825E-01 -6.31199E+00 -6.09488E+00  5.65924E+00  4.33322E-02  1.88741E+00  5.02542E+00 -1.41564E+00 -2.57351E+00  7.24337E+00
  -3.55917E+00  8.70795E+00  5.85471E+00 -1.28966E+00  1.07182E+00  9.60612E+00 -6.22888E-01 -4.65242E+00  3.53338E+00  1.06709E+00
   2.75673E+00  4.95307E+00 -3.69262E+00 -5.31506E+00 -5.07578E+00 -2.65736E+00  6.61926E+00  2.79791E+00
 NY points of the fit to the data follow
   6.33720E+00  5.78412E+00  5.37218E+00  5.08161E+00  4.88804E+00  4.78365E+00  4.75950E+00  4.79579E+00  4.90229E+00  5.09509E+00
   5.36789E+00  5.69724E+00  6.04039E+00  6.34620E+00  6.57768E+00  6.71439E+00  6.74912E+00  6.67838E+00  6.51628E+00  6.28258E+00
   5.99645E+00  5.67733E+00  5.38601E+00  5.22916E+00  5.23525E+00  5.32691E+00  5.42769E+00  5.51922E+00  5.58997E+00  5.64385E+00
   5.69340E+00  5.74854E+00  5.81120E+00  5.87857E+00  5.94076E+00  5.99852E+00  6.08978E+00  6.25557E+00  6.48287E+00  6.71683E+00
   6.91039E+00  7.05253E+00  7.16282E+00  7.26447E+00  7.37666E+00  7.51302E+00  7.66661E+00  7.80112E+00  7.87689E+00  7.87024E+00
   7.77229E+00  7.58854E+00  7.33015E+00  7.02895E+00  6.71994E+00  6.43336E+00  6.19856E+00  6.03792E+00  5.96809E+00  5.99581E+00
   6.11256E+00  6.27896E+00  6.42638E+00  6.51082E+00  6.53857E+00  6.53998E+00  6.53192E+00  6.52185E+00  6.51511E+00  6.51380E+00
   6.51805E+00  6.53380E+00  6.56913E+00  6.61801E+00  6.67080E+00  6.75295E+00  6.87215E+00  6.98760E+00  7.06614E+00  7.10315E+00
   7.11374E+00  7.11688E+00  7.12723E+00  7.14618E+00  7.16931E+00  7.18986E+00  7.18285E+00  7.12481E+00  7.01204E+00  6.84450E+00
   6.64136E+00  6.49444E+00  6.67060E+00  7.31175E+00  8.30505E+00  9.50630E+00  1.08015E+01  1.21289E+01  1.34608E+01  1.47824E+01
   1.60427E+01  1.71648E+01  1.80802E+01  1.86984E+01  1.89095E+01  1.86254E+01  1.78220E+01  1.65555E+01  1.49419E+01  1.31246E+01
   1.12446E+01  9.42791E+00  7.77697E+00  6.37631E+00  5.32380E+00  4.78755E+00  5.03096E+00  5.92048E+00  7.13095E+00  8.48367E+00
   9.87425E+00  1.12474E+01  1.25724E+01  1.38341E+01  1.50147E+01  1.60742E+01  1.69392E+01  1.75073E+01  1.76716E+01  1.73602E+01
   1.65683E+01  1.53596E+01  1.38455E+01  1.21582E+01  1.04281E+01  8.76833E+00  7.26702E+00  5.99775E+00  5.02961E+00  4.42750E+00
   4.19150E+00  4.13112E+00  4.11079E+00  4.10011E+00  4.08811E+00  4.07207E+00  4.05257E+00  4.03220E+00  4.01410E+00  3.99198E+00
   3.95069E+00  3.88530E+00  3.80160E+00  3.70909E+00  3.61992E+00  3.53407E+00  3.44750E+00  3.35650E+00  3.25534E+00  3.13701E+00
   3.00183E+00  2.85901E+00  2.71785E+00  2.58292E+00  2.44918E+00  2.30191E+00  2.13601E+00  1.96210E+00  1.79210E+00  1.63380E+00
   1.48253E+00  1.33401E+00  1.18721E+00  1.04599E+00  9.19200E-01  8.17630E-01  7.43866E-01  7.06242E-01  7.15064E-01  7.66103E-01
   8.55241E-01  9.81023E-01  1.13789E+00  1.31951E+00  1.52536E+00  1.75419E+00  2.00091E+00  2.24993E+00  2.48587E+00  2.70377E+00
   2.90534E+00  3.08756E+00  3.24262E+00  3.37138E+00  3.47255E+00  3.55183E+00  3.61259E+00  3.65428E+00  3.66898E+00  3.64591E+00
   3.58836E+00  3.51036E+00  3.41673E+00  3.31786E+00  3.23434E+00  3.19691E+00  3.20377E+00  3.23197E+00  3.26569E+00  3.29666E+00
   3.31752E+00  3.31085E+00  3.27663E+00  3.24510E+00  3.24924E+00  3.29949E+00  3.39073E+00  3.50158E+00  3.60314E+00  3.67911E+00
   3.72245E+00  3.74675E+00  3.78213E+00  3.86227E+00  4.02117E+00  4.27386E+00  4.61469E+00  5.02923E+00  5.49464E+00  5.97678E+00
   6.42296E+00  6.79786E+00  7.09105E+00  7.31485E+00  7.48843E+00  7.63033E+00  7.76693E+00  7.92840E+00  8.12293E+00  8.33804E+00
   8.56465E+00  8.80210E+00  9.06210E+00  9.36164E+00  9.75447E+00  1.03977E+01  1.13296E+01  1.24618E+01  1.37457E+01  1.53614E+01
   1.74778E+01  1.99550E+01  2.26021E+01  2.52613E+01  2.78133E+01  3.01610E+01  3.22201E+01  3.39117E+01  3.51471E+01  3.58344E+01
   3.58882E+01  3.52328E+01  3.38246E+01  3.16954E+01  2.89684E+01  2.58342E+01  2.25119E+01  1.92228E+01  1.61748E+01  1.35133E+01
   1.12299E+01  9.33249E+00  7.90816E+00  7.02989E+00  6.54629E+00  6.19861E+00  5.90862E+00  5.65454E+00  5.42453E+00  5.21372E+00
   5.02281E+00  4.85356E+00  4.70934E+00  4.59333E+00  4.50866E+00  4.45719E+00  4.44005E+00  4.45725E+00  4.50604E+00  4.58348E+00
   4.68867E+00  4.82383E+00  4.99168E+00  5.19350E+00  5.42958E+00  5.70020E+00  6.00493E+00  6.34146E+00  6.70609E+00  7.09545E+00
   7.50497E+00  7.92915E+00  8.36176E+00  8.79554E+00  9.22295E+00  9.63667E+00  1.00279E+01  1.03873E+01  1.07070E+01  1.09806E+01
   1.12033E+01  1.13725E+01  1.14880E+01  1.15539E+01  1.15781E+01  1.15754E+01  1.15710E+01  1.15616E+01  1.15189E+01  1.14283E+01
   1.12884E+01  1.11042E+01  1.08809E+01  1.06207E+01  1.03484E+01  1.01067E+01  9.91071E+00  9.75789E+00  9.64235E+00  9.56567E+00
   9.54103E+00  9.59053E+00  9.73952E+00  1.00100E+01  1.04159E+01  1.09614E+01  1.16425E+01  1.24311E+01  1.32784E+01  1.41431E+01
   1.49904E+01  1.57798E+01  1.64915E+01  1.71343E+01  1.77345E+01  1.83179E+01  1.88960E+01  1.94772E+01  2.00785E+01  2.07041E+01
   2.13376E+01  2.19737E+01  2.26136E+01  2.32587E+01  2.39061E+01  2.45467E+01  2.51649E+01  2.57406E+01  2.62541E+01  2.66880E+01
   2.70265E+01  2.72490E+01  2.73441E+01  2.73182E+01  2.71805E+01  2.69410E+01  2.66124E+01  2.62118E+01  2.57614E+01  2.52710E+01
   2.47428E+01  2.41841E+01  2.36051E+01  2.30173E+01  2.24328E+01  2.18638E+01  2.13225E+01  2.08206E+01  2.03689E+01  1.99772E+01
   1.96540E+01  1.94065E+01  1.92401E+01  1.91582E+01  1.91626E+01  1.92528E+01  1.94261E+01  1.96780E+01  2.00016E+01  2.03882E+01
   2.08274E+01  2.13072E+01  2.18144E+01  2.23350E+01  2.28547E+01  2.33592E+01  2.38345E+01  2.42677E+01  2.46471E+01  2.49623E+01
   2.52048E+01  2.53679E+01  2.54468E+01  2.54385E+01  2.53417E+01  2.51568E+01  2.48857E+01  2.45314E+01  2.40982E+01  2.35911E+01
   2.30160E+01  2.23794E+01  2.16884E+01  2.09505E+01  2.01734E+01  1.93652E+01  1.85338E+01  1.76873E+01  1.68336E+01  1.59799E+01
   1.51335E+01  1.43007E+01  1.34874E+01  1.26985E+01  1.19382E+01  1.12098E+01  1.05159E+01  9.85806E+00  9.23724E+00  8.65366E+00
   8.10698E+00  7.59632E+00  7.12044E+00  6.67776E+00  6.26653E+00  5.88478E+00  5.53055E+00  5.20182E+00  4.89663E+00  4.61306E+00
   4.34932E+00  4.10369E+00  3.87459E+00  3.66055E+00  3.46025E+00  3.27245E+00  3.09607E+00  2.93007E+00  2.77359E+00  2.62577E+00
   2.48592E+00  2.35335E+00  2.22748E+00  2.10776E+00  1.99373E+00  1.88493E+00  1.78099E+00  1.68152E+00  1.58624E+00  1.49482E+00
   1.40701E+00  1.32255E+00  1.24124E+00  1.16286E+00  1.08724E+00  1.01417E+00  9.43541E-01  8.75168E-01  8.08953E-01  7.44738E-01
   6.82438E-01  6.21915E-01  5.63103E-01  5.05881E-01  4.50195E-01  3.95931E-01  3.43045E-01  2.91435E-01  2.41071E-01  1.91859E-01
   1.43775E-01  9.67270E-02  5.06963E-02  5.60308E-03 -3.85633E-02 -8.18791E-02 -1.24355E-01 -1.66066E-01 -2.07016E-01 -2.47273E-01
  -2.86836E-01 -3.25774E-01 -3.64088E-01 -4.01846E-01 -4.39046E-01 -4.75747E-01 -5.11946E-01 -5.47712E-01
 NY background values follow
     3.352E+00    3.340E+00    3.328E+00    3.316E+00    3.304E+00    3.293E+00    3.281E+00    3.269E+00    3.257E+00    3.245E+00
     3.233E+00    3.221E+00    3.209E+00    3.198E+00    3.186E+00    3.174E+00    3.162E+00    3.150E+00    3.138E+00    3.126E+00
     3.114E+00    3.103E+00    3.091E+00    3.079E+00    3.067E+00    3.055E+00    3.043E+00    3.031E+00    3.019E+00    3.007E+00
     2.995E+00    2.983E+00    2.972E+00    2.960E+00    2.948E+00    2.936E+00    2.924E+00    2.912E+00    2.900E+00    2.888E+00
     2.876E+00    2.864E+00    2.852E+00    2.840E+00    2.828E+00    2.816E+00    2.804E+00    2.792E+00    2.780E+00    2.768E+00
     2.756E+00    2.744E+00    2.732E+00    2.721E+00    2.709E+00    2.697E+00    2.685E+00    2.673E+00    2.661E+00    2.649E+00
     2.637E+00    2.625E+00    2.613E+00    2.601E+00    2.589E+00    2.577E+00    2.565E+00    2.553E+00    2.541E+00    2.529E+00
     2.517E+00    2.505E+00    2.493E+00    2.481E+00    2.468E+00    2.456E+00    2.444E+00    2.432E+00    2.420E+00    2.408E+00
     2.396E+00    2.384E+00    2.372E+00    2.360E+00    2.348E+00    2.336E+00    2.324E+00    2.312E+00    2.300E+00    2.288E+00
     2.276E+00    2.264E+00    2.252E+00    2.240E+00    2.228E+00    2.216E+00    2.203E+00    2.191E+00    2.179E+00    2.167E+00
     2.155E+00    2.143E+00    2.131E+00    2.119E+00    2.107E+00    2.095E+00    2.083E+00    2.071E+00    2.059E+00    2.046E+00
     2.034E+00    2.022E+00    2.010E+00    1.998E+00    1.986E+00    1.974E+00    1.962E+00    1.950E+00    1.938E+00    1.926E+00
     1.913E+00    1.901E+00    1.889E+00    1.877E+00    1.865E+00    1.853E+00    1.841E+00    1.829E+00    1.817E+00    1.804E+00
     1.792E+00    1.780E+00    1.768E+00    1.756E+00    1.744E+00    1.732E+00    1.720E+00    1.707E+00    1.695E+00    1.683E+00
     1.671E+00    1.659E+00    1.647E+00    1.635E+00    1.622E+00    1.610E+00    1.598E+00    1.586E+00    1.574E+00    1.562E+00
     1.550E+00    1.537E+00    1.525E+00    1.513E+00    1.501E+00    1.489E+00    1.477E+00    1.465E+00    1.452E+00    1.440E+00
     1.428E+00    1.416E+00    1.404E+00    1.392E+00    1.379E+00    1.367E+00    1.355E+00    1.343E+00    1.331E+00    1.319E+00
     1.306E+00    1.294E+00    1.282E+00    1.270E+00    1.258E+00    1.246E+00    1.233E+00    1.221E+00    1.209E+00    1.197E+00
     1.185E+00    1.173E+00    1.160E+00    1.148E+00    1.136E+00    1.124E+00    1.112E+00    1.100E+00    1.087E+00    1.075E+00
     1.063E+00    1.051E+00    1.039E+00    1.026E+00    1.014E+00    1.002E+00    9.899E-01    9.777E-01    9.656E-01    9.534E-01
     9.412E-01    9.290E-01    9.168E-01    9.046E-01    8.924E-01    8.803E-01    8.681E-01    8.559E-01    8.437E-01    8.315E-01
     8.193E-01    8.071E-01    7.949E-01    7.827E-01    7.706E-01    7.584E-01    7.462E-01    7.340E-01    7.218E-01    7.096E-01
     6.974E-01    6.852E-01    6.730E-01    6.608E-01    6.486E-01    6.364E-01    6.242E-01    6.120E-01    5.999E-01    5.877E-01
     5.755E-01    5.633E-01    5.511E-01    5.389E-01    5.267E-01    5.145E-01    5.023E-01    4.901E-01    4.779E-01    4.657E-01
     4.535E-01    4.413E-01    4.291E-01    4.169E-01    4.047E-01    3.925E-01    3.804E-01    3.682E-01    3.560E-01    3.438E-01
     3.316E-01    3.194E-01    3.072E-01    2.950E-01    2.828E-01    2.706E-01    2.584E-01    2.462E-01    2.340E-01    2.218E-01
     2.097E-01    1.975E-01    1.853E-01    1.731E-01    1.609E-01    1.487E-01    1.365E-01    1.243E-01    1.121E-01    9.994E-02
     8.775E-02    7.556E-02    6.337E-02    5.119E-02    3.900E-02    2.681E-02    1.463E-02    2.444E-03   -9.741E-03   -2.193E-02
    -3.411E-02   -4.629E-02   -5.847E-02   -7.066E-02   -8.284E-02   -9.502E-02   -1.072E-01   -1.194E-01   -1.316E-01   -1.437E-01
    -1.559E-01   -1.681E-01   -1.803E-01   -1.924E-01   -2.046E-01   -2.168E-01   -2.290E-01   -2.411E-01   -2.533E-01   -2.655E-01
    -2.777E-01   -2.898E-01   -3.020E-01   -3.142E-01   -3.263E-01   -3.385E-01   -3.507E-01   -3.628E-01   -3.750E-01   -3.872E-01
    -3.993E-01   -4.115E-01   -4.236E-01   -4.358E-01   -4.480E-01   -4.601E-01   -4.723E-01   -4.844E-01   -4.966E-01   -5.087E-01
    -5.209E-01   -5.330E-01   -5.452E-01   -5.573E-01   -5.695E-01   -5.816E-01   -5.938E-01   -6.059E-01   -6.181E-01   -6.302E-01
    -6.424E-01   -6.545E-01   -6.666E-01   -6.788E-01   -6.909E-01   -7.030E-01   -7.152E-01   -7.273E-01   -7.394E-01   -7.516E-01
    -7.637E-01   -7.758E-01   -7.880E-01   -8.001E-01   -8.122E-01   -8.243E-01   -8.364E-01   -8.486E-01   -8.607E-01   -8.728E-01
    -8.849E-01   -8.970E-01   -9.091E-01   -9.213E-01   -9.334E-01   -9.455E-01   -9.576E-01   -9.697E-01   -9.818E-01   -9.939E-01
    -1.006E+00   -1.018E+00   -1.030E+00   -1.042E+00   -1.054E+00   -1.066E+00   -1.079E+00   -1.091E+00   -1.103E+00   -1.115E+00
    -1.127E+00   -1.139E+00   -1.151E+00   -1.163E+00   -1.175E+00   -1.187E+00   -1.199E+00   -1.211E+00   -1.224E+00   -1.236E+00
    -1.248E+00   -1.260E+00   -1.272E+00   -1.284E+00   -1.296E+00   -1.308E+00   -1.320E+00   -1.332E+00   -1.344E+00   -1.356E+00
    -1.368E+00   -1.380E+00   -1.392E+00   -1.404E+00   -1.416E+00   -1.428E+00   -1.440E+00   -1.453E+00   -1.465E+00   -1.477E+00
    -1.489E+00   -1.501E+00   -1.513E+00   -1.525E+00   -1.537E+00   -1.549E+00   -1.561E+00   -1.573E+00   -1.585E+00   -1.597E+00
    -1.609E+00   -1.621E+00   -1.633E+00   -1.645E+00   -1.657E+00   -1.669E+00   -1.681E+00   -1.693E+00   -1.705E+00   -1.717E+00
    -1.729E+00   -1.741E+00   -1.753E+00   -1.765E+00   -1.777E+00   -1.789E+00   -1.801E+00   -1.813E+00   -1.825E+00   -1.837E+00
    -1.848E+00   -1.860E+00   -1.872E+00   -1.884E+00   -1.896E+00   -1.908E+00   -1.920E+00   -1.932E+00   -1.944E+00   -1.956E+00
    -1.968E+00   -1.980E+00   -1.992E+00   -2.004E+00   -2.016E+00   -2.028E+00   -2.040E+00   -2.051E+00   -2.063E+00   -2.075E+00
    -2.087E+00   -2.099E+00   -2.111E+00   -2.123E+00   -2.135E+00   -2.147E+00   -2.159E+00   -2.171E+00   -2.182E+00   -2.194E+00
    -2.206E+00   -2.218E+00   -2.230E+00   -2.242E+00   -2.254E+00   -2.266E+00   -2.277E+00   -2.289E+00   -2.301E+00   -2.313E+00
    -2.325E+00   -2.337E+00   -2.349E+00   -2.360E+00   -2.372E+00   -2.384E+00   -2.396E+00   -2.408E+00   -2.420E+00   -2.431E+00
    -2.443E+00   -2.455E+00   -2.467E+00   -2.479E+00   -2.490E+00   -2.502E+00   -2.514E+00   -2.526E+00   -2.538E+00   -2.550E+00
    -2.561E+00   -2.573E+00   -2.585E+00   -2.597E+00   -2.608E+00   -2.620E+00   -2.632E+00   -2.644E+00
 Ala      Conc. = 2.08E+02
