 LCModel (Version 6.3-1L) Copyright: S.W. Provencher.          Ref.: Magn. Reson. Med. 30:672-679 (1993).                
 Slice#3 Row#9 Col#8  PD_24_press_2_raw_act
 36 lines in following concentration table = NCONC+1
    Conc.  %SD /Cr+PCr  Metabolite                                         
   69.724 161% 2.5E-02 Ala                                                 
    0.000 999%   0.000 Asp                                                 
  941.845  25%   0.334 Cr                                                  
 1.88E+03  13%   0.666 PCr                                                 
    0.000 999%   0.000 GABA                                                
    0.000 999%   0.000 Glc                                                 
  661.492  35%   0.234 Gln                                                 
 1.95E+03  13%   0.690 Glu                                                 
  805.794   4%   0.285 GPC                                                 
    0.000 999%   0.000 PCh                                                 
  620.641  13%   0.220 GSH                                                 
 1.79E+03  15%   0.634 Ins                                                 
  232.451  57% 8.2E-02 Lac                                                 
 3.19E+03   4%   1.130 NAA                                                 
  174.128  75% 6.2E-02 NAAG                                                
  163.070  19% 5.8E-02 Scyllo                                              
  313.885  76%   0.111 Tau                                                 
    0.000 999%   0.000 -CrCH2                                              
  805.794   4%   0.285 GPC+PCh                                             
 3.36E+03   3%   1.191 NAA+NAAG                                            
 2.82E+03   2%   1.000 Cr+PCr                                              
 2.61E+03  14%   0.924 Glu+Gln                                             
  594.218  93%   0.211 Lip13a                                              
  345.785  58%   0.122 Lip13b                                              
    0.000 999%   0.000 Lip09                                               
 1.76E+03  13%   0.625 MM09                                                
  189.616  83% 6.7E-02 Lip20                                               
 4.79E+03   9%   1.698+MM20                                                
  566.290  29%   0.201 MM12                                                
 1.73E+03  22%   0.614 MM14                                                
 1.10E+03  24%   0.389 MM17                                                
  940.004  46%   0.333 Lip13a+Lip13b                                       
 3.24E+03  13%   1.148 MM14+Lip13a+Lip13b+MM12                             
 1.76E+03  13%   0.625 MM09+Lip09                                          
 4.98E+03   9%   1.765 MM20+Lip20                                          
   6 lines in following misc. output table
  FWHM = 0.046 ppm    S/N =  16                                            
  Data shift = 0.023 ppm                                                   
  Ph: -16 deg      -1.1 deg/ppm                                            
  alphaB,S = 3.5E+00,   5.1E+01                                            
   14 spline knots.   Ns = 6(1)                                            
  (11) 5 infls.   ( 7) 1 extrs.                                            
  498 points on ppm-axis = NY
      4.000000     3.992357     3.984714     3.977070     3.969427     3.961784     3.954141     3.946497     3.938854     3.931211
      3.923568     3.915925     3.908281     3.900638     3.892995     3.885352     3.877708     3.870065     3.862422     3.854779
      3.847136     3.839492     3.831849     3.824206     3.816563     3.808919     3.801276     3.793633     3.785990     3.778347
      3.770703     3.763060     3.755417     3.747774     3.740130     3.732487     3.724844     3.717201     3.709558     3.701914
      3.694271     3.686628     3.678985     3.671341     3.663698     3.656055     3.648412     3.640769     3.633125     3.625482
      3.617839     3.610196     3.602552     3.594909     3.587266     3.579623     3.571980     3.564336     3.556693     3.549050
      3.541407     3.533763     3.526120     3.518477     3.510834     3.503191     3.495547     3.487904     3.480261     3.472618
      3.464974     3.457331     3.449688     3.442045     3.434402     3.426758     3.419115     3.411472     3.403829     3.396185
      3.388542     3.380899     3.373256     3.365613     3.357969     3.350326     3.342683     3.335040     3.327396     3.319753
      3.312110     3.304467     3.296824     3.289180     3.281537     3.273894     3.266251     3.258607     3.250964     3.243321
      3.235678     3.228034     3.220391     3.212748     3.205105     3.197462     3.189818     3.182175     3.174532     3.166889
      3.159245     3.151602     3.143959     3.136316     3.128673     3.121029     3.113386     3.105743     3.098100     3.090456
      3.082813     3.075170     3.067527     3.059884     3.052240     3.044597     3.036954     3.029311     3.021667     3.014024
      3.006381     2.998738     2.991095     2.983451     2.975808     2.968165     2.960522     2.952878     2.945235     2.937592
      2.929949     2.922306     2.914662     2.907019     2.899376     2.891733     2.884089     2.876446     2.868803     2.861160
      2.853517     2.845873     2.838230     2.830587     2.822944     2.815300     2.807657     2.800014     2.792371     2.784728
      2.777084     2.769441     2.761798     2.754155     2.746511     2.738868     2.731225     2.723582     2.715939     2.708295
      2.700652     2.693009     2.685366     2.677722     2.670079     2.662436     2.654793     2.647150     2.639506     2.631863
      2.624220     2.616577     2.608933     2.601290     2.593647     2.586004     2.578361     2.570717     2.563074     2.555431
      2.547788     2.540144     2.532501     2.524858     2.517215     2.509572     2.501928     2.494285     2.486642     2.478999
      2.471355     2.463712     2.456069     2.448426     2.440783     2.433139     2.425496     2.417853     2.410210     2.402566
      2.394923     2.387280     2.379637     2.371994     2.364350     2.356707     2.349064     2.341421     2.333777     2.326134
      2.318491     2.310848     2.303205     2.295561     2.287918     2.280275     2.272632     2.264988     2.257345     2.249702
      2.242059     2.234416     2.226772     2.219129     2.211486     2.203843     2.196199     2.188556     2.180913     2.173270
      2.165627     2.157983     2.150340     2.142697     2.135054     2.127410     2.119767     2.112124     2.104481     2.096838
      2.089194     2.081551     2.073908     2.066265     2.058621     2.050978     2.043335     2.035692     2.028049     2.020405
      2.012762     2.005119     1.997476     1.989833     1.982190     1.974546     1.966903     1.959260     1.951617     1.943974
      1.936331     1.928688     1.921045     1.913402     1.905759     1.898115     1.890472     1.882829     1.875186     1.867543
      1.859900     1.852257     1.844614     1.836971     1.829327     1.821684     1.814041     1.806398     1.798755     1.791112
      1.783469     1.775826     1.768183     1.760540     1.752896     1.745253     1.737610     1.729967     1.722324     1.714681
      1.707038     1.699395     1.691752     1.684108     1.676465     1.668822     1.661179     1.653536     1.645893     1.638250
      1.630607     1.622964     1.615321     1.607677     1.600034     1.592391     1.584748     1.577105     1.569462     1.561819
      1.554176     1.546533     1.538890     1.531246     1.523603     1.515960     1.508317     1.500674     1.493031     1.485388
      1.477745     1.470102     1.462458     1.454815     1.447172     1.439529     1.431886     1.424243     1.416600     1.408957
      1.401314     1.393671     1.386027     1.378384     1.370741     1.363098     1.355455     1.347812     1.340169     1.332526
      1.324883     1.317240     1.309596     1.301953     1.294310     1.286667     1.279024     1.271381     1.263738     1.256095
      1.248452     1.240808     1.233165     1.225522     1.217879     1.210236     1.202593     1.194950     1.187307     1.179664
      1.172021     1.164377     1.156734     1.149091     1.141448     1.133805     1.126162     1.118519     1.110876     1.103233
      1.095590     1.087946     1.080303     1.072660     1.065017     1.057374     1.049731     1.042088     1.034445     1.026802
      1.019158     1.011515     1.003872     0.996229     0.988586     0.980943     0.973300     0.965657     0.958014     0.950371
      0.942727     0.935084     0.927441     0.919798     0.912155     0.904512     0.896869     0.889226     0.881583     0.873940
      0.866296     0.858653     0.851010     0.843367     0.835724     0.828081     0.820438     0.812795     0.805152     0.797508
      0.789865     0.782222     0.774579     0.766936     0.759293     0.751650     0.744007     0.736364     0.728721     0.721077
      0.713434     0.705791     0.698148     0.690505     0.682862     0.675219     0.667576     0.659933     0.652290     0.644646
      0.637003     0.629360     0.621717     0.614074     0.606431     0.598788     0.591145     0.583502     0.575858     0.568215
      0.560572     0.552929     0.545286     0.537643     0.530000     0.522357     0.514714     0.507071     0.499427     0.491784
      0.484141     0.476498     0.468855     0.461212     0.453569     0.445925     0.438282     0.430639     0.422996     0.415353
      0.407710     0.400067     0.392424     0.384780     0.377137     0.369494     0.361851     0.354208     0.346565     0.338922
      0.331278     0.323635     0.315992     0.308349     0.300706     0.293063     0.285420     0.277777     0.270133     0.262490
      0.254847     0.247204     0.239561     0.231918     0.224275     0.216631     0.208988     0.201345
 NY phased data points follow
  -5.16910E+01 -4.99713E+01 -4.85940E+01 -4.45048E+01 -3.63704E+01 -3.20348E+01 -1.57916E+01 -4.63427E+00  1.00882E+01  1.90734E+01
   2.48981E+01  2.05459E+01  1.40852E+01  4.81118E+00 -1.13006E+01 -2.16074E+01 -3.18205E+01 -3.57567E+01 -4.16482E+01 -3.91047E+01
  -4.34426E+01 -4.04935E+01 -4.49162E+01 -3.85680E+01 -3.75577E+01 -3.74419E+01 -3.67285E+01 -3.28037E+01 -2.70815E+01 -2.61179E+01
  -2.29694E+01 -2.50970E+01 -2.84930E+01 -2.73004E+01 -2.61434E+01 -3.41298E+01 -3.94783E+01 -4.22082E+01 -3.65742E+01 -3.74006E+01
  -3.77764E+01 -3.69186E+01 -3.29599E+01 -3.30138E+01 -3.20476E+01 -2.78503E+01 -2.00569E+01 -1.77642E+01 -1.82832E+01 -2.21083E+01
  -2.71663E+01 -3.25280E+01 -3.30855E+01 -3.39756E+01 -3.24409E+01 -3.02700E+01 -2.87541E+01 -3.18938E+01 -2.43343E+01 -3.15867E+01
  -3.49846E+01 -3.48065E+01 -3.46378E+01 -4.03701E+01 -4.39629E+01 -3.72704E+01 -4.31706E+01 -4.11409E+01 -3.92017E+01 -3.61851E+01
  -3.97904E+01 -3.87225E+01 -4.18446E+01 -3.43875E+01 -3.75934E+01 -3.89554E+01 -3.33852E+01 -3.66451E+01 -3.69614E+01 -3.41871E+01
  -3.79124E+01 -3.43250E+01 -3.20026E+01 -3.72776E+01 -2.53988E+01 -2.81956E+01 -3.04303E+01 -3.19677E+01 -2.95771E+01 -3.66634E+01
  -2.99497E+01 -3.28780E+01 -2.86800E+01 -2.73053E+01 -2.98829E+01 -2.40740E+01 -2.37134E+01 -1.83016E+01 -1.34552E+01 -4.13587E+00
   7.33416E+00  2.19275E+01  4.18500E+01  4.06058E+01  3.83684E+01  2.69097E+01  9.83997E+00  1.04164E+00 -9.04808E+00 -1.91327E+01
  -2.13534E+01 -2.30466E+01 -2.66321E+01 -2.41283E+01 -2.45662E+01 -2.68323E+01 -3.23258E+01 -2.69866E+01 -2.89736E+01 -2.33942E+01
  -2.31970E+01 -1.87840E+01 -1.39746E+01 -3.08086E+00  2.27755E+01  3.89398E+01  6.31995E+01  7.12023E+01  6.76652E+01  4.59319E+01
   3.67581E+01  1.60397E+01  2.01392E+00 -3.36827E+00 -1.04792E+01 -2.26469E+01 -2.46028E+01 -3.16992E+01 -2.74592E+01 -2.39781E+01
  -2.53710E+01 -2.93684E+01 -2.72724E+01 -3.02357E+01 -2.91392E+01 -2.95250E+01 -3.20457E+01 -2.67564E+01 -2.77257E+01 -2.98594E+01
  -3.03389E+01 -3.10683E+01 -2.96420E+01 -2.87878E+01 -3.00221E+01 -2.78719E+01 -2.93601E+01 -3.60428E+01 -2.99668E+01 -3.00748E+01
  -3.34995E+01 -3.12916E+01 -3.23262E+01 -3.31809E+01 -3.54435E+01 -2.99027E+01 -2.44074E+01 -2.33778E+01 -3.23450E+01 -3.43680E+01
  -3.99752E+01 -4.02203E+01 -4.11276E+01 -4.01859E+01 -3.96933E+01 -4.46790E+01 -4.75605E+01 -4.56941E+01 -4.35092E+01 -4.27611E+01
  -3.95097E+01 -4.78844E+01 -4.74840E+01 -4.54478E+01 -3.89047E+01 -3.79081E+01 -4.01392E+01 -3.48706E+01 -2.86216E+01 -2.59982E+01
  -2.44905E+01 -1.86527E+01 -1.58243E+01 -2.03293E+01 -1.59888E+01 -1.65067E+01 -2.36144E+01 -2.00063E+01 -2.79390E+01 -2.64998E+01
  -2.72874E+01 -2.84265E+01 -2.24314E+01 -2.32281E+01 -2.28139E+01 -2.41137E+01 -3.13861E+01 -2.87606E+01 -3.48057E+01 -3.87657E+01
  -3.17373E+01 -3.34450E+01 -2.71662E+01 -2.13768E+01 -1.48786E+01 -9.92905E+00 -1.39343E+01 -9.90836E+00 -1.23747E+01 -1.97012E+01
  -2.27385E+01 -3.16868E+01 -2.66198E+01 -3.30267E+01 -2.61176E+01 -1.76417E+01 -1.42706E+01 -1.10872E+01 -1.59058E+01 -1.19537E+01
  -1.05274E+01 -1.33841E+01 -1.01075E+01 -1.22010E+01 -1.10725E+01 -1.30208E+01 -1.60136E+01 -1.99543E+01 -1.64925E+01 -1.29794E+01
  -1.32032E+01 -1.45444E+01 -1.49866E+01 -1.31068E+01 -7.98648E+00 -8.47352E+00  6.54543E-01 -1.95244E+00  2.59443E+00  4.40522E+00
  -1.57746E+00 -4.13258E+00  2.23623E+00  1.12195E+01  1.67327E+01  2.27024E+01  3.15332E+01  4.40269E+01  6.79018E+01  9.97641E+01
   1.14240E+02  1.11890E+02  9.71155E+01  6.40416E+01  4.04046E+01  2.40040E+01  9.72140E+00  1.78867E+00  3.19372E+00 -4.55861E+00
  -4.40792E+00 -5.93226E+00 -7.15298E+00 -1.01986E+01 -1.34085E+01 -1.18642E+01 -1.17016E+01 -1.53422E+01 -1.09554E+01 -1.23368E+01
  -1.25999E+01 -1.27352E+01 -1.09079E+01 -1.63822E+01 -1.50889E+01 -1.79348E+01 -1.61970E+01 -1.63246E+01 -1.76945E+01 -1.47499E+01
  -9.74621E+00 -1.29211E+01 -1.40251E+01 -1.89724E+01 -1.63497E+01 -1.42938E+01 -1.10926E+01 -1.20036E+01 -1.81254E+01 -1.40655E+01
  -1.58136E+01 -1.17983E+01 -1.68365E+01 -1.48117E+01 -1.03582E+01 -1.30823E+01 -8.90482E+00 -1.53598E+01 -1.15712E+01 -7.47801E+00
  -1.00717E+01 -1.14199E+01 -9.00811E+00 -1.30430E+01 -1.64104E+01 -1.42141E+01 -1.36530E+01 -1.53258E+01 -1.05482E+01 -1.38979E+01
  -1.45807E+01 -1.31907E+01 -1.13011E+01 -1.45658E+01 -1.44892E+01 -1.17199E+01 -1.25984E+01 -1.02590E+01 -1.21540E+01 -1.39631E+01
  -9.10299E+00 -1.32585E+01 -7.78205E+00 -1.06777E+01 -7.55620E+00 -6.05151E+00 -4.48234E+00 -1.98851E+00 -5.06604E+00 -4.71784E+00
  -2.32059E+00 -1.09620E+01 -9.47221E+00 -8.78628E+00 -2.75448E+00 -3.45941E+00 -9.24602E+00 -3.73830E+00 -6.67141E+00 -9.02051E+00
  -3.23265E+00 -1.08561E+01 -1.01359E+01 -6.14415E+00 -6.33026E+00  6.86038E-01  4.91575E-02 -6.03150E+00 -4.16147E+00 -3.20145E+00
  -6.59242E+00 -3.17472E+00 -3.93035E+00 -6.27422E+00 -1.11937E+01 -1.11345E+01 -1.00837E+01 -8.41957E+00 -1.18731E+01 -1.08907E+01
  -7.62124E+00 -9.88776E+00 -8.39319E+00 -7.80733E+00 -1.00530E+01 -1.05600E+01 -8.90033E+00 -1.14577E+01 -8.87903E+00 -1.06442E+01
  -9.26564E+00 -9.62253E+00 -1.36131E+01 -1.10223E+01 -1.32519E+01 -1.39889E+01 -1.51820E+01 -1.00901E+01 -1.22108E+01 -1.23995E+01
  -7.19231E+00 -9.64430E+00 -4.09312E+00 -5.16145E+00 -6.29987E+00 -5.72031E+00 -4.79502E+00 -2.96511E+00 -1.07724E+01 -6.89473E+00
  -4.48230E+00 -6.80020E+00 -7.55248E+00 -5.84390E+00 -3.78807E+00 -7.17604E+00 -2.56274E+00 -7.38628E+00 -4.22919E+00 -9.39419E+00
  -2.43273E+00 -6.65949E+00 -3.39008E+00 -1.60591E+00 -1.17487E+01 -8.27695E+00 -8.94832E+00 -8.57809E+00 -9.52422E+00 -9.80413E+00
  -1.30870E+01 -1.17781E+01 -1.19462E+01 -1.19576E+01 -1.10476E+01 -1.21384E+01 -1.11917E+01 -8.45510E+00 -1.05601E+01 -9.58513E+00
  -1.43498E+01 -1.08079E+01 -1.16321E+01 -1.31140E+01 -7.78556E+00 -5.60422E+00 -1.11135E+01 -1.07431E+01 -1.52373E+01 -1.41585E+01
  -1.09235E+01 -1.29526E+01 -1.16455E+01 -1.38840E+01 -1.30524E+01 -1.34222E+01 -1.21971E+01 -9.18617E+00 -8.51129E+00 -1.42483E+01
  -1.44626E+01 -1.08216E+01 -1.13208E+01 -1.32602E+01 -7.18250E+00 -1.40865E+01 -1.42133E+01 -1.63987E+01 -9.25914E+00 -1.37665E+01
  -1.55092E+01 -1.28300E+01 -9.86751E+00 -1.37664E+01 -1.38059E+01 -8.99746E+00 -1.01782E+01 -1.38511E+01 -9.00893E+00 -8.15214E+00
  -1.12280E+01 -1.23743E+01 -1.12062E+01 -9.68540E+00 -1.19586E+01 -1.27341E+01 -6.13011E+00 -1.02037E+01 -1.24727E+01 -1.05919E+01
  -1.13391E+01 -8.54459E+00 -1.49063E+01 -9.46174E+00 -1.06940E+01 -1.25264E+01 -1.05148E+01 -1.12116E+01 -1.07560E+01 -1.07996E+01
  -7.09469E+00 -9.27862E+00 -1.32444E+01 -1.03394E+01 -1.08979E+01 -7.49116E+00 -8.97516E+00 -1.21995E+01
 NY points of the fit to the data follow
  -4.45274E+01 -4.44911E+01 -4.36758E+01 -4.08063E+01 -3.53348E+01 -2.85863E+01 -1.96065E+01 -6.90244E+00  8.07437E+00  2.03881E+01
   2.52804E+01  2.14012E+01  1.10826E+01 -1.34221E+00 -1.22050E+01 -2.01446E+01 -2.63928E+01 -3.17523E+01 -3.52622E+01 -3.69959E+01
  -3.78259E+01 -3.84409E+01 -3.91649E+01 -3.92353E+01 -3.85496E+01 -3.81722E+01 -3.69732E+01 -3.41814E+01 -3.02799E+01 -2.66266E+01
  -2.42738E+01 -2.34024E+01 -2.42074E+01 -2.63033E+01 -2.89382E+01 -3.16276E+01 -3.45527E+01 -3.71527E+01 -3.83878E+01 -3.87836E+01
  -3.81958E+01 -3.65844E+01 -3.46437E+01 -3.25993E+01 -2.99937E+01 -2.66318E+01 -2.35476E+01 -2.23112E+01 -2.33960E+01 -2.63450E+01
  -3.00742E+01 -3.33602E+01 -3.55805E+01 -3.68007E+01 -3.75030E+01 -3.75876E+01 -3.68883E+01 -3.57163E+01 -3.43871E+01 -3.33350E+01
  -3.29517E+01 -3.33977E+01 -3.45748E+01 -3.58979E+01 -3.68966E+01 -3.72432E+01 -3.70337E+01 -3.65450E+01 -3.59484E+01 -3.52053E+01
  -3.43504E+01 -3.37345E+01 -3.33848E+01 -3.32442E+01 -3.33380E+01 -3.36168E+01 -3.41172E+01 -3.47148E+01 -3.53603E+01 -3.57932E+01
  -3.54532E+01 -3.44755E+01 -3.36343E+01 -3.24380E+01 -3.06428E+01 -2.90062E+01 -2.84738E+01 -2.93236E+01 -3.10642E+01 -3.28955E+01
  -3.40337E+01 -3.44566E+01 -3.44280E+01 -3.43642E+01 -3.42809E+01 -3.33526E+01 -3.03923E+01 -2.37732E+01 -1.66143E+01 -7.39428E+00
   7.31168E+00  2.55594E+01  4.04968E+01  4.56359E+01  3.98264E+01  2.63420E+01  1.07360E+01 -2.49164E+00 -1.18517E+01 -1.90032E+01
  -2.57895E+01 -2.95940E+01 -3.08913E+01 -3.14093E+01 -3.16172E+01 -3.16786E+01 -3.16166E+01 -3.14452E+01 -3.10813E+01 -3.02493E+01
  -2.75637E+01 -1.99599E+01 -1.04176E+01  2.95439E-01  1.75006E+01  4.07946E+01  6.22713E+01  7.26564E+01  6.83954E+01  5.27331E+01
   3.29184E+01  1.52865E+01  2.30427E+00 -7.56801E+00 -1.77113E+01 -2.52035E+01 -2.82473E+01 -2.91998E+01 -2.88840E+01 -2.79038E+01
  -2.69389E+01 -2.63136E+01 -2.61008E+01 -2.63677E+01 -2.69049E+01 -2.74742E+01 -2.80351E+01 -2.84964E+01 -2.89798E+01 -2.94132E+01
  -2.97415E+01 -3.00365E+01 -3.02838E+01 -3.04257E+01 -3.04714E+01 -3.05951E+01 -3.06904E+01 -3.07702E+01 -3.11063E+01 -3.16820E+01
  -3.24157E+01 -3.28400E+01 -3.25446E+01 -3.17656E+01 -3.11019E+01 -3.10427E+01 -3.16350E+01 -3.25475E+01 -3.33090E+01 -3.38840E+01
  -3.44166E+01 -3.49199E+01 -3.53667E+01 -3.59229E+01 -3.65752E+01 -3.71311E+01 -3.70756E+01 -3.63502E+01 -3.56111E+01 -3.53457E+01
  -3.54967E+01 -3.57973E+01 -3.57760E+01 -3.52710E+01 -3.47498E+01 -3.43476E+01 -3.34245E+01 -3.16183E+01 -2.90173E+01 -2.63136E+01
  -2.44143E+01 -2.36645E+01 -2.40202E+01 -2.49696E+01 -2.60189E+01 -2.69832E+01 -2.76663E+01 -2.76735E+01 -2.68406E+01 -2.54562E+01
  -2.36940E+01 -2.18115E+01 -2.00953E+01 -1.89117E+01 -1.89934E+01 -2.00760E+01 -2.22362E+01 -2.53691E+01 -2.84601E+01 -3.04281E+01
  -3.05819E+01 -2.94703E+01 -2.71078E+01 -2.32263E+01 -1.86275E+01 -1.50297E+01 -1.40399E+01 -1.56435E+01 -1.92116E+01 -2.37046E+01
  -2.81831E+01 -3.14902E+01 -3.25201E+01 -3.10834E+01 -2.74619E+01 -2.29759E+01 -1.90613E+01 -1.63405E+01 -1.49789E+01 -1.45785E+01
  -1.46763E+01 -1.47626E+01 -1.46167E+01 -1.39552E+01 -1.28480E+01 -1.15295E+01 -1.04705E+01 -1.02072E+01 -1.03512E+01 -1.08257E+01
  -1.16937E+01 -1.25191E+01 -1.24731E+01 -1.12805E+01 -9.45826E+00 -7.33602E+00 -5.34576E+00 -3.88040E+00 -3.09920E+00 -2.62123E+00
  -1.73512E+00 -6.67220E-01  9.00653E-01  4.14704E+00  1.26183E+01  2.46679E+01  3.45404E+01  4.94939E+01  7.29205E+01  9.80026E+01
   1.12798E+02  1.10738E+02  9.36196E+01  6.86769E+01  4.48712E+01  2.70774E+01  1.50591E+01  4.12020E+00 -5.45861E+00 -9.13964E+00
  -1.07256E+01 -1.17376E+01 -1.23262E+01 -1.26045E+01 -1.28635E+01 -1.31783E+01 -1.35651E+01 -1.40144E+01 -1.44890E+01 -1.49281E+01
  -1.53137E+01 -1.56309E+01 -1.58504E+01 -1.59731E+01 -1.60312E+01 -1.60566E+01 -1.60553E+01 -1.60164E+01 -1.59298E+01 -1.58058E+01
  -1.56372E+01 -1.54207E+01 -1.51664E+01 -1.48940E+01 -1.46140E+01 -1.43353E+01 -1.40656E+01 -1.38084E+01 -1.35650E+01 -1.33405E+01
  -1.31365E+01 -1.29569E+01 -1.28079E+01 -1.26959E+01 -1.26251E+01 -1.25950E+01 -1.26019E+01 -1.26429E+01 -1.27103E+01 -1.27961E+01
  -1.28937E+01 -1.29956E+01 -1.30932E+01 -1.31781E+01 -1.32423E+01 -1.32785E+01 -1.32805E+01 -1.32425E+01 -1.31582E+01 -1.30196E+01
  -1.28122E+01 -1.25220E+01 -1.22181E+01 -1.18896E+01 -1.14957E+01 -1.11147E+01 -1.08644E+01 -1.07936E+01 -1.08384E+01 -1.08327E+01
  -1.06915E+01 -1.04400E+01 -1.00392E+01 -9.47114E+00 -8.79112E+00 -8.06724E+00 -7.43623E+00 -7.00146E+00 -6.73844E+00 -6.55994E+00
  -6.35145E+00 -6.00426E+00 -5.73829E+00 -5.57253E+00 -5.23688E+00 -4.92869E+00 -5.03607E+00 -5.76224E+00 -6.89261E+00 -7.82476E+00
  -8.33237E+00 -8.36788E+00 -7.76406E+00 -6.54889E+00 -5.06926E+00 -3.65186E+00 -2.66912E+00 -2.45948E+00 -2.90763E+00 -3.73337E+00
  -4.66965E+00 -5.59634E+00 -6.61603E+00 -7.57764E+00 -8.34198E+00 -8.95922E+00 -9.45912E+00 -9.86190E+00 -1.01860E+01 -1.04481E+01
  -1.06621E+01 -1.08388E+01 -1.09852E+01 -1.11055E+01 -1.12011E+01 -1.12716E+01 -1.13160E+01 -1.13325E+01 -1.13193E+01 -1.12741E+01
  -1.11949E+01 -1.10796E+01 -1.09269E+01 -1.07359E+01 -1.05060E+01 -1.02369E+01 -9.92892E+00 -9.58342E+00 -9.20262E+00 -8.78976E+00
  -8.34892E+00 -7.88509E+00 -7.40439E+00 -6.91415E+00 -6.42282E+00 -5.93951E+00 -5.47370E+00 -5.03507E+00 -4.63335E+00 -4.27807E+00
  -3.97800E+00 -3.74061E+00 -3.57172E+00 -3.47542E+00 -3.45403E+00 -3.50796E+00 -3.63553E+00 -3.83292E+00 -4.09442E+00 -4.41295E+00
  -4.78040E+00 -5.18795E+00 -5.62620E+00 -6.08556E+00 -6.55668E+00 -7.03097E+00 -7.50080E+00 -7.95953E+00 -8.40145E+00 -8.82188E+00
  -9.21732E+00 -9.58552E+00 -9.92527E+00 -1.02361E+01 -1.05181E+01 -1.07719E+01 -1.09986E+01 -1.12000E+01 -1.13777E+01 -1.15337E+01
  -1.16697E+01 -1.17872E+01 -1.18882E+01 -1.19745E+01 -1.20476E+01 -1.21089E+01 -1.21595E+01 -1.22005E+01 -1.22330E+01 -1.22581E+01
  -1.22767E+01 -1.22892E+01 -1.22962E+01 -1.22983E+01 -1.22961E+01 -1.22901E+01 -1.22807E+01 -1.22680E+01 -1.22523E+01 -1.22340E+01
  -1.22133E+01 -1.21906E+01 -1.21659E+01 -1.21393E+01 -1.21109E+01 -1.20809E+01 -1.20496E+01 -1.20171E+01 -1.19833E+01 -1.19483E+01
  -1.19122E+01 -1.18751E+01 -1.18373E+01 -1.17986E+01 -1.17591E+01 -1.17186E+01 -1.16775E+01 -1.16359E+01 -1.15937E+01 -1.15509E+01
  -1.15075E+01 -1.14634E+01 -1.14189E+01 -1.13741E+01 -1.13289E+01 -1.12832E+01 -1.12369E+01 -1.11903E+01 -1.11433E+01 -1.10962E+01
  -1.10487E+01 -1.10007E+01 -1.09524E+01 -1.09038E+01 -1.08550E+01 -1.08060E+01 -1.07567E+01 -1.07069E+01 -1.06569E+01 -1.06067E+01
  -1.05563E+01 -1.05056E+01 -1.04546E+01 -1.04032E+01 -1.03515E+01 -1.02997E+01 -1.02476E+01 -1.01951E+01
 NY background values follow
    -4.864E+01   -4.853E+01   -4.841E+01   -4.830E+01   -4.818E+01   -4.807E+01   -4.795E+01   -4.784E+01   -4.772E+01   -4.761E+01
    -4.749E+01   -4.737E+01   -4.726E+01   -4.714E+01   -4.703E+01   -4.691E+01   -4.680E+01   -4.668E+01   -4.657E+01   -4.645E+01
    -4.634E+01   -4.622E+01   -4.611E+01   -4.599E+01   -4.588E+01   -4.576E+01   -4.565E+01   -4.553E+01   -4.542E+01   -4.530E+01
    -4.519E+01   -4.508E+01   -4.496E+01   -4.485E+01   -4.473E+01   -4.462E+01   -4.451E+01   -4.439E+01   -4.428E+01   -4.416E+01
    -4.405E+01   -4.394E+01   -4.382E+01   -4.371E+01   -4.360E+01   -4.349E+01   -4.337E+01   -4.326E+01   -4.315E+01   -4.303E+01
    -4.292E+01   -4.281E+01   -4.270E+01   -4.259E+01   -4.248E+01   -4.236E+01   -4.225E+01   -4.214E+01   -4.203E+01   -4.192E+01
    -4.181E+01   -4.170E+01   -4.159E+01   -4.148E+01   -4.137E+01   -4.126E+01   -4.115E+01   -4.104E+01   -4.093E+01   -4.082E+01
    -4.072E+01   -4.061E+01   -4.050E+01   -4.039E+01   -4.028E+01   -4.018E+01   -4.007E+01   -3.996E+01   -3.986E+01   -3.975E+01
    -3.964E+01   -3.954E+01   -3.943E+01   -3.933E+01   -3.922E+01   -3.912E+01   -3.901E+01   -3.891E+01   -3.880E+01   -3.870E+01
    -3.860E+01   -3.849E+01   -3.839E+01   -3.829E+01   -3.819E+01   -3.809E+01   -3.798E+01   -3.788E+01   -3.778E+01   -3.768E+01
    -3.758E+01   -3.748E+01   -3.738E+01   -3.728E+01   -3.718E+01   -3.708E+01   -3.699E+01   -3.689E+01   -3.679E+01   -3.669E+01
    -3.659E+01   -3.650E+01   -3.640E+01   -3.630E+01   -3.621E+01   -3.611E+01   -3.601E+01   -3.592E+01   -3.582E+01   -3.573E+01
    -3.563E+01   -3.554E+01   -3.545E+01   -3.535E+01   -3.526E+01   -3.516E+01   -3.507E+01   -3.498E+01   -3.489E+01   -3.479E+01
    -3.470E+01   -3.461E+01   -3.452E+01   -3.443E+01   -3.434E+01   -3.424E+01   -3.415E+01   -3.406E+01   -3.397E+01   -3.388E+01
    -3.379E+01   -3.370E+01   -3.362E+01   -3.353E+01   -3.344E+01   -3.335E+01   -3.326E+01   -3.317E+01   -3.308E+01   -3.300E+01
    -3.291E+01   -3.282E+01   -3.273E+01   -3.265E+01   -3.256E+01   -3.247E+01   -3.239E+01   -3.230E+01   -3.221E+01   -3.213E+01
    -3.204E+01   -3.195E+01   -3.187E+01   -3.178E+01   -3.170E+01   -3.161E+01   -3.152E+01   -3.144E+01   -3.135E+01   -3.127E+01
    -3.118E+01   -3.110E+01   -3.101E+01   -3.093E+01   -3.084E+01   -3.075E+01   -3.067E+01   -3.058E+01   -3.050E+01   -3.041E+01
    -3.033E+01   -3.024E+01   -3.016E+01   -3.007E+01   -2.999E+01   -2.990E+01   -2.982E+01   -2.973E+01   -2.964E+01   -2.956E+01
    -2.947E+01   -2.939E+01   -2.930E+01   -2.922E+01   -2.913E+01   -2.905E+01   -2.896E+01   -2.888E+01   -2.879E+01   -2.871E+01
    -2.862E+01   -2.854E+01   -2.845E+01   -2.837E+01   -2.828E+01   -2.820E+01   -2.812E+01   -2.803E+01   -2.795E+01   -2.786E+01
    -2.778E+01   -2.770E+01   -2.761E+01   -2.753E+01   -2.745E+01   -2.736E+01   -2.728E+01   -2.720E+01   -2.711E+01   -2.703E+01
    -2.695E+01   -2.687E+01   -2.678E+01   -2.670E+01   -2.662E+01   -2.654E+01   -2.646E+01   -2.638E+01   -2.630E+01   -2.622E+01
    -2.613E+01   -2.605E+01   -2.597E+01   -2.589E+01   -2.581E+01   -2.574E+01   -2.566E+01   -2.558E+01   -2.550E+01   -2.542E+01
    -2.534E+01   -2.526E+01   -2.519E+01   -2.511E+01   -2.503E+01   -2.495E+01   -2.488E+01   -2.480E+01   -2.472E+01   -2.465E+01
    -2.457E+01   -2.450E+01   -2.442E+01   -2.434E+01   -2.427E+01   -2.420E+01   -2.412E+01   -2.405E+01   -2.397E+01   -2.390E+01
    -2.383E+01   -2.375E+01   -2.368E+01   -2.361E+01   -2.353E+01   -2.346E+01   -2.339E+01   -2.332E+01   -2.325E+01   -2.318E+01
    -2.311E+01   -2.304E+01   -2.297E+01   -2.290E+01   -2.283E+01   -2.276E+01   -2.269E+01   -2.262E+01   -2.255E+01   -2.248E+01
    -2.241E+01   -2.235E+01   -2.228E+01   -2.221E+01   -2.215E+01   -2.208E+01   -2.201E+01   -2.195E+01   -2.188E+01   -2.182E+01
    -2.175E+01   -2.169E+01   -2.162E+01   -2.156E+01   -2.149E+01   -2.143E+01   -2.136E+01   -2.130E+01   -2.124E+01   -2.117E+01
    -2.111E+01   -2.105E+01   -2.098E+01   -2.092E+01   -2.086E+01   -2.080E+01   -2.074E+01   -2.068E+01   -2.061E+01   -2.055E+01
    -2.049E+01   -2.043E+01   -2.037E+01   -2.031E+01   -2.025E+01   -2.019E+01   -2.013E+01   -2.007E+01   -2.001E+01   -1.995E+01
    -1.990E+01   -1.984E+01   -1.978E+01   -1.972E+01   -1.966E+01   -1.960E+01   -1.955E+01   -1.949E+01   -1.943E+01   -1.937E+01
    -1.932E+01   -1.926E+01   -1.920E+01   -1.915E+01   -1.909E+01   -1.903E+01   -1.898E+01   -1.892E+01   -1.886E+01   -1.881E+01
    -1.875E+01   -1.870E+01   -1.864E+01   -1.859E+01   -1.853E+01   -1.848E+01   -1.842E+01   -1.837E+01   -1.831E+01   -1.826E+01
    -1.820E+01   -1.815E+01   -1.809E+01   -1.804E+01   -1.799E+01   -1.793E+01   -1.788E+01   -1.782E+01   -1.777E+01   -1.772E+01
    -1.766E+01   -1.761E+01   -1.756E+01   -1.750E+01   -1.745E+01   -1.740E+01   -1.734E+01   -1.729E+01   -1.724E+01   -1.718E+01
    -1.713E+01   -1.708E+01   -1.703E+01   -1.697E+01   -1.692E+01   -1.687E+01   -1.681E+01   -1.676E+01   -1.671E+01   -1.666E+01
    -1.660E+01   -1.655E+01   -1.650E+01   -1.645E+01   -1.639E+01   -1.634E+01   -1.629E+01   -1.624E+01   -1.618E+01   -1.613E+01
    -1.608E+01   -1.603E+01   -1.597E+01   -1.592E+01   -1.587E+01   -1.582E+01   -1.576E+01   -1.571E+01   -1.566E+01   -1.561E+01
    -1.555E+01   -1.550E+01   -1.545E+01   -1.539E+01   -1.534E+01   -1.529E+01   -1.524E+01   -1.518E+01   -1.513E+01   -1.508E+01
    -1.502E+01   -1.497E+01   -1.492E+01   -1.486E+01   -1.481E+01   -1.476E+01   -1.470E+01   -1.465E+01   -1.460E+01   -1.454E+01
    -1.449E+01   -1.443E+01   -1.438E+01   -1.433E+01   -1.427E+01   -1.422E+01   -1.416E+01   -1.411E+01   -1.406E+01   -1.400E+01
    -1.395E+01   -1.389E+01   -1.384E+01   -1.378E+01   -1.373E+01   -1.368E+01   -1.362E+01   -1.357E+01   -1.351E+01   -1.346E+01
    -1.340E+01   -1.335E+01   -1.329E+01   -1.324E+01   -1.318E+01   -1.313E+01   -1.307E+01   -1.302E+01   -1.297E+01   -1.291E+01
    -1.286E+01   -1.280E+01   -1.275E+01   -1.269E+01   -1.264E+01   -1.258E+01   -1.253E+01   -1.247E+01   -1.242E+01   -1.236E+01
    -1.231E+01   -1.225E+01   -1.220E+01   -1.214E+01   -1.209E+01   -1.203E+01   -1.198E+01   -1.192E+01   -1.187E+01   -1.181E+01
    -1.176E+01   -1.170E+01   -1.165E+01   -1.159E+01   -1.154E+01   -1.148E+01   -1.143E+01   -1.137E+01   -1.131E+01   -1.126E+01
    -1.120E+01   -1.115E+01   -1.109E+01   -1.104E+01   -1.098E+01   -1.093E+01   -1.087E+01   -1.082E+01   -1.076E+01   -1.071E+01
    -1.065E+01   -1.060E+01   -1.054E+01   -1.049E+01   -1.043E+01   -1.038E+01   -1.032E+01   -1.027E+01
 Ala      Conc. = 6.97E+01
