 LCModel (Version 6.3-1L) Copyright: S.W. Provencher.          Ref.: Magn. Reson. Med. 30:672-679 (1993).                
 Slice#1 Row#10 Col#3  PD_24_press_2_raw_act
 36 lines in following concentration table = NCONC+1
    Conc.  %SD /Cr+PCr  Metabolite                                         
    0.000 999%   0.000 Ala                                                 
   74.098 153%   0.153 Asp                                                 
  484.178  10%   1.000 Cr                                                  
    0.000 999%   0.000 PCr                                                 
   63.756 113%   0.132 GABA                                                
   17.044 410% 3.5E-02 Glc                                                 
  674.898  42%   1.394 Gln                                                 
 1.08E+03  29%   2.228 Glu                                                 
  178.136  10%   0.368 GPC                                                 
    0.000 999%   0.000 PCh                                                 
  236.141  28%   0.488 GSH                                                 
 1.21E+03  22%   2.498 Ins                                                 
    0.000 999%   0.000 Lac                                                 
 1.00E+03   9%   2.069 NAA                                                 
  207.423  49%   0.428 NAAG                                                
   65.778  29%   0.136 Scyllo                                              
   93.427 122%   0.193 Tau                                                 
  250.296  32%   0.517 -CrCH2                                              
  178.136  10%   0.368 GPC+PCh                                             
 1.21E+03   6%   2.497 NAA+NAAG                                            
  484.178  10%   1.000 Cr+PCr                                              
 1.75E+03  29%   3.622 Glu+Gln                                             
 5.72E+03  14%  11.815 Lip13a                                              
    0.000 999%   0.000 Lip13b                                              
  189.833 169%   0.392 Lip09                                               
 2.34E+03  15%   4.824 MM09                                                
  692.403  52%   1.430 Lip20                                               
 4.45E+03  11%   9.182 MM20                                                
  931.915  27%   1.925 MM12                                                
 2.58E+03  13%   5.336 MM14                                                
    0.000 999%   0.000 MM17                                                
 5.72E+03  14%  11.815 Lip13a+Lip13b                                       
 9.24E+03   7%  19.076 MM14+Lip13a+Lip13b+MM12                             
 2.53E+03  10%   5.216 MM09+Lip09                                          
 5.14E+03   8%  10.612 MM20+Lip20                                          
   6 lines in following misc. output table
  FWHM = 0.084 ppm    S/N =   9                                            
  Data shift =-0.015 ppm                                                   
  Ph: -52 deg     -13.6 deg/ppm                                            
  alphaB,S = 5.0E-01,   9.2E+01                                            
   14 spline knots.   Ns = 9(1)                                            
  (16) 2 infls.   (16) 1 extrs.                                            
  498 points on ppm-axis = NY
      4.000000     3.992357     3.984714     3.977070     3.969427     3.961784     3.954141     3.946497     3.938854     3.931211
      3.923568     3.915925     3.908281     3.900638     3.892995     3.885352     3.877708     3.870065     3.862422     3.854779
      3.847136     3.839492     3.831849     3.824206     3.816563     3.808919     3.801276     3.793633     3.785990     3.778347
      3.770703     3.763060     3.755417     3.747774     3.740130     3.732487     3.724844     3.717201     3.709558     3.701914
      3.694271     3.686628     3.678985     3.671341     3.663698     3.656055     3.648412     3.640769     3.633125     3.625482
      3.617839     3.610196     3.602552     3.594909     3.587266     3.579623     3.571980     3.564336     3.556693     3.549050
      3.541407     3.533763     3.526120     3.518477     3.510834     3.503191     3.495547     3.487904     3.480261     3.472618
      3.464974     3.457331     3.449688     3.442045     3.434402     3.426758     3.419115     3.411472     3.403829     3.396185
      3.388542     3.380899     3.373256     3.365613     3.357969     3.350326     3.342683     3.335040     3.327396     3.319753
      3.312110     3.304467     3.296824     3.289180     3.281537     3.273894     3.266251     3.258607     3.250964     3.243321
      3.235678     3.228034     3.220391     3.212748     3.205105     3.197462     3.189818     3.182175     3.174532     3.166889
      3.159245     3.151602     3.143959     3.136316     3.128673     3.121029     3.113386     3.105743     3.098100     3.090456
      3.082813     3.075170     3.067527     3.059884     3.052240     3.044597     3.036954     3.029311     3.021667     3.014024
      3.006381     2.998738     2.991095     2.983451     2.975808     2.968165     2.960522     2.952878     2.945235     2.937592
      2.929949     2.922306     2.914662     2.907019     2.899376     2.891733     2.884089     2.876446     2.868803     2.861160
      2.853517     2.845873     2.838230     2.830587     2.822944     2.815300     2.807657     2.800014     2.792371     2.784728
      2.777084     2.769441     2.761798     2.754155     2.746511     2.738868     2.731225     2.723582     2.715939     2.708295
      2.700652     2.693009     2.685366     2.677722     2.670079     2.662436     2.654793     2.647150     2.639506     2.631863
      2.624220     2.616577     2.608933     2.601290     2.593647     2.586004     2.578361     2.570717     2.563074     2.555431
      2.547788     2.540144     2.532501     2.524858     2.517215     2.509572     2.501928     2.494285     2.486642     2.478999
      2.471355     2.463712     2.456069     2.448426     2.440783     2.433139     2.425496     2.417853     2.410210     2.402566
      2.394923     2.387280     2.379637     2.371994     2.364350     2.356707     2.349064     2.341421     2.333777     2.326134
      2.318491     2.310848     2.303205     2.295561     2.287918     2.280275     2.272632     2.264988     2.257345     2.249702
      2.242059     2.234416     2.226772     2.219129     2.211486     2.203843     2.196199     2.188556     2.180913     2.173270
      2.165627     2.157983     2.150340     2.142697     2.135054     2.127410     2.119767     2.112124     2.104481     2.096838
      2.089194     2.081551     2.073908     2.066265     2.058621     2.050978     2.043335     2.035692     2.028049     2.020405
      2.012762     2.005119     1.997476     1.989833     1.982190     1.974546     1.966903     1.959260     1.951617     1.943974
      1.936331     1.928688     1.921045     1.913402     1.905759     1.898115     1.890472     1.882829     1.875186     1.867543
      1.859900     1.852257     1.844614     1.836971     1.829327     1.821684     1.814041     1.806398     1.798755     1.791112
      1.783469     1.775826     1.768183     1.760540     1.752896     1.745253     1.737610     1.729967     1.722324     1.714681
      1.707038     1.699395     1.691752     1.684108     1.676465     1.668822     1.661179     1.653536     1.645893     1.638250
      1.630607     1.622964     1.615321     1.607677     1.600034     1.592391     1.584748     1.577105     1.569462     1.561819
      1.554176     1.546533     1.538890     1.531246     1.523603     1.515960     1.508317     1.500674     1.493031     1.485388
      1.477745     1.470102     1.462458     1.454815     1.447172     1.439529     1.431886     1.424243     1.416600     1.408957
      1.401314     1.393671     1.386027     1.378384     1.370741     1.363098     1.355455     1.347812     1.340169     1.332526
      1.324883     1.317240     1.309596     1.301953     1.294310     1.286667     1.279024     1.271381     1.263738     1.256095
      1.248452     1.240808     1.233165     1.225522     1.217879     1.210236     1.202593     1.194950     1.187307     1.179664
      1.172021     1.164377     1.156734     1.149091     1.141448     1.133805     1.126162     1.118519     1.110876     1.103233
      1.095590     1.087946     1.080303     1.072660     1.065017     1.057374     1.049731     1.042088     1.034445     1.026802
      1.019158     1.011515     1.003872     0.996229     0.988586     0.980943     0.973300     0.965657     0.958014     0.950371
      0.942727     0.935084     0.927441     0.919798     0.912155     0.904512     0.896869     0.889226     0.881583     0.873940
      0.866296     0.858653     0.851010     0.843367     0.835724     0.828081     0.820438     0.812795     0.805152     0.797508
      0.789865     0.782222     0.774579     0.766936     0.759293     0.751650     0.744007     0.736364     0.728721     0.721077
      0.713434     0.705791     0.698148     0.690505     0.682862     0.675219     0.667576     0.659933     0.652290     0.644646
      0.637003     0.629360     0.621717     0.614074     0.606431     0.598788     0.591145     0.583502     0.575858     0.568215
      0.560572     0.552929     0.545286     0.537643     0.530000     0.522357     0.514714     0.507071     0.499427     0.491784
      0.484141     0.476498     0.468855     0.461212     0.453569     0.445925     0.438282     0.430639     0.422996     0.415353
      0.407710     0.400067     0.392424     0.384780     0.377137     0.369494     0.361851     0.354208     0.346565     0.338922
      0.331278     0.323635     0.315992     0.308349     0.300706     0.293063     0.285420     0.277777     0.270133     0.262490
      0.254847     0.247204     0.239561     0.231918     0.224275     0.216631     0.208988     0.201345
 NY phased data points follow
  -1.45928E+02 -1.45454E+02 -1.42289E+02 -1.45169E+02 -1.45962E+02 -1.43003E+02 -1.38973E+02 -1.33754E+02 -1.28193E+02 -1.28981E+02
  -1.25374E+02 -1.27729E+02 -1.21735E+02 -1.21549E+02 -1.19016E+02 -1.20386E+02 -1.22458E+02 -1.21856E+02 -1.19187E+02 -1.19543E+02
  -1.20936E+02 -1.20957E+02 -1.16645E+02 -1.15169E+02 -1.10111E+02 -1.12978E+02 -1.10808E+02 -1.11561E+02 -1.09875E+02 -1.07689E+02
  -1.04622E+02 -1.06316E+02 -1.02977E+02 -1.04573E+02 -9.85959E+01 -1.01955E+02 -9.68945E+01 -9.94937E+01 -9.60283E+01 -9.80376E+01
  -9.53904E+01 -9.67418E+01 -9.40468E+01 -9.48693E+01 -9.42790E+01 -9.02584E+01 -8.80970E+01 -8.55817E+01 -8.64571E+01 -8.69107E+01
  -8.75004E+01 -8.79805E+01 -8.37273E+01 -8.56375E+01 -8.55036E+01 -8.51083E+01 -8.15008E+01 -8.80556E+01 -7.90303E+01 -8.57331E+01
  -8.14973E+01 -8.17006E+01 -7.95944E+01 -7.91753E+01 -7.80709E+01 -7.91312E+01 -7.98211E+01 -8.03957E+01 -7.76690E+01 -7.74006E+01
  -7.60373E+01 -7.61106E+01 -7.03854E+01 -7.10306E+01 -7.35615E+01 -7.13805E+01 -6.82877E+01 -7.61629E+01 -7.32404E+01 -7.06538E+01
  -7.13993E+01 -6.85557E+01 -6.74547E+01 -6.59041E+01 -6.32166E+01 -6.62394E+01 -6.49463E+01 -6.57147E+01 -6.26399E+01 -6.64647E+01
  -5.79447E+01 -6.08131E+01 -5.95277E+01 -6.20470E+01 -5.55717E+01 -5.88500E+01 -5.70446E+01 -5.94338E+01 -5.16881E+01 -5.52130E+01
  -5.16021E+01 -5.18132E+01 -5.22865E+01 -4.52491E+01 -4.68104E+01 -4.57839E+01 -4.18746E+01 -4.56928E+01 -4.89192E+01 -5.14570E+01
  -4.93971E+01 -5.45794E+01 -5.19257E+01 -5.37698E+01 -4.95402E+01 -4.98427E+01 -4.94514E+01 -4.89524E+01 -4.69182E+01 -4.86586E+01
  -5.07317E+01 -4.60869E+01 -4.17337E+01 -4.68191E+01 -4.00987E+01 -4.12592E+01 -3.72126E+01 -3.62566E+01 -3.49438E+01 -3.52594E+01
  -3.08554E+01 -3.24584E+01 -3.40832E+01 -3.71852E+01 -3.70074E+01 -4.50390E+01 -4.41388E+01 -4.50771E+01 -4.19115E+01 -4.43575E+01
  -4.39450E+01 -4.38504E+01 -4.29303E+01 -4.42276E+01 -4.40698E+01 -4.16663E+01 -4.25005E+01 -4.30713E+01 -4.16479E+01 -4.21118E+01
  -4.25409E+01 -4.31782E+01 -3.96538E+01 -4.15472E+01 -4.27611E+01 -4.03704E+01 -3.88306E+01 -4.35651E+01 -3.85885E+01 -3.85913E+01
  -4.07930E+01 -4.03635E+01 -4.28436E+01 -4.08705E+01 -3.86886E+01 -4.08428E+01 -4.31683E+01 -3.90598E+01 -4.05493E+01 -4.47798E+01
  -4.07232E+01 -4.22926E+01 -4.13796E+01 -4.07433E+01 -4.08979E+01 -4.47223E+01 -4.39253E+01 -4.17164E+01 -4.37095E+01 -4.18031E+01
  -3.72217E+01 -3.64597E+01 -3.63970E+01 -3.53130E+01 -3.77378E+01 -3.38801E+01 -3.47583E+01 -3.34425E+01 -3.30387E+01 -3.74987E+01
  -3.42911E+01 -3.27641E+01 -3.72212E+01 -3.48277E+01 -3.34418E+01 -3.20998E+01 -3.24009E+01 -3.34619E+01 -3.12598E+01 -2.86142E+01
  -3.00430E+01 -3.34767E+01 -2.73661E+01 -2.72700E+01 -2.77592E+01 -2.95132E+01 -2.91365E+01 -2.56498E+01 -2.66183E+01 -2.65928E+01
  -2.68094E+01 -2.42291E+01 -2.44392E+01 -2.20661E+01 -2.06506E+01 -2.43983E+01 -2.16799E+01 -1.87809E+01 -1.96002E+01 -2.21409E+01
  -1.90513E+01 -2.08362E+01 -2.36857E+01 -1.81607E+01 -2.21314E+01 -2.29314E+01 -1.89044E+01 -1.39093E+01 -1.64555E+01 -1.57906E+01
  -1.16665E+01 -1.58096E+01 -1.67723E+01 -1.25899E+01 -1.29720E+01 -1.26724E+01 -1.02332E+01 -1.30030E+01 -1.15659E+01 -8.51056E+00
  -9.03960E+00 -1.01344E+01 -4.57860E+00 -5.22129E+00 -7.02889E+00 -1.06063E+01 -8.63023E+00 -3.51905E+00 -3.45383E-01  4.41710E-02
  -2.10264E+00 -2.01922E+00  1.48635E+00  7.63707E+00  1.06188E+01  1.40994E+01  1.74021E+01  1.92954E+01  2.42429E+01  2.45347E+01
   2.12818E+01  2.18322E+01  2.16396E+01  1.43151E+01  1.27270E+01  1.07406E+01  2.45239E+00 -1.14847E+00 -1.03537E+01 -1.12110E+01
  -1.18447E+01 -1.26194E+01 -8.00298E+00 -7.86199E+00 -1.12697E+01 -1.36950E+01 -1.23789E+01 -1.26789E+01 -1.30835E+01 -1.13828E+01
  -1.20828E+01 -1.40115E+01 -1.02706E+01 -8.49778E+00 -1.85003E+01 -1.38873E+01 -1.46718E+01 -1.36730E+01 -1.73120E+01 -1.55120E+01
  -1.33096E+01 -1.50267E+01 -1.47950E+01 -1.69759E+01 -1.44909E+01 -1.47198E+01 -1.85315E+01 -1.95651E+01 -1.13612E+01 -1.61206E+01
  -1.21930E+01 -1.91601E+01 -1.47007E+01 -1.57238E+01 -1.45559E+01 -1.27946E+01 -1.62631E+01 -1.41050E+01 -1.35122E+01 -1.14876E+01
  -1.49920E+01 -1.65630E+01 -1.08083E+01 -1.59479E+01 -1.47651E+01 -1.45432E+01 -1.65602E+01 -1.78533E+01 -1.47680E+01 -9.90914E+00
  -9.07621E+00 -7.20646E+00 -3.83231E+00 -1.95140E+00 -3.31496E+00 -2.25602E+00 -6.69814E-01  2.30357E+00  3.49012E+00  3.81091E+00
   5.41975E+00  9.51113E+00  8.81256E+00  9.91131E+00  9.57989E+00  1.13824E+01  1.07026E+01  1.09593E+01  1.60785E+01  1.35368E+01
   1.57072E+01  1.30629E+01  1.35412E+01  1.36718E+01  1.34438E+01  1.79966E+01  1.34194E+01  1.59079E+01  1.41364E+01  1.64628E+01
   1.38259E+01  1.58962E+01  1.63693E+01  1.49106E+01  1.15038E+01  1.62784E+01  1.22385E+01  1.31735E+01  1.09365E+01  9.89237E+00
   1.26953E+01  1.53780E+01  1.04022E+01  1.28062E+01  1.27248E+01  1.20454E+01  1.53392E+01  1.17999E+01  1.16698E+01  1.30692E+01
   1.06620E+01  9.55785E+00  7.09223E+00  9.94465E+00  8.98478E+00  1.13255E+01  7.36517E+00  4.86918E+00  3.83747E+00  8.72658E+00
   1.00593E+01  6.84927E+00  6.02858E+00  7.94909E+00  6.09336E+00  4.88452E+00  3.43794E+00  6.73379E+00  4.91917E+00  7.06606E+00
   5.69089E+00  7.10702E+00  6.06604E+00  6.77609E+00  6.67542E+00  1.08984E+01  9.86576E+00  1.09531E+01  8.28876E+00  6.59113E+00
   8.13405E+00  7.98166E+00  8.80668E+00  7.83290E+00  9.71543E+00  9.57649E+00  9.23299E+00  8.65210E+00  7.72545E+00  5.12328E+00
   6.45243E+00  4.04488E+00  5.59493E+00  4.56219E-01  2.98549E+00  4.08687E+00  9.40596E-01  4.07518E+00 -5.67453E-01  2.67300E-01
   7.17993E-01 -4.63169E+00 -1.47857E+00 -1.19230E+00 -4.66215E+00 -1.27674E+00 -1.89764E+00 -2.23851E+00 -4.65792E+00 -2.56175E+00
  -3.62770E+00 -3.33550E+00 -5.14729E+00 -2.44991E+00 -3.57064E+00 -2.88896E+00 -3.91443E+00 -5.67896E+00 -6.40069E+00 -3.53857E+00
  -4.92786E+00 -4.53314E+00 -2.39689E+00 -4.18483E+00 -5.26632E+00 -3.52642E+00 -4.12669E+00  1.43767E+00 -2.94008E+00 -3.51764E+00
  -1.45038E+00 -2.32968E+00 -3.17739E+00 -4.37523E+00 -4.15247E+00 -5.39881E+00 -8.94151E+00 -4.35474E+00 -4.45499E+00  8.07448E-01
  -3.68470E+00 -5.84379E+00 -3.01938E+00 -2.14240E+00 -1.42739E+00 -5.48711E+00 -2.85666E+00  6.51262E-01 -2.52272E+00  7.70328E-01
  -4.33322E+00 -3.38644E+00 -1.23791E+00 -2.57014E+00 -3.42614E+00 -3.91776E+00 -1.22488E+00 -3.19425E+00 -6.54049E+00 -4.66080E+00
  -4.11686E+00 -1.28780E+00 -3.91623E+00 -4.19678E+00 -3.16140E+00 -5.91086E+00 -3.94781E+00 -1.19367E+00 -4.11365E+00 -3.53763E+00
   1.90977E+00  2.83809E+00 -1.73917E+00 -1.49847E+00 -5.83538E-01 -9.54093E-01  1.94987E+00 -2.47706E+00
 NY points of the fit to the data follow
  -1.41788E+02 -1.41615E+02 -1.41267E+02 -1.40561E+02 -1.39350E+02 -1.37709E+02 -1.35869E+02 -1.33976E+02 -1.32093E+02 -1.30256E+02
  -1.28460E+02 -1.26625E+02 -1.24685E+02 -1.22712E+02 -1.20928E+02 -1.19570E+02 -1.18781E+02 -1.18606E+02 -1.18948E+02 -1.19432E+02
  -1.19574E+02 -1.19058E+02 -1.17945E+02 -1.16585E+02 -1.15074E+02 -1.13398E+02 -1.11624E+02 -1.09880E+02 -1.08275E+02 -1.06846E+02
  -1.05539E+02 -1.04273E+02 -1.03059E+02 -1.01979E+02 -1.01124E+02 -1.00602E+02 -1.00505E+02 -1.00694E+02 -1.00751E+02 -1.00273E+02
  -9.91681E+01 -9.76059E+01 -9.57675E+01 -9.38481E+01 -9.20483E+01 -9.05000E+01 -8.92569E+01 -8.82910E+01 -8.76004E+01 -8.72005E+01
  -8.70933E+01 -8.72298E+01 -8.74693E+01 -8.76862E+01 -8.76995E+01 -8.72543E+01 -8.62633E+01 -8.49862E+01 -8.37660E+01 -8.26992E+01
  -8.17334E+01 -8.08751E+01 -8.01481E+01 -7.95395E+01 -7.90191E+01 -7.85520E+01 -7.80768E+01 -7.74843E+01 -7.66869E+01 -7.57167E+01
  -7.46922E+01 -7.37174E+01 -7.28707E+01 -7.21749E+01 -7.16191E+01 -7.11562E+01 -7.07281E+01 -7.03029E+01 -6.98382E+01 -6.93233E+01
  -6.87694E+01 -6.81993E+01 -6.76525E+01 -6.71184E+01 -6.65663E+01 -6.59931E+01 -6.54149E+01 -6.48421E+01 -6.43115E+01 -6.38751E+01
  -6.35345E+01 -6.32325E+01 -6.29159E+01 -6.25070E+01 -6.17330E+01 -6.03493E+01 -5.84584E+01 -5.64017E+01 -5.44843E+01 -5.27301E+01
  -5.11117E+01 -4.96565E+01 -4.83750E+01 -4.72095E+01 -4.61916E+01 -4.55813E+01 -4.56877E+01 -4.65639E+01 -4.80313E+01 -4.98863E+01
  -5.17948E+01 -5.32000E+01 -5.36565E+01 -5.32874E+01 -5.27020E+01 -5.22079E+01 -5.17249E+01 -5.12037E+01 -5.05410E+01 -4.94678E+01
  -4.78870E+01 -4.59501E+01 -4.38966E+01 -4.18950E+01 -3.99994E+01 -3.82474E+01 -3.67141E+01 -3.54386E+01 -3.44081E+01 -3.37359E+01
  -3.36847E+01 -3.44262E+01 -3.58703E+01 -3.78064E+01 -3.99979E+01 -4.20594E+01 -4.34668E+01 -4.39483E+01 -4.38086E+01 -4.36167E+01
  -4.34405E+01 -4.31796E+01 -4.28201E+01 -4.24113E+01 -4.20508E+01 -4.18228E+01 -4.17354E+01 -4.17531E+01 -4.18181E+01 -4.18641E+01
  -4.18528E+01 -4.17918E+01 -4.17176E+01 -4.16650E+01 -4.16264E+01 -4.15802E+01 -4.15013E+01 -4.13874E+01 -4.12493E+01 -4.11031E+01
  -4.09684E+01 -4.08622E+01 -4.07865E+01 -4.07226E+01 -4.06399E+01 -4.05169E+01 -4.03620E+01 -4.02162E+01 -4.01181E+01 -4.00798E+01
  -4.00927E+01 -4.01146E+01 -4.00956E+01 -4.00143E+01 -3.98747E+01 -3.97029E+01 -3.95316E+01 -3.93583E+01 -3.91720E+01 -3.89485E+01
  -3.86600E+01 -3.82919E+01 -3.78417E+01 -3.73202E+01 -3.67569E+01 -3.61902E+01 -3.56225E+01 -3.50376E+01 -3.44564E+01 -3.39440E+01
  -3.35292E+01 -3.31865E+01 -3.28513E+01 -3.24931E+01 -3.21343E+01 -3.18023E+01 -3.14644E+01 -3.10463E+01 -3.05125E+01 -2.98839E+01
  -2.92018E+01 -2.85755E+01 -2.81121E+01 -2.78367E+01 -2.77273E+01 -2.77474E+01 -2.78779E+01 -2.80228E+01 -2.80735E+01 -2.79716E+01
  -2.77207E+01 -2.72921E+01 -2.66138E+01 -2.57035E+01 -2.46854E+01 -2.36518E+01 -2.26422E+01 -2.17941E+01 -2.13319E+01 -2.13821E+01
  -2.17838E+01 -2.22323E+01 -2.25956E+01 -2.27453E+01 -2.24010E+01 -2.14083E+01 -1.99202E+01 -1.83024E+01 -1.67575E+01 -1.53784E+01
  -1.43120E+01 -1.36688E+01 -1.33585E+01 -1.31015E+01 -1.27260E+01 -1.22443E+01 -1.17049E+01 -1.10823E+01 -1.03717E+01 -9.62414E+00
  -8.93804E+00 -8.36534E+00 -7.86995E+00 -7.43090E+00 -7.05319E+00 -6.66775E+00 -6.10295E+00 -5.16716E+00 -3.87446E+00 -2.38016E+00
  -7.80398E-01  1.20816E+00  3.93237E+00  7.28085E+00  1.08824E+01  1.43103E+01  1.73689E+01  1.99118E+01  2.16755E+01  2.24946E+01
   2.25470E+01  2.19675E+01  2.04483E+01  1.76193E+01  1.36151E+01  8.85270E+00  3.55162E+00 -1.91180E+00 -6.46867E+00 -9.11238E+00
  -9.99634E+00 -1.03391E+01 -1.08150E+01 -1.12647E+01 -1.16578E+01 -1.20141E+01 -1.23397E+01 -1.26440E+01 -1.29547E+01 -1.32828E+01
  -1.36266E+01 -1.39722E+01 -1.42942E+01 -1.45642E+01 -1.47740E+01 -1.49356E+01 -1.50614E+01 -1.51595E+01 -1.52369E+01 -1.53027E+01
  -1.53629E+01 -1.54157E+01 -1.54548E+01 -1.54782E+01 -1.54865E+01 -1.54806E+01 -1.54623E+01 -1.54348E+01 -1.54000E+01 -1.53579E+01
  -1.53067E+01 -1.52423E+01 -1.51618E+01 -1.50657E+01 -1.49544E+01 -1.48271E+01 -1.46834E+01 -1.45227E+01 -1.43435E+01 -1.41414E+01
  -1.39102E+01 -1.36439E+01 -1.33358E+01 -1.29789E+01 -1.25655E+01 -1.20880E+01 -1.15380E+01 -1.09074E+01 -1.01886E+01 -9.37504E+00
  -8.46163E+00 -7.44545E+00 -6.32620E+00 -5.10677E+00 -3.79350E+00 -2.39653E+00 -9.29862E-01  5.88689E-01  2.13798E+00  3.69407E+00
   5.23118E+00  6.72257E+00  8.14183E+00  9.46406E+00  1.06672E+01  1.17331E+01  1.26486E+01  1.34058E+01  1.40031E+01  1.44446E+01
   1.47400E+01  1.49043E+01  1.49562E+01  1.49173E+01  1.48108E+01  1.46598E+01  1.44865E+01  1.43108E+01  1.41492E+01  1.40142E+01
   1.39140E+01  1.38522E+01  1.38283E+01  1.38376E+01  1.38723E+01  1.39218E+01  1.39741E+01  1.40160E+01  1.40347E+01  1.40178E+01
   1.39548E+01  1.38367E+01  1.36572E+01  1.34124E+01  1.31015E+01  1.27258E+01  1.22897E+01  1.17993E+01  1.12630E+01  1.06906E+01
   1.00932E+01  9.48248E+00  8.87055E+00  8.26956E+00  7.69136E+00  7.14714E+00  6.64729E+00  6.20105E+00  5.81647E+00  5.50023E+00
   5.25755E+00  5.09205E+00  5.00572E+00  4.99881E+00  5.06986E+00  5.21562E+00  5.43105E+00  5.70933E+00  6.04190E+00  6.41860E+00
   6.82784E+00  7.25682E+00  7.69183E+00  8.11855E+00  8.52255E+00  8.88970E+00  9.20667E+00  9.46137E+00  9.64342E+00  9.74449E+00
   9.75862E+00  9.68246E+00  9.51529E+00  9.25905E+00  8.91812E+00  8.49911E+00  8.01049E+00  7.46221E+00  6.86524E+00  6.23106E+00
   5.57126E+00  4.89710E+00  4.21922E+00  3.54728E+00  2.88982E+00  2.25405E+00  1.64584E+00  1.06971E+00  5.28909E-01  2.54937E-02
  -4.39523E-01 -8.66074E-01 -1.25480E+00 -1.60696E+00 -1.92421E+00 -2.20857E+00 -2.46220E+00 -2.68743E+00 -2.88654E+00 -3.06181E+00
  -3.21539E+00 -3.34933E+00 -3.46555E+00 -3.56582E+00 -3.65174E+00 -3.72475E+00 -3.78614E+00 -3.83709E+00 -3.87866E+00 -3.91177E+00
  -3.93725E+00 -3.95582E+00 -3.96812E+00 -3.97475E+00 -3.97621E+00 -3.97297E+00 -3.96542E+00 -3.95392E+00 -3.93879E+00 -3.92034E+00
  -3.89882E+00 -3.87448E+00 -3.84750E+00 -3.81807E+00 -3.78637E+00 -3.75256E+00 -3.71676E+00 -3.67910E+00 -3.63967E+00 -3.59859E+00
  -3.55595E+00 -3.51184E+00 -3.46634E+00 -3.41951E+00 -3.37140E+00 -3.32209E+00 -3.27162E+00 -3.22006E+00 -3.16743E+00 -3.11379E+00
  -3.05915E+00 -3.00357E+00 -2.94707E+00 -2.88970E+00 -2.83147E+00 -2.77239E+00 -2.71248E+00 -2.65179E+00 -2.59033E+00 -2.52811E+00
  -2.46514E+00 -2.40144E+00 -2.33701E+00 -2.27189E+00 -2.20607E+00 -2.13957E+00 -2.07238E+00 -2.00451E+00 -1.93597E+00 -1.86678E+00
  -1.79692E+00 -1.72642E+00 -1.65524E+00 -1.58341E+00 -1.51092E+00 -1.43779E+00 -1.36400E+00 -1.28954E+00
 NY background values follow
    -1.446E+02   -1.435E+02   -1.424E+02   -1.413E+02   -1.402E+02   -1.392E+02   -1.381E+02   -1.370E+02   -1.359E+02   -1.348E+02
    -1.338E+02   -1.327E+02   -1.316E+02   -1.306E+02   -1.295E+02   -1.284E+02   -1.274E+02   -1.263E+02   -1.252E+02   -1.242E+02
    -1.231E+02   -1.221E+02   -1.211E+02   -1.200E+02   -1.190E+02   -1.180E+02   -1.169E+02   -1.159E+02   -1.149E+02   -1.139E+02
    -1.129E+02   -1.119E+02   -1.109E+02   -1.099E+02   -1.089E+02   -1.079E+02   -1.070E+02   -1.060E+02   -1.050E+02   -1.041E+02
    -1.031E+02   -1.022E+02   -1.013E+02   -1.004E+02   -9.944E+01   -9.853E+01   -9.763E+01   -9.674E+01   -9.586E+01   -9.498E+01
    -9.411E+01   -9.326E+01   -9.240E+01   -9.156E+01   -9.073E+01   -8.990E+01   -8.908E+01   -8.827E+01   -8.747E+01   -8.668E+01
    -8.589E+01   -8.511E+01   -8.434E+01   -8.358E+01   -8.283E+01   -8.208E+01   -8.135E+01   -8.062E+01   -7.990E+01   -7.918E+01
    -7.848E+01   -7.778E+01   -7.709E+01   -7.641E+01   -7.574E+01   -7.508E+01   -7.442E+01   -7.378E+01   -7.314E+01   -7.251E+01
    -7.188E+01   -7.127E+01   -7.066E+01   -7.006E+01   -6.947E+01   -6.889E+01   -6.832E+01   -6.775E+01   -6.719E+01   -6.665E+01
    -6.610E+01   -6.557E+01   -6.505E+01   -6.453E+01   -6.402E+01   -6.352E+01   -6.303E+01   -6.254E+01   -6.207E+01   -6.160E+01
    -6.113E+01   -6.068E+01   -6.023E+01   -5.979E+01   -5.935E+01   -5.892E+01   -5.850E+01   -5.808E+01   -5.768E+01   -5.727E+01
    -5.688E+01   -5.649E+01   -5.610E+01   -5.572E+01   -5.535E+01   -5.498E+01   -5.462E+01   -5.426E+01   -5.391E+01   -5.357E+01
    -5.322E+01   -5.289E+01   -5.256E+01   -5.223E+01   -5.191E+01   -5.159E+01   -5.128E+01   -5.097E+01   -5.066E+01   -5.036E+01
    -5.007E+01   -4.977E+01   -4.948E+01   -4.920E+01   -4.892E+01   -4.864E+01   -4.836E+01   -4.809E+01   -4.782E+01   -4.755E+01
    -4.729E+01   -4.703E+01   -4.677E+01   -4.652E+01   -4.626E+01   -4.601E+01   -4.576E+01   -4.551E+01   -4.527E+01   -4.503E+01
    -4.478E+01   -4.454E+01   -4.430E+01   -4.407E+01   -4.383E+01   -4.360E+01   -4.336E+01   -4.313E+01   -4.290E+01   -4.266E+01
    -4.243E+01   -4.220E+01   -4.197E+01   -4.174E+01   -4.151E+01   -4.128E+01   -4.105E+01   -4.082E+01   -4.059E+01   -4.036E+01
    -4.012E+01   -3.989E+01   -3.966E+01   -3.942E+01   -3.919E+01   -3.895E+01   -3.871E+01   -3.847E+01   -3.823E+01   -3.799E+01
    -3.774E+01   -3.749E+01   -3.725E+01   -3.700E+01   -3.674E+01   -3.649E+01   -3.624E+01   -3.598E+01   -3.572E+01   -3.546E+01
    -3.520E+01   -3.494E+01   -3.468E+01   -3.442E+01   -3.416E+01   -3.390E+01   -3.364E+01   -3.338E+01   -3.312E+01   -3.286E+01
    -3.260E+01   -3.234E+01   -3.208E+01   -3.182E+01   -3.156E+01   -3.131E+01   -3.105E+01   -3.080E+01   -3.055E+01   -3.030E+01
    -3.005E+01   -2.980E+01   -2.956E+01   -2.931E+01   -2.907E+01   -2.884E+01   -2.860E+01   -2.837E+01   -2.814E+01   -2.791E+01
    -2.769E+01   -2.747E+01   -2.725E+01   -2.704E+01   -2.683E+01   -2.663E+01   -2.642E+01   -2.623E+01   -2.603E+01   -2.584E+01
    -2.566E+01   -2.547E+01   -2.529E+01   -2.512E+01   -2.495E+01   -2.478E+01   -2.461E+01   -2.445E+01   -2.430E+01   -2.414E+01
    -2.399E+01   -2.384E+01   -2.370E+01   -2.355E+01   -2.342E+01   -2.328E+01   -2.315E+01   -2.302E+01   -2.289E+01   -2.276E+01
    -2.264E+01   -2.252E+01   -2.240E+01   -2.229E+01   -2.217E+01   -2.206E+01   -2.195E+01   -2.185E+01   -2.174E+01   -2.164E+01
    -2.154E+01   -2.144E+01   -2.135E+01   -2.125E+01   -2.116E+01   -2.107E+01   -2.098E+01   -2.089E+01   -2.081E+01   -2.072E+01
    -2.064E+01   -2.056E+01   -2.047E+01   -2.040E+01   -2.032E+01   -2.024E+01   -2.016E+01   -2.009E+01   -2.001E+01   -1.994E+01
    -1.986E+01   -1.979E+01   -1.972E+01   -1.965E+01   -1.958E+01   -1.951E+01   -1.944E+01   -1.937E+01   -1.930E+01   -1.923E+01
    -1.916E+01   -1.909E+01   -1.902E+01   -1.895E+01   -1.888E+01   -1.881E+01   -1.874E+01   -1.867E+01   -1.860E+01   -1.853E+01
    -1.846E+01   -1.839E+01   -1.832E+01   -1.824E+01   -1.817E+01   -1.810E+01   -1.802E+01   -1.794E+01   -1.787E+01   -1.779E+01
    -1.771E+01   -1.763E+01   -1.755E+01   -1.746E+01   -1.738E+01   -1.729E+01   -1.721E+01   -1.712E+01   -1.703E+01   -1.693E+01
    -1.684E+01   -1.675E+01   -1.665E+01   -1.655E+01   -1.646E+01   -1.636E+01   -1.626E+01   -1.616E+01   -1.605E+01   -1.595E+01
    -1.585E+01   -1.574E+01   -1.564E+01   -1.553E+01   -1.542E+01   -1.532E+01   -1.521E+01   -1.510E+01   -1.499E+01   -1.488E+01
    -1.477E+01   -1.467E+01   -1.456E+01   -1.445E+01   -1.434E+01   -1.423E+01   -1.412E+01   -1.401E+01   -1.390E+01   -1.379E+01
    -1.369E+01   -1.358E+01   -1.347E+01   -1.336E+01   -1.326E+01   -1.315E+01   -1.305E+01   -1.294E+01   -1.284E+01   -1.274E+01
    -1.264E+01   -1.254E+01   -1.244E+01   -1.234E+01   -1.224E+01   -1.214E+01   -1.205E+01   -1.195E+01   -1.186E+01   -1.177E+01
    -1.168E+01   -1.158E+01   -1.149E+01   -1.141E+01   -1.132E+01   -1.123E+01   -1.114E+01   -1.106E+01   -1.097E+01   -1.089E+01
    -1.080E+01   -1.072E+01   -1.064E+01   -1.055E+01   -1.047E+01   -1.039E+01   -1.031E+01   -1.023E+01   -1.015E+01   -1.007E+01
    -9.992E+00   -9.914E+00   -9.836E+00   -9.759E+00   -9.682E+00   -9.605E+00   -9.529E+00   -9.452E+00   -9.377E+00   -9.301E+00
    -9.226E+00   -9.150E+00   -9.075E+00   -9.000E+00   -8.926E+00   -8.851E+00   -8.777E+00   -8.702E+00   -8.628E+00   -8.553E+00
    -8.479E+00   -8.405E+00   -8.331E+00   -8.256E+00   -8.182E+00   -8.108E+00   -8.034E+00   -7.960E+00   -7.886E+00   -7.813E+00
    -7.739E+00   -7.665E+00   -7.591E+00   -7.517E+00   -7.443E+00   -7.370E+00   -7.296E+00   -7.222E+00   -7.149E+00   -7.075E+00
    -7.001E+00   -6.928E+00   -6.854E+00   -6.780E+00   -6.707E+00   -6.633E+00   -6.560E+00   -6.486E+00   -6.412E+00   -6.339E+00
    -6.265E+00   -6.191E+00   -6.118E+00   -6.044E+00   -5.970E+00   -5.897E+00   -5.823E+00   -5.749E+00   -5.676E+00   -5.602E+00
    -5.528E+00   -5.454E+00   -5.380E+00   -5.306E+00   -5.232E+00   -5.158E+00   -5.084E+00   -5.010E+00   -4.936E+00   -4.862E+00
    -4.787E+00   -4.713E+00   -4.638E+00   -4.564E+00   -4.489E+00   -4.414E+00   -4.339E+00   -4.264E+00   -4.188E+00   -4.113E+00
    -4.037E+00   -3.961E+00   -3.885E+00   -3.809E+00   -3.732E+00   -3.656E+00   -3.579E+00   -3.502E+00   -3.424E+00   -3.347E+00
    -3.269E+00   -3.191E+00   -3.112E+00   -3.034E+00   -2.955E+00   -2.876E+00   -2.796E+00   -2.716E+00   -2.636E+00   -2.556E+00
    -2.475E+00   -2.394E+00   -2.312E+00   -2.230E+00   -2.148E+00   -2.066E+00   -1.983E+00   -1.899E+00
 Asp      Conc. = 7.41E+01
