 LCModel (Version 6.3-1L) Copyright: S.W. Provencher.          Ref.: Magn. Reson. Med. 30:672-679 (1993).                
 Slice#1 Row#4 Col#2  PD_24_press_2_raw_act
 36 lines in following concentration table = NCONC+1
    Conc.  %SD /Cr+PCr  Metabolite                                         
    0.000 999%   0.000 Ala                                                 
   71.596 162%   0.222 Asp                                                 
    0.000 999%   0.000 Cr                                                  
  321.830  34%   1.000 PCr                                                 
   45.333 156%   0.141 GABA                                                
   49.190 143%   0.153 Glc                                                 
    0.000 999%   0.000 Gln                                                 
  389.022 182%   1.209 Glu                                                 
    0.000 999%   0.000 GPC                                                 
  193.434  22%   0.601 PCh                                                 
   98.951 167%   0.307 GSH                                                 
  762.946  73%   2.371 Ins                                                 
    0.000 999%   0.000 Lac                                                 
  306.942  62%   0.954 NAA                                                 
  410.311  49%   1.275 NAAG                                                
   36.554  61%   0.114 Scyllo                                              
  128.375  90%   0.399 Tau                                                 
  443.022  37%   1.377 -CrCH2                                              
  193.434  22%   0.601 GPC+PCh                                             
  717.253  21%   2.229 NAA+NAAG                                            
  321.830  34%   1.000 Cr+PCr                                              
  389.022 182%   1.209 Glu+Gln                                             
    0.000 999%   0.000 Lip13a                                              
    0.000 999%   0.000 Lip13b                                              
 1.53E-02 999% 4.7E-05 Lip09                                               
 3.13E+03  10%   9.739 MM09                                                
 2.25E-03 999% 7.0E-06 Lip20                                               
 2.82E+03  23%   8.775 MM20                                                
    0.000 999%   0.000 MM12                                                
 3.73E+03   7%  11.584 MM14                                                
    0.000 999%   0.000 MM17                                                
    0.000 999%   0.000 Lip13a+Lip13b                                       
 3.73E+03   7%  11.584 MM14+Lip13a+Lip13b+MM12                             
 3.13E+03  10%   9.739 MM09+Lip09                                          
 2.82E+03  23%   8.775 MM20+Lip20                                          
   6 lines in following misc. output table
  FWHM = 0.076 ppm    S/N =   2                                            
  Data shift =-0.069 ppm                                                   
  Ph: -35 deg       7.7 deg/ppm                                            
  alphaB,S = 7.9E-01,   1.4E+02                                            
   14 spline knots.   Ns = 9(1)                                            
  ( 4) 2 infls.   ( 1) 1 extrs.                                            
  498 points on ppm-axis = NY
      4.000000     3.992357     3.984714     3.977070     3.969427     3.961784     3.954141     3.946497     3.938854     3.931211
      3.923568     3.915925     3.908281     3.900638     3.892995     3.885352     3.877708     3.870065     3.862422     3.854779
      3.847136     3.839492     3.831849     3.824206     3.816563     3.808919     3.801276     3.793633     3.785990     3.778347
      3.770703     3.763060     3.755417     3.747774     3.740130     3.732487     3.724844     3.717201     3.709558     3.701914
      3.694271     3.686628     3.678985     3.671341     3.663698     3.656055     3.648412     3.640769     3.633125     3.625482
      3.617839     3.610196     3.602552     3.594909     3.587266     3.579623     3.571980     3.564336     3.556693     3.549050
      3.541407     3.533763     3.526120     3.518477     3.510834     3.503191     3.495547     3.487904     3.480261     3.472618
      3.464974     3.457331     3.449688     3.442045     3.434402     3.426758     3.419115     3.411472     3.403829     3.396185
      3.388542     3.380899     3.373256     3.365613     3.357969     3.350326     3.342683     3.335040     3.327396     3.319753
      3.312110     3.304467     3.296824     3.289180     3.281537     3.273894     3.266251     3.258607     3.250964     3.243321
      3.235678     3.228034     3.220391     3.212748     3.205105     3.197462     3.189818     3.182175     3.174532     3.166889
      3.159245     3.151602     3.143959     3.136316     3.128673     3.121029     3.113386     3.105743     3.098100     3.090456
      3.082813     3.075170     3.067527     3.059884     3.052240     3.044597     3.036954     3.029311     3.021667     3.014024
      3.006381     2.998738     2.991095     2.983451     2.975808     2.968165     2.960522     2.952878     2.945235     2.937592
      2.929949     2.922306     2.914662     2.907019     2.899376     2.891733     2.884089     2.876446     2.868803     2.861160
      2.853517     2.845873     2.838230     2.830587     2.822944     2.815300     2.807657     2.800014     2.792371     2.784728
      2.777084     2.769441     2.761798     2.754155     2.746511     2.738868     2.731225     2.723582     2.715939     2.708295
      2.700652     2.693009     2.685366     2.677722     2.670079     2.662436     2.654793     2.647150     2.639506     2.631863
      2.624220     2.616577     2.608933     2.601290     2.593647     2.586004     2.578361     2.570717     2.563074     2.555431
      2.547788     2.540144     2.532501     2.524858     2.517215     2.509572     2.501928     2.494285     2.486642     2.478999
      2.471355     2.463712     2.456069     2.448426     2.440783     2.433139     2.425496     2.417853     2.410210     2.402566
      2.394923     2.387280     2.379637     2.371994     2.364350     2.356707     2.349064     2.341421     2.333777     2.326134
      2.318491     2.310848     2.303205     2.295561     2.287918     2.280275     2.272632     2.264988     2.257345     2.249702
      2.242059     2.234416     2.226772     2.219129     2.211486     2.203843     2.196199     2.188556     2.180913     2.173270
      2.165627     2.157983     2.150340     2.142697     2.135054     2.127410     2.119767     2.112124     2.104481     2.096838
      2.089194     2.081551     2.073908     2.066265     2.058621     2.050978     2.043335     2.035692     2.028049     2.020405
      2.012762     2.005119     1.997476     1.989833     1.982190     1.974546     1.966903     1.959260     1.951617     1.943974
      1.936331     1.928688     1.921045     1.913402     1.905759     1.898115     1.890472     1.882829     1.875186     1.867543
      1.859900     1.852257     1.844614     1.836971     1.829327     1.821684     1.814041     1.806398     1.798755     1.791112
      1.783469     1.775826     1.768183     1.760540     1.752896     1.745253     1.737610     1.729967     1.722324     1.714681
      1.707038     1.699395     1.691752     1.684108     1.676465     1.668822     1.661179     1.653536     1.645893     1.638250
      1.630607     1.622964     1.615321     1.607677     1.600034     1.592391     1.584748     1.577105     1.569462     1.561819
      1.554176     1.546533     1.538890     1.531246     1.523603     1.515960     1.508317     1.500674     1.493031     1.485388
      1.477745     1.470102     1.462458     1.454815     1.447172     1.439529     1.431886     1.424243     1.416600     1.408957
      1.401314     1.393671     1.386027     1.378384     1.370741     1.363098     1.355455     1.347812     1.340169     1.332526
      1.324883     1.317240     1.309596     1.301953     1.294310     1.286667     1.279024     1.271381     1.263738     1.256095
      1.248452     1.240808     1.233165     1.225522     1.217879     1.210236     1.202593     1.194950     1.187307     1.179664
      1.172021     1.164377     1.156734     1.149091     1.141448     1.133805     1.126162     1.118519     1.110876     1.103233
      1.095590     1.087946     1.080303     1.072660     1.065017     1.057374     1.049731     1.042088     1.034445     1.026802
      1.019158     1.011515     1.003872     0.996229     0.988586     0.980943     0.973300     0.965657     0.958014     0.950371
      0.942727     0.935084     0.927441     0.919798     0.912155     0.904512     0.896869     0.889226     0.881583     0.873940
      0.866296     0.858653     0.851010     0.843367     0.835724     0.828081     0.820438     0.812795     0.805152     0.797508
      0.789865     0.782222     0.774579     0.766936     0.759293     0.751650     0.744007     0.736364     0.728721     0.721077
      0.713434     0.705791     0.698148     0.690505     0.682862     0.675219     0.667576     0.659933     0.652290     0.644646
      0.637003     0.629360     0.621717     0.614074     0.606431     0.598788     0.591145     0.583502     0.575858     0.568215
      0.560572     0.552929     0.545286     0.537643     0.530000     0.522357     0.514714     0.507071     0.499427     0.491784
      0.484141     0.476498     0.468855     0.461212     0.453569     0.445925     0.438282     0.430639     0.422996     0.415353
      0.407710     0.400067     0.392424     0.384780     0.377137     0.369494     0.361851     0.354208     0.346565     0.338922
      0.331278     0.323635     0.315992     0.308349     0.300706     0.293063     0.285420     0.277777     0.270133     0.262490
      0.254847     0.247204     0.239561     0.231918     0.224275     0.216631     0.208988     0.201345
 NY phased data points follow
  -7.27132E+01 -6.22479E+01 -6.40701E+01 -6.41378E+01 -7.04104E+01 -6.69086E+01 -7.16553E+01 -5.39673E+01 -5.73173E+01 -6.72061E+01
  -6.90635E+01 -5.75635E+01 -6.34151E+01 -5.32934E+01 -6.79979E+01 -6.75433E+01 -5.55885E+01 -6.19737E+01 -6.76668E+01 -6.23063E+01
  -5.55199E+01 -5.59926E+01 -7.17725E+01 -6.06420E+01 -5.49699E+01 -6.33421E+01 -4.92193E+01 -5.34186E+01 -4.85683E+01 -4.99580E+01
  -5.30724E+01 -6.48319E+01 -4.98682E+01 -4.49037E+01 -4.75996E+01 -4.49166E+01 -5.31926E+01 -4.28013E+01 -5.88354E+01 -4.83638E+01
  -4.31814E+01 -4.89200E+01 -4.70100E+01 -4.48906E+01 -5.49329E+01 -4.90905E+01 -4.96277E+01 -4.89937E+01 -5.14350E+01 -5.03796E+01
  -3.77003E+01 -4.69932E+01 -4.48246E+01 -4.56811E+01 -5.83920E+01 -5.14200E+01 -4.25324E+01 -5.05536E+01 -5.04492E+01 -4.00204E+01
  -4.41328E+01 -4.13220E+01 -4.18810E+01 -3.88200E+01 -3.74634E+01 -3.78076E+01 -3.40135E+01 -3.92868E+01 -4.20511E+01 -4.18173E+01
  -5.15929E+01 -3.52349E+01 -4.56194E+01 -3.34934E+01 -4.46021E+01 -4.93760E+01 -3.87370E+01 -5.15194E+01 -4.52682E+01 -3.37240E+01
  -4.82468E+01 -3.65557E+01 -3.57652E+01 -3.76671E+01 -4.06661E+01 -4.39779E+01 -4.21468E+01 -2.90517E+01 -3.79344E+01 -3.37569E+01
  -3.49949E+01 -4.20131E+01 -3.57459E+01 -2.96798E+01 -4.33157E+01 -3.35325E+01 -4.08945E+01 -3.99689E+01 -3.23153E+01 -4.12023E+01
  -2.16540E+01 -3.57227E+01 -2.93975E+01 -2.18510E+01 -1.96563E+01 -2.64801E+01 -2.29216E+01 -2.50646E+01 -4.03109E+01 -3.66532E+01
  -3.72989E+01 -3.97586E+01 -4.33078E+01 -4.35575E+01 -3.83220E+01 -4.63310E+01 -3.95937E+01 -3.92338E+01 -3.84874E+01 -2.90322E+01
  -2.43236E+01 -2.59516E+01 -2.79137E+01 -2.92980E+01 -3.72461E+01 -2.01270E+01 -3.33995E+01 -3.07444E+01 -2.43736E+01 -2.01356E+01
  -2.21864E+01 -2.74999E+01 -2.94449E+01 -2.25048E+01 -2.87751E+01 -3.66591E+01 -2.92480E+01 -4.48837E+01 -4.19251E+01 -4.04132E+01
  -2.73939E+01 -3.42899E+01 -3.17218E+01 -3.20702E+01 -3.25235E+01 -3.18551E+01 -3.05852E+01 -3.49212E+01 -2.93236E+01 -2.25611E+01
  -2.98162E+01 -4.03340E+01 -3.29276E+01 -4.10908E+01 -2.89069E+01 -4.00377E+01 -2.68809E+01 -1.87939E+01 -3.77962E+01 -3.16630E+01
  -3.77789E+01 -3.18561E+01 -3.18862E+01 -2.79847E+01 -3.22366E+01 -3.24946E+01 -3.34520E+01 -3.37871E+01 -3.80222E+01 -2.54052E+01
  -3.33950E+01 -3.72978E+01 -2.63119E+01 -3.20689E+01 -2.68941E+01 -4.42802E+01 -4.13279E+01 -2.89664E+01 -4.35506E+01 -2.95261E+01
  -3.00465E+01 -3.42295E+01 -2.42395E+01 -2.76252E+01 -3.35059E+01 -3.38745E+01 -2.90468E+01 -3.50458E+01 -1.47770E+01 -3.72823E+01
  -3.39377E+01 -3.20177E+01 -2.79327E+01 -2.20587E+01 -1.92630E+01 -2.75352E+01 -2.94777E+01 -3.32739E+01 -2.06573E+01 -2.88755E+01
  -2.06230E+01 -3.71154E+01 -3.16276E+01 -2.95893E+01 -2.15392E+01 -2.31324E+01 -2.48049E+01 -2.89442E+01 -2.57344E+01 -2.27296E+01
  -2.30684E+01 -2.14218E+01 -2.29680E+01 -3.36309E+01 -2.47064E+01 -2.01395E+01 -2.05862E+01 -1.61767E+01 -2.28586E+01 -2.14176E+01
  -2.94592E+01 -2.94116E+01 -2.64370E+01 -2.83845E+01 -3.26421E+01 -2.32389E+01 -2.09099E+01 -2.65622E+01 -2.79520E+01 -1.76349E+01
  -2.48275E+01 -1.70347E+01 -2.61462E+01 -3.02417E+01 -2.20256E+01 -2.16269E+01 -2.07830E+01 -3.06784E+01 -2.43455E+01 -2.17100E+01
  -2.56870E+01 -1.69410E+01 -2.27785E+01 -9.46342E+00 -2.35785E+01 -1.55576E+01 -2.85100E+01 -2.20213E+01 -1.27241E+01 -1.69522E+01
  -1.78884E+01 -1.44614E+01 -7.45235E+00 -1.64056E+01 -1.19664E+01 -1.61070E+00 -6.71932E+00  1.41863E+00 -9.61970E-01 -8.85994E+00
   3.13611E+00 -4.22566E+00 -1.53801E+01 -1.07421E+01 -1.02227E+01 -2.06748E+01 -1.74734E+01 -2.02209E+01 -2.42187E+01 -2.15696E+01
  -2.94181E+01 -3.44789E+01 -3.55919E+01 -3.42365E+01 -2.83602E+01 -2.59654E+01 -1.58452E+01 -1.94706E+01 -2.58462E+01 -2.15096E+01
  -1.45095E+01 -3.06652E+01 -2.10105E+01 -2.76166E+01 -2.07034E+01 -3.05478E+01 -2.35992E+01 -2.52706E+01 -2.63403E+01 -3.66344E+01
  -2.75136E+01 -1.10339E+01 -2.40404E+01 -2.75175E+01 -2.26820E+01 -2.02556E+01 -2.49219E+01 -2.60018E+01 -2.66301E+01 -2.98052E+01
  -2.98170E+01 -2.37580E+01 -3.12997E+01 -2.48648E+01 -3.06986E+01 -2.74635E+01 -2.76047E+01 -2.22345E+01 -3.36627E+01 -2.38524E+01
  -3.12252E+01 -3.12929E+01 -4.15242E+01 -3.34323E+01 -3.13156E+01 -3.68868E+01 -2.09658E+01 -3.70804E+01 -2.84174E+01 -3.57845E+01
  -3.86369E+01 -3.09204E+01 -3.08721E+01 -2.75529E+01 -2.27737E+01 -2.41775E+01 -1.60177E+01 -1.36983E+01 -2.18602E+01 -1.38591E+01
  -1.08963E+01 -2.83929E+00 -2.01573E+00  3.48977E+00 -1.71625E+00  2.26545E+00 -1.01374E+01 -2.91327E+00  1.57175E+00  2.66458E+00
   6.52923E-01  8.98084E+00  8.01124E+00  2.15123E+00 -3.17182E+00  4.23775E+00 -2.72147E+00 -9.01127E+00 -8.75535E-01 -1.55343E+01
  -2.46927E+01 -1.33154E+01 -1.19150E+01 -1.75511E+01 -1.59720E+01 -2.43758E+01 -2.58056E+01 -2.82429E+01 -2.27307E+01 -3.46643E+01
  -2.93685E+01 -2.88520E+01 -3.43670E+01 -3.76334E+01 -2.66049E+01 -3.02194E+01 -3.96215E+01 -3.72760E+01 -3.70289E+01 -3.86055E+01
  -4.53339E+01 -3.48837E+01 -2.37005E+01 -2.16603E+01 -2.22110E+01 -2.27191E+01 -1.80799E+01 -2.26364E+01 -1.78307E+01 -1.17629E+01
  -1.55908E+01 -1.42064E+01 -2.08841E+01 -2.27087E+01 -1.74924E+01 -4.56402E+00 -6.93043E+00 -8.71305E+00 -4.27214E+00  3.97208E+00
  -8.71309E+00 -3.76598E+00 -4.26897E+00 -5.00670E+00 -1.45173E+01 -2.31828E+00 -4.69360E+00 -8.41279E+00 -1.01498E+01 -9.86721E-01
  -5.00361E+00 -1.67659E+01 -9.67747E-01  3.90040E+00 -2.07933E+00 -6.29153E+00 -5.12302E+00 -5.01017E+00 -1.64435E+00 -3.88181E+00
   3.96818E-01 -1.39608E+01 -4.33868E+00  5.12946E+00  2.71933E+00 -1.43617E+01 -1.18239E+01 -3.73002E+00 -3.80001E+00 -4.69760E+00
  -6.67067E+00  1.69981E+00 -9.54481E+00 -8.88710E+00 -1.59781E+01 -8.08077E+00 -4.91905E+00 -8.86582E+00 -1.71244E+01 -8.77663E+00
  -7.84832E+00 -8.74927E+00 -1.20117E+01 -6.72967E+00 -4.05564E+00 -4.72054E+00 -1.44014E+01 -3.16544E+00 -7.01813E-01 -1.36363E+01
  -1.13939E+01 -7.97948E+00 -1.43550E+01 -1.43502E+01 -1.36923E+01 -1.21885E+01 -1.52247E+01 -6.75585E+00 -1.01635E+01 -1.92417E+01
  -1.61740E+01 -1.26606E+01 -1.32850E+01 -1.08060E+01 -5.65566E+00 -1.32728E+01 -1.24705E+01 -2.05186E+01 -1.11761E+01 -1.13412E+01
  -2.20986E+01 -1.36068E+01 -2.24192E+01 -2.82893E+01 -2.53484E+01 -1.19995E+01 -1.39957E+01 -7.94186E+00 -1.30738E+01 -1.37398E+01
  -1.02502E+01 -1.72805E+01 -2.24502E+01 -1.44891E+01 -1.72383E+01 -1.51178E+01 -1.03937E+01 -4.96299E+00 -9.37062E+00 -9.08835E+00
  -1.77693E+01 -1.67193E+01 -1.12484E+01 -4.47411E+00 -2.75568E+01 -1.19623E+01 -1.63963E+01 -7.99387E+00 -8.27549E+00 -2.85514E+00
  -8.28909E+00  1.21802E-01 -1.66244E+01 -9.52207E+00 -4.09576E+00 -2.98930E+00  3.69913E-01 -1.57350E+01
 NY points of the fit to the data follow
  -6.04584E+01 -6.08724E+01 -6.12236E+01 -6.14895E+01 -6.16745E+01 -6.17841E+01 -6.18221E+01 -6.17933E+01 -6.16914E+01 -6.14945E+01
  -6.11826E+01 -6.07510E+01 -6.02133E+01 -5.96034E+01 -5.89738E+01 -5.83774E+01 -5.78502E+01 -5.74068E+01 -5.70429E+01 -5.67351E+01
  -5.64327E+01 -5.60826E+01 -5.56739E+01 -5.52211E+01 -5.47329E+01 -5.42171E+01 -5.36910E+01 -5.31746E+01 -5.26753E+01 -5.21970E+01
  -5.17655E+01 -5.14079E+01 -5.11447E+01 -5.09957E+01 -5.09704E+01 -5.10498E+01 -5.11965E+01 -5.13519E+01 -5.14145E+01 -5.12859E+01
  -5.09519E+01 -5.04725E+01 -4.99122E+01 -4.93070E+01 -4.86852E+01 -4.80799E+01 -4.75265E+01 -4.70684E+01 -4.67667E+01 -4.66789E+01
  -4.68072E+01 -4.70973E+01 -4.74621E+01 -4.77920E+01 -4.79912E+01 -4.79974E+01 -4.77912E+01 -4.74028E+01 -4.69092E+01 -4.64114E+01
  -4.59800E+01 -4.56481E+01 -4.54206E+01 -4.52757E+01 -4.51866E+01 -4.51196E+01 -4.50265E+01 -4.48639E+01 -4.46152E+01 -4.42875E+01
  -4.39102E+01 -4.35292E+01 -4.31869E+01 -4.29078E+01 -4.26987E+01 -4.25537E+01 -4.24551E+01 -4.23628E+01 -4.22615E+01 -4.21643E+01
  -4.20760E+01 -4.19838E+01 -4.18734E+01 -4.17418E+01 -4.15973E+01 -4.14547E+01 -4.13383E+01 -4.12662E+01 -4.12391E+01 -4.12382E+01
  -4.12247E+01 -4.11590E+01 -4.10001E+01 -4.06727E+01 -3.99466E+01 -3.87192E+01 -3.71502E+01 -3.54051E+01 -3.36013E+01 -3.18095E+01
  -3.00806E+01 -2.84714E+01 -2.70743E+01 -2.60449E+01 -2.55734E+01 -2.58087E+01 -2.67930E+01 -2.84301E+01 -3.04808E+01 -3.26176E+01
  -3.45287E+01 -3.59788E+01 -3.68420E+01 -3.71502E+01 -3.71041E+01 -3.69185E+01 -3.66782E+01 -3.63480E+01 -3.57816E+01 -3.49537E+01
  -3.39446E+01 -3.28215E+01 -3.16359E+01 -3.04334E+01 -2.92543E+01 -2.81460E+01 -2.71889E+01 -2.64985E+01 -2.61968E+01 -2.63669E+01
  -2.70140E+01 -2.80531E+01 -2.93209E+01 -3.06178E+01 -3.17695E+01 -3.26490E+01 -3.31958E+01 -3.34401E+01 -3.34983E+01 -3.34726E+01
  -3.34010E+01 -3.32987E+01 -3.31833E+01 -3.30748E+01 -3.29932E+01 -3.29559E+01 -3.29678E+01 -3.30164E+01 -3.30831E+01 -3.31485E+01
  -3.31980E+01 -3.32325E+01 -3.32601E+01 -3.32843E+01 -3.33023E+01 -3.33084E+01 -3.32967E+01 -3.32692E+01 -3.32322E+01 -3.31943E+01
  -3.31659E+01 -3.31562E+01 -3.31606E+01 -3.31644E+01 -3.31556E+01 -3.31263E+01 -3.30790E+01 -3.30263E+01 -3.29751E+01 -3.29245E+01
  -3.28727E+01 -3.28163E+01 -3.27551E+01 -3.26936E+01 -3.26384E+01 -3.25850E+01 -3.25282E+01 -3.24642E+01 -3.23891E+01 -3.22955E+01
  -3.21728E+01 -3.20123E+01 -3.18092E+01 -3.15629E+01 -3.12837E+01 -3.09891E+01 -3.06914E+01 -3.03992E+01 -3.01250E+01 -2.98902E+01
  -2.97041E+01 -2.95642E+01 -2.94705E+01 -2.94208E+01 -2.94054E+01 -2.94091E+01 -2.94147E+01 -2.93997E+01 -2.93460E+01 -2.92463E+01
  -2.91107E+01 -2.89625E+01 -2.88252E+01 -2.87222E+01 -2.86699E+01 -2.86630E+01 -2.86797E+01 -2.86799E+01 -2.86453E+01 -2.85696E+01
  -2.84463E+01 -2.82759E+01 -2.80694E+01 -2.78538E+01 -2.76567E+01 -2.74913E+01 -2.73717E+01 -2.73221E+01 -2.73528E+01 -2.74537E+01
  -2.75893E+01 -2.77028E+01 -2.77394E+01 -2.76504E+01 -2.74004E+01 -2.69903E+01 -2.64584E+01 -2.58731E+01 -2.53046E+01 -2.48018E+01
  -2.43892E+01 -2.40688E+01 -2.38161E+01 -2.35906E+01 -2.33573E+01 -2.30936E+01 -2.27991E+01 -2.24877E+01 -2.21796E+01 -2.18877E+01
  -2.16143E+01 -2.13491E+01 -2.10668E+01 -2.07346E+01 -2.03271E+01 -1.98377E+01 -1.92327E+01 -1.83663E+01 -1.72365E+01 -1.59711E+01
  -1.46460E+01 -1.32015E+01 -1.15552E+01 -9.77006E+00 -7.94338E+00 -6.19934E+00 -4.71884E+00 -3.70294E+00 -3.30713E+00 -3.61167E+00
  -4.61704E+00 -6.23939E+00 -8.32488E+00 -1.06882E+01 -1.31308E+01 -1.54567E+01 -1.75260E+01 -1.93068E+01 -2.07905E+01 -2.19340E+01
  -2.27299E+01 -2.32638E+01 -2.36633E+01 -2.40027E+01 -2.43087E+01 -2.45964E+01 -2.48782E+01 -2.51599E+01 -2.54430E+01 -2.57240E+01
  -2.59946E+01 -2.62456E+01 -2.64705E+01 -2.66653E+01 -2.68309E+01 -2.69736E+01 -2.71018E+01 -2.72222E+01 -2.73372E+01 -2.74463E+01
  -2.75493E+01 -2.76443E+01 -2.77288E+01 -2.78020E+01 -2.78659E+01 -2.79242E+01 -2.79804E+01 -2.80372E+01 -2.80953E+01 -2.81533E+01
  -2.82082E+01 -2.82562E+01 -2.82940E+01 -2.83203E+01 -2.83361E+01 -2.83425E+01 -2.83402E+01 -2.83291E+01 -2.83075E+01 -2.82723E+01
  -2.82178E+01 -2.81374E+01 -2.80234E+01 -2.78672E+01 -2.76593E+01 -2.73887E+01 -2.70436E+01 -2.66114E+01 -2.60789E+01 -2.54334E+01
  -2.46627E+01 -2.37567E+01 -2.27076E+01 -2.15115E+01 -2.01686E+01 -1.86848E+01 -1.70717E+01 -1.53475E+01 -1.35369E+01 -1.16710E+01
  -9.78662E+00 -7.92517E+00 -6.13120E+00 -4.45073E+00 -2.92914E+00 -1.60908E+00 -5.28378E-01  2.81835E-01  7.98842E-01  1.00946E+00
   9.10780E-01  5.10200E-01 -1.74937E-01 -1.11843E+00 -2.28656E+00 -3.64000E+00 -5.13571E+00 -6.72911E+00 -8.37602E+00 -1.00346E+01
  -1.16666E+01 -1.32391E+01 -1.47247E+01 -1.61021E+01 -1.73565E+01 -1.84787E+01 -1.94648E+01 -2.03158E+01 -2.10362E+01 -2.16333E+01
  -2.21165E+01 -2.24963E+01 -2.27837E+01 -2.29897E+01 -2.31246E+01 -2.31980E+01 -2.32182E+01 -2.31924E+01 -2.31266E+01 -2.30254E+01
  -2.28923E+01 -2.27296E+01 -2.25387E+01 -2.23200E+01 -2.20730E+01 -2.17966E+01 -2.14889E+01 -2.11474E+01 -2.07692E+01 -2.03511E+01
  -1.98894E+01 -1.93805E+01 -1.88206E+01 -1.82062E+01 -1.75345E+01 -1.68031E+01 -1.60109E+01 -1.51579E+01 -1.42459E+01 -1.32784E+01
  -1.22614E+01 -1.12028E+01 -1.01133E+01 -9.00557E+00 -7.89471E+00 -6.79759E+00 -5.73247E+00 -4.71847E+00 -3.77479E+00 -2.92005E+00
  -2.17142E+00 -1.54390E+00 -1.04963E+00 -6.97345E-01 -4.91913E-01 -4.34207E-01 -5.21014E-01 -7.45296E-01 -1.09653E+00 -1.56128E+00
  -2.12382E+00 -2.76695E+00 -3.47264E+00 -4.22288E+00 -5.00020E+00 -5.78839E+00 -6.57282E+00 -7.34079E+00 -8.08172E+00 -8.78722E+00
  -9.45096E+00 -1.00686E+01 -1.06377E+01 -1.11572E+01 -1.16273E+01 -1.20493E+01 -1.24254E+01 -1.27580E+01 -1.30501E+01 -1.33048E+01
  -1.35252E+01 -1.37145E+01 -1.38756E+01 -1.40113E+01 -1.41243E+01 -1.42167E+01 -1.42909E+01 -1.43487E+01 -1.43918E+01 -1.44218E+01
  -1.44401E+01 -1.44478E+01 -1.44460E+01 -1.44357E+01 -1.44177E+01 -1.43926E+01 -1.43613E+01 -1.43242E+01 -1.42819E+01 -1.42348E+01
  -1.41834E+01 -1.41280E+01 -1.40689E+01 -1.40065E+01 -1.39411E+01 -1.38727E+01 -1.38017E+01 -1.37283E+01 -1.36526E+01 -1.35747E+01
  -1.34949E+01 -1.34133E+01 -1.33299E+01 -1.32450E+01 -1.31585E+01 -1.30706E+01 -1.29814E+01 -1.28909E+01 -1.27993E+01 -1.27065E+01
  -1.26127E+01 -1.25179E+01 -1.24222E+01 -1.23256E+01 -1.22281E+01 -1.21298E+01 -1.20308E+01 -1.19311E+01 -1.18306E+01 -1.17295E+01
  -1.16278E+01 -1.15255E+01 -1.14226E+01 -1.13192E+01 -1.12153E+01 -1.11108E+01 -1.10059E+01 -1.09005E+01 -1.07947E+01 -1.06885E+01
  -1.05819E+01 -1.04749E+01 -1.03675E+01 -1.02598E+01 -1.01517E+01 -1.00434E+01 -9.93472E+00 -9.82578E+00
 NY background values follow
    -6.266E+01   -6.243E+01   -6.220E+01   -6.196E+01   -6.173E+01   -6.149E+01   -6.126E+01   -6.103E+01   -6.079E+01   -6.056E+01
    -6.032E+01   -6.009E+01   -5.985E+01   -5.962E+01   -5.938E+01   -5.915E+01   -5.892E+01   -5.868E+01   -5.845E+01   -5.821E+01
    -5.798E+01   -5.775E+01   -5.751E+01   -5.728E+01   -5.705E+01   -5.681E+01   -5.658E+01   -5.635E+01   -5.612E+01   -5.589E+01
    -5.566E+01   -5.542E+01   -5.519E+01   -5.496E+01   -5.473E+01   -5.451E+01   -5.428E+01   -5.405E+01   -5.382E+01   -5.359E+01
    -5.337E+01   -5.314E+01   -5.291E+01   -5.269E+01   -5.247E+01   -5.224E+01   -5.202E+01   -5.180E+01   -5.157E+01   -5.135E+01
    -5.113E+01   -5.091E+01   -5.069E+01   -5.048E+01   -5.026E+01   -5.004E+01   -4.983E+01   -4.961E+01   -4.940E+01   -4.918E+01
    -4.897E+01   -4.876E+01   -4.855E+01   -4.834E+01   -4.813E+01   -4.792E+01   -4.771E+01   -4.750E+01   -4.730E+01   -4.709E+01
    -4.689E+01   -4.669E+01   -4.648E+01   -4.628E+01   -4.608E+01   -4.588E+01   -4.569E+01   -4.549E+01   -4.529E+01   -4.510E+01
    -4.490E+01   -4.471E+01   -4.452E+01   -4.433E+01   -4.414E+01   -4.395E+01   -4.377E+01   -4.358E+01   -4.339E+01   -4.321E+01
    -4.303E+01   -4.285E+01   -4.267E+01   -4.249E+01   -4.231E+01   -4.213E+01   -4.196E+01   -4.179E+01   -4.161E+01   -4.144E+01
    -4.127E+01   -4.110E+01   -4.093E+01   -4.077E+01   -4.060E+01   -4.044E+01   -4.027E+01   -4.011E+01   -3.995E+01   -3.979E+01
    -3.963E+01   -3.948E+01   -3.932E+01   -3.917E+01   -3.901E+01   -3.886E+01   -3.871E+01   -3.856E+01   -3.841E+01   -3.826E+01
    -3.812E+01   -3.797E+01   -3.783E+01   -3.769E+01   -3.755E+01   -3.741E+01   -3.727E+01   -3.713E+01   -3.699E+01   -3.686E+01
    -3.672E+01   -3.659E+01   -3.646E+01   -3.633E+01   -3.620E+01   -3.607E+01   -3.594E+01   -3.582E+01   -3.569E+01   -3.557E+01
    -3.545E+01   -3.533E+01   -3.521E+01   -3.509E+01   -3.497E+01   -3.486E+01   -3.474E+01   -3.463E+01   -3.452E+01   -3.441E+01
    -3.430E+01   -3.419E+01   -3.408E+01   -3.397E+01   -3.387E+01   -3.377E+01   -3.366E+01   -3.356E+01   -3.346E+01   -3.336E+01
    -3.327E+01   -3.317E+01   -3.308E+01   -3.298E+01   -3.289E+01   -3.280E+01   -3.271E+01   -3.262E+01   -3.254E+01   -3.245E+01
    -3.237E+01   -3.228E+01   -3.220E+01   -3.212E+01   -3.204E+01   -3.196E+01   -3.189E+01   -3.181E+01   -3.174E+01   -3.166E+01
    -3.159E+01   -3.152E+01   -3.145E+01   -3.139E+01   -3.132E+01   -3.125E+01   -3.119E+01   -3.113E+01   -3.107E+01   -3.101E+01
    -3.095E+01   -3.089E+01   -3.084E+01   -3.078E+01   -3.073E+01   -3.067E+01   -3.062E+01   -3.057E+01   -3.052E+01   -3.047E+01
    -3.043E+01   -3.038E+01   -3.034E+01   -3.029E+01   -3.025E+01   -3.021E+01   -3.017E+01   -3.013E+01   -3.009E+01   -3.006E+01
    -3.002E+01   -2.998E+01   -2.995E+01   -2.992E+01   -2.989E+01   -2.986E+01   -2.983E+01   -2.980E+01   -2.977E+01   -2.974E+01
    -2.972E+01   -2.969E+01   -2.967E+01   -2.964E+01   -2.962E+01   -2.960E+01   -2.958E+01   -2.956E+01   -2.954E+01   -2.952E+01
    -2.950E+01   -2.949E+01   -2.947E+01   -2.946E+01   -2.944E+01   -2.943E+01   -2.942E+01   -2.941E+01   -2.939E+01   -2.938E+01
    -2.937E+01   -2.936E+01   -2.935E+01   -2.935E+01   -2.934E+01   -2.933E+01   -2.932E+01   -2.932E+01   -2.931E+01   -2.930E+01
    -2.930E+01   -2.929E+01   -2.929E+01   -2.928E+01   -2.928E+01   -2.928E+01   -2.927E+01   -2.927E+01   -2.927E+01   -2.926E+01
    -2.926E+01   -2.926E+01   -2.925E+01   -2.925E+01   -2.925E+01   -2.925E+01   -2.924E+01   -2.924E+01   -2.924E+01   -2.924E+01
    -2.924E+01   -2.923E+01   -2.923E+01   -2.923E+01   -2.922E+01   -2.922E+01   -2.922E+01   -2.922E+01   -2.921E+01   -2.921E+01
    -2.920E+01   -2.920E+01   -2.919E+01   -2.919E+01   -2.918E+01   -2.918E+01   -2.917E+01   -2.917E+01   -2.916E+01   -2.915E+01
    -2.915E+01   -2.914E+01   -2.913E+01   -2.912E+01   -2.911E+01   -2.910E+01   -2.909E+01   -2.908E+01   -2.907E+01   -2.905E+01
    -2.904E+01   -2.903E+01   -2.901E+01   -2.900E+01   -2.898E+01   -2.897E+01   -2.895E+01   -2.893E+01   -2.891E+01   -2.889E+01
    -2.887E+01   -2.885E+01   -2.883E+01   -2.881E+01   -2.878E+01   -2.876E+01   -2.873E+01   -2.870E+01   -2.868E+01   -2.865E+01
    -2.862E+01   -2.859E+01   -2.856E+01   -2.852E+01   -2.849E+01   -2.846E+01   -2.842E+01   -2.838E+01   -2.835E+01   -2.831E+01
    -2.827E+01   -2.823E+01   -2.818E+01   -2.814E+01   -2.810E+01   -2.805E+01   -2.801E+01   -2.796E+01   -2.791E+01   -2.786E+01
    -2.781E+01   -2.776E+01   -2.770E+01   -2.765E+01   -2.759E+01   -2.754E+01   -2.748E+01   -2.742E+01   -2.736E+01   -2.730E+01
    -2.724E+01   -2.717E+01   -2.711E+01   -2.704E+01   -2.697E+01   -2.690E+01   -2.683E+01   -2.676E+01   -2.669E+01   -2.661E+01
    -2.654E+01   -2.646E+01   -2.638E+01   -2.630E+01   -2.622E+01   -2.614E+01   -2.606E+01   -2.597E+01   -2.589E+01   -2.580E+01
    -2.571E+01   -2.562E+01   -2.553E+01   -2.544E+01   -2.535E+01   -2.525E+01   -2.516E+01   -2.506E+01   -2.496E+01   -2.487E+01
    -2.477E+01   -2.467E+01   -2.457E+01   -2.447E+01   -2.436E+01   -2.426E+01   -2.416E+01   -2.405E+01   -2.395E+01   -2.384E+01
    -2.374E+01   -2.363E+01   -2.352E+01   -2.341E+01   -2.330E+01   -2.319E+01   -2.308E+01   -2.297E+01   -2.286E+01   -2.275E+01
    -2.263E+01   -2.252E+01   -2.241E+01   -2.229E+01   -2.218E+01   -2.207E+01   -2.195E+01   -2.184E+01   -2.172E+01   -2.160E+01
    -2.149E+01   -2.137E+01   -2.126E+01   -2.114E+01   -2.102E+01   -2.090E+01   -2.079E+01   -2.067E+01   -2.055E+01   -2.043E+01
    -2.031E+01   -2.020E+01   -2.008E+01   -1.996E+01   -1.984E+01   -1.972E+01   -1.960E+01   -1.948E+01   -1.936E+01   -1.924E+01
    -1.912E+01   -1.900E+01   -1.888E+01   -1.876E+01   -1.864E+01   -1.852E+01   -1.840E+01   -1.828E+01   -1.815E+01   -1.803E+01
    -1.791E+01   -1.779E+01   -1.767E+01   -1.755E+01   -1.743E+01   -1.731E+01   -1.719E+01   -1.706E+01   -1.694E+01   -1.682E+01
    -1.670E+01   -1.658E+01   -1.646E+01   -1.634E+01   -1.622E+01   -1.609E+01   -1.597E+01   -1.585E+01   -1.573E+01   -1.561E+01
    -1.549E+01   -1.537E+01   -1.525E+01   -1.513E+01   -1.501E+01   -1.488E+01   -1.476E+01   -1.464E+01   -1.452E+01   -1.440E+01
    -1.428E+01   -1.416E+01   -1.404E+01   -1.392E+01   -1.380E+01   -1.368E+01   -1.355E+01   -1.343E+01   -1.331E+01   -1.319E+01
    -1.307E+01   -1.295E+01   -1.283E+01   -1.271E+01   -1.259E+01   -1.246E+01   -1.234E+01   -1.222E+01   -1.210E+01   -1.198E+01
    -1.186E+01   -1.174E+01   -1.162E+01   -1.149E+01   -1.137E+01   -1.125E+01   -1.113E+01   -1.101E+01
 Asp      Conc. = 7.16E+01
