 LCModel (Version 6.3-1L) Copyright: S.W. Provencher.          Ref.: Magn. Reson. Med. 30:672-679 (1993).                
 Slice#2 Row#8 Col#5  PD_24_press_2_raw_act
 36 lines in following concentration table = NCONC+1
    Conc.  %SD /Cr+PCr  Metabolite                                         
    0.000 999%   0.000 Ala                                                 
   30.020 999% 9.9E-03 Asp                                                 
 2.25E+03  12%   0.745 Cr                                                  
  771.866  36%   0.255 PCr                                                 
    0.000 999%   0.000 GABA                                                
    0.000 999%   0.000 Glc                                                 
 1.13E+03  31%   0.373 Gln                                                 
 3.05E+03  13%   1.010 Glu                                                 
  700.576   5%   0.232 GPC                                                 
    0.000 999%   0.000 PCh                                                 
  899.069  13%   0.297 GSH                                                 
 2.14E+03  18%   0.709 Ins                                                 
  423.545  47%   0.140 Lac                                                 
 4.24E+03   4%   1.402 NAA                                                 
  379.352  47%   0.125 NAAG                                                
   54.990  75% 1.8E-02 Scyllo                                              
    0.000 999%   0.000 Tau                                                 
    0.000 999%   0.000 -CrCH2                                              
  700.576   5%   0.232 GPC+PCh                                             
 4.62E+03   3%   1.527 NAA+NAAG                                            
 3.02E+03   3%   1.000 Cr+PCr                                              
 4.18E+03  13%   1.383 Glu+Gln                                             
  620.302 199%   0.205 Lip13a                                              
  718.797  74%   0.238 Lip13b                                              
  141.723 272% 4.7E-02 Lip09                                               
 2.49E+03  17%   0.823 MM09                                                
  139.132 187% 4.6E-02 Lip20                                               
 4.50E+03  13%   1.488 MM20                                                
  760.848  43%   0.252 MM12                                                
 1.87E+03  26%   0.618 MM14                                                
 2.89E+03   8%   0.955 MM17                                                
 1.34E+03  60%   0.443 Lip13a+Lip13b                                       
 3.97E+03  14%   1.312 MM14+Lip13a+Lip13b+MM12                             
 2.63E+03  10%   0.869 MM09+Lip09                                          
 4.64E+03  13%   1.534 MM20+Lip20                                          
   6 lines in following misc. output table
  FWHM = 0.038 ppm    S/N =  14                                            
  Data shift = 0.008 ppm                                                   
  Ph:   9 deg       4.5 deg/ppm                                            
  alphaB,S = 1.6E+00,   9.1E+00                                            
   14 spline knots.   Ns = 6(1)                                            
  (13) 9 infls.   (13) 3 extrs.                                            
  498 points on ppm-axis = NY
      4.000000     3.992357     3.984714     3.977070     3.969427     3.961784     3.954141     3.946497     3.938854     3.931211
      3.923568     3.915925     3.908281     3.900638     3.892995     3.885352     3.877708     3.870065     3.862422     3.854779
      3.847136     3.839492     3.831849     3.824206     3.816563     3.808919     3.801276     3.793633     3.785990     3.778347
      3.770703     3.763060     3.755417     3.747774     3.740130     3.732487     3.724844     3.717201     3.709558     3.701914
      3.694271     3.686628     3.678985     3.671341     3.663698     3.656055     3.648412     3.640769     3.633125     3.625482
      3.617839     3.610196     3.602552     3.594909     3.587266     3.579623     3.571980     3.564336     3.556693     3.549050
      3.541407     3.533763     3.526120     3.518477     3.510834     3.503191     3.495547     3.487904     3.480261     3.472618
      3.464974     3.457331     3.449688     3.442045     3.434402     3.426758     3.419115     3.411472     3.403829     3.396185
      3.388542     3.380899     3.373256     3.365613     3.357969     3.350326     3.342683     3.335040     3.327396     3.319753
      3.312110     3.304467     3.296824     3.289180     3.281537     3.273894     3.266251     3.258607     3.250964     3.243321
      3.235678     3.228034     3.220391     3.212748     3.205105     3.197462     3.189818     3.182175     3.174532     3.166889
      3.159245     3.151602     3.143959     3.136316     3.128673     3.121029     3.113386     3.105743     3.098100     3.090456
      3.082813     3.075170     3.067527     3.059884     3.052240     3.044597     3.036954     3.029311     3.021667     3.014024
      3.006381     2.998738     2.991095     2.983451     2.975808     2.968165     2.960522     2.952878     2.945235     2.937592
      2.929949     2.922306     2.914662     2.907019     2.899376     2.891733     2.884089     2.876446     2.868803     2.861160
      2.853517     2.845873     2.838230     2.830587     2.822944     2.815300     2.807657     2.800014     2.792371     2.784728
      2.777084     2.769441     2.761798     2.754155     2.746511     2.738868     2.731225     2.723582     2.715939     2.708295
      2.700652     2.693009     2.685366     2.677722     2.670079     2.662436     2.654793     2.647150     2.639506     2.631863
      2.624220     2.616577     2.608933     2.601290     2.593647     2.586004     2.578361     2.570717     2.563074     2.555431
      2.547788     2.540144     2.532501     2.524858     2.517215     2.509572     2.501928     2.494285     2.486642     2.478999
      2.471355     2.463712     2.456069     2.448426     2.440783     2.433139     2.425496     2.417853     2.410210     2.402566
      2.394923     2.387280     2.379637     2.371994     2.364350     2.356707     2.349064     2.341421     2.333777     2.326134
      2.318491     2.310848     2.303205     2.295561     2.287918     2.280275     2.272632     2.264988     2.257345     2.249702
      2.242059     2.234416     2.226772     2.219129     2.211486     2.203843     2.196199     2.188556     2.180913     2.173270
      2.165627     2.157983     2.150340     2.142697     2.135054     2.127410     2.119767     2.112124     2.104481     2.096838
      2.089194     2.081551     2.073908     2.066265     2.058621     2.050978     2.043335     2.035692     2.028049     2.020405
      2.012762     2.005119     1.997476     1.989833     1.982190     1.974546     1.966903     1.959260     1.951617     1.943974
      1.936331     1.928688     1.921045     1.913402     1.905759     1.898115     1.890472     1.882829     1.875186     1.867543
      1.859900     1.852257     1.844614     1.836971     1.829327     1.821684     1.814041     1.806398     1.798755     1.791112
      1.783469     1.775826     1.768183     1.760540     1.752896     1.745253     1.737610     1.729967     1.722324     1.714681
      1.707038     1.699395     1.691752     1.684108     1.676465     1.668822     1.661179     1.653536     1.645893     1.638250
      1.630607     1.622964     1.615321     1.607677     1.600034     1.592391     1.584748     1.577105     1.569462     1.561819
      1.554176     1.546533     1.538890     1.531246     1.523603     1.515960     1.508317     1.500674     1.493031     1.485388
      1.477745     1.470102     1.462458     1.454815     1.447172     1.439529     1.431886     1.424243     1.416600     1.408957
      1.401314     1.393671     1.386027     1.378384     1.370741     1.363098     1.355455     1.347812     1.340169     1.332526
      1.324883     1.317240     1.309596     1.301953     1.294310     1.286667     1.279024     1.271381     1.263738     1.256095
      1.248452     1.240808     1.233165     1.225522     1.217879     1.210236     1.202593     1.194950     1.187307     1.179664
      1.172021     1.164377     1.156734     1.149091     1.141448     1.133805     1.126162     1.118519     1.110876     1.103233
      1.095590     1.087946     1.080303     1.072660     1.065017     1.057374     1.049731     1.042088     1.034445     1.026802
      1.019158     1.011515     1.003872     0.996229     0.988586     0.980943     0.973300     0.965657     0.958014     0.950371
      0.942727     0.935084     0.927441     0.919798     0.912155     0.904512     0.896869     0.889226     0.881583     0.873940
      0.866296     0.858653     0.851010     0.843367     0.835724     0.828081     0.820438     0.812795     0.805152     0.797508
      0.789865     0.782222     0.774579     0.766936     0.759293     0.751650     0.744007     0.736364     0.728721     0.721077
      0.713434     0.705791     0.698148     0.690505     0.682862     0.675219     0.667576     0.659933     0.652290     0.644646
      0.637003     0.629360     0.621717     0.614074     0.606431     0.598788     0.591145     0.583502     0.575858     0.568215
      0.560572     0.552929     0.545286     0.537643     0.530000     0.522357     0.514714     0.507071     0.499427     0.491784
      0.484141     0.476498     0.468855     0.461212     0.453569     0.445925     0.438282     0.430639     0.422996     0.415353
      0.407710     0.400067     0.392424     0.384780     0.377137     0.369494     0.361851     0.354208     0.346565     0.338922
      0.331278     0.323635     0.315992     0.308349     0.300706     0.293063     0.285420     0.277777     0.270133     0.262490
      0.254847     0.247204     0.239561     0.231918     0.224275     0.216631     0.208988     0.201345
 NY phased data points follow
   6.92492E+01  5.64454E+01  6.75546E+01  6.17924E+01  6.67386E+01  6.58133E+01  8.57409E+01  7.70088E+01  1.10409E+02  1.00685E+02
   1.25706E+02  1.25652E+02  1.42569E+02  1.11067E+02  1.20959E+02  9.51930E+01  1.02861E+02  8.61416E+01  8.40490E+01  6.35146E+01
   7.44712E+01  7.13602E+01  6.73555E+01  5.19682E+01  7.00998E+01  5.65430E+01  7.33021E+01  6.42397E+01  7.53881E+01  6.74426E+01
   8.16495E+01  7.14322E+01  8.38745E+01  7.28110E+01  7.46992E+01  5.98502E+01  5.91662E+01  5.46256E+01  6.10223E+01  4.90736E+01
   6.76265E+01  6.06546E+01  6.21495E+01  5.33412E+01  6.06988E+01  5.86277E+01  7.50979E+01  5.97261E+01  7.13969E+01  7.09032E+01
   6.61772E+01  5.98701E+01  6.06742E+01  5.56813E+01  6.23557E+01  5.02867E+01  6.27053E+01  5.09681E+01  5.90245E+01  5.03253E+01
   6.43922E+01  4.64692E+01  4.85901E+01  4.29856E+01  4.67319E+01  3.70463E+01  4.26466E+01  3.65105E+01  3.39111E+01  2.41003E+01
   4.14712E+01  3.74246E+01  3.56677E+01  4.27682E+01  3.94938E+01  4.25760E+01  4.66305E+01  3.33046E+01  4.62087E+01  3.25181E+01
   3.50975E+01  2.99587E+01  3.71656E+01  3.17173E+01  4.63022E+01  3.47417E+01  3.69652E+01  3.90708E+01  3.87987E+01  3.11303E+01
   4.23585E+01  3.03018E+01  3.60066E+01  3.31199E+01  3.53221E+01  2.94800E+01  3.74082E+01  2.88811E+01  4.32823E+01  3.50474E+01
   5.33124E+01  5.61024E+01  8.49207E+01  9.45671E+01  1.02105E+02  9.29338E+01  9.03196E+01  7.53414E+01  7.23546E+01  5.71166E+01
   5.37180E+01  3.16700E+01  4.83935E+01  3.72875E+01  3.67511E+01  3.37209E+01  3.44929E+01  3.04447E+01  3.69225E+01  2.73979E+01
   3.48795E+01  3.35045E+01  3.54049E+01  4.07714E+01  6.69258E+01  8.25107E+01  1.16321E+02  1.29218E+02  1.41514E+02  1.22564E+02
   1.09228E+02  8.51166E+01  7.57215E+01  6.48227E+01  6.18885E+01  4.49696E+01  3.42789E+01  3.81357E+01  3.41905E+01  3.26741E+01
   3.39513E+01  2.39663E+01  2.19876E+01  2.23280E+01  2.72462E+01  2.04191E+01  2.44862E+01  2.02297E+01  2.48768E+01  2.22786E+01
   1.61982E+01  1.15055E+01  2.77748E+01  1.79413E+01  2.03896E+01  1.25842E+01  2.98137E+01  1.86550E+01  2.70957E+01  1.28061E+01
   2.24702E+01  2.25642E+01  1.98862E+01  1.63958E+01  1.90545E+01  1.51243E+01  1.90229E+01  1.67246E+01  1.53124E+01  1.07369E+01
   2.28351E+01  1.34326E+01  1.60495E+01  5.89895E+00  3.95985E+00 -1.18179E-01  1.84834E+00 -6.00599E+00  5.87472E+00  3.49028E+00
   6.30778E+00  5.81712E+00 -1.89435E+00  4.64811E+00  3.21256E+00  4.97667E+00  5.18471E+00  8.87503E+00  1.53524E+01  1.31029E+01
   2.18254E+01  2.50712E+01  2.79550E+01  2.61295E+01  2.53805E+01  1.95945E+01  1.92476E+01  2.37103E+01  2.15050E+01  1.35534E+01
   2.14613E+01  1.26095E+01  2.72280E+01  2.56684E+01  2.63855E+01  2.71432E+01  2.01966E+01  1.62615E+01  1.37037E+01  8.58239E+00
   1.61248E+01  1.03683E+01  1.80257E+01  2.10568E+01  3.72746E+01  3.13390E+01  4.23463E+01  3.24607E+01  2.61341E+01  2.51074E+01
   2.05624E+01  5.48384E+00  1.08568E+01  8.61996E+00  1.73340E+01  1.26914E+01  2.86894E+01  2.25660E+01  1.73539E+01  2.42847E+01
   2.92913E+01  2.05938E+01  2.92297E+01  1.66096E+01  2.99422E+01  2.45767E+01  2.87613E+01  2.47848E+01  2.74535E+01  2.14362E+01
   2.24458E+01  1.23922E+01  2.22240E+01  1.39565E+01  2.25894E+01  2.61680E+01  3.00769E+01  2.60969E+01  3.06383E+01  2.67668E+01
   3.76932E+01  3.08348E+01  4.24265E+01  4.26720E+01  5.33912E+01  4.78007E+01  6.44903E+01  8.63026E+01  1.21844E+02  1.51269E+02
   1.88137E+02  1.79646E+02  1.61339E+02  1.28683E+02  1.01126E+02  8.31886E+01  7.71175E+01  5.80992E+01  4.24403E+01  2.64061E+01
   3.15534E+01  1.98174E+01  2.18444E+01  2.50956E+01  1.96246E+01  1.35609E+01  2.14009E+01  2.31123E+01  1.39303E+01  1.05550E+01
   1.71174E+01  1.37172E+01  1.74034E+01  1.00943E+01  1.38142E+01  1.34679E+01  1.51472E+01  1.36000E+01  1.72946E+01  1.75937E+01
   2.21548E+01  1.93574E+01  1.45594E+01  1.70432E+01  2.20894E+01  2.15108E+01  3.02159E+01  2.03976E+01  2.94047E+01  2.74058E+01
   3.14669E+01  3.19407E+01  3.42408E+01  3.39751E+01  3.46627E+01  2.99978E+01  3.43019E+01  3.47902E+01  3.79780E+01  3.06360E+01
   3.94537E+01  3.13753E+01  3.06982E+01  3.37301E+01  2.30615E+01  2.82655E+01  2.26704E+01  1.35440E+01  2.33738E+01  1.11307E+01
   5.82084E+00  9.34259E+00  1.01747E+01  9.64129E+00  7.29762E+00  1.96391E+00  1.33223E+01  6.80484E+00  2.02408E+01  6.71011E+00
   2.34896E+01  6.07446E+00  2.28364E+01  1.10282E+01  2.76850E+01  1.46150E+01  1.67375E+01  2.53780E+01  2.03674E+01  2.06945E+01
   2.64589E+01  1.73202E+01  2.62860E+01  2.21512E+01  2.14408E+01  2.55872E+01  2.86853E+01  2.31762E+01  2.53593E+01  1.75151E+01
   2.50469E+01  1.56906E+01  2.30413E+01  1.89670E+01  2.31533E+01  2.22429E+01  2.06474E+01  2.39198E+01  2.44527E+01  3.13757E+01
   2.33098E+01  2.16368E+01  2.33333E+01  2.09944E+01  1.48917E+01  1.87457E+01  1.61387E+01  1.43385E+01  2.35336E+01  1.46465E+01
   1.93057E+01  1.00522E+01  1.34499E+01  8.88681E+00  1.55551E+01  1.05606E+01  1.19938E+01  1.05843E+01  1.05398E+01  1.45507E+01
   1.07304E+01  5.86331E+00  1.36657E+01  1.18292E+01  1.06533E+01  7.73886E+00  9.56500E+00  1.44090E+01  1.48354E+01  2.02102E+01
   1.36625E+01  1.00673E+01  1.05414E+01  1.76397E+01  1.61815E+01  1.60085E+01  1.72342E+01  1.47284E+01  2.50172E+01  1.80240E+01
   2.28655E+01  2.38198E+01  2.80049E+01  2.68433E+01  2.96183E+01  2.83712E+01  3.09009E+01  2.76605E+01  2.44504E+01  2.53305E+01
   2.61262E+01  2.35874E+01  2.29993E+01  2.07403E+01  2.28015E+01  1.57197E+01  1.95506E+01  9.01149E+00  1.69766E+01  1.97912E+01
   2.21568E+01  1.50989E+01  2.04385E+01  1.35654E+01  1.44859E+01  1.57281E+01  9.89737E+00  9.99053E+00  1.15068E+01 -4.29905E+00
   7.44799E+00  4.53946E+00  1.60201E+01  3.95713E+00  1.81596E+01  3.03021E+00  9.67122E-02  3.67801E+00  7.99862E+00  5.34909E+00
   1.32041E+01  4.28537E+00  1.48709E+00  7.90343E+00  1.48283E+01  9.13475E+00  1.56757E+01  1.35669E+01  8.94983E+00  1.03269E+01
   7.50571E+00  4.44388E+00  3.63678E+00  7.11730E+00  8.44072E+00  5.96852E+00  5.81337E+00  1.52811E+00  1.31076E+01  7.87043E+00
   9.10952E+00  5.38397E+00  5.86196E+00  2.37078E+00  9.37804E+00  1.53233E+01  9.57577E+00  1.85940E+00  6.56837E+00  3.35637E+00
   1.35393E+01  1.28707E+01  5.82755E+00  4.79414E+00  8.93787E+00  7.09138E+00  1.02157E+01  6.82479E+00  1.11656E+01  5.66253E-01
   1.02775E+01  6.48115E+00  7.37141E+00  6.77589E+00  9.63650E+00 -6.64351E-01  4.43596E+00  6.70261E+00  3.46956E+00  9.73949E+00
   1.03882E+01  8.15938E+00  5.14652E+00  4.19429E+00  1.08011E+01  7.15159E-01  1.00639E+01  2.91304E+00
 NY points of the fit to the data follow
   6.55337E+01  6.40168E+01  6.39075E+01  6.43478E+01  6.47731E+01  6.77698E+01  7.42924E+01  7.83051E+01  9.37747E+01  1.05905E+02
   1.20525E+02  1.27876E+02  1.29797E+02  1.18842E+02  1.09603E+02  9.75515E+01  9.02233E+01  8.22808E+01  7.90237E+01  6.88114E+01
   6.33562E+01  6.18302E+01  6.08990E+01  6.09993E+01  5.95791E+01  5.82548E+01  6.03507E+01  6.24761E+01  6.85536E+01  7.44864E+01
   7.94507E+01  8.00890E+01  7.89911E+01  7.41506E+01  6.95550E+01  6.48565E+01  6.16241E+01  5.62292E+01  5.45281E+01  5.38604E+01
   5.41904E+01  5.40372E+01  5.41234E+01  5.53951E+01  5.80757E+01  6.15306E+01  6.53984E+01  6.81119E+01  6.78376E+01  6.52999E+01
   6.13750E+01  5.69828E+01  5.36585E+01  5.24094E+01  5.08440E+01  4.83966E+01  4.72150E+01  4.76455E+01  4.90457E+01  5.03096E+01
   5.11656E+01  5.09461E+01  4.99038E+01  4.78584E+01  4.60260E+01  4.47350E+01  4.45130E+01  4.39024E+01  4.41298E+01  4.42394E+01
   4.47596E+01  4.52594E+01  4.56920E+01  4.55035E+01  4.50791E+01  4.42362E+01  4.35015E+01  4.27758E+01  4.24098E+01  4.18164E+01
   4.12552E+01  4.05900E+01  4.05215E+01  4.04680E+01  4.03496E+01  3.97253E+01  3.85667E+01  3.65451E+01  3.47987E+01  3.35858E+01
   3.34751E+01  3.39643E+01  3.48200E+01  3.54116E+01  3.56918E+01  3.63138E+01  3.68719E+01  3.84173E+01  4.07886E+01  3.95258E+01
   5.16675E+01  6.35744E+01  8.22031E+01  9.75559E+01  1.05854E+02  9.77903E+01  8.80342E+01  7.36702E+01  6.46457E+01  5.81560E+01
   5.55283E+01  4.30121E+01  3.49237E+01  3.31615E+01  3.26660E+01  3.24608E+01  3.23373E+01  3.22946E+01  3.23159E+01  3.25122E+01
   3.35324E+01  3.80360E+01  4.11356E+01  4.48087E+01  6.64508E+01  8.58255E+01  1.14721E+02  1.34898E+02  1.40915E+02  1.26063E+02
   1.11350E+02  9.10472E+01  7.99493E+01  7.14638E+01  6.23378E+01  4.00778E+01  3.00303E+01  2.77024E+01  2.77513E+01  2.89742E+01
   2.96834E+01  3.00228E+01  3.01353E+01  3.00167E+01  2.94441E+01  2.91301E+01  2.84114E+01  2.77568E+01  2.68164E+01  2.57698E+01
   2.49648E+01  2.42192E+01  2.36171E+01  2.30959E+01  2.26911E+01  2.24351E+01  2.25895E+01  2.20174E+01  2.13813E+01  2.01514E+01
   1.85418E+01  1.80951E+01  1.85277E+01  1.92920E+01  1.99012E+01  1.96850E+01  1.81792E+01  1.66160E+01  1.57101E+01  1.52842E+01
   1.46578E+01  1.43047E+01  1.28042E+01  1.11066E+01  1.01618E+01  9.08358E+00  9.29897E+00  9.85095E+00  1.05804E+01  1.03126E+01
   9.90364E+00  8.92931E+00  9.35141E+00  9.51702E+00  1.02374E+01  9.99952E+00  1.05005E+01  1.20386E+01  1.59136E+01  1.95644E+01
   2.20541E+01  2.28630E+01  2.21966E+01  2.10624E+01  1.96008E+01  1.86429E+01  1.70410E+01  1.67242E+01  1.70952E+01  1.84605E+01
   2.07440E+01  2.34098E+01  2.58779E+01  2.70878E+01  2.73722E+01  2.60481E+01  2.18609E+01  1.70445E+01  1.26382E+01  9.04050E+00
   8.90990E+00  9.13567E+00  1.35572E+01  1.83235E+01  2.51675E+01  2.92528E+01  3.09190E+01  2.88877E+01  2.38248E+01  1.54272E+01
   9.43581E+00  4.70004E+00  2.90548E+00  3.40043E+00  7.55427E+00  1.33122E+01  1.83308E+01  2.13799E+01  2.23602E+01  2.37302E+01
   2.48627E+01  2.44723E+01  2.33219E+01  2.39634E+01  2.49164E+01  2.64164E+01  2.74805E+01  2.82881E+01  2.79176E+01  2.66506E+01
   2.40355E+01  2.16370E+01  2.04902E+01  2.12938E+01  2.28919E+01  2.46380E+01  2.66239E+01  2.79874E+01  2.81912E+01  2.86214E+01
   3.00511E+01  3.09625E+01  3.40598E+01  3.91583E+01  4.98497E+01  5.28663E+01  6.55043E+01  9.19735E+01  1.20493E+02  1.57009E+02
   1.81528E+02  1.80483E+02  1.58642E+02  1.31737E+02  1.03296E+02  8.74402E+01  7.87767E+01  6.22766E+01  3.52214E+01  2.62642E+01
   2.31791E+01  2.12519E+01  2.02919E+01  2.00155E+01  1.95315E+01  1.90096E+01  1.83818E+01  1.76498E+01  1.69630E+01  1.64012E+01
   1.58847E+01  1.53397E+01  1.49429E+01  1.47045E+01  1.46119E+01  1.45871E+01  1.46371E+01  1.48054E+01  1.51948E+01  1.57182E+01
   1.64167E+01  1.73041E+01  1.84126E+01  1.96764E+01  2.10939E+01  2.26105E+01  2.42203E+01  2.58639E+01  2.75223E+01  2.91151E+01
   3.06093E+01  3.19407E+01  3.30607E+01  3.39069E+01  3.44385E+01  3.46292E+01  3.44871E+01  3.40018E+01  3.31931E+01  3.21048E+01
   3.07763E+01  2.92634E+01  2.76261E+01  2.59239E+01  2.42156E+01  2.25545E+01  2.09856E+01  1.95454E+01  1.82617E+01  1.71539E+01
   1.62327E+01  1.55008E+01  1.49526E+01  1.45777E+01  1.43632E+01  1.42940E+01  1.43533E+01  1.45224E+01  1.47826E+01  1.51162E+01
   1.55076E+01  1.59425E+01  1.64071E+01  1.68884E+01  1.73753E+01  1.78603E+01  1.83396E+01  1.88128E+01  1.92848E+01  1.97715E+01
   2.03187E+01  2.10170E+01  2.15230E+01  2.23298E+01  2.38890E+01  2.46880E+01  2.54548E+01  2.48964E+01  2.32789E+01  2.12890E+01
   1.96299E+01  1.83443E+01  1.88112E+01  1.97210E+01  2.14063E+01  2.29090E+01  2.49111E+01  2.57572E+01  2.57105E+01  2.47947E+01
   2.38294E+01  2.31217E+01  2.21818E+01  2.02894E+01  1.88090E+01  1.76572E+01  1.66965E+01  1.58772E+01  1.51722E+01  1.45619E+01
   1.40309E+01  1.35664E+01  1.31581E+01  1.27980E+01  1.24812E+01  1.22058E+01  1.19714E+01  1.17784E+01  1.16281E+01  1.15225E+01
   1.14651E+01  1.14598E+01  1.15109E+01  1.16223E+01  1.17982E+01  1.20428E+01  1.23610E+01  1.27570E+01  1.32340E+01  1.37935E+01
   1.44358E+01  1.51595E+01  1.59612E+01  1.68345E+01  1.77694E+01  1.87523E+01  1.97669E+01  2.07940E+01  2.18121E+01  2.27971E+01
   2.37233E+01  2.45651E+01  2.52981E+01  2.59007E+01  2.63540E+01  2.66431E+01  2.67580E+01  2.66946E+01  2.64546E+01  2.60459E+01
   2.54809E+01  2.47764E+01  2.39523E+01  2.30318E+01  2.20392E+01  2.09992E+01  1.99349E+01  1.88677E+01  1.78164E+01  1.67975E+01
   1.58245E+01  1.49072E+01  1.40520E+01  1.32626E+01  1.25404E+01  1.18851E+01  1.12947E+01  1.07658E+01  1.02937E+01  9.87343E+00
   9.50035E+00  9.16989E+00  8.87745E+00  8.61834E+00  8.38818E+00  8.18327E+00  8.00067E+00  7.83777E+00  7.69202E+00  7.56092E+00
   7.44238E+00  7.33494E+00  7.23755E+00  7.14919E+00  7.06862E+00  6.99465E+00  6.92644E+00  6.86362E+00  6.80592E+00  6.75283E+00
   6.70361E+00  6.65766E+00  6.61473E+00  6.57487E+00  6.53801E+00  6.50375E+00  6.47157E+00  6.44118E+00  6.41264E+00  6.38610E+00
   6.36145E+00  6.33830E+00  6.31630E+00  6.29540E+00  6.27581E+00  6.25764E+00  6.24068E+00  6.22458E+00  6.20911E+00  6.19441E+00
   6.18073E+00  6.16809E+00  6.15618E+00  6.14473E+00  6.13368E+00  6.12329E+00  6.11373E+00  6.10489E+00  6.09643E+00  6.08817E+00
   6.08023E+00  6.07287E+00  6.06617E+00  6.05989E+00  6.05374E+00  6.04769E+00  6.04194E+00  6.03673E+00  6.03198E+00  6.02741E+00
   6.02281E+00  6.01826E+00  6.01405E+00  6.01028E+00  6.00677E+00  6.00322E+00  5.99956E+00  5.99599E+00
 NY background values follow
     5.717E+01    5.690E+01    5.664E+01    5.638E+01    5.612E+01    5.585E+01    5.559E+01    5.533E+01    5.506E+01    5.480E+01
     5.454E+01    5.427E+01    5.401E+01    5.375E+01    5.348E+01    5.322E+01    5.296E+01    5.269E+01    5.243E+01    5.217E+01
     5.190E+01    5.164E+01    5.138E+01    5.111E+01    5.085E+01    5.059E+01    5.033E+01    5.006E+01    4.980E+01    4.954E+01
     4.928E+01    4.902E+01    4.875E+01    4.849E+01    4.823E+01    4.797E+01    4.771E+01    4.745E+01    4.719E+01    4.693E+01
     4.667E+01    4.641E+01    4.615E+01    4.589E+01    4.563E+01    4.537E+01    4.511E+01    4.485E+01    4.460E+01    4.434E+01
     4.408E+01    4.382E+01    4.357E+01    4.331E+01    4.306E+01    4.280E+01    4.255E+01    4.229E+01    4.204E+01    4.178E+01
     4.153E+01    4.128E+01    4.102E+01    4.077E+01    4.052E+01    4.027E+01    4.002E+01    3.977E+01    3.952E+01    3.927E+01
     3.902E+01    3.878E+01    3.853E+01    3.828E+01    3.804E+01    3.779E+01    3.755E+01    3.731E+01    3.706E+01    3.682E+01
     3.658E+01    3.634E+01    3.610E+01    3.586E+01    3.563E+01    3.539E+01    3.515E+01    3.492E+01    3.468E+01    3.445E+01
     3.422E+01    3.398E+01    3.375E+01    3.352E+01    3.329E+01    3.307E+01    3.284E+01    3.261E+01    3.239E+01    3.216E+01
     3.194E+01    3.172E+01    3.149E+01    3.127E+01    3.105E+01    3.084E+01    3.062E+01    3.040E+01    3.019E+01    2.997E+01
     2.976E+01    2.955E+01    2.933E+01    2.912E+01    2.891E+01    2.871E+01    2.850E+01    2.829E+01    2.809E+01    2.788E+01
     2.768E+01    2.748E+01    2.728E+01    2.708E+01    2.688E+01    2.668E+01    2.648E+01    2.629E+01    2.609E+01    2.590E+01
     2.571E+01    2.552E+01    2.533E+01    2.514E+01    2.495E+01    2.477E+01    2.458E+01    2.440E+01    2.421E+01    2.403E+01
     2.385E+01    2.367E+01    2.349E+01    2.332E+01    2.314E+01    2.296E+01    2.279E+01    2.262E+01    2.245E+01    2.228E+01
     2.211E+01    2.194E+01    2.177E+01    2.161E+01    2.144E+01    2.128E+01    2.112E+01    2.095E+01    2.079E+01    2.064E+01
     2.048E+01    2.032E+01    2.017E+01    2.001E+01    1.986E+01    1.971E+01    1.955E+01    1.940E+01    1.926E+01    1.911E+01
     1.896E+01    1.882E+01    1.867E+01    1.853E+01    1.839E+01    1.824E+01    1.810E+01    1.797E+01    1.783E+01    1.769E+01
     1.755E+01    1.742E+01    1.729E+01    1.715E+01    1.702E+01    1.689E+01    1.676E+01    1.664E+01    1.651E+01    1.638E+01
     1.626E+01    1.613E+01    1.601E+01    1.589E+01    1.577E+01    1.565E+01    1.553E+01    1.541E+01    1.529E+01    1.518E+01
     1.506E+01    1.495E+01    1.483E+01    1.472E+01    1.461E+01    1.450E+01    1.439E+01    1.428E+01    1.417E+01    1.406E+01
     1.395E+01    1.385E+01    1.374E+01    1.364E+01    1.354E+01    1.343E+01    1.333E+01    1.323E+01    1.313E+01    1.303E+01
     1.293E+01    1.283E+01    1.273E+01    1.264E+01    1.254E+01    1.244E+01    1.235E+01    1.225E+01    1.216E+01    1.207E+01
     1.197E+01    1.188E+01    1.179E+01    1.170E+01    1.161E+01    1.152E+01    1.143E+01    1.134E+01    1.126E+01    1.117E+01
     1.108E+01    1.100E+01    1.091E+01    1.083E+01    1.074E+01    1.066E+01    1.058E+01    1.050E+01    1.042E+01    1.034E+01
     1.026E+01    1.018E+01    1.010E+01    1.002E+01    9.942E+00    9.865E+00    9.789E+00    9.713E+00    9.638E+00    9.564E+00
     9.490E+00    9.417E+00    9.344E+00    9.272E+00    9.201E+00    9.130E+00    9.060E+00    8.991E+00    8.922E+00    8.853E+00
     8.786E+00    8.719E+00    8.652E+00    8.586E+00    8.521E+00    8.456E+00    8.392E+00    8.329E+00    8.266E+00    8.203E+00
     8.142E+00    8.080E+00    8.020E+00    7.960E+00    7.900E+00    7.842E+00    7.783E+00    7.726E+00    7.669E+00    7.612E+00
     7.556E+00    7.501E+00    7.446E+00    7.392E+00    7.339E+00    7.286E+00    7.233E+00    7.181E+00    7.130E+00    7.079E+00
     7.029E+00    6.980E+00    6.931E+00    6.882E+00    6.834E+00    6.787E+00    6.740E+00    6.694E+00    6.648E+00    6.603E+00
     6.559E+00    6.515E+00    6.471E+00    6.428E+00    6.386E+00    6.344E+00    6.303E+00    6.263E+00    6.222E+00    6.183E+00
     6.144E+00    6.105E+00    6.067E+00    6.030E+00    5.993E+00    5.957E+00    5.921E+00    5.886E+00    5.851E+00    5.817E+00
     5.783E+00    5.750E+00    5.717E+00    5.685E+00    5.653E+00    5.622E+00    5.591E+00    5.561E+00    5.531E+00    5.502E+00
     5.473E+00    5.445E+00    5.417E+00    5.390E+00    5.363E+00    5.337E+00    5.311E+00    5.285E+00    5.260E+00    5.236E+00
     5.212E+00    5.189E+00    5.165E+00    5.143E+00    5.121E+00    5.099E+00    5.078E+00    5.057E+00    5.037E+00    5.017E+00
     4.997E+00    4.978E+00    4.959E+00    4.941E+00    4.924E+00    4.906E+00    4.889E+00    4.873E+00    4.857E+00    4.841E+00
     4.826E+00    4.811E+00    4.797E+00    4.782E+00    4.769E+00    4.756E+00    4.743E+00    4.730E+00    4.718E+00    4.707E+00
     4.695E+00    4.684E+00    4.674E+00    4.664E+00    4.654E+00    4.644E+00    4.635E+00    4.627E+00    4.618E+00    4.610E+00
     4.603E+00    4.595E+00    4.589E+00    4.582E+00    4.576E+00    4.570E+00    4.564E+00    4.559E+00    4.554E+00    4.550E+00
     4.546E+00    4.542E+00    4.538E+00    4.535E+00    4.532E+00    4.529E+00    4.527E+00    4.525E+00    4.523E+00    4.522E+00
     4.521E+00    4.520E+00    4.520E+00    4.519E+00    4.519E+00    4.520E+00    4.520E+00    4.521E+00    4.522E+00    4.523E+00
     4.525E+00    4.527E+00    4.529E+00    4.531E+00    4.534E+00    4.536E+00    4.539E+00    4.542E+00    4.546E+00    4.549E+00
     4.553E+00    4.557E+00    4.561E+00    4.565E+00    4.569E+00    4.574E+00    4.578E+00    4.583E+00    4.588E+00    4.593E+00
     4.599E+00    4.604E+00    4.610E+00    4.615E+00    4.621E+00    4.627E+00    4.633E+00    4.639E+00    4.645E+00    4.651E+00
     4.658E+00    4.664E+00    4.670E+00    4.677E+00    4.684E+00    4.690E+00    4.697E+00    4.704E+00    4.710E+00    4.717E+00
     4.724E+00    4.731E+00    4.738E+00    4.745E+00    4.752E+00    4.760E+00    4.767E+00    4.774E+00    4.781E+00    4.789E+00
     4.796E+00    4.803E+00    4.811E+00    4.818E+00    4.826E+00    4.833E+00    4.841E+00    4.848E+00    4.856E+00    4.863E+00
     4.871E+00    4.878E+00    4.886E+00    4.894E+00    4.901E+00    4.909E+00    4.916E+00    4.924E+00    4.931E+00    4.939E+00
     4.947E+00    4.954E+00    4.962E+00    4.969E+00    4.977E+00    4.984E+00    4.992E+00    4.999E+00
 Asp      Conc. = 3.00E+01
