 LCModel (Version 6.3-1L) Copyright: S.W. Provencher.          Ref.: Magn. Reson. Med. 30:672-679 (1993).                
 Slice#2 Row#9 Col#1  PD_24_press_2_raw_act
 36 lines in following concentration table = NCONC+1
    Conc.  %SD /Cr+PCr  Metabolite                                         
    0.000 999%   0.000 Ala                                                 
  579.202  31%   3.333 Asp                                                 
   57.109  94%   0.329 Cr                                                  
  116.657  54%   0.671 PCr                                                 
    0.000 999%   0.000 GABA                                                
   67.584 157%   0.389 Glc                                                 
    0.000 999%   0.000 Gln                                                 
  674.479  37%   3.882 Glu                                                 
    0.000 999%   0.000 GPC                                                 
   15.875  72% 9.1E-02 PCh                                                 
   18.064 225%   0.104 GSH                                                 
  265.208  51%   1.526 Ins                                                 
   35.574 237%   0.205 Lac                                                 
  538.016  31%   3.096 NAA                                                 
    7.089 705% 4.1E-02 NAAG                                                
    0.826 999% 4.8E-03 Scyllo                                              
  267.161  54%   1.537 Tau                                                 
   75.098  79%   0.432 -CrCH2                                              
   15.875  72% 9.1E-02 GPC+PCh                                             
  545.105  31%   3.137 NAA+NAAG                                            
  173.766  33%   1.000 Cr+PCr                                              
  674.479  37%   3.882 Glu+Gln                                             
 3.63E+04  18% 208.932 Lip13a                                              
    0.000 999%   0.000 Lip13b                                              
    0.000 999%   0.000-Lip09                                               
 3.96E+04  10% 228.047 MM09                                                
 1.58E+04   8%  90.902+Lip20                                               
 5.95E+04  10% 342.315 MM20                                                
 1.19E+04  10%  68.401 MM12                                                
 2.98E+04  10% 171.560 MM14                                                
 1.49E+04  10%  85.996 MM17                                                
 3.63E+04  18% 208.932 Lip13a+Lip13b                                       
 7.80E+04   9% 448.892 MM14+Lip13a+Lip13b+MM12                             
 3.96E+04  10% 228.047 MM09+Lip09                                          
 7.53E+04   7% 433.217 MM20+Lip20                                          
   6 lines in following misc. output table
  FWHM = 0.122 ppm    S/N =  11                                            
  Data shift = 0.130 ppm                                                   
  Ph:   9 deg      71.4 deg/ppm                                            
  alphaB,S = 9.0E-01,   3.0E+00                                            
    8 spline knots.   Ns = 9(2)                                            
  (10) 8 infls.   ( 6) 6 extrs.                                            
  498 points on ppm-axis = NY
      4.000000     3.992357     3.984714     3.977070     3.969427     3.961784     3.954141     3.946497     3.938854     3.931211
      3.923568     3.915925     3.908281     3.900638     3.892995     3.885352     3.877708     3.870065     3.862422     3.854779
      3.847136     3.839492     3.831849     3.824206     3.816563     3.808919     3.801276     3.793633     3.785990     3.778347
      3.770703     3.763060     3.755417     3.747774     3.740130     3.732487     3.724844     3.717201     3.709558     3.701914
      3.694271     3.686628     3.678985     3.671341     3.663698     3.656055     3.648412     3.640769     3.633125     3.625482
      3.617839     3.610196     3.602552     3.594909     3.587266     3.579623     3.571980     3.564336     3.556693     3.549050
      3.541407     3.533763     3.526120     3.518477     3.510834     3.503191     3.495547     3.487904     3.480261     3.472618
      3.464974     3.457331     3.449688     3.442045     3.434402     3.426758     3.419115     3.411472     3.403829     3.396185
      3.388542     3.380899     3.373256     3.365613     3.357969     3.350326     3.342683     3.335040     3.327396     3.319753
      3.312110     3.304467     3.296824     3.289180     3.281537     3.273894     3.266251     3.258607     3.250964     3.243321
      3.235678     3.228034     3.220391     3.212748     3.205105     3.197462     3.189818     3.182175     3.174532     3.166889
      3.159245     3.151602     3.143959     3.136316     3.128673     3.121029     3.113386     3.105743     3.098100     3.090456
      3.082813     3.075170     3.067527     3.059884     3.052240     3.044597     3.036954     3.029311     3.021667     3.014024
      3.006381     2.998738     2.991095     2.983451     2.975808     2.968165     2.960522     2.952878     2.945235     2.937592
      2.929949     2.922306     2.914662     2.907019     2.899376     2.891733     2.884089     2.876446     2.868803     2.861160
      2.853517     2.845873     2.838230     2.830587     2.822944     2.815300     2.807657     2.800014     2.792371     2.784728
      2.777084     2.769441     2.761798     2.754155     2.746511     2.738868     2.731225     2.723582     2.715939     2.708295
      2.700652     2.693009     2.685366     2.677722     2.670079     2.662436     2.654793     2.647150     2.639506     2.631863
      2.624220     2.616577     2.608933     2.601290     2.593647     2.586004     2.578361     2.570717     2.563074     2.555431
      2.547788     2.540144     2.532501     2.524858     2.517215     2.509572     2.501928     2.494285     2.486642     2.478999
      2.471355     2.463712     2.456069     2.448426     2.440783     2.433139     2.425496     2.417853     2.410210     2.402566
      2.394923     2.387280     2.379637     2.371994     2.364350     2.356707     2.349064     2.341421     2.333777     2.326134
      2.318491     2.310848     2.303205     2.295561     2.287918     2.280275     2.272632     2.264988     2.257345     2.249702
      2.242059     2.234416     2.226772     2.219129     2.211486     2.203843     2.196199     2.188556     2.180913     2.173270
      2.165627     2.157983     2.150340     2.142697     2.135054     2.127410     2.119767     2.112124     2.104481     2.096838
      2.089194     2.081551     2.073908     2.066265     2.058621     2.050978     2.043335     2.035692     2.028049     2.020405
      2.012762     2.005119     1.997476     1.989833     1.982190     1.974546     1.966903     1.959260     1.951617     1.943974
      1.936331     1.928688     1.921045     1.913402     1.905759     1.898115     1.890472     1.882829     1.875186     1.867543
      1.859900     1.852257     1.844614     1.836971     1.829327     1.821684     1.814041     1.806398     1.798755     1.791112
      1.783469     1.775826     1.768183     1.760540     1.752896     1.745253     1.737610     1.729967     1.722324     1.714681
      1.707038     1.699395     1.691752     1.684108     1.676465     1.668822     1.661179     1.653536     1.645893     1.638250
      1.630607     1.622964     1.615321     1.607677     1.600034     1.592391     1.584748     1.577105     1.569462     1.561819
      1.554176     1.546533     1.538890     1.531246     1.523603     1.515960     1.508317     1.500674     1.493031     1.485388
      1.477745     1.470102     1.462458     1.454815     1.447172     1.439529     1.431886     1.424243     1.416600     1.408957
      1.401314     1.393671     1.386027     1.378384     1.370741     1.363098     1.355455     1.347812     1.340169     1.332526
      1.324883     1.317240     1.309596     1.301953     1.294310     1.286667     1.279024     1.271381     1.263738     1.256095
      1.248452     1.240808     1.233165     1.225522     1.217879     1.210236     1.202593     1.194950     1.187307     1.179664
      1.172021     1.164377     1.156734     1.149091     1.141448     1.133805     1.126162     1.118519     1.110876     1.103233
      1.095590     1.087946     1.080303     1.072660     1.065017     1.057374     1.049731     1.042088     1.034445     1.026802
      1.019158     1.011515     1.003872     0.996229     0.988586     0.980943     0.973300     0.965657     0.958014     0.950371
      0.942727     0.935084     0.927441     0.919798     0.912155     0.904512     0.896869     0.889226     0.881583     0.873940
      0.866296     0.858653     0.851010     0.843367     0.835724     0.828081     0.820438     0.812795     0.805152     0.797508
      0.789865     0.782222     0.774579     0.766936     0.759293     0.751650     0.744007     0.736364     0.728721     0.721077
      0.713434     0.705791     0.698148     0.690505     0.682862     0.675219     0.667576     0.659933     0.652290     0.644646
      0.637003     0.629360     0.621717     0.614074     0.606431     0.598788     0.591145     0.583502     0.575858     0.568215
      0.560572     0.552929     0.545286     0.537643     0.530000     0.522357     0.514714     0.507071     0.499427     0.491784
      0.484141     0.476498     0.468855     0.461212     0.453569     0.445925     0.438282     0.430639     0.422996     0.415353
      0.407710     0.400067     0.392424     0.384780     0.377137     0.369494     0.361851     0.354208     0.346565     0.338922
      0.331278     0.323635     0.315992     0.308349     0.300706     0.293063     0.285420     0.277777     0.270133     0.262490
      0.254847     0.247204     0.239561     0.231918     0.224275     0.216631     0.208988     0.201345
 NY phased data points follow
  -1.69660E+02 -1.66147E+02 -1.70214E+02 -1.67200E+02 -1.65204E+02 -1.67042E+02 -1.62547E+02 -1.61980E+02 -1.61455E+02 -1.59557E+02
  -1.61383E+02 -1.60031E+02 -1.56730E+02 -1.58111E+02 -1.54484E+02 -1.59291E+02 -1.50855E+02 -1.54437E+02 -1.55096E+02 -1.53352E+02
  -1.51258E+02 -1.58473E+02 -1.50266E+02 -1.52085E+02 -1.49813E+02 -1.53496E+02 -1.51385E+02 -1.49020E+02 -1.47831E+02 -1.44993E+02
  -1.45561E+02 -1.44063E+02 -1.41261E+02 -1.41852E+02 -1.42850E+02 -1.38812E+02 -1.36881E+02 -1.39274E+02 -1.34451E+02 -1.36989E+02
  -1.33200E+02 -1.35018E+02 -1.30123E+02 -1.28908E+02 -1.22968E+02 -1.29338E+02 -1.21010E+02 -1.25707E+02 -1.25080E+02 -1.23155E+02
  -1.21403E+02 -1.22537E+02 -1.19942E+02 -1.17825E+02 -1.16287E+02 -1.16229E+02 -1.12212E+02 -1.15837E+02 -1.07949E+02 -1.10904E+02
  -1.10438E+02 -1.13139E+02 -1.08153E+02 -1.07876E+02 -1.04657E+02 -1.03952E+02 -1.00225E+02 -1.01289E+02 -9.77550E+01 -1.01532E+02
  -9.35740E+01 -9.69986E+01 -9.14878E+01 -9.38592E+01 -9.32013E+01 -9.49442E+01 -8.80689E+01 -9.42157E+01 -8.86624E+01 -8.70905E+01
  -8.42618E+01 -8.82177E+01 -8.16110E+01 -8.67949E+01 -8.05695E+01 -8.08641E+01 -7.16593E+01 -7.38685E+01 -6.81607E+01 -7.17168E+01
  -7.86647E+01 -8.00203E+01 -8.28572E+01 -8.38730E+01 -7.73266E+01 -7.99284E+01 -7.92835E+01 -8.79986E+01 -8.09252E+01 -8.40579E+01
  -8.68757E+01 -8.65220E+01 -8.41172E+01 -8.66680E+01 -8.91903E+01 -8.51800E+01 -7.83367E+01 -8.33064E+01 -7.88955E+01 -7.94471E+01
  -7.32051E+01 -7.18708E+01 -6.81154E+01 -7.25565E+01 -7.21306E+01 -7.48661E+01 -7.58994E+01 -7.89969E+01 -7.09519E+01 -7.20480E+01
  -6.91649E+01 -6.57646E+01 -6.87708E+01 -6.59016E+01 -6.43690E+01 -6.56235E+01 -5.88727E+01 -5.81866E+01 -5.37109E+01 -5.77026E+01
  -5.81134E+01 -5.16259E+01 -4.71698E+01 -5.25779E+01 -4.77521E+01 -4.75697E+01 -4.31578E+01 -4.82186E+01 -4.28665E+01 -4.60557E+01
  -3.99082E+01 -4.37295E+01 -4.44089E+01 -4.69748E+01 -4.00858E+01 -4.88983E+01 -4.56871E+01 -4.43953E+01 -5.25053E+01 -5.22573E+01
  -5.16004E+01 -5.78303E+01 -6.54471E+01 -6.41954E+01 -6.82187E+01 -7.28775E+01 -7.57522E+01 -8.56268E+01 -8.75972E+01 -9.08610E+01
  -9.94071E+01 -1.03821E+02 -1.05042E+02 -1.11186E+02 -1.16732E+02 -1.23349E+02 -1.27684E+02 -1.37422E+02 -1.35578E+02 -1.42563E+02
  -1.48084E+02 -1.49895E+02 -1.50765E+02 -1.55769E+02 -1.57272E+02 -1.62461E+02 -1.66798E+02 -1.70790E+02 -1.71320E+02 -1.74678E+02
  -1.73242E+02 -1.78100E+02 -1.74837E+02 -1.79498E+02 -1.82680E+02 -1.82084E+02 -1.84413E+02 -1.84904E+02 -1.84861E+02 -1.94367E+02
  -1.92817E+02 -1.95099E+02 -1.93345E+02 -1.97718E+02 -1.91478E+02 -1.90091E+02 -1.92756E+02 -1.90948E+02 -1.88871E+02 -1.88423E+02
  -1.89863E+02 -1.89063E+02 -1.83452E+02 -1.83104E+02 -1.76472E+02 -1.71051E+02 -1.64793E+02 -1.61709E+02 -1.54245E+02 -1.44293E+02
  -1.41688E+02 -1.33853E+02 -1.27760E+02 -1.22301E+02 -1.13878E+02 -1.07595E+02 -1.02672E+02 -9.86109E+01 -9.38094E+01 -8.36413E+01
  -7.86233E+01 -7.15597E+01 -6.33944E+01 -6.30302E+01 -5.50965E+01 -5.21290E+01 -4.84390E+01 -4.51857E+01 -4.11021E+01 -3.12380E+01
  -2.71985E+01 -2.61745E+01 -1.89954E+01 -1.52088E+01 -1.24187E+01 -7.33533E+00 -3.72833E+00  2.73169E+00  9.70278E+00  1.09361E+01
   2.16787E+01  1.93741E+01  2.06461E+01  2.46914E+01  2.32814E+01  1.90864E+01  1.27438E+01  1.10381E+01  1.33667E+01  1.46528E+01
   2.03452E+01  2.74455E+01  2.30727E+01  2.47742E+01  2.49640E+01  2.23578E+01  2.28719E+01  2.51655E+01  2.24347E+01  2.20335E+01
   1.69059E+01  1.79303E+01  1.73047E+01  1.99002E+01  1.71261E+01  1.61111E+01  1.95561E+01  1.25387E+01  1.28517E+01  8.72334E+00
   1.06070E+01  7.60953E+00  6.70618E+00  6.29791E+00 -1.55434E+00 -3.30894E+00 -5.87906E+00 -1.35164E+01 -1.58991E+01 -1.86852E+01
  -2.44453E+01 -3.02403E+01 -3.89801E+01 -4.44647E+01 -5.00475E+01 -5.83528E+01 -6.17449E+01 -6.49032E+01 -7.15984E+01 -7.42606E+01
  -7.33303E+01 -7.25801E+01 -6.95034E+01 -6.78324E+01 -6.45088E+01 -5.22789E+01 -3.92098E+01 -2.75929E+01 -1.77766E+01 -1.32910E+00
   1.23670E+01  2.24041E+01  3.89823E+01  5.03514E+01  6.36861E+01  7.28906E+01  7.79844E+01  8.56146E+01  9.40993E+01  9.52978E+01
   1.03905E+02  1.02330E+02  1.08283E+02  1.08182E+02  1.09074E+02  1.07369E+02  1.10002E+02  1.11203E+02  1.15826E+02  1.09384E+02
   1.07671E+02  1.07690E+02  1.09195E+02  1.10361E+02  1.06427E+02  1.06784E+02  1.01314E+02  1.04485E+02  1.03279E+02  1.02385E+02
   9.95366E+01  1.06642E+02  1.01636E+02  9.57016E+01  1.02383E+02  9.58965E+01  9.67101E+01  9.70573E+01  9.56106E+01  9.18371E+01
   9.01095E+01  9.04425E+01  9.11655E+01  8.74530E+01  9.05269E+01  9.21240E+01  8.55569E+01  8.93258E+01  8.45215E+01  8.72369E+01
   8.36805E+01  8.36161E+01  8.53605E+01  8.58937E+01  8.85701E+01  8.48870E+01  8.82558E+01  8.76601E+01  8.52599E+01  8.55117E+01
   8.80216E+01  8.54353E+01  8.73817E+01  8.69927E+01  8.98556E+01  8.83023E+01  8.45216E+01  8.67682E+01  8.51107E+01  8.55703E+01
   8.48505E+01  8.66683E+01  8.56370E+01  8.60477E+01  8.08617E+01  8.28616E+01  8.56537E+01  8.37708E+01  8.27057E+01  8.31590E+01
   8.32608E+01  8.28534E+01  7.77942E+01  8.04164E+01  8.05425E+01  8.07457E+01  7.65058E+01  7.77100E+01  7.80352E+01  7.86719E+01
   7.94962E+01  7.71979E+01  7.47452E+01  7.08191E+01  7.31095E+01  7.04897E+01  6.79455E+01  7.21572E+01  7.01054E+01  7.39911E+01
   6.96647E+01  6.97911E+01  7.08025E+01  7.18334E+01  6.81647E+01  7.20753E+01  6.83192E+01  7.10423E+01  6.74146E+01  6.53545E+01
   6.67120E+01  6.34852E+01  6.60655E+01  6.17479E+01  6.53098E+01  6.34635E+01  6.50802E+01  6.25246E+01  5.98472E+01  6.51677E+01
   6.28502E+01  6.47284E+01  6.37687E+01  5.99392E+01  5.95190E+01  6.10780E+01  6.26917E+01  6.38802E+01  6.02590E+01  6.00565E+01
   5.97342E+01  5.69149E+01  5.97101E+01  6.08029E+01  5.98858E+01  5.53475E+01  5.26484E+01  5.77769E+01  5.44859E+01  5.78065E+01
   5.06168E+01  5.63835E+01  5.50234E+01  5.03789E+01  4.88027E+01  5.21976E+01  5.05306E+01  4.83541E+01  4.85837E+01  4.45060E+01
   4.38934E+01  4.69551E+01  4.47497E+01  4.80663E+01  4.42096E+01  4.42900E+01  4.63937E+01  4.42720E+01  4.38684E+01  3.77672E+01
   4.26388E+01  4.31896E+01  4.08312E+01  3.78109E+01  3.82345E+01  3.99402E+01  4.11559E+01  3.92924E+01  3.40455E+01  4.06563E+01
   3.88682E+01  3.98985E+01  3.82963E+01  3.27506E+01  3.43959E+01  3.28569E+01  3.41487E+01  3.54985E+01  3.28583E+01  3.47005E+01
   3.29082E+01  2.79202E+01  2.81528E+01  3.20042E+01  2.60537E+01  2.92458E+01  2.85302E+01  2.68973E+01  2.90154E+01  2.92062E+01
   2.91869E+01  3.16272E+01  2.58107E+01  2.69239E+01  2.54544E+01  2.93745E+01  2.72146E+01  2.18571E+01
 NY points of the fit to the data follow
  -1.76190E+02 -1.73542E+02 -1.70258E+02 -1.66988E+02 -1.65507E+02 -1.62814E+02 -1.61810E+02 -1.59929E+02 -1.59123E+02 -1.58989E+02
  -1.59389E+02 -1.59237E+02 -1.56951E+02 -1.58237E+02 -1.55390E+02 -1.55653E+02 -1.54614E+02 -1.57290E+02 -1.57028E+02 -1.59593E+02
  -1.57817E+02 -1.58144E+02 -1.52723E+02 -1.51672E+02 -1.48427E+02 -1.49003E+02 -1.47365E+02 -1.49001E+02 -1.47728E+02 -1.44448E+02
  -1.43466E+02 -1.44575E+02 -1.48228E+02 -1.46901E+02 -1.45043E+02 -1.41292E+02 -1.39917E+02 -1.39070E+02 -1.36111E+02 -1.33150E+02
  -1.28522E+02 -1.24785E+02 -1.25472E+02 -1.23760E+02 -1.23812E+02 -1.21783E+02 -1.21936E+02 -1.20599E+02 -1.21433E+02 -1.20370E+02
  -1.17817E+02 -1.15305E+02 -1.13509E+02 -1.10717E+02 -1.12196E+02 -1.12824E+02 -1.15326E+02 -1.14530E+02 -1.16501E+02 -1.14644E+02
  -1.12355E+02 -1.09052E+02 -1.08791E+02 -1.06171E+02 -1.04724E+02 -1.03206E+02 -1.02423E+02 -1.03131E+02 -1.04997E+02 -1.04931E+02
  -1.01509E+02 -9.88062E+01 -9.49772E+01 -9.34794E+01 -9.07324E+01 -9.04891E+01 -8.66337E+01 -8.53206E+01 -8.06430E+01 -8.03590E+01
  -7.76331E+01 -8.04287E+01 -7.96521E+01 -8.03202E+01 -7.87881E+01 -7.88127E+01 -7.85500E+01 -8.07681E+01 -8.10506E+01 -8.25932E+01
  -8.38355E+01 -8.36881E+01 -8.35271E+01 -8.38108E+01 -8.31671E+01 -8.34498E+01 -8.62369E+01 -8.76567E+01 -8.59654E+01 -8.45466E+01
  -8.12466E+01 -7.86239E+01 -7.60470E+01 -7.57682E+01 -7.35391E+01 -7.25628E+01 -7.04280E+01 -6.98696E+01 -7.28040E+01 -7.45064E+01
  -7.84813E+01 -7.86581E+01 -8.15797E+01 -8.02341E+01 -8.03911E+01 -7.61698E+01 -7.67853E+01 -7.38087E+01 -7.41764E+01 -7.34128E+01
  -7.45990E+01 -7.02019E+01 -7.00205E+01 -6.74564E+01 -6.84270E+01 -6.54094E+01 -6.40612E+01 -5.99677E+01 -5.93243E+01 -5.89436E+01
  -5.66572E+01 -5.64546E+01 -5.35411E+01 -5.33709E+01 -5.01571E+01 -5.04388E+01 -4.74181E+01 -4.88813E+01 -4.66290E+01 -4.87979E+01
  -4.68077E+01 -4.85288E+01 -4.51827E+01 -4.60458E+01 -4.36008E+01 -4.64773E+01 -5.28867E+01 -5.81501E+01 -6.17352E+01 -6.28761E+01
  -6.59919E+01 -6.70879E+01 -7.11845E+01 -7.28286E+01 -7.74006E+01 -7.88805E+01 -8.37054E+01 -8.63345E+01 -9.24281E+01 -9.56788E+01
  -1.01667E+02 -1.05790E+02 -1.10788E+02 -1.12340E+02 -1.17640E+02 -1.21182E+02 -1.28023E+02 -1.35231E+02 -1.39171E+02 -1.44278E+02
  -1.47059E+02 -1.51636E+02 -1.54121E+02 -1.58430E+02 -1.60170E+02 -1.62883E+02 -1.63057E+02 -1.66752E+02 -1.66411E+02 -1.70247E+02
  -1.68626E+02 -1.71691E+02 -1.71126E+02 -1.73554E+02 -1.72012E+02 -1.73555E+02 -1.72434E+02 -1.76779E+02 -1.78621E+02 -1.81724E+02
  -1.82460E+02 -1.83704E+02 -1.83446E+02 -1.83874E+02 -1.81546E+02 -1.81321E+02 -1.78473E+02 -1.76951E+02 -1.75180E+02 -1.76415E+02
  -1.80980E+02 -1.79798E+02 -1.80921E+02 -1.75618E+02 -1.74338E+02 -1.68307E+02 -1.62704E+02 -1.52582E+02 -1.48593E+02 -1.41322E+02
  -1.39350E+02 -1.34328E+02 -1.31370E+02 -1.23988E+02 -1.18197E+02 -1.12501E+02 -1.07059E+02 -1.01676E+02 -9.55201E+01 -9.13365E+01
  -8.43064E+01 -7.98413E+01 -7.27080E+01 -6.88551E+01 -6.20991E+01 -5.95260E+01 -5.30923E+01 -4.93761E+01 -4.49673E+01 -4.10296E+01
  -3.77321E+01 -3.36399E+01 -2.84949E+01 -2.30567E+01 -1.57518E+01 -8.42819E+00 -3.15455E+00  7.84142E-01 -5.57716E-01  7.15625E+00
   1.27797E+01  2.23666E+01  2.96122E+01  3.26497E+01  2.52306E+01  2.79567E+01  1.90267E+01  2.08842E+01  1.77897E+01  2.23034E+01
   2.24436E+01  2.52341E+01  2.26083E+01  2.44963E+01  2.36843E+01  2.51425E+01  2.63177E+01  2.55600E+01  2.47464E+01  2.12675E+01
   1.97973E+01  1.65104E+01  2.01124E+01  1.78964E+01  2.16797E+01  1.95743E+01  2.14391E+01  1.62498E+01  1.71675E+01  1.27481E+01
   1.41680E+01  1.02312E+01  1.40351E+01  9.84445E+00  9.69910E+00  2.41132E+00 -7.95406E-02 -6.00697E+00 -5.76116E+00 -1.12672E+01
  -1.23625E+01 -3.10538E+01 -6.02815E+01 -7.20127E+01 -7.73247E+01 -7.94175E+01 -8.13275E+01 -8.03624E+01 -7.92074E+01 -7.72374E+01
  -7.42668E+01 -7.02169E+01 -6.51238E+01 -5.88761E+01 -5.13964E+01 -4.34881E+01 -3.46786E+01 -2.49583E+01 -1.42310E+01 -2.92493E+00
   8.97455E+00  2.10338E+01  3.33362E+01  4.52921E+01  5.66498E+01  6.72104E+01  7.67688E+01  8.51759E+01  9.23196E+01  9.81609E+01
   1.02747E+02  1.06117E+02  1.08372E+02  1.09711E+02  1.10295E+02  1.10315E+02  1.09952E+02  1.09373E+02  1.08717E+02  1.08092E+02
   1.07555E+02  1.07146E+02  1.06857E+02  1.06667E+02  1.06519E+02  1.06344E+02  1.06079E+02  1.05637E+02  1.04858E+02  1.03524E+02
   1.02703E+02  1.01834E+02  1.00870E+02  1.00077E+02  9.89316E+01  9.81736E+01  9.69674E+01  9.51733E+01  9.35210E+01  9.19334E+01
   9.04494E+01  8.93384E+01  8.81902E+01  8.74658E+01  8.67305E+01  8.62127E+01  8.57857E+01  8.57018E+01  8.55086E+01  8.56341E+01
   8.56752E+01  8.58758E+01  8.60322E+01  8.62093E+01  8.64274E+01  8.68259E+01  8.71762E+01  8.75793E+01  8.79171E+01  8.81691E+01
   8.85185E+01  8.87374E+01  8.90579E+01  8.93096E+01  8.94763E+01  8.94595E+01  8.91712E+01  8.81016E+01  8.81954E+01  8.84368E+01
   8.82935E+01  8.82363E+01  8.78916E+01  8.77340E+01  8.72630E+01  8.54672E+01  8.39252E+01  8.25434E+01  8.12146E+01  7.99262E+01
   7.86784E+01  7.74906E+01  7.63736E+01  7.53491E+01  7.44262E+01  7.36223E+01  7.29407E+01  7.23918E+01  7.19721E+01  7.16852E+01
   7.15210E+01  7.14771E+01  7.15381E+01  7.16970E+01  7.19347E+01  7.22417E+01  7.25972E+01  7.29907E+01  7.34014E+01  7.38189E+01
   7.42229E+01  7.46045E+01  7.49454E+01  7.52394E+01  7.54709E+01  7.56363E+01  7.57233E+01  7.57313E+01  7.56511E+01  7.54853E+01
   7.52276E+01  7.48830E+01  7.44480E+01  7.39300E+01  7.33277E+01  7.26505E+01  7.18985E+01  7.10825E+01  7.02035E+01  6.92734E+01
   6.82940E+01  6.72772E+01  6.62248E+01  6.51488E+01  6.40508E+01  6.29422E+01  6.18243E+01  6.07078E+01  5.95928E+01  5.84894E+01
   5.73971E+01  5.63250E+01  5.52715E+01  5.42448E+01  5.32426E+01  5.22720E+01  5.13301E+01  5.04232E+01  4.95476E+01  4.87089E+01
   4.79026E+01  4.71339E+01  4.63979E+01  4.56993E+01  4.50326E+01  4.44022E+01  4.38023E+01  4.32370E+01  4.27003E+01  4.21962E+01
   4.17183E+01  4.12703E+01  4.08461E+01  4.04493E+01  4.00736E+01  3.97225E+01  3.93895E+01  3.90783E+01  3.87825E+01  3.85057E+01
   3.82416E+01  3.79936E+01  3.77554E+01  3.75307E+01  3.73132E+01  3.71066E+01  3.69045E+01  3.67108E+01  3.65190E+01  3.63332E+01
   3.61471E+01  3.59646E+01  3.57795E+01  3.55956E+01  3.54070E+01  3.52175E+01  3.50213E+01  3.48222E+01  3.46142E+01  3.44014E+01
   3.41778E+01  3.39476E+01  3.37049E+01  3.34537E+01  3.31882E+01  3.29125E+01  3.26209E+01  3.23176E+01  3.19968E+01  3.16626E+01
   3.13094E+01  3.09414E+01  3.05530E+01  3.01484E+01  2.97220E+01  2.92780E+01  2.88107E+01  2.83245E+01
 NY background values follow
    -1.680E+02   -1.673E+02   -1.667E+02   -1.659E+02   -1.652E+02   -1.644E+02   -1.637E+02   -1.628E+02   -1.620E+02   -1.612E+02
    -1.603E+02   -1.594E+02   -1.585E+02   -1.575E+02   -1.566E+02   -1.556E+02   -1.546E+02   -1.536E+02   -1.526E+02   -1.515E+02
    -1.505E+02   -1.494E+02   -1.483E+02   -1.472E+02   -1.461E+02   -1.450E+02   -1.439E+02   -1.427E+02   -1.416E+02   -1.404E+02
    -1.393E+02   -1.381E+02   -1.370E+02   -1.358E+02   -1.346E+02   -1.334E+02   -1.322E+02   -1.311E+02   -1.299E+02   -1.287E+02
    -1.275E+02   -1.263E+02   -1.251E+02   -1.239E+02   -1.228E+02   -1.216E+02   -1.204E+02   -1.193E+02   -1.181E+02   -1.170E+02
    -1.158E+02   -1.147E+02   -1.136E+02   -1.124E+02   -1.113E+02   -1.102E+02   -1.092E+02   -1.081E+02   -1.070E+02   -1.060E+02
    -1.050E+02   -1.040E+02   -1.030E+02   -1.020E+02   -1.011E+02   -1.001E+02   -9.919E+01   -9.830E+01   -9.742E+01   -9.656E+01
    -9.573E+01   -9.492E+01   -9.413E+01   -9.337E+01   -9.263E+01   -9.192E+01   -9.124E+01   -9.059E+01   -8.996E+01   -8.936E+01
    -8.879E+01   -8.825E+01   -8.774E+01   -8.727E+01   -8.682E+01   -8.642E+01   -8.604E+01   -8.570E+01   -8.539E+01   -8.513E+01
    -8.489E+01   -8.470E+01   -8.455E+01   -8.443E+01   -8.435E+01   -8.432E+01   -8.432E+01   -8.437E+01   -8.446E+01   -8.460E+01
    -8.478E+01   -8.500E+01   -8.527E+01   -8.558E+01   -8.593E+01   -8.632E+01   -8.675E+01   -8.722E+01   -8.773E+01   -8.828E+01
    -8.886E+01   -8.948E+01   -9.013E+01   -9.082E+01   -9.154E+01   -9.230E+01   -9.308E+01   -9.390E+01   -9.474E+01   -9.562E+01
    -9.652E+01   -9.746E+01   -9.841E+01   -9.940E+01   -1.004E+02   -1.014E+02   -1.025E+02   -1.036E+02   -1.047E+02   -1.058E+02
    -1.069E+02   -1.081E+02   -1.093E+02   -1.105E+02   -1.117E+02   -1.129E+02   -1.142E+02   -1.154E+02   -1.167E+02   -1.180E+02
    -1.193E+02   -1.206E+02   -1.219E+02   -1.232E+02   -1.245E+02   -1.259E+02   -1.272E+02   -1.286E+02   -1.300E+02   -1.313E+02
    -1.327E+02   -1.340E+02   -1.354E+02   -1.368E+02   -1.382E+02   -1.395E+02   -1.409E+02   -1.423E+02   -1.436E+02   -1.450E+02
    -1.463E+02   -1.477E+02   -1.490E+02   -1.504E+02   -1.517E+02   -1.530E+02   -1.543E+02   -1.556E+02   -1.569E+02   -1.582E+02
    -1.594E+02   -1.607E+02   -1.619E+02   -1.631E+02   -1.643E+02   -1.655E+02   -1.667E+02   -1.678E+02   -1.689E+02   -1.700E+02
    -1.711E+02   -1.722E+02   -1.732E+02   -1.742E+02   -1.752E+02   -1.761E+02   -1.771E+02   -1.780E+02   -1.789E+02   -1.797E+02
    -1.805E+02   -1.813E+02   -1.821E+02   -1.828E+02   -1.835E+02   -1.841E+02   -1.848E+02   -1.853E+02   -1.859E+02   -1.864E+02
    -1.869E+02   -1.873E+02   -1.877E+02   -1.881E+02   -1.884E+02   -1.887E+02   -1.889E+02   -1.892E+02   -1.893E+02   -1.895E+02
    -1.896E+02   -1.897E+02   -1.898E+02   -1.898E+02   -1.898E+02   -1.898E+02   -1.897E+02   -1.896E+02   -1.895E+02   -1.893E+02
    -1.891E+02   -1.889E+02   -1.887E+02   -1.884E+02   -1.881E+02   -1.878E+02   -1.875E+02   -1.871E+02   -1.867E+02   -1.863E+02
    -1.859E+02   -1.854E+02   -1.849E+02   -1.844E+02   -1.839E+02   -1.834E+02   -1.828E+02   -1.822E+02   -1.816E+02   -1.810E+02
    -1.803E+02   -1.797E+02   -1.790E+02   -1.783E+02   -1.776E+02   -1.769E+02   -1.762E+02   -1.754E+02   -1.746E+02   -1.738E+02
    -1.731E+02   -1.722E+02   -1.714E+02   -1.706E+02   -1.698E+02   -1.689E+02   -1.680E+02   -1.672E+02   -1.663E+02   -1.654E+02
    -1.645E+02   -1.636E+02   -1.627E+02   -1.617E+02   -1.608E+02   -1.599E+02   -1.589E+02   -1.580E+02   -1.570E+02   -1.561E+02
    -1.551E+02   -1.542E+02   -1.532E+02   -1.523E+02   -1.513E+02   -1.503E+02   -1.494E+02   -1.484E+02   -1.474E+02   -1.465E+02
    -1.455E+02   -1.445E+02   -1.436E+02   -1.426E+02   -1.417E+02   -1.407E+02   -1.398E+02   -1.388E+02   -1.379E+02   -1.370E+02
    -1.361E+02   -1.352E+02   -1.342E+02   -1.333E+02   -1.325E+02   -1.316E+02   -1.307E+02   -1.298E+02   -1.290E+02   -1.282E+02
    -1.273E+02   -1.265E+02   -1.257E+02   -1.249E+02   -1.241E+02   -1.233E+02   -1.226E+02   -1.218E+02   -1.211E+02   -1.203E+02
    -1.196E+02   -1.189E+02   -1.182E+02   -1.174E+02   -1.167E+02   -1.161E+02   -1.154E+02   -1.147E+02   -1.140E+02   -1.134E+02
    -1.127E+02   -1.120E+02   -1.114E+02   -1.108E+02   -1.101E+02   -1.095E+02   -1.089E+02   -1.083E+02   -1.076E+02   -1.070E+02
    -1.064E+02   -1.058E+02   -1.052E+02   -1.046E+02   -1.040E+02   -1.035E+02   -1.029E+02   -1.023E+02   -1.017E+02   -1.011E+02
    -1.006E+02   -9.999E+01   -9.942E+01   -9.885E+01   -9.828E+01   -9.771E+01   -9.715E+01   -9.658E+01   -9.602E+01   -9.545E+01
    -9.488E+01   -9.432E+01   -9.375E+01   -9.319E+01   -9.262E+01   -9.205E+01   -9.148E+01   -9.091E+01   -9.033E+01   -8.976E+01
    -8.918E+01   -8.860E+01   -8.801E+01   -8.743E+01   -8.684E+01   -8.624E+01   -8.565E+01   -8.505E+01   -8.444E+01   -8.383E+01
    -8.322E+01   -8.260E+01   -8.198E+01   -8.135E+01   -8.072E+01   -8.008E+01   -7.943E+01   -7.878E+01   -7.813E+01   -7.746E+01
    -7.679E+01   -7.612E+01   -7.543E+01   -7.474E+01   -7.404E+01   -7.334E+01   -7.262E+01   -7.190E+01   -7.117E+01   -7.043E+01
    -6.968E+01   -6.893E+01   -6.816E+01   -6.738E+01   -6.660E+01   -6.580E+01   -6.500E+01   -6.418E+01   -6.335E+01   -6.252E+01
    -6.167E+01   -6.081E+01   -5.994E+01   -5.907E+01   -5.819E+01   -5.729E+01   -5.640E+01   -5.549E+01   -5.458E+01   -5.366E+01
    -5.273E+01   -5.180E+01   -5.086E+01   -4.992E+01   -4.898E+01   -4.803E+01   -4.707E+01   -4.612E+01   -4.516E+01   -4.420E+01
    -4.324E+01   -4.227E+01   -4.131E+01   -4.034E+01   -3.938E+01   -3.841E+01   -3.745E+01   -3.649E+01   -3.553E+01   -3.457E+01
    -3.361E+01   -3.265E+01   -3.170E+01   -3.075E+01   -2.981E+01   -2.887E+01   -2.794E+01   -2.701E+01   -2.609E+01   -2.517E+01
    -2.426E+01   -2.335E+01   -2.246E+01   -2.157E+01   -2.069E+01   -1.982E+01   -1.895E+01   -1.810E+01   -1.726E+01   -1.642E+01
    -1.560E+01   -1.479E+01   -1.399E+01   -1.320E+01   -1.242E+01   -1.166E+01   -1.091E+01   -1.017E+01   -9.453E+00   -8.745E+00
    -8.052E+00   -7.374E+00   -6.712E+00   -6.066E+00   -5.436E+00   -4.824E+00   -4.229E+00   -3.651E+00   -3.092E+00   -2.551E+00
    -2.029E+00   -1.527E+00   -1.044E+00   -5.815E-01   -1.398E-01    2.809E-01    6.801E-01    1.057E+00    1.412E+00    1.745E+00
     2.054E+00    2.340E+00    2.601E+00    2.838E+00    3.051E+00    3.238E+00    3.400E+00    3.535E+00    3.645E+00    3.727E+00
     3.782E+00    3.809E+00    3.808E+00    3.779E+00    3.721E+00    3.633E+00    3.516E+00    3.368E+00
 Asp      Conc. = 5.79E+02
