 LCModel (Version 6.3-1L) Copyright: S.W. Provencher.          Ref.: Magn. Reson. Med. 30:672-679 (1993).                
 Slice#1 Row#6 Col#9  PD_24_press_2_raw_act
 36 lines in following concentration table = NCONC+1
    Conc.  %SD /Cr+PCr  Metabolite                                         
  286.780 112%   0.392 Ala                                                 
  136.994 156%   0.187 Asp                                                 
  731.731  17%   1.000 Cr                                                  
    0.000 999%   0.000 PCr                                                 
  113.476 116%   0.155 GABA                                                
  106.977 122%   0.146 Glc                                                 
  242.402 278%   0.331 Gln                                                 
 1.93E+03  39%   2.637 Glu                                                 
  416.796  11%   0.570 GPC                                                 
    0.000 999%   0.000 PCh                                                 
  315.418  55%   0.431 GSH                                                 
 1.61E+03  33%   2.201 Ins                                                 
  123.946 284%   0.169 Lac                                                 
 1.53E+03  18%   2.092 NAA                                                 
  548.912  55%   0.750 NAAG                                                
   85.595  44%   0.117 Scyllo                                              
  160.811 128%   0.220 Tau                                                 
  108.478 148%   0.148 -CrCH2                                              
  416.796  11%   0.570 GPC+PCh                                             
 2.08E+03   9%   2.842 NAA+NAAG                                            
  731.731  17%   1.000 Cr+PCr                                              
 2.17E+03  54%   2.969 Glu+Gln                                             
  284.486 288%   0.389 Lip13a                                              
    0.000 999%   0.000 Lip13b                                              
   60.681 385% 8.3E-02 Lip09                                               
 2.25E+03  17%   3.080 MM09                                                
   41.612 323% 5.7E-02 Lip20                                               
 3.18E+03  22%   4.340 MM20                                                
  690.823  39%   0.944 MM12                                                
 3.76E+03  18%   5.134 MM14                                                
 2.36E+03  18%   3.227 MM17                                                
  284.486 288%   0.389 Lip13a+Lip13b                                       
 4.73E+03  13%   6.466 MM14+Lip13a+Lip13b+MM12                             
 2.31E+03  13%   3.163 MM09+Lip09                                          
 3.22E+03  21%   4.397 MM20+Lip20                                          
   6 lines in following misc. output table
  FWHM = 0.076 ppm    S/N =   4                                            
  Data shift = 0.023 ppm                                                   
  Ph: -39 deg      -2.0 deg/ppm                                            
  alphaB,S = 8.5E+01,   1.0E+02                                            
   14 spline knots.   Ns = 9(1)                                            
   2 inflections.     1 extrema                                            
  498 points on ppm-axis = NY
      4.000000     3.992357     3.984714     3.977070     3.969427     3.961784     3.954141     3.946497     3.938854     3.931211
      3.923568     3.915925     3.908281     3.900638     3.892995     3.885352     3.877708     3.870065     3.862422     3.854779
      3.847136     3.839492     3.831849     3.824206     3.816563     3.808919     3.801276     3.793633     3.785990     3.778347
      3.770703     3.763060     3.755417     3.747774     3.740130     3.732487     3.724844     3.717201     3.709558     3.701914
      3.694271     3.686628     3.678985     3.671341     3.663698     3.656055     3.648412     3.640769     3.633125     3.625482
      3.617839     3.610196     3.602552     3.594909     3.587266     3.579623     3.571980     3.564336     3.556693     3.549050
      3.541407     3.533763     3.526120     3.518477     3.510834     3.503191     3.495547     3.487904     3.480261     3.472618
      3.464974     3.457331     3.449688     3.442045     3.434402     3.426758     3.419115     3.411472     3.403829     3.396185
      3.388542     3.380899     3.373256     3.365613     3.357969     3.350326     3.342683     3.335040     3.327396     3.319753
      3.312110     3.304467     3.296824     3.289180     3.281537     3.273894     3.266251     3.258607     3.250964     3.243321
      3.235678     3.228034     3.220391     3.212748     3.205105     3.197462     3.189818     3.182175     3.174532     3.166889
      3.159245     3.151602     3.143959     3.136316     3.128673     3.121029     3.113386     3.105743     3.098100     3.090456
      3.082813     3.075170     3.067527     3.059884     3.052240     3.044597     3.036954     3.029311     3.021667     3.014024
      3.006381     2.998738     2.991095     2.983451     2.975808     2.968165     2.960522     2.952878     2.945235     2.937592
      2.929949     2.922306     2.914662     2.907019     2.899376     2.891733     2.884089     2.876446     2.868803     2.861160
      2.853517     2.845873     2.838230     2.830587     2.822944     2.815300     2.807657     2.800014     2.792371     2.784728
      2.777084     2.769441     2.761798     2.754155     2.746511     2.738868     2.731225     2.723582     2.715939     2.708295
      2.700652     2.693009     2.685366     2.677722     2.670079     2.662436     2.654793     2.647150     2.639506     2.631863
      2.624220     2.616577     2.608933     2.601290     2.593647     2.586004     2.578361     2.570717     2.563074     2.555431
      2.547788     2.540144     2.532501     2.524858     2.517215     2.509572     2.501928     2.494285     2.486642     2.478999
      2.471355     2.463712     2.456069     2.448426     2.440783     2.433139     2.425496     2.417853     2.410210     2.402566
      2.394923     2.387280     2.379637     2.371994     2.364350     2.356707     2.349064     2.341421     2.333777     2.326134
      2.318491     2.310848     2.303205     2.295561     2.287918     2.280275     2.272632     2.264988     2.257345     2.249702
      2.242059     2.234416     2.226772     2.219129     2.211486     2.203843     2.196199     2.188556     2.180913     2.173270
      2.165627     2.157983     2.150340     2.142697     2.135054     2.127410     2.119767     2.112124     2.104481     2.096838
      2.089194     2.081551     2.073908     2.066265     2.058621     2.050978     2.043335     2.035692     2.028049     2.020405
      2.012762     2.005119     1.997476     1.989833     1.982190     1.974546     1.966903     1.959260     1.951617     1.943974
      1.936331     1.928688     1.921045     1.913402     1.905759     1.898115     1.890472     1.882829     1.875186     1.867543
      1.859900     1.852257     1.844614     1.836971     1.829327     1.821684     1.814041     1.806398     1.798755     1.791112
      1.783469     1.775826     1.768183     1.760540     1.752896     1.745253     1.737610     1.729967     1.722324     1.714681
      1.707038     1.699395     1.691752     1.684108     1.676465     1.668822     1.661179     1.653536     1.645893     1.638250
      1.630607     1.622964     1.615321     1.607677     1.600034     1.592391     1.584748     1.577105     1.569462     1.561819
      1.554176     1.546533     1.538890     1.531246     1.523603     1.515960     1.508317     1.500674     1.493031     1.485388
      1.477745     1.470102     1.462458     1.454815     1.447172     1.439529     1.431886     1.424243     1.416600     1.408957
      1.401314     1.393671     1.386027     1.378384     1.370741     1.363098     1.355455     1.347812     1.340169     1.332526
      1.324883     1.317240     1.309596     1.301953     1.294310     1.286667     1.279024     1.271381     1.263738     1.256095
      1.248452     1.240808     1.233165     1.225522     1.217879     1.210236     1.202593     1.194950     1.187307     1.179664
      1.172021     1.164377     1.156734     1.149091     1.141448     1.133805     1.126162     1.118519     1.110876     1.103233
      1.095590     1.087946     1.080303     1.072660     1.065017     1.057374     1.049731     1.042088     1.034445     1.026802
      1.019158     1.011515     1.003872     0.996229     0.988586     0.980943     0.973300     0.965657     0.958014     0.950371
      0.942727     0.935084     0.927441     0.919798     0.912155     0.904512     0.896869     0.889226     0.881583     0.873940
      0.866296     0.858653     0.851010     0.843367     0.835724     0.828081     0.820438     0.812795     0.805152     0.797508
      0.789865     0.782222     0.774579     0.766936     0.759293     0.751650     0.744007     0.736364     0.728721     0.721077
      0.713434     0.705791     0.698148     0.690505     0.682862     0.675219     0.667576     0.659933     0.652290     0.644646
      0.637003     0.629360     0.621717     0.614074     0.606431     0.598788     0.591145     0.583502     0.575858     0.568215
      0.560572     0.552929     0.545286     0.537643     0.530000     0.522357     0.514714     0.507071     0.499427     0.491784
      0.484141     0.476498     0.468855     0.461212     0.453569     0.445925     0.438282     0.430639     0.422996     0.415353
      0.407710     0.400067     0.392424     0.384780     0.377137     0.369494     0.361851     0.354208     0.346565     0.338922
      0.331278     0.323635     0.315992     0.308349     0.300706     0.293063     0.285420     0.277777     0.270133     0.262490
      0.254847     0.247204     0.239561     0.231918     0.224275     0.216631     0.208988     0.201345
 NY phased data points follow
   1.48661E+01  2.37520E+00  6.20066E+00 -1.53323E+00  7.68868E+00  8.79041E+00  2.74540E+01 -1.41163E+00  1.50770E+01  8.72119E+00
   2.20713E+01  8.65512E+00  3.12723E+01  2.18963E+01  1.66949E+01 -1.80321E+00  1.90380E+01  9.54213E+00  1.79272E+01  2.61383E+00
   1.28283E+01  2.87449E+00  1.48778E+01  2.20205E+00  1.59669E+01  1.07759E+01  2.24373E+01  1.04584E+01  1.21212E+01 -4.41480E+00
   1.51098E+01  9.36359E+00  9.62957E+00  1.16851E+01  2.50720E+01 -2.42408E+00  1.69028E+01  4.86901E-01  1.97797E+01  1.39787E+01
   5.33841E+00  1.08628E+01  1.78930E+01 -6.26803E+00  1.61523E+01  1.64133E+01  1.55560E+01  6.37384E+00  1.88482E+01  8.98945E+00
   1.61731E+01  9.98612E+00  1.87211E+01  8.60546E+00  9.34129E+00  4.19087E-01  1.93666E+01 -3.90664E+00  1.86258E+01  1.22586E+01
   1.73816E+01 -5.45093E+00  1.59101E+00 -1.68491E+00  8.29641E+00 -1.14159E+00  1.83636E+01  1.45601E+01  1.65607E-01 -4.05096E-01
  -7.49152E+00 -1.05348E+00  1.18651E+01  1.42127E+01  2.38849E+01 -8.54505E+00  2.31765E+00 -1.04010E+01  4.82189E+00  6.50411E+00
   1.91864E+00  3.14433E+00  2.48295E+00  3.18048E+00  1.02158E+01  1.32596E+01  1.55282E+01  8.42150E+00  8.42650E+00  4.93767E+00
   6.33807E+00  1.38025E+00  9.58520E+00  9.49911E+00  8.76434E+00  2.09584E+01  1.71893E+01 -3.56078E+00  2.00981E+01  2.57187E+01
   3.50702E+01  2.73713E+01  3.03553E+01  2.50694E+01  3.23174E+01  3.00020E+01  3.47257E+01  1.98362E+01  1.32056E+01 -7.09891E+00
   3.37235E+00 -4.71377E+00  3.29959E-01 -9.97691E+00 -2.15879E+00  5.05658E+00  1.54221E+00  3.60625E+00  2.59721E+00 -5.73529E+00
   4.69474E+00  4.62637E+00  1.82758E+01  7.06278E+00  1.79461E+01  2.51141E+01  3.55740E+01  7.86500E+00  2.82942E+01  1.11012E+01
   3.11037E+01  1.28814E+01  1.18484E+01  9.68403E+00  1.46972E+01 -5.97093E+00  8.65425E+00 -5.02651E+00 -4.29333E+00  3.39280E+00
  -3.42968E+00  2.81895E+00  5.15510E-01 -7.55046E+00  5.94615E+00  4.48616E+00  9.80514E-02 -8.00902E+00  6.61372E-01 -1.03223E+01
  -6.49067E+00  6.03901E+00  1.03862E+00 -6.02289E+00  1.32110E+01 -2.93874E+00  1.12209E+01  5.38525E+00  1.17069E+01  6.94775E+00
   1.17203E+01 -7.83500E+00 -3.74781E+00 -8.18896E+00 -6.44495E+00 -3.37026E+00  1.98507E+00  1.99570E+00  6.29515E-02 -2.99989E+00
  -7.91594E-01 -1.65526E+01 -5.02383E+00 -2.22279E+01 -1.67220E+01 -4.13353E+00 -6.12852E-01  3.58900E+00 -2.08161E-01 -4.51389E+00
  -1.47510E+01 -8.43469E+00 -4.73097E+00 -7.76946E-01  1.96085E+00 -4.12865E-01  5.71259E+00 -9.84863E+00  3.97739E+00 -5.50559E-01
   6.54193E-01  8.34295E-01 -3.15417E+00 -1.22269E+01 -4.30231E+00 -9.30654E+00  7.28770E+00 -1.10164E+01 -3.91454E+00 -1.06751E+01
   3.40942E+00 -6.74742E+00 -1.03368E+00  7.28531E-01  4.00975E+00 -3.36400E+00  3.11148E+00  1.11440E+01 -1.06341E+00  5.02974E+00
   1.12053E+01  1.47019E+00  1.23977E+01 -4.50845E+00  7.21046E+00  1.21719E+01  8.76615E+00  5.69847E+00 -1.79377E+00 -7.28080E-01
  -1.64048E+00  5.47605E+00  6.35997E+00 -7.23098E+00 -5.30670E-01  8.45888E+00 -2.83086E+00  8.74065E-02  1.88791E+01  1.24208E+01
   1.44184E+01  6.83592E+00  2.60879E+00  1.05130E+01  3.33997E+00  1.18718E+01 -1.53743E+00  1.07813E+01 -4.48021E+00  1.17055E+00
   5.02237E+00  9.62328E+00  1.82955E+01  5.93855E+00  1.87075E+01  8.22802E+00  1.24114E+01  6.41533E-01  1.98204E+01  1.84722E+01
   3.11764E+01  3.29411E+01  1.71999E+01  1.86059E+01  3.31002E+01  4.45141E+01  6.17201E+01  5.82674E+01  7.36006E+01  5.57229E+01
   5.91009E+01  5.91162E+01  5.74615E+01  3.84590E+01  3.50475E+01  1.05854E+01  2.72363E+01  7.37154E+00  6.29071E+00  7.49926E+00
   1.41939E+01  8.00628E+00  3.82966E+00  2.43137E+00  1.32386E+01  2.96856E+00  7.33861E+00  1.43186E+01  2.45316E+01  9.44573E+00
   1.04413E+01  1.45198E+01  1.44618E+01 -1.03952E+00  4.82859E+00  7.12386E+00  7.69319E+00 -1.03635E+01 -2.06067E+00 -1.81678E-01
   5.61871E+00  6.67598E+00  4.72677E+00  4.52423E+00  6.69635E+00  9.63499E+00  5.96971E+00  6.94015E+00  8.71571E+00  1.27667E+01
   1.82687E+01  1.50322E+01  1.15835E+01  1.90743E+01  2.11298E+01  1.52826E+01  2.88775E+01  2.61552E+01  2.02182E+01  2.38849E+01
   1.98297E+01  1.39984E+01  3.22490E+01  2.76954E+01  1.38175E+01  1.79181E+01  2.27224E+01  1.80621E+01  2.11800E+00  1.25884E+01
   1.84000E+01  1.14513E+01  9.20553E+00  1.20742E+01  2.10916E+01  1.00307E+01  1.95726E+01  1.21010E+01  8.12650E+00  2.31256E+01
   2.58840E+01  1.26740E+01  2.12253E+01  8.23540E+00  1.38059E+01  2.89312E+01  2.54801E+01  2.52337E+01  2.82971E+01  2.05173E+01
   1.64033E+01  1.77578E+01  3.23814E+01  1.74545E+01  1.95492E+01  1.59316E+01  1.27162E+01  1.07792E+01  7.70454E+00  1.80220E+01
   1.31727E+01  2.13714E+01  7.88107E+00  1.21668E+01  1.04608E+01 -7.23496E+00  1.13841E+01 -1.39147E+00  1.41535E+01  6.79150E+00
   1.73588E+01 -3.95012E+00  6.53217E+00  6.51960E+00  7.79723E-01  8.69031E+00  1.03768E+01  2.31730E+00  1.17457E+01  8.36594E+00
   1.07082E+01  8.88653E+00 -7.24218E-02  8.16374E+00 -1.02035E+00  1.83481E+00 -1.18616E+01  3.66318E+00  2.73624E+00 -4.02682E+00
   1.98538E+00 -1.48733E+00  6.28950E+00 -2.88496E+00  1.22841E+01  1.56278E+01 -1.38364E+00  4.61405E+00  1.36269E+01  4.42945E+00
   6.96705E+00 -2.51014E+00  1.14367E+01  1.82494E+01  1.40500E+01  6.94267E+00  9.15064E+00  8.73043E+00  2.44371E+01  8.44608E+00
   1.95269E+01  1.37013E+00  1.87700E+01  2.06567E+01  1.97839E+01  1.05481E+01  2.48920E+01  1.44652E+01  1.69351E+01  1.39622E+01
   1.04902E+01  9.79378E-01  1.87123E+01  1.45310E+01 -2.24471E+00  2.28329E+00  1.86381E+01  1.15782E+00  7.20432E+00 -2.06814E+00
  -5.79934E+00  3.41268E+00 -6.28867E-01 -5.11818E-01 -3.12560E-01 -2.86487E+00 -5.79705E+00  1.76172E+00 -3.87385E+00 -3.95818E-01
   9.08385E+00 -3.54505E+00 -1.04452E+00 -3.53699E+00 -4.15318E+00  2.77165E+00  3.57762E+00 -5.96691E+00  2.90787E+00 -3.24910E+00
  -9.78832E+00  6.90477E-01 -1.10944E+01 -1.52138E+00  9.43935E+00 -3.40443E-02  8.92702E+00 -1.00805E+01 -4.81467E+00 -3.66833E+00
   3.19112E+00  5.17388E+00  1.10938E+00 -5.06674E+00 -1.27113E+01 -4.00457E+00 -7.10038E+00  5.60283E-01 -6.36780E+00 -1.04043E+01
  -4.11450E+00 -2.06425E+00 -1.08357E+01 -4.52119E+00 -1.16649E+01 -4.13308E+00 -9.09128E-01 -8.14215E+00  8.87283E+00  6.82520E-01
  -3.54001E+00  3.20504E+00  8.18270E+00  4.75796E+00 -1.87434E+00 -5.77916E+00  8.76758E+00  2.32792E+00  6.59197E+00 -1.28269E+01
  -6.89873E+00 -8.70045E+00  6.39021E+00 -9.76169E-01 -1.05481E+01 -1.17274E+01 -6.43060E+00 -3.74632E+00  2.21268E-03 -5.01437E-02
  -3.44310E+00 -6.99922E+00 -8.02808E+00 -9.38031E+00 -5.53838E+00 -1.62760E+00  5.11716E+00  1.06909E+01
 NY points of the fit to the data follow
   6.90334E+00  6.32920E+00  6.18007E+00  6.57583E+00  7.48527E+00  8.94596E+00  1.08457E+01  1.28641E+01  1.46730E+01  1.60530E+01
   1.69635E+01  1.74930E+01  1.76438E+01  1.72262E+01  1.60820E+01  1.42912E+01  1.21641E+01  1.00632E+01  8.29076E+00  7.07195E+00
   6.53102E+00  6.53897E+00  6.72736E+00  6.94641E+00  7.37393E+00  8.08329E+00  8.99106E+00  9.94571E+00  1.08266E+01  1.15900E+01
   1.22150E+01  1.26333E+01  1.27199E+01  1.24139E+01  1.17282E+01  1.06694E+01  9.29176E+00  7.84982E+00  6.75749E+00  6.35224E+00
   6.70537E+00  7.72619E+00  9.27148E+00  1.10079E+01  1.25083E+01  1.34930E+01  1.39230E+01  1.38870E+01  1.34300E+01  1.25119E+01
   1.11311E+01  9.41938E+00  7.65581E+00  6.15820E+00  5.18142E+00  4.87622E+00  5.18812E+00  5.83043E+00  6.44557E+00  6.81872E+00
   6.94280E+00  6.86477E+00  6.61526E+00  6.23928E+00  5.80163E+00  5.39577E+00  5.13441E+00  5.10958E+00  5.34780E+00  5.79281E+00
   6.30172E+00  6.72322E+00  6.97045E+00  7.00883E+00  6.85772E+00  6.57202E+00  6.23259E+00  5.94361E+00  5.74947E+00  5.64857E+00
   5.64042E+00  5.68898E+00  5.70486E+00  5.61015E+00  5.40722E+00  5.14312E+00  4.85276E+00  4.52684E+00  4.12910E+00  3.66921E+00
   3.24876E+00  2.99377E+00  3.01198E+00  3.52281E+00  5.02821E+00  7.62066E+00  1.12402E+01  1.57063E+01  2.05194E+01  2.50083E+01
   2.86102E+01  3.10677E+01  3.24486E+01  3.28325E+01  3.18814E+01  2.91381E+01  2.46077E+01  1.89083E+01  1.29959E+01  7.79081E+00
   4.01159E+00  2.05419E+00  1.66304E+00  1.99570E+00  2.22942E+00  2.33567E+00  2.46262E+00  2.69198E+00  3.28358E+00  4.49926E+00
   6.38169E+00  8.96368E+00  1.20779E+01  1.53070E+01  1.82079E+01  2.04896E+01  2.20483E+01  2.29137E+01  2.29708E+01  2.18915E+01
   1.95079E+01  1.60555E+01  1.20993E+01  8.29561E+00  5.18353E+00  3.12292E+00  2.17548E+00  2.00720E+00  2.08293E+00  2.15269E+00
   2.30969E+00  2.54610E+00  2.78473E+00  2.92481E+00  2.89082E+00  2.67364E+00  2.32783E+00  1.92310E+00  1.52206E+00  1.17302E+00
   8.95428E-01  6.76764E-01  4.82285E-01  2.87073E-01  7.65513E-02 -1.54923E-01 -3.77408E-01 -5.63958E-01 -6.96289E-01 -7.85563E-01
  -8.81583E-01 -1.03128E+00 -1.23063E+00 -1.43442E+00 -1.59372E+00 -1.68653E+00 -1.74815E+00 -1.85205E+00 -2.04496E+00 -2.33030E+00
  -2.67320E+00 -2.98605E+00 -3.19417E+00 -3.28937E+00 -3.32540E+00 -3.36629E+00 -3.44026E+00 -3.49868E+00 -3.48611E+00 -3.37251E+00
  -3.16813E+00 -2.90035E+00 -2.56459E+00 -2.12293E+00 -1.55290E+00 -8.69793E-01 -1.12932E-01  6.52781E-01  1.34444E+00  1.88159E+00
   2.24640E+00  2.44367E+00  2.48508E+00  2.38271E+00  2.17469E+00  1.94015E+00  1.79422E+00  1.84747E+00  2.13087E+00  2.60091E+00
   3.14994E+00  3.59965E+00  3.80190E+00  3.67241E+00  3.20001E+00  2.47694E+00  1.65907E+00  9.99633E-01  6.84033E-01  8.39308E-01
   1.47132E+00  2.45584E+00  3.56605E+00  4.50110E+00  5.01304E+00  4.98485E+00  4.37634E+00  3.15861E+00  1.45932E+00 -4.30851E-01
  -2.12319E+00 -3.26667E+00 -3.67232E+00 -3.19168E+00 -1.73568E+00  4.81252E-01  2.97926E+00  5.24643E+00  7.03112E+00  8.22053E+00
   8.77692E+00  8.80482E+00  8.58444E+00  8.42208E+00  8.40324E+00  8.46490E+00  8.53823E+00  8.60466E+00  8.64934E+00  8.68753E+00
   8.73971E+00  8.85316E+00  9.09992E+00  9.51820E+00  1.01303E+01  1.09504E+01  1.20090E+01  1.34361E+01  1.52122E+01  1.72927E+01
   1.97689E+01  2.30454E+01  2.73998E+01  3.27870E+01  3.92226E+01  4.62863E+01  5.30196E+01  5.82644E+01  6.11726E+01  6.15759E+01
   5.99288E+01  5.65536E+01  5.13038E+01  4.41934E+01  3.58615E+01  2.73061E+01  1.94081E+01  1.28776E+01  8.47941E+00  6.43001E+00
   5.96726E+00  5.88297E+00  5.65214E+00  5.43265E+00  5.24174E+00  5.04697E+00  4.82866E+00  4.56946E+00  4.25740E+00  3.91361E+00
   3.57496E+00  3.28158E+00  3.06722E+00  2.95289E+00  2.93392E+00  2.99175E+00  3.11606E+00  3.30636E+00  3.56693E+00  3.90266E+00
   4.32162E+00  4.83853E+00  5.46718E+00  6.21032E+00  7.06309E+00  8.01667E+00  9.05902E+00  1.01734E+01  1.13410E+01  1.25400E+01
   1.37464E+01  1.49336E+01  1.60693E+01  1.71149E+01  1.80337E+01  1.87939E+01  1.93700E+01  1.97452E+01  1.99136E+01  1.98817E+01
   1.96666E+01  1.92920E+01  1.87889E+01  1.81942E+01  1.75489E+01  1.68977E+01  1.62883E+01  1.57762E+01  1.54268E+01  1.52521E+01
   1.52269E+01  1.53153E+01  1.54416E+01  1.55219E+01  1.55075E+01  1.53903E+01  1.52284E+01  1.50979E+01  1.50162E+01  1.50167E+01
   1.51770E+01  1.55692E+01  1.62163E+01  1.70841E+01  1.81109E+01  1.92314E+01  2.03261E+01  2.12030E+01  2.17023E+01  2.17860E+01
   2.14867E+01  2.08592E+01  1.99740E+01  1.89240E+01  1.78093E+01  1.66836E+01  1.55456E+01  1.43900E+01  1.32460E+01  1.21477E+01
   1.11398E+01  1.02660E+01  9.55471E+00  9.01184E+00  8.62970E+00  8.39222E+00  8.24697E+00  8.10155E+00  7.87416E+00  7.54624E+00
   7.14276E+00  6.69190E+00  6.23083E+00  5.80494E+00  5.44868E+00  5.16281E+00  4.91393E+00  4.68046E+00  4.46076E+00  4.25425E+00
   4.06101E+00  3.88205E+00  3.71920E+00  3.57497E+00  3.45252E+00  3.35547E+00  3.28787E+00  3.25412E+00  3.25889E+00  3.30708E+00
   3.40369E+00  3.55374E+00  3.76218E+00  4.03364E+00  4.37224E+00  4.78135E+00  5.26319E+00  5.81852E+00  6.44628E+00  7.14315E+00
   7.90323E+00  8.71784E+00  9.57525E+00  1.04608E+01  1.13570E+01  1.22439E+01  1.30997E+01  1.39017E+01  1.46268E+01  1.52530E+01
   1.57601E+01  1.61310E+01  1.63524E+01  1.64157E+01  1.63175E+01  1.60594E+01  1.56484E+01  1.50963E+01  1.44187E+01  1.36347E+01
   1.27655E+01  1.18334E+01  1.08607E+01  9.86894E+00  8.87794E+00  7.90514E+00  6.96529E+00  6.07011E+00  5.22834E+00  4.44584E+00
   3.72584E+00  3.06931E+00  2.47530E+00  1.94143E+00  1.46423E+00  1.03948E+00  6.62605E-01  3.28860E-01  3.35688E-02 -2.27740E-01
  -4.59236E-01 -6.64726E-01 -8.47622E-01 -1.01095E+00 -1.15734E+00 -1.28908E+00 -1.40816E+00 -1.51626E+00 -1.61484E+00 -1.70511E+00
  -1.78812E+00 -1.86477E+00 -1.93582E+00 -2.00193E+00 -2.06365E+00 -2.12146E+00 -2.17579E+00 -2.22698E+00 -2.27536E+00 -2.32120E+00
  -2.36475E+00 -2.40620E+00 -2.44574E+00 -2.48355E+00 -2.51977E+00 -2.55453E+00 -2.58795E+00 -2.62013E+00 -2.65117E+00 -2.68115E+00
  -2.71016E+00 -2.73827E+00 -2.76553E+00 -2.79202E+00 -2.81777E+00 -2.84284E+00 -2.86728E+00 -2.89112E+00 -2.91440E+00 -2.93716E+00
  -2.95942E+00 -2.98121E+00 -3.00257E+00 -3.02352E+00 -3.04407E+00 -3.06425E+00 -3.08408E+00 -3.10358E+00 -3.12277E+00 -3.14166E+00
  -3.16026E+00 -3.17861E+00 -3.19670E+00 -3.21454E+00 -3.23216E+00 -3.24955E+00 -3.26672E+00 -3.28370E+00 -3.30048E+00 -3.31707E+00
  -3.33348E+00 -3.34970E+00 -3.36576E+00 -3.38165E+00 -3.39738E+00 -3.41294E+00 -3.42833E+00 -3.44356E+00
 NY background values follow
     1.434E+00    1.424E+00    1.413E+00    1.402E+00    1.392E+00    1.381E+00    1.371E+00    1.360E+00    1.349E+00    1.339E+00
     1.328E+00    1.317E+00    1.307E+00    1.296E+00    1.286E+00    1.275E+00    1.264E+00    1.254E+00    1.243E+00    1.232E+00
     1.222E+00    1.211E+00    1.200E+00    1.190E+00    1.179E+00    1.169E+00    1.158E+00    1.147E+00    1.137E+00    1.126E+00
     1.115E+00    1.105E+00    1.094E+00    1.084E+00    1.073E+00    1.062E+00    1.052E+00    1.041E+00    1.030E+00    1.020E+00
     1.009E+00    9.984E-01    9.878E-01    9.772E-01    9.665E-01    9.559E-01    9.453E-01    9.346E-01    9.240E-01    9.133E-01
     9.027E-01    8.921E-01    8.814E-01    8.708E-01    8.601E-01    8.495E-01    8.388E-01    8.282E-01    8.176E-01    8.069E-01
     7.963E-01    7.856E-01    7.750E-01    7.643E-01    7.537E-01    7.430E-01    7.324E-01    7.217E-01    7.111E-01    7.005E-01
     6.898E-01    6.792E-01    6.685E-01    6.579E-01    6.472E-01    6.366E-01    6.259E-01    6.153E-01    6.046E-01    5.940E-01
     5.833E-01    5.727E-01    5.620E-01    5.514E-01    5.407E-01    5.300E-01    5.194E-01    5.087E-01    4.981E-01    4.874E-01
     4.768E-01    4.661E-01    4.555E-01    4.448E-01    4.342E-01    4.235E-01    4.128E-01    4.022E-01    3.915E-01    3.809E-01
     3.702E-01    3.596E-01    3.489E-01    3.382E-01    3.276E-01    3.169E-01    3.063E-01    2.956E-01    2.850E-01    2.743E-01
     2.636E-01    2.530E-01    2.423E-01    2.317E-01    2.210E-01    2.103E-01    1.997E-01    1.890E-01    1.783E-01    1.677E-01
     1.570E-01    1.464E-01    1.357E-01    1.250E-01    1.144E-01    1.037E-01    9.304E-02    8.238E-02    7.171E-02    6.105E-02
     5.038E-02    3.972E-02    2.905E-02    1.838E-02    7.718E-03   -2.948E-03   -1.361E-02   -2.428E-02   -3.495E-02   -4.562E-02
    -5.628E-02   -6.695E-02   -7.762E-02   -8.829E-02   -9.896E-02   -1.096E-01   -1.203E-01   -1.310E-01   -1.416E-01   -1.523E-01
    -1.630E-01   -1.736E-01   -1.843E-01   -1.950E-01   -2.057E-01   -2.163E-01   -2.270E-01   -2.377E-01   -2.483E-01   -2.590E-01
    -2.697E-01   -2.804E-01   -2.910E-01   -3.017E-01   -3.124E-01   -3.230E-01   -3.337E-01   -3.444E-01   -3.551E-01   -3.657E-01
    -3.764E-01   -3.871E-01   -3.978E-01   -4.084E-01   -4.191E-01   -4.298E-01   -4.405E-01   -4.511E-01   -4.618E-01   -4.725E-01
    -4.832E-01   -4.938E-01   -5.045E-01   -5.152E-01   -5.259E-01   -5.365E-01   -5.472E-01   -5.579E-01   -5.686E-01   -5.792E-01
    -5.899E-01   -6.006E-01   -6.113E-01   -6.220E-01   -6.326E-01   -6.433E-01   -6.540E-01   -6.647E-01   -6.754E-01   -6.860E-01
    -6.967E-01   -7.074E-01   -7.181E-01   -7.287E-01   -7.394E-01   -7.501E-01   -7.608E-01   -7.715E-01   -7.821E-01   -7.928E-01
    -8.035E-01   -8.142E-01   -8.249E-01   -8.355E-01   -8.462E-01   -8.569E-01   -8.676E-01   -8.783E-01   -8.890E-01   -8.996E-01
    -9.103E-01   -9.210E-01   -9.317E-01   -9.424E-01   -9.530E-01   -9.637E-01   -9.744E-01   -9.851E-01   -9.958E-01   -1.006E+00
    -1.017E+00   -1.028E+00   -1.039E+00   -1.049E+00   -1.060E+00   -1.071E+00   -1.081E+00   -1.092E+00   -1.103E+00   -1.113E+00
    -1.124E+00   -1.135E+00   -1.145E+00   -1.156E+00   -1.167E+00   -1.177E+00   -1.188E+00   -1.199E+00   -1.209E+00   -1.220E+00
    -1.231E+00   -1.242E+00   -1.252E+00   -1.263E+00   -1.274E+00   -1.284E+00   -1.295E+00   -1.306E+00   -1.316E+00   -1.327E+00
    -1.338E+00   -1.348E+00   -1.359E+00   -1.370E+00   -1.380E+00   -1.391E+00   -1.402E+00   -1.412E+00   -1.423E+00   -1.434E+00
    -1.445E+00   -1.455E+00   -1.466E+00   -1.477E+00   -1.487E+00   -1.498E+00   -1.509E+00   -1.519E+00   -1.530E+00   -1.541E+00
    -1.551E+00   -1.562E+00   -1.573E+00   -1.583E+00   -1.594E+00   -1.605E+00   -1.616E+00   -1.626E+00   -1.637E+00   -1.648E+00
    -1.658E+00   -1.669E+00   -1.680E+00   -1.690E+00   -1.701E+00   -1.712E+00   -1.722E+00   -1.733E+00   -1.744E+00   -1.754E+00
    -1.765E+00   -1.776E+00   -1.787E+00   -1.797E+00   -1.808E+00   -1.819E+00   -1.829E+00   -1.840E+00   -1.851E+00   -1.861E+00
    -1.872E+00   -1.883E+00   -1.893E+00   -1.904E+00   -1.915E+00   -1.926E+00   -1.936E+00   -1.947E+00   -1.958E+00   -1.968E+00
    -1.979E+00   -1.990E+00   -2.000E+00   -2.011E+00   -2.022E+00   -2.032E+00   -2.043E+00   -2.054E+00   -2.064E+00   -2.075E+00
    -2.086E+00   -2.097E+00   -2.107E+00   -2.118E+00   -2.129E+00   -2.139E+00   -2.150E+00   -2.161E+00   -2.171E+00   -2.182E+00
    -2.193E+00   -2.203E+00   -2.214E+00   -2.225E+00   -2.235E+00   -2.246E+00   -2.257E+00   -2.268E+00   -2.278E+00   -2.289E+00
    -2.300E+00   -2.310E+00   -2.321E+00   -2.332E+00   -2.342E+00   -2.353E+00   -2.364E+00   -2.374E+00   -2.385E+00   -2.396E+00
    -2.407E+00   -2.417E+00   -2.428E+00   -2.439E+00   -2.449E+00   -2.460E+00   -2.471E+00   -2.481E+00   -2.492E+00   -2.503E+00
    -2.513E+00   -2.524E+00   -2.535E+00   -2.545E+00   -2.556E+00   -2.567E+00   -2.578E+00   -2.588E+00   -2.599E+00   -2.610E+00
    -2.620E+00   -2.631E+00   -2.642E+00   -2.652E+00   -2.663E+00   -2.674E+00   -2.684E+00   -2.695E+00   -2.706E+00   -2.716E+00
    -2.727E+00   -2.738E+00   -2.748E+00   -2.759E+00   -2.770E+00   -2.781E+00   -2.791E+00   -2.802E+00   -2.813E+00   -2.823E+00
    -2.834E+00   -2.845E+00   -2.855E+00   -2.866E+00   -2.877E+00   -2.887E+00   -2.898E+00   -2.909E+00   -2.919E+00   -2.930E+00
    -2.941E+00   -2.952E+00   -2.962E+00   -2.973E+00   -2.984E+00   -2.994E+00   -3.005E+00   -3.016E+00   -3.026E+00   -3.037E+00
    -3.048E+00   -3.058E+00   -3.069E+00   -3.080E+00   -3.090E+00   -3.101E+00   -3.112E+00   -3.122E+00   -3.133E+00   -3.144E+00
    -3.154E+00   -3.165E+00   -3.176E+00   -3.187E+00   -3.197E+00   -3.208E+00   -3.219E+00   -3.229E+00   -3.240E+00   -3.251E+00
    -3.261E+00   -3.272E+00   -3.283E+00   -3.293E+00   -3.304E+00   -3.315E+00   -3.325E+00   -3.336E+00   -3.347E+00   -3.357E+00
    -3.368E+00   -3.379E+00   -3.389E+00   -3.400E+00   -3.411E+00   -3.421E+00   -3.432E+00   -3.443E+00   -3.454E+00   -3.464E+00
    -3.475E+00   -3.486E+00   -3.496E+00   -3.507E+00   -3.518E+00   -3.528E+00   -3.539E+00   -3.550E+00   -3.560E+00   -3.571E+00
    -3.582E+00   -3.592E+00   -3.603E+00   -3.614E+00   -3.624E+00   -3.635E+00   -3.646E+00   -3.656E+00   -3.667E+00   -3.678E+00
    -3.688E+00   -3.699E+00   -3.710E+00   -3.720E+00   -3.731E+00   -3.742E+00   -3.752E+00   -3.763E+00   -3.774E+00   -3.784E+00
    -3.795E+00   -3.806E+00   -3.816E+00   -3.827E+00   -3.838E+00   -3.848E+00   -3.859E+00   -3.870E+00
 Ala      Conc. = 2.87E+02
