 LCModel (Version 6.3-1L) Copyright: S.W. Provencher.          Ref.: Magn. Reson. Med. 30:672-679 (1993).                
 Slice#1 Row#2 Col#9  PD_24_press_2_raw_act
 36 lines in following concentration table = NCONC+1
    Conc.  %SD /Cr+PCr  Metabolite                                         
  624.700  47%   2.022 Ala                                                 
   30.783 204%   0.100 Asp                                                 
  308.975  34%   1.000 Cr                                                  
    0.000 999%   0.000 PCr                                                 
   21.953 172% 7.1E-02 GABA                                                
   28.438 133% 9.2E-02 Glc                                                 
    0.000 999%   0.000 Gln                                                 
 1.10E+03  60%   3.563 Glu                                                 
    0.000 999%   0.000 GPC                                                 
  182.330 128%   0.590 PCh                                                 
  358.926  47%   1.162 GSH                                                 
 1.41E+03  36%   4.579 Ins                                                 
  545.998  60%   1.767 Lac                                                 
    0.000 999%   0.000 NAA                                                 
    0.000 999%   0.000 NAAG                                                
   11.947 104% 3.9E-02 Scyllo                                              
   51.745 120%   0.167 Tau                                                 
    8.898 645% 2.9E-02 -CrCH2                                              
  182.330  23%   0.590 GPC+PCh                                             
    0.000 999%   0.000 NAA+NAAG                                            
  308.975  34%   1.000 Cr+PCr                                              
 1.10E+03  60%   3.563 Glu+Gln                                             
 3.05E+03  21%   9.865 Lip13a                                              
    0.000 999%   0.000 Lip13b                                              
  804.671  22%   2.604 Lip09                                               
 3.51E-02 999% 1.1E-04 MM09                                                
  434.290  24%   1.406 Lip20                                               
    0.000 999%   0.000 MM20                                                
 1.21E-02 999% 3.9E-05 MM12                                                
    0.307 999% 1.0E-03 MM14                                                
 1.70E-02 999% 5.5E-05 MM17                                                
 3.05E+03  21%   9.865 Lip13a+Lip13b                                       
 3.05E+03  21%   9.866 MM14+Lip13a+Lip13b+MM12                             
  804.706  22%   2.604 MM09+Lip09                                          
  434.290  24%   1.406 MM20+Lip20                                          
   6 lines in following misc. output table
  FWHM = 0.076 ppm    S/N =   1                                            
  Data shift =-0.015 ppm                                                   
  Ph:  25 deg     -25.4 deg/ppm                                            
  alphaB,S = 8.5E+01,   7.6E+01                                            
   14 spline knots.   Ns = 6(1)                                            
   2 inflections.     1 extrema                                            
  498 points on ppm-axis = NY
      4.000000     3.992357     3.984714     3.977070     3.969427     3.961784     3.954141     3.946497     3.938854     3.931211
      3.923568     3.915925     3.908281     3.900638     3.892995     3.885352     3.877708     3.870065     3.862422     3.854779
      3.847136     3.839492     3.831849     3.824206     3.816563     3.808919     3.801276     3.793633     3.785990     3.778347
      3.770703     3.763060     3.755417     3.747774     3.740130     3.732487     3.724844     3.717201     3.709558     3.701914
      3.694271     3.686628     3.678985     3.671341     3.663698     3.656055     3.648412     3.640769     3.633125     3.625482
      3.617839     3.610196     3.602552     3.594909     3.587266     3.579623     3.571980     3.564336     3.556693     3.549050
      3.541407     3.533763     3.526120     3.518477     3.510834     3.503191     3.495547     3.487904     3.480261     3.472618
      3.464974     3.457331     3.449688     3.442045     3.434402     3.426758     3.419115     3.411472     3.403829     3.396185
      3.388542     3.380899     3.373256     3.365613     3.357969     3.350326     3.342683     3.335040     3.327396     3.319753
      3.312110     3.304467     3.296824     3.289180     3.281537     3.273894     3.266251     3.258607     3.250964     3.243321
      3.235678     3.228034     3.220391     3.212748     3.205105     3.197462     3.189818     3.182175     3.174532     3.166889
      3.159245     3.151602     3.143959     3.136316     3.128673     3.121029     3.113386     3.105743     3.098100     3.090456
      3.082813     3.075170     3.067527     3.059884     3.052240     3.044597     3.036954     3.029311     3.021667     3.014024
      3.006381     2.998738     2.991095     2.983451     2.975808     2.968165     2.960522     2.952878     2.945235     2.937592
      2.929949     2.922306     2.914662     2.907019     2.899376     2.891733     2.884089     2.876446     2.868803     2.861160
      2.853517     2.845873     2.838230     2.830587     2.822944     2.815300     2.807657     2.800014     2.792371     2.784728
      2.777084     2.769441     2.761798     2.754155     2.746511     2.738868     2.731225     2.723582     2.715939     2.708295
      2.700652     2.693009     2.685366     2.677722     2.670079     2.662436     2.654793     2.647150     2.639506     2.631863
      2.624220     2.616577     2.608933     2.601290     2.593647     2.586004     2.578361     2.570717     2.563074     2.555431
      2.547788     2.540144     2.532501     2.524858     2.517215     2.509572     2.501928     2.494285     2.486642     2.478999
      2.471355     2.463712     2.456069     2.448426     2.440783     2.433139     2.425496     2.417853     2.410210     2.402566
      2.394923     2.387280     2.379637     2.371994     2.364350     2.356707     2.349064     2.341421     2.333777     2.326134
      2.318491     2.310848     2.303205     2.295561     2.287918     2.280275     2.272632     2.264988     2.257345     2.249702
      2.242059     2.234416     2.226772     2.219129     2.211486     2.203843     2.196199     2.188556     2.180913     2.173270
      2.165627     2.157983     2.150340     2.142697     2.135054     2.127410     2.119767     2.112124     2.104481     2.096838
      2.089194     2.081551     2.073908     2.066265     2.058621     2.050978     2.043335     2.035692     2.028049     2.020405
      2.012762     2.005119     1.997476     1.989833     1.982190     1.974546     1.966903     1.959260     1.951617     1.943974
      1.936331     1.928688     1.921045     1.913402     1.905759     1.898115     1.890472     1.882829     1.875186     1.867543
      1.859900     1.852257     1.844614     1.836971     1.829327     1.821684     1.814041     1.806398     1.798755     1.791112
      1.783469     1.775826     1.768183     1.760540     1.752896     1.745253     1.737610     1.729967     1.722324     1.714681
      1.707038     1.699395     1.691752     1.684108     1.676465     1.668822     1.661179     1.653536     1.645893     1.638250
      1.630607     1.622964     1.615321     1.607677     1.600034     1.592391     1.584748     1.577105     1.569462     1.561819
      1.554176     1.546533     1.538890     1.531246     1.523603     1.515960     1.508317     1.500674     1.493031     1.485388
      1.477745     1.470102     1.462458     1.454815     1.447172     1.439529     1.431886     1.424243     1.416600     1.408957
      1.401314     1.393671     1.386027     1.378384     1.370741     1.363098     1.355455     1.347812     1.340169     1.332526
      1.324883     1.317240     1.309596     1.301953     1.294310     1.286667     1.279024     1.271381     1.263738     1.256095
      1.248452     1.240808     1.233165     1.225522     1.217879     1.210236     1.202593     1.194950     1.187307     1.179664
      1.172021     1.164377     1.156734     1.149091     1.141448     1.133805     1.126162     1.118519     1.110876     1.103233
      1.095590     1.087946     1.080303     1.072660     1.065017     1.057374     1.049731     1.042088     1.034445     1.026802
      1.019158     1.011515     1.003872     0.996229     0.988586     0.980943     0.973300     0.965657     0.958014     0.950371
      0.942727     0.935084     0.927441     0.919798     0.912155     0.904512     0.896869     0.889226     0.881583     0.873940
      0.866296     0.858653     0.851010     0.843367     0.835724     0.828081     0.820438     0.812795     0.805152     0.797508
      0.789865     0.782222     0.774579     0.766936     0.759293     0.751650     0.744007     0.736364     0.728721     0.721077
      0.713434     0.705791     0.698148     0.690505     0.682862     0.675219     0.667576     0.659933     0.652290     0.644646
      0.637003     0.629360     0.621717     0.614074     0.606431     0.598788     0.591145     0.583502     0.575858     0.568215
      0.560572     0.552929     0.545286     0.537643     0.530000     0.522357     0.514714     0.507071     0.499427     0.491784
      0.484141     0.476498     0.468855     0.461212     0.453569     0.445925     0.438282     0.430639     0.422996     0.415353
      0.407710     0.400067     0.392424     0.384780     0.377137     0.369494     0.361851     0.354208     0.346565     0.338922
      0.331278     0.323635     0.315992     0.308349     0.300706     0.293063     0.285420     0.277777     0.270133     0.262490
      0.254847     0.247204     0.239561     0.231918     0.224275     0.216631     0.208988     0.201345
 NY phased data points follow
   1.30068E+01  1.27085E+00  5.54348E+00  7.35514E+00  5.78716E+00  1.69569E+01  1.24425E+01 -4.35384E+00 -9.51121E+00  1.57539E+00
   1.18287E+01  1.45878E+01  1.16723E+01 -8.24546E+00  9.09381E+00  1.02694E+01  1.08308E+01  2.29851E+00  1.13083E+01 -1.29205E+00
   1.06539E+01 -1.06719E+01  1.28948E+01 -4.01908E-01  9.59988E+00  6.33601E+00  1.56929E+01 -2.09150E+00  1.13919E+01  1.05812E+00
   4.65920E+00  1.09208E+01  4.01949E+00  4.42625E+00  1.07174E+01 -1.42334E+00  1.06691E+01  1.20169E+01  1.04858E+01 -7.00782E+00
  -5.73547E+00 -6.11630E-01  1.10942E+01  3.74978E-01  6.17128E+00 -3.26126E+00  1.60158E+01 -4.70603E+00  2.73329E+00 -6.14275E-01
   4.67207E+00  1.19160E+01 -5.56815E+00  9.37457E+00  1.26058E+01 -3.85135E+00 -4.14910E+00  2.16464E+00  9.40780E+00  7.39811E+00
   3.05798E+00 -1.49330E+00 -5.94186E+00  1.14231E+01  6.67291E+00  8.13138E+00 -5.39215E+00  2.44373E+00  4.64420E+00  6.14942E+00
   4.25318E+00  1.20221E+01  6.30901E+00  8.54053E-01 -1.60348E-02  2.96081E+00  6.20805E+00  4.49832E+00  5.22764E-01 -4.29493E+00
   2.11027E+00 -9.71070E-01  8.91003E+00 -3.12392E+00  3.94011E+00 -5.74446E+00  1.59375E+00  9.15093E-02  1.54768E+01  4.74812E+00
  -1.52462E-01 -9.79148E-01 -5.98889E-01 -1.78966E+00 -1.12449E+00 -6.42264E+00  5.41763E+00 -9.96796E-01 -5.42174E+00  7.31950E+00
   1.26936E+00  1.00275E+01  2.80449E+00  2.03210E+01  1.64877E+01  6.94431E+00  1.57502E+01  7.68678E+00  6.73943E+00  1.39168E+01
   5.20720E+00  1.32889E+01  4.33535E+00 -5.51965E+00 -2.47499E+00 -2.92847E+00  4.39489E+00 -3.87506E-01 -5.01021E+00  1.20815E+01
   5.60963E+00 -1.31399E+00  5.38577E+00  2.64848E+00 -5.94064E+00  1.67001E+00  4.72142E+00  2.37567E+00 -2.84186E+00  3.52812E+00
   1.79508E+01  1.01551E+01  9.14751E+00  1.35238E+01  1.99330E+01 -1.38815E+00  8.59505E+00  7.73098E+00 -5.31857E+00 -6.48921E-03
   7.85378E+00  8.96632E-02  3.81537E+00 -1.85945E+00  2.48200E+00 -1.67855E+00  8.00414E+00 -3.20476E+00  8.95003E+00 -1.83387E+00
   1.76416E+01  5.89907E+00  2.85992E+00 -5.11534E+00  5.47304E+00  3.24544E+00  2.68010E+00 -5.22954E+00  1.42536E+01  2.90250E+00
   3.86660E+00  1.58736E+01  1.20180E-01  1.59894E+01  1.37045E+01 -2.30499E+00 -1.78694E+00  8.02849E-01  1.58531E+00  5.00395E-01
  -5.15419E+00  6.84897E+00  6.74798E+00  3.08818E+00  3.84171E+00 -3.22459E+00  2.77735E+00 -1.04261E+01  6.26395E+00  2.62768E+00
   3.56093E+00  1.28111E+01 -4.41981E-01 -7.90326E+00  1.09837E+01  1.01204E+00 -3.39552E+00  2.94900E+00  4.13801E+00 -3.42032E+00
   4.87432E+00 -6.76847E+00  2.34054E+00 -3.06172E+00 -4.90154E+00 -2.29807E+00  9.21413E+00  2.86917E+00 -3.98945E+00 -8.20781E+00
  -8.89137E-01  1.21107E+00 -3.73678E+00 -4.19961E+00 -5.25257E+00  6.00361E+00 -9.69584E-01  5.12017E-01  3.23005E+00 -6.42216E+00
   1.05031E+00  1.61400E+00  8.39973E+00 -5.23049E+00 -1.57916E+00  1.73235E+00 -5.75196E+00 -1.19603E+01 -5.29916E+00 -9.71800E+00
  -1.42945E+01 -4.39372E+00 -1.02322E+01 -7.33606E+00 -3.37341E+00 -5.57595E+00 -1.03807E+01 -1.23080E+01  4.48277E-01  1.95304E+00
  -1.44449E+00 -1.13950E+01  4.75613E+00 -8.97554E+00 -4.57025E+00 -8.41283E+00 -2.97658E+00 -1.25192E+01 -2.99219E+00 -7.41415E+00
  -6.51304E+00 -3.15236E+00 -1.23517E+01 -1.03232E+01 -8.29676E+00 -2.06731E+01 -8.23871E-01 -1.01992E+01 -1.19245E+01 -1.10292E+01
  -8.49675E+00 -6.56430E+00 -6.55724E+00 -9.68279E+00 -3.91124E+00 -2.97362E+01 -2.00468E+00 -9.43173E+00 -1.08714E+01  1.48951E+01
  -8.88216E-01  5.19876E+00  8.45000E+00  1.24822E+01  3.34791E-02  2.24858E-01  6.44841E+00 -9.92287E+00  2.17758E+00 -7.87568E+00
  -5.29791E+00  1.85894E+00 -4.44910E+00 -5.82403E+00 -4.33582E-01  4.25343E+00 -6.69474E+00  1.17769E+01  4.91745E+00 -2.52109E+00
  -2.04338E+00  7.68221E-01  9.48998E-01 -4.73668E+00 -2.39661E+00  3.94483E+00 -2.75371E-01 -1.19884E+01 -3.41810E+00 -5.97190E+00
  -4.26711E-01 -5.54777E+00 -9.54375E+00 -4.02864E+00  2.66573E+00 -8.44446E+00 -1.03250E+01  6.57592E+00  1.07210E+00 -5.48070E+00
   1.64453E+00 -2.75144E+00  4.60260E+00  5.41362E+00 -2.63626E+00 -2.43575E+00  9.33147E-01 -1.39522E-01  4.27759E+00  6.05985E+00
   8.49078E+00  1.46900E+01  9.60585E+00  1.22671E+01  1.07889E+01  7.26606E+00  1.92937E+01  1.46876E+01  1.65901E+01  1.22740E+01
   1.26190E+01  1.63856E+01  6.24239E+00  1.12810E+01  8.46861E+00  2.04627E+01  1.40217E+01  8.56581E+00  1.61018E+01  7.31934E+00
   6.48179E+00  1.57605E+01  1.34983E+01  1.64505E+01  1.80358E+01  2.61758E+01  1.80715E+01  1.67194E+01  3.13842E+01  2.23183E+01
   2.05159E+01  2.05906E+01  5.80727E+00  2.02768E+01  1.65015E+01  2.61806E+01  3.54449E+00  1.35782E+01  4.99731E+00  1.69404E+01
   1.98691E+01  6.42556E+00  1.36596E+01  7.37727E-01  6.65643E+00  1.16315E+01  1.34326E+01  7.35308E+00  6.48468E+00  1.37046E+01
   1.17069E+01  7.86441E+00  8.46186E+00  1.39646E+01  1.62000E+00  1.21673E+01  1.07062E+01  1.58301E+01  8.42182E+00  1.15700E+01
   6.18855E+00  3.76272E+00  1.66082E+01  1.67493E+01  2.59488E+01  6.14650E+00  9.45786E+00  3.77824E+00  6.49758E+00  4.70280E+00
   1.90354E+01  1.68297E+01  1.86262E+01  1.25942E+01  1.64753E+01  1.01889E+01  1.28374E+01  1.26387E+01  6.68921E+00  1.25267E+01
   1.83451E+01  7.47955E+00  2.27845E+01  1.57141E+00 -1.81058E+01 -1.12280E+01  5.32382E-01 -1.22619E+01  5.02536E+00  1.56030E+01
   5.69328E+00  4.54044E+00  8.41666E+00  1.72035E+01  1.60308E+01  4.82854E+00  6.80169E+00  4.61298E+00 -7.80273E-02  3.20404E+00
   6.32171E+00  1.27281E+01 -3.87003E+00 -8.48914E-01  7.96055E+00  9.48560E+00  3.31757E+00  9.05984E+00  4.45355E+00  2.64061E+00
   2.10080E+00 -2.45043E+00  3.64162E+00 -5.15952E+00  5.11506E+00  2.53266E+00  1.76410E+00  5.00053E+00  1.20818E+01  5.88003E+00
  -7.49206E+00  1.22131E+01  8.68116E+00  8.47943E+00  8.44324E+00  6.30216E+00  8.15472E+00  8.22736E+00  2.07884E+01  5.00744E+00
  -1.16712E+00  6.84304E-01  9.68260E+00  6.86200E+00 -8.87900E-01  2.96759E+00 -1.11818E+00  3.59150E+00  8.50154E-01 -5.08309E+00
   1.99815E+00  9.33985E+00 -1.08218E+00  8.17252E+00  5.99435E+00 -2.30993E+00  4.49821E+00 -4.50947E+00  9.88452E+00  8.83606E+00
   6.09008E+00  2.59739E+00  5.31506E+00  1.31944E+00  9.77420E+00  6.42943E+00  1.17184E+01  6.28241E+00  6.53062E+00  8.49164E+00
   1.35292E+00 -5.24217E-01  1.33422E+01  2.89694E+00  3.52413E+00  4.89296E+00  4.72627E-01  1.02465E+00 -7.54714E+00  3.08099E+00
   7.37424E+00  9.58861E+00  1.15021E+01  1.08763E+01  8.04038E+00  4.35865E+00  3.60279E+00 -1.95999E+00 -6.99904E+00  3.99990E-01
   8.57519E+00  1.56608E+01  1.34546E+01  7.88428E+00  5.75383E+00  7.69305E+00  1.35617E+01  2.04841E+01
 NY points of the fit to the data follow
   2.00491E+00  1.11721E+00  4.34657E-01 -8.62165E-02 -2.68906E-01 -4.97721E-02  7.07954E-01  1.75408E+00  2.77039E+00  3.60174E+00
   4.17949E+00  4.46378E+00  4.50350E+00  4.45052E+00  4.35346E+00  4.10338E+00  3.56698E+00  2.73376E+00  1.81036E+00  1.23732E+00
   1.24176E+00  1.36775E+00  1.30061E+00  1.20409E+00  1.60511E+00  2.42156E+00  3.31969E+00  4.33326E+00  5.38988E+00  6.24471E+00
   6.79644E+00  7.23489E+00  7.72187E+00  8.09710E+00  7.98184E+00  7.13876E+00  5.58475E+00  3.79960E+00  2.40720E+00  1.29693E+00
   4.44899E-01  4.29336E-01  1.52821E+00  3.24411E+00  4.89195E+00  6.15823E+00  6.94834E+00  7.22616E+00  7.09943E+00  6.77887E+00
   6.35504E+00  5.64688E+00  4.39511E+00  2.67300E+00  1.00586E+00  1.43313E-01  4.62327E-01  1.42986E+00  2.35769E+00  2.95320E+00
   3.20981E+00  3.25631E+00  3.19920E+00  3.07819E+00  2.87730E+00  2.52636E+00  2.10041E+00  1.80243E+00  1.78040E+00  2.02507E+00
   2.48141E+00  2.95860E+00  3.31083E+00  3.47893E+00  3.46414E+00  3.31923E+00  3.08726E+00  2.78738E+00  2.43367E+00  2.07906E+00
   1.86120E+00  1.64364E+00  1.26105E+00  6.97823E-01  5.66251E-02 -5.64173E-01 -1.09147E+00 -1.47802E+00 -1.70896E+00 -1.81434E+00
  -1.80269E+00 -1.65358E+00 -1.38194E+00 -9.68033E-01 -4.45315E-01  1.18063E-02  3.32266E-01  8.59085E-01  2.53936E+00  5.02120E+00
   7.45320E+00  9.41893E+00  1.08100E+01  1.16327E+01  1.20469E+01  1.22638E+01  1.22487E+01  1.16817E+01  1.01508E+01  7.53854E+00
   4.28172E+00  1.49597E+00  2.98680E-01  5.32831E-03 -1.03806E-01 -1.76524E-01 -2.30727E-01 -2.76144E-01 -3.01282E-01 -2.71926E-01
  -1.26875E-01  4.38336E-01  1.79861E+00  3.51358E+00  5.13468E+00  6.48080E+00  7.49773E+00  8.22810E+00  8.76180E+00  9.06913E+00
   9.00056E+00  8.33256E+00  6.90066E+00  4.82715E+00  2.60932E+00  1.03568E+00  5.35581E-01  4.34620E-01  3.59965E-01  2.69145E-01
   2.55385E-01  4.62035E-01  9.02210E-01  1.37677E+00  1.72108E+00  1.85165E+00  1.73566E+00  1.45611E+00  1.13825E+00  8.58244E-01
   6.92803E-01  5.97959E-01  5.39720E-01  4.99710E-01  4.67074E-01  4.37873E-01  4.17861E-01  4.18674E-01  4.33660E-01  4.53667E-01
   4.71315E-01  4.81332E-01  4.77220E-01  4.57262E-01  4.39486E-01  4.34962E-01  4.39630E-01  4.51157E-01  4.66687E-01  4.81535E-01
   4.88955E-01  4.84164E-01  4.63240E-01  4.24251E-01  3.69060E-01  3.05521E-01  2.38003E-01  1.63491E-01  8.82844E-02 -7.13714E-03
  -1.25778E-01 -2.40559E-01 -3.34279E-01 -3.89004E-01 -3.56308E-01 -1.94286E-01  8.74361E-02  4.19594E-01  7.20466E-01  9.48305E-01
   1.08469E+00  1.09629E+00  9.61943E-01  7.65755E-01  5.84062E-01  4.15478E-01  2.36226E-01  7.65919E-02  1.68695E-02  1.24011E-01
   4.13707E-01  7.96902E-01  1.23128E+00  1.63700E+00  1.84372E+00  1.75698E+00  1.42431E+00  1.09554E+00  9.64514E-01  1.15419E+00
   1.82903E+00  2.68934E+00  3.45030E+00  4.00308E+00  4.27801E+00  4.12977E+00  3.46351E+00  2.37414E+00  1.14322E+00 -5.54786E-02
  -1.24116E+00 -2.30152E+00 -3.01446E+00 -3.13308E+00 -2.52925E+00 -1.60595E+00 -5.11723E-01  7.71573E-01  2.08997E+00  3.09296E+00
   3.50483E+00  3.53087E+00  3.55815E+00  3.57581E+00  3.41612E+00  3.14077E+00  2.83288E+00  2.51499E+00  2.21845E+00  1.93225E+00
   1.66671E+00  1.44349E+00  1.27436E+00  1.16849E+00  1.15572E+00  1.31641E+00  1.69098E+00  2.16698E+00  2.58756E+00  2.88947E+00
   2.99333E+00  2.82962E+00  2.44854E+00  2.04484E+00  1.79982E+00  1.79136E+00  2.02979E+00  2.40643E+00  2.77386E+00  2.99357E+00
   3.06790E+00  3.11054E+00  3.17358E+00  3.27389E+00  3.37073E+00  3.37833E+00  3.20784E+00  2.94335E+00  2.69469E+00  2.51339E+00
   2.40340E+00  2.37694E+00  2.42679E+00  2.47488E+00  2.51113E+00  2.56482E+00  2.63025E+00  2.68874E+00  2.71491E+00  2.68681E+00
   2.60875E+00  2.52114E+00  2.45236E+00  2.40305E+00  2.37417E+00  2.36779E+00  2.38079E+00  2.40521E+00  2.42777E+00  2.44418E+00
   2.45916E+00  2.47410E+00  2.48979E+00  2.50836E+00  2.53183E+00  2.55980E+00  2.59045E+00  2.62502E+00  2.66468E+00  2.70829E+00
   2.75523E+00  2.80606E+00  2.86091E+00  2.92013E+00  2.98420E+00  3.05375E+00  3.12939E+00  3.21168E+00  3.30128E+00  3.39924E+00
   3.50742E+00  3.62864E+00  3.76561E+00  3.92163E+00  4.10144E+00  4.31207E+00  4.56466E+00  4.87770E+00  5.28549E+00  5.86512E+00
   6.80779E+00  8.08072E+00  8.96922E+00  9.17328E+00  8.75895E+00  7.84972E+00  6.56167E+00  4.98508E+00  3.33009E+00  2.21666E+00
   1.66694E+00  1.45092E+00  1.61547E+00  2.45113E+00  4.22654E+00  6.65689E+00  8.97566E+00  1.11570E+01  1.32023E+01  1.48837E+01
   1.59707E+01  1.65097E+01  1.65612E+01  1.64633E+01  1.61514E+01  1.54873E+01  1.44785E+01  1.31736E+01  1.17128E+01  1.06382E+01
   1.00686E+01  9.70337E+00  9.44020E+00  9.46323E+00  1.00954E+01  1.14855E+01  1.30876E+01  1.44687E+01  1.56170E+01  1.63503E+01
   1.63930E+01  1.55929E+01  1.42226E+01  1.30626E+01  1.22845E+01  1.16763E+01  1.11514E+01  1.06770E+01  1.02381E+01  9.82767E+00
   9.44246E+00  9.08121E+00  8.74355E+00  8.42944E+00  8.13900E+00  7.87245E+00  7.63002E+00  7.41183E+00  7.21785E+00  7.04788E+00
   6.90162E+00  6.77877E+00  6.67895E+00  6.60172E+00  6.54651E+00  6.51262E+00  6.49930E+00  6.50572E+00  6.53091E+00  6.57370E+00
   6.63267E+00  6.70619E+00  6.79240E+00  6.88922E+00  6.99427E+00  7.10493E+00  7.21831E+00  7.33138E+00  7.44099E+00  7.54398E+00
   7.63722E+00  7.71767E+00  7.78254E+00  7.82937E+00  7.85616E+00  7.86137E+00  7.84400E+00  7.80362E+00  7.74036E+00  7.65499E+00
   7.54877E+00  7.42348E+00  7.28123E+00  7.12446E+00  6.95580E+00  6.77802E+00  6.59388E+00  6.40608E+00  6.21710E+00  6.02925E+00
   5.84456E+00  5.66479E+00  5.49139E+00  5.32548E+00  5.16788E+00  5.01915E+00  4.87962E+00  4.74941E+00  4.62845E+00  4.51652E+00
   4.41328E+00  4.31832E+00  4.23119E+00  4.15141E+00  4.07846E+00  4.01182E+00  3.95100E+00  3.89551E+00  3.84493E+00  3.79882E+00
   3.75679E+00  3.71848E+00  3.68355E+00  3.65171E+00  3.62269E+00  3.59626E+00  3.57217E+00  3.55021E+00  3.53022E+00  3.51203E+00
   3.49550E+00  3.48050E+00  3.46690E+00  3.45459E+00  3.44347E+00  3.43347E+00  3.42449E+00  3.41648E+00  3.40934E+00  3.40302E+00
   3.39748E+00  3.39266E+00  3.38852E+00  3.38500E+00  3.38206E+00  3.37967E+00  3.37781E+00  3.37644E+00  3.37553E+00  3.37505E+00
   3.37498E+00  3.37530E+00  3.37599E+00  3.37703E+00  3.37841E+00  3.38009E+00  3.38207E+00  3.38434E+00  3.38688E+00  3.38969E+00
   3.39273E+00  3.39600E+00  3.39950E+00  3.40322E+00  3.40714E+00  3.41126E+00  3.41557E+00  3.42006E+00  3.42472E+00  3.42957E+00
   3.43457E+00  3.43974E+00  3.44506E+00  3.45053E+00  3.45616E+00  3.46193E+00  3.46786E+00  3.47393E+00
 NY background values follow
    -1.810E+00   -1.800E+00   -1.790E+00   -1.779E+00   -1.769E+00   -1.759E+00   -1.749E+00   -1.739E+00   -1.729E+00   -1.719E+00
    -1.709E+00   -1.699E+00   -1.689E+00   -1.678E+00   -1.668E+00   -1.658E+00   -1.648E+00   -1.638E+00   -1.628E+00   -1.618E+00
    -1.608E+00   -1.598E+00   -1.588E+00   -1.578E+00   -1.567E+00   -1.557E+00   -1.547E+00   -1.537E+00   -1.527E+00   -1.517E+00
    -1.507E+00   -1.497E+00   -1.487E+00   -1.477E+00   -1.467E+00   -1.456E+00   -1.446E+00   -1.436E+00   -1.426E+00   -1.416E+00
    -1.406E+00   -1.396E+00   -1.386E+00   -1.376E+00   -1.366E+00   -1.355E+00   -1.345E+00   -1.335E+00   -1.325E+00   -1.315E+00
    -1.305E+00   -1.295E+00   -1.285E+00   -1.275E+00   -1.265E+00   -1.255E+00   -1.244E+00   -1.234E+00   -1.224E+00   -1.214E+00
    -1.204E+00   -1.194E+00   -1.184E+00   -1.174E+00   -1.164E+00   -1.154E+00   -1.144E+00   -1.133E+00   -1.123E+00   -1.113E+00
    -1.103E+00   -1.093E+00   -1.083E+00   -1.073E+00   -1.063E+00   -1.053E+00   -1.043E+00   -1.032E+00   -1.022E+00   -1.012E+00
    -1.002E+00   -9.921E-01   -9.820E-01   -9.719E-01   -9.618E-01   -9.517E-01   -9.416E-01   -9.315E-01   -9.214E-01   -9.113E-01
    -9.012E-01   -8.911E-01   -8.810E-01   -8.710E-01   -8.609E-01   -8.508E-01   -8.407E-01   -8.306E-01   -8.205E-01   -8.104E-01
    -8.003E-01   -7.902E-01   -7.801E-01   -7.700E-01   -7.599E-01   -7.498E-01   -7.397E-01   -7.296E-01   -7.195E-01   -7.094E-01
    -6.993E-01   -6.893E-01   -6.792E-01   -6.691E-01   -6.590E-01   -6.489E-01   -6.388E-01   -6.287E-01   -6.186E-01   -6.085E-01
    -5.984E-01   -5.883E-01   -5.782E-01   -5.681E-01   -5.580E-01   -5.479E-01   -5.378E-01   -5.277E-01   -5.176E-01   -5.075E-01
    -4.974E-01   -4.874E-01   -4.773E-01   -4.672E-01   -4.571E-01   -4.470E-01   -4.369E-01   -4.268E-01   -4.167E-01   -4.066E-01
    -3.965E-01   -3.864E-01   -3.763E-01   -3.662E-01   -3.561E-01   -3.460E-01   -3.359E-01   -3.258E-01   -3.157E-01   -3.056E-01
    -2.955E-01   -2.854E-01   -2.753E-01   -2.653E-01   -2.552E-01   -2.451E-01   -2.350E-01   -2.249E-01   -2.148E-01   -2.047E-01
    -1.946E-01   -1.845E-01   -1.744E-01   -1.643E-01   -1.542E-01   -1.441E-01   -1.340E-01   -1.239E-01   -1.138E-01   -1.037E-01
    -9.362E-02   -8.353E-02   -7.343E-02   -6.333E-02   -5.324E-02   -4.314E-02   -3.304E-02   -2.295E-02   -1.285E-02   -2.755E-03
     7.341E-03    1.744E-02    2.753E-02    3.763E-02    4.773E-02    5.782E-02    6.792E-02    7.802E-02    8.812E-02    9.821E-02
     1.083E-01    1.184E-01    1.285E-01    1.386E-01    1.487E-01    1.588E-01    1.689E-01    1.790E-01    1.891E-01    1.992E-01
     2.093E-01    2.194E-01    2.295E-01    2.396E-01    2.497E-01    2.598E-01    2.699E-01    2.800E-01    2.901E-01    3.002E-01
     3.103E-01    3.204E-01    3.305E-01    3.406E-01    3.506E-01    3.607E-01    3.708E-01    3.809E-01    3.910E-01    4.011E-01
     4.112E-01    4.213E-01    4.314E-01    4.415E-01    4.516E-01    4.617E-01    4.718E-01    4.819E-01    4.920E-01    5.021E-01
     5.122E-01    5.223E-01    5.324E-01    5.425E-01    5.526E-01    5.627E-01    5.728E-01    5.829E-01    5.930E-01    6.031E-01
     6.132E-01    6.233E-01    6.334E-01    6.435E-01    6.536E-01    6.637E-01    6.738E-01    6.839E-01    6.940E-01    7.041E-01
     7.142E-01    7.243E-01    7.344E-01    7.445E-01    7.546E-01    7.647E-01    7.748E-01    7.849E-01    7.950E-01    8.051E-01
     8.152E-01    8.253E-01    8.354E-01    8.455E-01    8.556E-01    8.657E-01    8.758E-01    8.859E-01    8.960E-01    9.061E-01
     9.162E-01    9.263E-01    9.364E-01    9.465E-01    9.566E-01    9.667E-01    9.768E-01    9.869E-01    9.970E-01    1.007E+00
     1.017E+00    1.027E+00    1.037E+00    1.048E+00    1.058E+00    1.068E+00    1.078E+00    1.088E+00    1.098E+00    1.108E+00
     1.118E+00    1.128E+00    1.138E+00    1.149E+00    1.159E+00    1.169E+00    1.179E+00    1.189E+00    1.199E+00    1.209E+00
     1.219E+00    1.229E+00    1.239E+00    1.250E+00    1.260E+00    1.270E+00    1.280E+00    1.290E+00    1.300E+00    1.310E+00
     1.320E+00    1.330E+00    1.340E+00    1.351E+00    1.361E+00    1.371E+00    1.381E+00    1.391E+00    1.401E+00    1.411E+00
     1.421E+00    1.431E+00    1.442E+00    1.452E+00    1.462E+00    1.472E+00    1.482E+00    1.492E+00    1.502E+00    1.512E+00
     1.522E+00    1.532E+00    1.543E+00    1.553E+00    1.563E+00    1.573E+00    1.583E+00    1.593E+00    1.603E+00    1.613E+00
     1.623E+00    1.633E+00    1.644E+00    1.654E+00    1.664E+00    1.674E+00    1.684E+00    1.694E+00    1.704E+00    1.714E+00
     1.724E+00    1.735E+00    1.745E+00    1.755E+00    1.765E+00    1.775E+00    1.785E+00    1.795E+00    1.805E+00    1.815E+00
     1.825E+00    1.836E+00    1.846E+00    1.856E+00    1.866E+00    1.876E+00    1.886E+00    1.896E+00    1.906E+00    1.916E+00
     1.926E+00    1.937E+00    1.947E+00    1.957E+00    1.967E+00    1.977E+00    1.987E+00    1.997E+00    2.007E+00    2.017E+00
     2.028E+00    2.038E+00    2.048E+00    2.058E+00    2.068E+00    2.078E+00    2.088E+00    2.098E+00    2.108E+00    2.118E+00
     2.129E+00    2.139E+00    2.149E+00    2.159E+00    2.169E+00    2.179E+00    2.189E+00    2.199E+00    2.209E+00    2.219E+00
     2.230E+00    2.240E+00    2.250E+00    2.260E+00    2.270E+00    2.280E+00    2.290E+00    2.300E+00    2.310E+00    2.321E+00
     2.331E+00    2.341E+00    2.351E+00    2.361E+00    2.371E+00    2.381E+00    2.391E+00    2.401E+00    2.411E+00    2.422E+00
     2.432E+00    2.442E+00    2.452E+00    2.462E+00    2.472E+00    2.482E+00    2.492E+00    2.502E+00    2.513E+00    2.523E+00
     2.533E+00    2.543E+00    2.553E+00    2.563E+00    2.573E+00    2.583E+00    2.593E+00    2.603E+00    2.614E+00    2.624E+00
     2.634E+00    2.644E+00    2.654E+00    2.664E+00    2.674E+00    2.684E+00    2.694E+00    2.704E+00    2.715E+00    2.725E+00
     2.735E+00    2.745E+00    2.755E+00    2.765E+00    2.775E+00    2.785E+00    2.795E+00    2.806E+00    2.816E+00    2.826E+00
     2.836E+00    2.846E+00    2.856E+00    2.866E+00    2.876E+00    2.886E+00    2.896E+00    2.907E+00    2.917E+00    2.927E+00
     2.937E+00    2.947E+00    2.957E+00    2.967E+00    2.977E+00    2.987E+00    2.998E+00    3.008E+00    3.018E+00    3.028E+00
     3.038E+00    3.048E+00    3.058E+00    3.068E+00    3.078E+00    3.088E+00    3.099E+00    3.109E+00    3.119E+00    3.129E+00
     3.139E+00    3.149E+00    3.159E+00    3.169E+00    3.179E+00    3.190E+00    3.200E+00    3.210E+00
 Ala      Conc. = 6.25E+02
