 LCModel (Version 6.3-1L) Copyright: S.W. Provencher.          Ref.: Magn. Reson. Med. 30:672-679 (1993).                
 Slice#2 Row#5 Col#2  PD_24_press_2_raw_act
 36 lines in following concentration table = NCONC+1
    Conc.  %SD /Cr+PCr  Metabolite                                         
  612.816  67%   0.269 Ala                                                 
    0.000 999%   0.000 Asp                                                 
  354.821 185%   0.156 Cr                                                  
 1.93E+03  34%   0.844 PCr                                                 
    0.000 999%   0.000 GABA                                                
  260.857 114%   0.114 Glc                                                 
 2.38E+03  35%   1.042 Gln                                                 
 3.67E+03  26%   1.611 Glu                                                 
  987.323   6%   0.433 GPC                                                 
    0.000 999%   0.000 PCh                                                 
 1.05E+03  21%   0.460 GSH                                                 
 2.64E+03  30%   1.159 Ins                                                 
    0.000 999%   0.000 Lac                                                 
 3.54E+03   5%   1.553 NAA                                                 
    0.000 999%   0.000 NAAG                                                
  408.022  17%   0.179 Scyllo                                              
 1.18E+03  36%   0.518 Tau                                                 
  785.611  41%   0.344 -CrCH2                                              
  987.323   6%   0.433 GPC+PCh                                             
 3.54E+03   5%   1.553 NAA+NAAG                                            
 2.28E+03   6%   1.000 Cr+PCr                                              
 6.05E+03  26%   2.653 Glu+Gln                                             
    0.000 999%   0.000 Lip13a                                              
    0.000 999%   0.000 Lip13b                                              
 3.79E-02 999% 1.7E-05 Lip09                                               
 1.40E+03  20%   0.614 MM09                                                
    0.000 999%   0.000 Lip20                                               
 1.01E+03  64%   0.443 MM20                                                
    0.000 999%   0.000 MM12                                                
 1.82E+03  28%   0.796 MM14                                                
 3.45E+03   9%   1.514+MM17                                                
    0.000 999%   0.000 Lip13a+Lip13b                                       
 1.82E+03  28%   0.796 MM14+Lip13a+Lip13b+MM12                             
 1.40E+03  20%   0.614 MM09+Lip09                                          
 1.01E+03  64%   0.443 MM20+Lip20                                          
   6 lines in following misc. output table
  FWHM = 0.092 ppm    S/N =   7                                            
  Data shift = 0.008 ppm                                                   
  Ph: -56 deg     -22.9 deg/ppm                                            
  alphaB,S = 5.6E-01,   2.6E+01                                            
   14 spline knots.   Ns =11(1)                                            
  (16) 9 infls.   (21) 5 extrs.                                            
  498 points on ppm-axis = NY
      4.000000     3.992357     3.984714     3.977070     3.969427     3.961784     3.954141     3.946497     3.938854     3.931211
      3.923568     3.915925     3.908281     3.900638     3.892995     3.885352     3.877708     3.870065     3.862422     3.854779
      3.847136     3.839492     3.831849     3.824206     3.816563     3.808919     3.801276     3.793633     3.785990     3.778347
      3.770703     3.763060     3.755417     3.747774     3.740130     3.732487     3.724844     3.717201     3.709558     3.701914
      3.694271     3.686628     3.678985     3.671341     3.663698     3.656055     3.648412     3.640769     3.633125     3.625482
      3.617839     3.610196     3.602552     3.594909     3.587266     3.579623     3.571980     3.564336     3.556693     3.549050
      3.541407     3.533763     3.526120     3.518477     3.510834     3.503191     3.495547     3.487904     3.480261     3.472618
      3.464974     3.457331     3.449688     3.442045     3.434402     3.426758     3.419115     3.411472     3.403829     3.396185
      3.388542     3.380899     3.373256     3.365613     3.357969     3.350326     3.342683     3.335040     3.327396     3.319753
      3.312110     3.304467     3.296824     3.289180     3.281537     3.273894     3.266251     3.258607     3.250964     3.243321
      3.235678     3.228034     3.220391     3.212748     3.205105     3.197462     3.189818     3.182175     3.174532     3.166889
      3.159245     3.151602     3.143959     3.136316     3.128673     3.121029     3.113386     3.105743     3.098100     3.090456
      3.082813     3.075170     3.067527     3.059884     3.052240     3.044597     3.036954     3.029311     3.021667     3.014024
      3.006381     2.998738     2.991095     2.983451     2.975808     2.968165     2.960522     2.952878     2.945235     2.937592
      2.929949     2.922306     2.914662     2.907019     2.899376     2.891733     2.884089     2.876446     2.868803     2.861160
      2.853517     2.845873     2.838230     2.830587     2.822944     2.815300     2.807657     2.800014     2.792371     2.784728
      2.777084     2.769441     2.761798     2.754155     2.746511     2.738868     2.731225     2.723582     2.715939     2.708295
      2.700652     2.693009     2.685366     2.677722     2.670079     2.662436     2.654793     2.647150     2.639506     2.631863
      2.624220     2.616577     2.608933     2.601290     2.593647     2.586004     2.578361     2.570717     2.563074     2.555431
      2.547788     2.540144     2.532501     2.524858     2.517215     2.509572     2.501928     2.494285     2.486642     2.478999
      2.471355     2.463712     2.456069     2.448426     2.440783     2.433139     2.425496     2.417853     2.410210     2.402566
      2.394923     2.387280     2.379637     2.371994     2.364350     2.356707     2.349064     2.341421     2.333777     2.326134
      2.318491     2.310848     2.303205     2.295561     2.287918     2.280275     2.272632     2.264988     2.257345     2.249702
      2.242059     2.234416     2.226772     2.219129     2.211486     2.203843     2.196199     2.188556     2.180913     2.173270
      2.165627     2.157983     2.150340     2.142697     2.135054     2.127410     2.119767     2.112124     2.104481     2.096838
      2.089194     2.081551     2.073908     2.066265     2.058621     2.050978     2.043335     2.035692     2.028049     2.020405
      2.012762     2.005119     1.997476     1.989833     1.982190     1.974546     1.966903     1.959260     1.951617     1.943974
      1.936331     1.928688     1.921045     1.913402     1.905759     1.898115     1.890472     1.882829     1.875186     1.867543
      1.859900     1.852257     1.844614     1.836971     1.829327     1.821684     1.814041     1.806398     1.798755     1.791112
      1.783469     1.775826     1.768183     1.760540     1.752896     1.745253     1.737610     1.729967     1.722324     1.714681
      1.707038     1.699395     1.691752     1.684108     1.676465     1.668822     1.661179     1.653536     1.645893     1.638250
      1.630607     1.622964     1.615321     1.607677     1.600034     1.592391     1.584748     1.577105     1.569462     1.561819
      1.554176     1.546533     1.538890     1.531246     1.523603     1.515960     1.508317     1.500674     1.493031     1.485388
      1.477745     1.470102     1.462458     1.454815     1.447172     1.439529     1.431886     1.424243     1.416600     1.408957
      1.401314     1.393671     1.386027     1.378384     1.370741     1.363098     1.355455     1.347812     1.340169     1.332526
      1.324883     1.317240     1.309596     1.301953     1.294310     1.286667     1.279024     1.271381     1.263738     1.256095
      1.248452     1.240808     1.233165     1.225522     1.217879     1.210236     1.202593     1.194950     1.187307     1.179664
      1.172021     1.164377     1.156734     1.149091     1.141448     1.133805     1.126162     1.118519     1.110876     1.103233
      1.095590     1.087946     1.080303     1.072660     1.065017     1.057374     1.049731     1.042088     1.034445     1.026802
      1.019158     1.011515     1.003872     0.996229     0.988586     0.980943     0.973300     0.965657     0.958014     0.950371
      0.942727     0.935084     0.927441     0.919798     0.912155     0.904512     0.896869     0.889226     0.881583     0.873940
      0.866296     0.858653     0.851010     0.843367     0.835724     0.828081     0.820438     0.812795     0.805152     0.797508
      0.789865     0.782222     0.774579     0.766936     0.759293     0.751650     0.744007     0.736364     0.728721     0.721077
      0.713434     0.705791     0.698148     0.690505     0.682862     0.675219     0.667576     0.659933     0.652290     0.644646
      0.637003     0.629360     0.621717     0.614074     0.606431     0.598788     0.591145     0.583502     0.575858     0.568215
      0.560572     0.552929     0.545286     0.537643     0.530000     0.522357     0.514714     0.507071     0.499427     0.491784
      0.484141     0.476498     0.468855     0.461212     0.453569     0.445925     0.438282     0.430639     0.422996     0.415353
      0.407710     0.400067     0.392424     0.384780     0.377137     0.369494     0.361851     0.354208     0.346565     0.338922
      0.331278     0.323635     0.315992     0.308349     0.300706     0.293063     0.285420     0.277777     0.270133     0.262490
      0.254847     0.247204     0.239561     0.231918     0.224275     0.216631     0.208988     0.201345
 NY phased data points follow
  -1.47800E+02 -1.35399E+02 -1.28644E+02 -1.19904E+02 -1.30292E+02 -1.11440E+02 -1.22783E+02 -1.01385E+02 -1.05233E+02 -1.00205E+02
  -1.09278E+02 -1.03161E+02 -1.03186E+02 -1.10013E+02 -1.17306E+02 -1.11934E+02 -1.18393E+02 -1.18739E+02 -1.23514E+02 -1.11580E+02
  -1.12313E+02 -1.02900E+02 -1.10962E+02 -1.01089E+02 -1.09197E+02 -1.01038E+02 -9.32575E+01 -1.02808E+02 -9.58182E+01 -9.71702E+01
  -9.72292E+01 -9.68691E+01 -1.00842E+02 -8.86887E+01 -9.33735E+01 -1.01025E+02 -9.89599E+01 -1.00979E+02 -9.04964E+01 -8.83604E+01
  -9.07175E+01 -9.18970E+01 -8.71070E+01 -8.50281E+01 -8.53943E+01 -8.24368E+01 -8.93311E+01 -8.85648E+01 -8.24709E+01 -8.14665E+01
  -8.85075E+01 -8.74831E+01 -9.12701E+01 -8.53028E+01 -8.84964E+01 -9.06598E+01 -8.58028E+01 -7.82996E+01 -8.26579E+01 -8.28304E+01
  -8.36018E+01 -8.05468E+01 -8.20108E+01 -7.79179E+01 -8.52074E+01 -8.59247E+01 -8.04987E+01 -7.49161E+01 -8.32419E+01 -6.83181E+01
  -7.82163E+01 -7.30457E+01 -7.76852E+01 -6.83342E+01 -8.26281E+01 -6.16944E+01 -6.67551E+01 -7.48466E+01 -6.25070E+01 -5.87362E+01
  -6.28154E+01 -5.88771E+01 -6.19738E+01 -6.03731E+01 -5.90042E+01 -5.74089E+01 -5.78896E+01 -5.80375E+01 -5.18539E+01 -5.77702E+01
  -4.97369E+01 -4.17897E+01 -5.13473E+01 -3.86004E+01 -4.33160E+01 -2.58045E+01 -2.74983E+01 -2.63748E+01 -2.08876E+01 -1.37468E+01
  -1.48881E+01 -1.00191E+01 -3.66709E+00 -5.28264E+00 -9.18728E+00 -1.68871E+01 -2.19278E+01 -2.84325E+01 -3.58947E+01 -4.62920E+01
  -5.12354E+01 -4.70465E+01 -5.17209E+01 -4.55093E+01 -4.18268E+01 -4.53904E+01 -4.34055E+01 -3.92229E+01 -3.55604E+01 -3.46612E+01
  -3.43461E+01 -2.91598E+01 -2.43116E+01 -2.43812E+01 -1.75375E+01 -8.78323E+00  9.74130E-01 -1.26890E+00  1.11544E+00 -1.32907E+01
  -8.18270E+00 -1.18277E+01 -3.69837E+01 -3.35320E+01 -4.85216E+01 -4.18342E+01 -4.55940E+01 -3.45261E+01 -4.27144E+01 -3.90298E+01
  -4.61587E+01 -4.25820E+01 -4.29629E+01 -4.46868E+01 -4.33619E+01 -3.90613E+01 -4.54377E+01 -4.51771E+01 -4.27321E+01 -3.70326E+01
  -4.03646E+01 -4.15982E+01 -3.06163E+01 -3.40216E+01 -4.21120E+01 -4.10164E+01 -4.46407E+01 -4.08941E+01 -3.95534E+01 -3.55469E+01
  -4.18285E+01 -3.03329E+01 -4.12993E+01 -4.29873E+01 -3.51269E+01 -3.61377E+01 -4.16235E+01 -3.84306E+01 -4.51883E+01 -3.98904E+01
  -4.72071E+01 -4.30474E+01 -4.74079E+01 -4.37673E+01 -4.50111E+01 -3.98299E+01 -3.86082E+01 -4.73463E+01 -4.16699E+01 -4.11331E+01
  -3.90308E+01 -3.35803E+01 -4.03402E+01 -3.69306E+01 -3.58297E+01 -3.33079E+01 -2.99209E+01 -3.34162E+01 -3.46042E+01 -3.05657E+01
  -2.65475E+01 -1.63611E+01 -2.35410E+01 -1.99833E+01 -2.17004E+01 -1.53109E+01 -1.93135E+01 -1.66297E+01 -2.54946E+01 -1.45720E+01
  -2.11570E+01 -1.54879E+01 -1.61186E+01 -1.45432E+01 -2.54475E+01 -1.49883E+01 -1.23637E+01 -1.31260E+01 -2.14407E+01 -1.66613E+01
  -2.12654E+01 -1.48228E+01 -1.37241E+01 -2.00666E+01 -1.12784E+01 -1.49173E+01 -1.44230E+01 -1.11023E+01 -4.79314E+00 -7.90060E+00
  -1.26388E+01 -1.37728E+01 -2.59170E+01 -2.06480E+01 -1.39224E+01 -1.30379E+01 -7.08802E+00 -4.98040E+00 -2.36987E+00  3.05952E-01
  -1.06175E+01  7.71305E-01 -1.12185E+01 -4.35213E+00 -9.09735E+00 -1.02143E+01 -8.61358E+00 -1.23633E+01 -1.03152E+01 -1.33618E+01
  -1.25921E+01 -8.72484E+00 -1.04402E+01 -1.31612E+01 -1.46128E+01 -7.33057E+00 -7.76294E+00 -2.35818E+00  3.01459E-01  3.27220E+00
   1.68523E+01  1.55549E+01  2.41510E+01  3.42767E+01  3.70086E+01  3.69778E+01  5.25378E+01  5.38011E+01  5.59338E+01  6.96381E+01
   6.78221E+01  6.78601E+01  6.91151E+01  6.51055E+01  4.56452E+01  4.02534E+01  2.72583E+01  1.45306E+01  1.01012E+01  1.26482E+01
   1.28926E+01  1.54085E+01  4.45872E+00  1.25313E+01 -2.72466E-01 -2.33361E+00  2.11724E+00  6.29495E-01  5.95502E+00  2.84475E+00
   8.83098E+00  3.62605E-01  1.49939E+00  7.11695E+00  7.63938E+00 -6.97702E+00 -3.50910E-01  7.23391E+00 -2.01877E+00  1.04914E+01
   1.33750E+00 -6.65939E-01  6.48517E+00  5.42613E+00  2.99476E+00  7.04201E-02 -7.29893E-01  5.20354E+00  8.77918E+00  8.30491E+00
   4.97441E+00  1.20183E+01  1.98719E+01  1.14224E+01  1.42071E+01  1.90073E+01  1.34962E+01  2.85622E+01  2.34832E+01  3.25055E+01
   2.69949E+01  2.72541E+01  3.25428E+01  3.94162E+01  2.60131E+01  3.14217E+01  2.49755E+01  3.77313E+01  1.92951E+01  3.05251E+01
   2.32368E+01  2.03417E+01  1.78405E+01  1.94978E+01  1.00161E+01  1.39393E+01  6.75567E+00  9.96514E+00  1.41100E+01  3.62463E+00
   1.17025E+01  3.63474E+00  2.32678E+00  1.98893E+00  1.45157E+00 -1.02935E+00  4.42448E+00 -2.05173E+00  2.84573E+00  4.35352E+00
   3.97046E+00  4.58470E+00  3.06289E+00  2.29439E+00 -5.28875E+00  2.94296E+00  3.25649E+00  1.46318E+00 -1.06668E+01  1.33360E+00
  -9.77147E+00 -1.73752E+01 -9.70939E+00 -8.64670E+00 -1.73833E+01 -1.30019E+01 -1.64706E+01 -1.84835E+01 -1.25155E+01 -1.67839E+01
  -1.64429E+01 -2.24504E+01 -1.99686E+01 -1.75834E+01 -1.95738E+01 -1.55683E+01 -1.97773E+01 -1.19233E+01 -1.56258E+01 -1.20652E+01
  -6.32744E+00 -7.29031E+00 -6.35524E+00 -2.75170E+00 -3.90998E+00 -2.23692E+00 -2.40689E+00 -2.58694E+00 -9.23868E-01 -6.07745E+00
   1.50298E+00  1.11818E+00  7.73119E+00 -6.60103E-01  4.16684E-02  3.52138E+00  1.10286E-01  1.07663E+01 -3.73871E+00  7.97670E+00
  -1.63073E+00  2.19532E+00  3.88361E+00 -8.68124E-01  4.18104E+00 -2.09598E+00  9.50551E+00  1.44680E+00  3.53743E+00  7.68153E+00
   3.82348E+00  4.64981E+00  7.36243E+00  1.30684E+01  9.18712E+00  4.47814E+00  1.28234E+01  1.26963E+01  7.34769E+00  1.20363E+01
   6.09104E+00  9.78829E+00  9.54049E+00  9.14454E+00  1.31715E+01  8.36337E+00  8.82303E+00  7.76796E+00  1.01453E+01  8.20918E+00
   4.63270E+00  6.55715E+00  5.92096E+00  1.05455E+01  4.83070E+00  1.27209E+01  1.07056E+01  1.00370E+01  9.13113E+00  5.71802E+00
   1.05695E+01 -7.56297E-01  1.04064E+01 -1.13126E+00  2.67950E+00  1.96191E+00  3.30319E+00  1.32524E+01  7.59521E+00  5.76810E+00
   4.88724E+00  8.54895E+00  1.06294E+01  1.02080E+01  9.00867E+00  1.43440E+01  1.13411E+01  1.38733E+01  9.36320E+00  2.02201E+01
   1.12072E+01  2.76394E+00  4.19375E+00  4.12142E+00  8.33970E+00  6.26267E+00  5.42615E+00  1.42036E+01  6.88973E+00  7.42612E+00
   1.06593E+01  1.19795E+01  1.25870E+01  8.21112E+00  1.22391E+01  1.31833E+01  7.77937E+00  7.42758E+00  1.55894E+01  5.08878E+00
   2.46005E+00  1.22036E+01  1.37212E+01  7.41204E+00  1.51179E+01  1.65040E+01  9.40264E+00  1.49781E+01  9.64716E+00 -1.03798E+00
   8.57098E+00  9.70280E+00  1.06078E+01  7.20601E+00  6.38934E+00  4.79016E+00  9.71270E+00  1.19803E+01  1.16498E+01  1.17690E+01
   1.02367E+01  1.32651E+01  1.43156E+01  1.38196E+01  4.10419E+00  5.85086E+00  1.48444E+01  5.99204E+00
 NY points of the fit to the data follow
  -1.30279E+02 -1.27383E+02 -1.24495E+02 -1.22400E+02 -1.20276E+02 -1.17518E+02 -1.15130E+02 -1.12502E+02 -1.09611E+02 -1.07466E+02
  -1.06195E+02 -1.06091E+02 -1.06759E+02 -1.08083E+02 -1.10351E+02 -1.12937E+02 -1.15467E+02 -1.16614E+02 -1.15066E+02 -1.12339E+02
  -1.10501E+02 -1.09140E+02 -1.07579E+02 -1.06193E+02 -1.04896E+02 -1.02725E+02 -1.01212E+02 -1.00248E+02 -9.83218E+01 -9.64796E+01
  -9.47127E+01 -9.32040E+01 -9.21838E+01 -9.16791E+01 -9.27170E+01 -9.41835E+01 -9.56069E+01 -9.71421E+01 -9.68813E+01 -9.58270E+01
  -9.38019E+01 -9.20388E+01 -9.11237E+01 -8.90629E+01 -8.75407E+01 -8.64601E+01 -8.57080E+01 -8.54541E+01 -8.51728E+01 -8.53555E+01
  -8.57352E+01 -8.62978E+01 -8.75168E+01 -8.88211E+01 -8.94258E+01 -8.88548E+01 -8.71664E+01 -8.53376E+01 -8.38917E+01 -8.34448E+01
  -8.32850E+01 -8.27820E+01 -8.22317E+01 -8.18541E+01 -8.10157E+01 -7.99906E+01 -7.95853E+01 -7.85814E+01 -7.72380E+01 -7.61672E+01
  -7.50583E+01 -7.40458E+01 -7.34661E+01 -7.30471E+01 -7.21022E+01 -7.00308E+01 -6.79047E+01 -6.72598E+01 -6.62479E+01 -6.50208E+01
  -6.46109E+01 -6.42128E+01 -6.26841E+01 -6.12376E+01 -5.96435E+01 -5.73232E+01 -5.60599E+01 -5.59633E+01 -5.65320E+01 -5.74489E+01
  -5.72117E+01 -5.29771E+01 -4.75748E+01 -4.56031E+01 -4.00211E+01 -3.24861E+01 -2.89309E+01 -2.56359E+01 -2.08646E+01 -1.78482E+01
  -1.33627E+01 -6.85083E+00 -3.43360E+00 -3.75088E+00 -7.33364E+00 -1.29527E+01 -1.99205E+01 -2.95664E+01 -3.96555E+01 -4.71675E+01
  -5.04894E+01 -4.88584E+01 -4.65745E+01 -4.51876E+01 -4.78624E+01 -5.10814E+01 -4.59530E+01 -4.19255E+01 -3.87666E+01 -3.28004E+01
  -2.84007E+01 -2.65452E+01 -2.25555E+01 -1.76073E+01 -1.44321E+01 -9.43277E+00 -4.89702E+00 -3.59262E+00 -4.68911E+00 -8.07951E+00
  -1.25782E+01 -1.89582E+01 -2.74592E+01 -3.49456E+01 -4.03349E+01 -4.09500E+01 -3.92228E+01 -3.75548E+01 -3.76862E+01 -4.17956E+01
  -4.40626E+01 -4.34171E+01 -4.23156E+01 -4.16398E+01 -4.15427E+01 -4.19915E+01 -4.26325E+01 -4.27487E+01 -4.25699E+01 -4.21392E+01
  -4.17589E+01 -4.15690E+01 -4.13343E+01 -4.13698E+01 -4.12409E+01 -4.09162E+01 -4.06591E+01 -4.03297E+01 -4.00401E+01 -3.99666E+01
  -3.99374E+01 -3.98087E+01 -3.96674E+01 -3.94333E+01 -3.91924E+01 -3.91324E+01 -3.90680E+01 -3.87824E+01 -3.86989E+01 -3.89090E+01
  -3.92921E+01 -3.95659E+01 -3.96202E+01 -3.93539E+01 -3.90165E+01 -3.88188E+01 -3.87542E+01 -3.87205E+01 -3.80907E+01 -3.71846E+01
  -3.62085E+01 -3.48381E+01 -3.35756E+01 -3.27751E+01 -3.20391E+01 -3.16826E+01 -3.12176E+01 -3.01757E+01 -2.87051E+01 -2.73194E+01
  -2.60701E+01 -2.47336E+01 -2.36055E+01 -2.25519E+01 -2.16335E+01 -2.14284E+01 -2.15708E+01 -2.12199E+01 -2.05210E+01 -2.03095E+01
  -1.91194E+01 -1.77362E+01 -1.75794E+01 -1.72742E+01 -1.64000E+01 -1.59438E+01 -1.65549E+01 -1.75485E+01 -1.84311E+01 -1.92917E+01
  -1.99763E+01 -2.03087E+01 -1.95473E+01 -1.77897E+01 -1.50515E+01 -1.22176E+01 -1.04180E+01 -9.84619E+00 -1.15773E+01 -1.42090E+01
  -1.68788E+01 -1.98048E+01 -2.07442E+01 -2.01446E+01 -1.83501E+01 -1.50393E+01 -1.10285E+01 -7.76877E+00 -6.16002E+00 -5.27268E+00
  -4.91994E+00 -6.11962E+00 -8.11735E+00 -8.60060E+00 -8.12820E+00 -7.25553E+00 -6.30243E+00 -5.44568E+00 -5.10999E+00 -5.61817E+00
  -6.13910E+00 -6.91944E+00 -7.85656E+00 -8.08592E+00 -7.89969E+00 -7.37338E+00 -6.41666E+00 -4.89185E+00 -1.96170E+00  5.14390E+00
   1.53105E+01  1.96732E+01  2.61388E+01  3.47416E+01  3.90386E+01  4.22559E+01  4.90186E+01  5.44818E+01  5.88525E+01  6.60545E+01
   7.03681E+01  7.03050E+01  6.66101E+01  6.03366E+01  5.19999E+01  3.95646E+01  2.56149E+01  1.44647E+01  8.18735E+00  9.22102E+00
   1.16826E+01  1.33826E+01  1.01469E+01  2.79545E+00 -9.63168E-03 -5.48261E-01 -7.91618E-01 -9.34358E-01 -9.30027E-01 -1.10150E+00
  -1.36816E+00 -1.61454E+00 -1.76102E+00 -1.79872E+00 -1.73854E+00 -1.65580E+00 -1.61079E+00 -1.56879E+00 -1.47483E+00 -1.34225E+00
  -1.14948E+00 -8.68895E-01 -4.66324E-01  9.41352E-02  7.88254E-01  1.63247E+00  2.65047E+00  3.85193E+00  5.24522E+00  6.83177E+00
   8.60281E+00  1.05432E+01  1.26173E+01  1.47856E+01  1.69994E+01  1.91970E+01  2.13147E+01  2.32882E+01  2.50520E+01  2.65490E+01
   2.77320E+01  2.85698E+01  2.90493E+01  2.91787E+01  2.89974E+01  2.86061E+01  2.81724E+01  2.71889E+01  2.55551E+01  2.40534E+01
   2.22571E+01  2.00010E+01  1.78776E+01  1.59009E+01  1.40684E+01  1.28706E+01  1.14275E+01  9.79267E+00  8.37457E+00  6.73800E+00
   5.02839E+00  3.75243E+00  2.63687E+00  1.98627E+00  2.30778E+00  3.19251E+00  4.12720E+00  4.46467E+00  4.23439E+00  3.44920E+00
   2.39164E+00  1.38357E+00  1.59210E-01 -1.07018E+00 -1.75370E+00 -2.10352E+00 -2.21074E+00 -2.54664E+00 -3.40729E+00 -4.09723E+00
  -4.59977E+00 -5.00126E+00 -5.33260E+00 -5.60771E+00 -5.83561E+00 -6.02202E+00 -6.17208E+00 -6.28946E+00 -6.37800E+00 -6.44034E+00
  -6.47926E+00 -6.49636E+00 -6.49361E+00 -6.47228E+00 -6.43427E+00 -6.38049E+00 -6.31217E+00 -6.22962E+00 -6.13368E+00 -6.02446E+00
  -5.90258E+00 -5.76778E+00 -5.62018E+00 -5.45908E+00 -5.28438E+00 -5.09524E+00 -4.89125E+00 -4.67108E+00 -4.43375E+00 -4.17750E+00
  -3.90112E+00 -3.60258E+00 -3.28026E+00 -2.93169E+00 -2.55494E+00 -2.14756E+00 -1.70793E+00 -1.23408E+00 -7.25006E-01 -1.79661E-01
   4.01544E-01  1.01765E+00  1.66587E+00  2.34264E+00  3.04241E+00  3.75868E+00  4.48281E+00  5.20528E+00  5.91486E+00  6.60015E+00
   7.24891E+00  7.84953E+00  8.39043E+00  8.86175E+00  9.25482E+00  9.56372E+00  9.78456E+00  9.91656E+00  9.96116E+00  9.92299E+00
   9.80867E+00  9.62740E+00  9.38941E+00  9.10643E+00  8.79008E+00  8.45249E+00  8.10481E+00  7.75781E+00  7.42043E+00  7.10059E+00
   6.80415E+00  6.53592E+00  6.29879E+00  6.09476E+00  5.92407E+00  5.78641E+00  5.68022E+00  5.60393E+00  5.55510E+00  5.53154E+00
   5.53041E+00  5.54933E+00  5.58561E+00  5.63724E+00  5.70191E+00  5.77793E+00  5.86331E+00  5.95670E+00  6.05657E+00  6.16203E+00
   6.27189E+00  6.38547E+00  6.50173E+00  6.62022E+00  6.74020E+00  6.86144E+00  6.98329E+00  7.10554E+00  7.22760E+00  7.34939E+00
   7.47050E+00  7.59092E+00  7.71022E+00  7.82838E+00  7.94514E+00  8.06065E+00  8.17475E+00  8.28762E+00  8.39900E+00  8.50903E+00
   8.61754E+00  8.72477E+00  8.83057E+00  8.93514E+00  9.03828E+00  9.14018E+00  9.24070E+00  9.34013E+00  9.43831E+00  9.53542E+00
   9.63130E+00  9.72617E+00  9.81993E+00  9.91285E+00  1.00048E+01  1.00960E+01  1.01862E+01  1.02757E+01  1.03645E+01  1.04527E+01
   1.05403E+01  1.06274E+01  1.07139E+01  1.08001E+01  1.08859E+01  1.09715E+01  1.10568E+01  1.11420E+01  1.12271E+01  1.13122E+01
   1.13974E+01  1.14828E+01  1.15683E+01  1.16541E+01  1.17403E+01  1.18271E+01  1.19144E+01  1.20025E+01
 NY background values follow
    -1.459E+02   -1.450E+02   -1.441E+02   -1.432E+02   -1.423E+02   -1.414E+02   -1.405E+02   -1.397E+02   -1.388E+02   -1.379E+02
    -1.370E+02   -1.361E+02   -1.352E+02   -1.344E+02   -1.335E+02   -1.326E+02   -1.317E+02   -1.308E+02   -1.300E+02   -1.291E+02
    -1.282E+02   -1.273E+02   -1.265E+02   -1.256E+02   -1.247E+02   -1.239E+02   -1.230E+02   -1.221E+02   -1.213E+02   -1.204E+02
    -1.195E+02   -1.187E+02   -1.178E+02   -1.170E+02   -1.161E+02   -1.153E+02   -1.144E+02   -1.136E+02   -1.128E+02   -1.119E+02
    -1.111E+02   -1.103E+02   -1.094E+02   -1.086E+02   -1.078E+02   -1.070E+02   -1.061E+02   -1.053E+02   -1.045E+02   -1.037E+02
    -1.029E+02   -1.021E+02   -1.013E+02   -1.005E+02   -9.973E+01   -9.894E+01   -9.816E+01   -9.738E+01   -9.661E+01   -9.583E+01
    -9.507E+01   -9.430E+01   -9.354E+01   -9.278E+01   -9.203E+01   -9.128E+01   -9.054E+01   -8.980E+01   -8.906E+01   -8.833E+01
    -8.760E+01   -8.687E+01   -8.615E+01   -8.543E+01   -8.472E+01   -8.401E+01   -8.331E+01   -8.261E+01   -8.192E+01   -8.123E+01
    -8.054E+01   -7.986E+01   -7.918E+01   -7.851E+01   -7.784E+01   -7.718E+01   -7.652E+01   -7.587E+01   -7.522E+01   -7.457E+01
    -7.393E+01   -7.330E+01   -7.267E+01   -7.204E+01   -7.142E+01   -7.081E+01   -7.020E+01   -6.959E+01   -6.899E+01   -6.839E+01
    -6.780E+01   -6.721E+01   -6.663E+01   -6.605E+01   -6.547E+01   -6.490E+01   -6.434E+01   -6.377E+01   -6.321E+01   -6.266E+01
    -6.211E+01   -6.156E+01   -6.101E+01   -6.047E+01   -5.994E+01   -5.940E+01   -5.887E+01   -5.835E+01   -5.782E+01   -5.730E+01
    -5.679E+01   -5.627E+01   -5.576E+01   -5.526E+01   -5.475E+01   -5.425E+01   -5.375E+01   -5.326E+01   -5.276E+01   -5.227E+01
    -5.179E+01   -5.130E+01   -5.082E+01   -5.034E+01   -4.987E+01   -4.939E+01   -4.892E+01   -4.845E+01   -4.798E+01   -4.752E+01
    -4.705E+01   -4.659E+01   -4.613E+01   -4.568E+01   -4.522E+01   -4.477E+01   -4.432E+01   -4.387E+01   -4.342E+01   -4.298E+01
    -4.254E+01   -4.210E+01   -4.166E+01   -4.122E+01   -4.079E+01   -4.036E+01   -3.992E+01   -3.950E+01   -3.907E+01   -3.864E+01
    -3.822E+01   -3.780E+01   -3.738E+01   -3.696E+01   -3.654E+01   -3.613E+01   -3.571E+01   -3.530E+01   -3.489E+01   -3.448E+01
    -3.408E+01   -3.367E+01   -3.327E+01   -3.286E+01   -3.246E+01   -3.206E+01   -3.166E+01   -3.126E+01   -3.087E+01   -3.047E+01
    -3.008E+01   -2.969E+01   -2.930E+01   -2.891E+01   -2.852E+01   -2.813E+01   -2.775E+01   -2.736E+01   -2.698E+01   -2.660E+01
    -2.622E+01   -2.585E+01   -2.547E+01   -2.510E+01   -2.472E+01   -2.435E+01   -2.399E+01   -2.362E+01   -2.325E+01   -2.289E+01
    -2.253E+01   -2.217E+01   -2.182E+01   -2.147E+01   -2.111E+01   -2.077E+01   -2.042E+01   -2.008E+01   -1.973E+01   -1.940E+01
    -1.906E+01   -1.873E+01   -1.839E+01   -1.807E+01   -1.774E+01   -1.742E+01   -1.710E+01   -1.678E+01   -1.647E+01   -1.616E+01
    -1.585E+01   -1.554E+01   -1.524E+01   -1.494E+01   -1.465E+01   -1.436E+01   -1.407E+01   -1.378E+01   -1.350E+01   -1.322E+01
    -1.295E+01   -1.268E+01   -1.241E+01   -1.215E+01   -1.188E+01   -1.163E+01   -1.138E+01   -1.113E+01   -1.088E+01   -1.064E+01
    -1.040E+01   -1.017E+01   -9.943E+00   -9.718E+00   -9.498E+00   -9.282E+00   -9.070E+00   -8.862E+00   -8.659E+00   -8.460E+00
    -8.266E+00   -8.076E+00   -7.891E+00   -7.710E+00   -7.534E+00   -7.363E+00   -7.196E+00   -7.035E+00   -6.878E+00   -6.726E+00
    -6.579E+00   -6.437E+00   -6.300E+00   -6.168E+00   -6.041E+00   -5.919E+00   -5.803E+00   -5.692E+00   -5.586E+00   -5.485E+00
    -5.390E+00   -5.301E+00   -5.217E+00   -5.138E+00   -5.065E+00   -4.997E+00   -4.934E+00   -4.876E+00   -4.823E+00   -4.775E+00
    -4.732E+00   -4.694E+00   -4.660E+00   -4.632E+00   -4.607E+00   -4.587E+00   -4.571E+00   -4.560E+00   -4.553E+00   -4.550E+00
    -4.551E+00   -4.556E+00   -4.564E+00   -4.577E+00   -4.593E+00   -4.613E+00   -4.636E+00   -4.663E+00   -4.693E+00   -4.726E+00
    -4.762E+00   -4.802E+00   -4.845E+00   -4.890E+00   -4.939E+00   -4.990E+00   -5.044E+00   -5.100E+00   -5.159E+00   -5.220E+00
    -5.284E+00   -5.350E+00   -5.418E+00   -5.489E+00   -5.561E+00   -5.635E+00   -5.711E+00   -5.789E+00   -5.869E+00   -5.950E+00
    -6.032E+00   -6.115E+00   -6.199E+00   -6.283E+00   -6.368E+00   -6.453E+00   -6.538E+00   -6.623E+00   -6.707E+00   -6.791E+00
    -6.874E+00   -6.956E+00   -7.037E+00   -7.117E+00   -7.195E+00   -7.271E+00   -7.345E+00   -7.416E+00   -7.486E+00   -7.553E+00
    -7.617E+00   -7.678E+00   -7.736E+00   -7.790E+00   -7.841E+00   -7.888E+00   -7.931E+00   -7.970E+00   -8.004E+00   -8.034E+00
    -8.059E+00   -8.079E+00   -8.093E+00   -8.103E+00   -8.106E+00   -8.104E+00   -8.096E+00   -8.082E+00   -8.061E+00   -8.034E+00
    -8.000E+00   -7.959E+00   -7.911E+00   -7.855E+00   -7.793E+00   -7.723E+00   -7.647E+00   -7.564E+00   -7.475E+00   -7.380E+00
    -7.279E+00   -7.172E+00   -7.059E+00   -6.941E+00   -6.817E+00   -6.688E+00   -6.555E+00   -6.416E+00   -6.273E+00   -6.125E+00
    -5.973E+00   -5.817E+00   -5.656E+00   -5.492E+00   -5.324E+00   -5.153E+00   -4.979E+00   -4.801E+00   -4.620E+00   -4.437E+00
    -4.251E+00   -4.062E+00   -3.871E+00   -3.678E+00   -3.483E+00   -3.286E+00   -3.088E+00   -2.888E+00   -2.687E+00   -2.485E+00
    -2.281E+00   -2.077E+00   -1.873E+00   -1.668E+00   -1.463E+00   -1.257E+00   -1.052E+00   -8.468E-01   -6.421E-01   -4.378E-01
    -2.339E-01   -3.057E-02    1.722E-01    3.744E-01    5.759E-01    7.766E-01    9.767E-01    1.176E+00    1.374E+00    1.572E+00
     1.768E+00    1.964E+00    2.158E+00    2.351E+00    2.543E+00    2.734E+00    2.924E+00    3.112E+00    3.299E+00    3.485E+00
     3.669E+00    3.852E+00    4.033E+00    4.212E+00    4.390E+00    4.566E+00    4.741E+00    4.913E+00    5.084E+00    5.253E+00
     5.419E+00    5.584E+00    5.747E+00    5.908E+00    6.066E+00    6.222E+00    6.376E+00    6.528E+00    6.678E+00    6.825E+00
     6.969E+00    7.111E+00    7.251E+00    7.387E+00    7.522E+00    7.654E+00    7.783E+00    7.911E+00    8.036E+00    8.158E+00
     8.279E+00    8.398E+00    8.514E+00    8.629E+00    8.742E+00    8.853E+00    8.962E+00    9.070E+00    9.176E+00    9.280E+00
     9.383E+00    9.485E+00    9.585E+00    9.684E+00    9.782E+00    9.879E+00    9.974E+00    1.007E+01    1.016E+01    1.026E+01
     1.035E+01    1.044E+01    1.053E+01    1.062E+01    1.071E+01    1.080E+01    1.089E+01    1.097E+01    1.106E+01    1.115E+01
     1.124E+01    1.132E+01    1.141E+01    1.150E+01    1.159E+01    1.167E+01    1.176E+01    1.185E+01
 Ala      Conc. = 6.13E+02
