 LCModel (Version 6.3-1L) Copyright: S.W. Provencher.          Ref.: Magn. Reson. Med. 30:672-679 (1993).                
 Slice#3 Row#7 Col#4  PD_24_press_2_raw_act
 36 lines in following concentration table = NCONC+1
    Conc.  %SD /Cr+PCr  Metabolite                                         
   11.136 999% 5.1E-03 Ala                                                 
    0.000 999%   0.000 Asp                                                 
  674.213  59%   0.310 Cr                                                  
 1.50E+03  27%   0.690 PCr                                                 
    0.000 999%   0.000 GABA                                                
  608.468  47%   0.279 Glc                                                 
  635.328  61%   0.292 Gln                                                 
 1.98E+03  22%   0.909 Glu                                                 
 1.16E+03   4%   0.533 GPC                                                 
    0.000 999%   0.000 PCh                                                 
  815.183  17%   0.374 GSH                                                 
 3.15E+03  16%   1.446 Ins                                                 
  396.122  53%   0.182 Lac                                                 
 3.59E+03   5%   1.649 NAA                                                 
  265.696  75%   0.122 NAAG                                                
  334.816  16%   0.154 Scyllo                                              
  740.185  55%   0.340 Tau                                                 
  230.362  92%   0.106 -CrCH2                                              
 1.16E+03   4%   0.533 GPC+PCh                                             
 3.86E+03   4%   1.771 NAA+NAAG                                            
 2.18E+03   5%   1.000 Cr+PCr                                              
 2.61E+03  23%   1.201 Glu+Gln                                             
    0.000 999%   0.000 Lip13a                                              
  650.935  58%   0.299 Lip13b                                              
    0.000 999%   0.000 Lip09                                               
 1.76E+03  19%   0.807 MM09                                                
  153.978 125% 7.1E-02 Lip20                                               
 2.90E+03  21%   1.332 MM20                                                
  593.268  32%   0.272 MM12                                                
    0.000 999%   0.000 MM14                                                
 2.96E+03   8%   1.359+MM17                                                
  650.935  58%   0.299 Lip13a+Lip13b                                       
 1.24E+03  33%   0.571 MM14+Lip13a+Lip13b+MM12                             
 1.76E+03  19%   0.807 MM09+Lip09                                          
 3.06E+03  20%   1.403 MM20+Lip20                                          
   6 lines in following misc. output table
  FWHM = 0.054 ppm    S/N =  10                                            
  Data shift = 0.023 ppm                                                   
  Ph: -45 deg     -16.0 deg/ppm                                            
  alphaB,S = 9.1E-01,   9.9E+01                                            
   14 spline knots.   Ns = 6(1)                                            
  (10) 2 infls.   ( 5) 1 extrs.                                            
  498 points on ppm-axis = NY
      4.000000     3.992357     3.984714     3.977070     3.969427     3.961784     3.954141     3.946497     3.938854     3.931211
      3.923568     3.915925     3.908281     3.900638     3.892995     3.885352     3.877708     3.870065     3.862422     3.854779
      3.847136     3.839492     3.831849     3.824206     3.816563     3.808919     3.801276     3.793633     3.785990     3.778347
      3.770703     3.763060     3.755417     3.747774     3.740130     3.732487     3.724844     3.717201     3.709558     3.701914
      3.694271     3.686628     3.678985     3.671341     3.663698     3.656055     3.648412     3.640769     3.633125     3.625482
      3.617839     3.610196     3.602552     3.594909     3.587266     3.579623     3.571980     3.564336     3.556693     3.549050
      3.541407     3.533763     3.526120     3.518477     3.510834     3.503191     3.495547     3.487904     3.480261     3.472618
      3.464974     3.457331     3.449688     3.442045     3.434402     3.426758     3.419115     3.411472     3.403829     3.396185
      3.388542     3.380899     3.373256     3.365613     3.357969     3.350326     3.342683     3.335040     3.327396     3.319753
      3.312110     3.304467     3.296824     3.289180     3.281537     3.273894     3.266251     3.258607     3.250964     3.243321
      3.235678     3.228034     3.220391     3.212748     3.205105     3.197462     3.189818     3.182175     3.174532     3.166889
      3.159245     3.151602     3.143959     3.136316     3.128673     3.121029     3.113386     3.105743     3.098100     3.090456
      3.082813     3.075170     3.067527     3.059884     3.052240     3.044597     3.036954     3.029311     3.021667     3.014024
      3.006381     2.998738     2.991095     2.983451     2.975808     2.968165     2.960522     2.952878     2.945235     2.937592
      2.929949     2.922306     2.914662     2.907019     2.899376     2.891733     2.884089     2.876446     2.868803     2.861160
      2.853517     2.845873     2.838230     2.830587     2.822944     2.815300     2.807657     2.800014     2.792371     2.784728
      2.777084     2.769441     2.761798     2.754155     2.746511     2.738868     2.731225     2.723582     2.715939     2.708295
      2.700652     2.693009     2.685366     2.677722     2.670079     2.662436     2.654793     2.647150     2.639506     2.631863
      2.624220     2.616577     2.608933     2.601290     2.593647     2.586004     2.578361     2.570717     2.563074     2.555431
      2.547788     2.540144     2.532501     2.524858     2.517215     2.509572     2.501928     2.494285     2.486642     2.478999
      2.471355     2.463712     2.456069     2.448426     2.440783     2.433139     2.425496     2.417853     2.410210     2.402566
      2.394923     2.387280     2.379637     2.371994     2.364350     2.356707     2.349064     2.341421     2.333777     2.326134
      2.318491     2.310848     2.303205     2.295561     2.287918     2.280275     2.272632     2.264988     2.257345     2.249702
      2.242059     2.234416     2.226772     2.219129     2.211486     2.203843     2.196199     2.188556     2.180913     2.173270
      2.165627     2.157983     2.150340     2.142697     2.135054     2.127410     2.119767     2.112124     2.104481     2.096838
      2.089194     2.081551     2.073908     2.066265     2.058621     2.050978     2.043335     2.035692     2.028049     2.020405
      2.012762     2.005119     1.997476     1.989833     1.982190     1.974546     1.966903     1.959260     1.951617     1.943974
      1.936331     1.928688     1.921045     1.913402     1.905759     1.898115     1.890472     1.882829     1.875186     1.867543
      1.859900     1.852257     1.844614     1.836971     1.829327     1.821684     1.814041     1.806398     1.798755     1.791112
      1.783469     1.775826     1.768183     1.760540     1.752896     1.745253     1.737610     1.729967     1.722324     1.714681
      1.707038     1.699395     1.691752     1.684108     1.676465     1.668822     1.661179     1.653536     1.645893     1.638250
      1.630607     1.622964     1.615321     1.607677     1.600034     1.592391     1.584748     1.577105     1.569462     1.561819
      1.554176     1.546533     1.538890     1.531246     1.523603     1.515960     1.508317     1.500674     1.493031     1.485388
      1.477745     1.470102     1.462458     1.454815     1.447172     1.439529     1.431886     1.424243     1.416600     1.408957
      1.401314     1.393671     1.386027     1.378384     1.370741     1.363098     1.355455     1.347812     1.340169     1.332526
      1.324883     1.317240     1.309596     1.301953     1.294310     1.286667     1.279024     1.271381     1.263738     1.256095
      1.248452     1.240808     1.233165     1.225522     1.217879     1.210236     1.202593     1.194950     1.187307     1.179664
      1.172021     1.164377     1.156734     1.149091     1.141448     1.133805     1.126162     1.118519     1.110876     1.103233
      1.095590     1.087946     1.080303     1.072660     1.065017     1.057374     1.049731     1.042088     1.034445     1.026802
      1.019158     1.011515     1.003872     0.996229     0.988586     0.980943     0.973300     0.965657     0.958014     0.950371
      0.942727     0.935084     0.927441     0.919798     0.912155     0.904512     0.896869     0.889226     0.881583     0.873940
      0.866296     0.858653     0.851010     0.843367     0.835724     0.828081     0.820438     0.812795     0.805152     0.797508
      0.789865     0.782222     0.774579     0.766936     0.759293     0.751650     0.744007     0.736364     0.728721     0.721077
      0.713434     0.705791     0.698148     0.690505     0.682862     0.675219     0.667576     0.659933     0.652290     0.644646
      0.637003     0.629360     0.621717     0.614074     0.606431     0.598788     0.591145     0.583502     0.575858     0.568215
      0.560572     0.552929     0.545286     0.537643     0.530000     0.522357     0.514714     0.507071     0.499427     0.491784
      0.484141     0.476498     0.468855     0.461212     0.453569     0.445925     0.438282     0.430639     0.422996     0.415353
      0.407710     0.400067     0.392424     0.384780     0.377137     0.369494     0.361851     0.354208     0.346565     0.338922
      0.331278     0.323635     0.315992     0.308349     0.300706     0.293063     0.285420     0.277777     0.270133     0.262490
      0.254847     0.247204     0.239561     0.231918     0.224275     0.216631     0.208988     0.201345
 NY phased data points follow
  -1.82003E+02 -1.81257E+02 -1.76539E+02 -1.68399E+02 -1.51054E+02 -1.46372E+02 -1.21315E+02 -1.20756E+02 -1.03224E+02 -1.10159E+02
  -9.60965E+01 -1.13155E+02 -1.13336E+02 -1.18851E+02 -1.26140E+02 -1.38864E+02 -1.42546E+02 -1.45821E+02 -1.41876E+02 -1.43173E+02
  -1.44687E+02 -1.43355E+02 -1.37070E+02 -1.31242E+02 -1.22834E+02 -1.29650E+02 -1.11599E+02 -1.18527E+02 -1.03920E+02 -1.06772E+02
  -1.01439E+02 -1.16649E+02 -1.08714E+02 -1.18292E+02 -1.12695E+02 -1.12223E+02 -1.06502E+02 -9.82947E+01 -1.06609E+02 -1.10902E+02
  -1.05045E+02 -1.15848E+02 -9.80856E+01 -1.02249E+02 -9.49324E+01 -9.14248E+01 -8.61863E+01 -7.92472E+01 -9.39404E+01 -9.76883E+01
  -9.25297E+01 -1.06065E+02 -9.81063E+01 -1.00604E+02 -8.77473E+01 -8.82478E+01 -9.38634E+01 -8.23932E+01 -9.17513E+01 -9.27075E+01
  -9.74944E+01 -9.52705E+01 -1.03573E+02 -9.65959E+01 -1.00254E+02 -1.00778E+02 -9.81913E+01 -9.34869E+01 -8.80338E+01 -8.28186E+01
  -8.99598E+01 -7.87263E+01 -7.39927E+01 -8.11110E+01 -7.84852E+01 -8.18222E+01 -7.47585E+01 -8.38735E+01 -7.97813E+01 -7.86565E+01
  -7.18250E+01 -6.89951E+01 -6.12304E+01 -6.98087E+01 -6.95005E+01 -6.40915E+01 -6.19830E+01 -7.01348E+01 -6.25138E+01 -6.36302E+01
  -6.74218E+01 -7.24753E+01 -6.02148E+01 -6.76751E+01 -5.84391E+01 -5.44968E+01 -4.85025E+01 -5.18193E+01 -1.94350E+01 -9.70180E+00
   3.05869E+00  4.19479E+01  4.99719E+01  3.86155E+01  2.94055E+01 -7.76332E+00 -2.12089E+01 -2.87558E+01 -3.74265E+01 -4.77688E+01
  -5.52755E+01 -6.65803E+01 -5.61162E+01 -5.91760E+01 -6.57158E+01 -5.71925E+01 -5.92109E+01 -5.77737E+01 -4.98568E+01 -6.04230E+01
  -6.56071E+01 -5.55859E+01 -3.51778E+01 -2.27484E+01 -5.95016E+00  9.41899E+00  3.59143E+01  2.39597E+01  8.32515E+00 -7.32245E+00
  -1.92708E+01 -2.33573E+01 -2.34029E+01 -3.93616E+01 -4.21864E+01 -5.24705E+01 -5.41539E+01 -5.37804E+01 -4.63837E+01 -5.43272E+01
  -4.73971E+01 -5.03286E+01 -4.39975E+01 -5.54998E+01 -3.54695E+01 -5.64429E+01 -4.84480E+01 -5.42851E+01 -4.81536E+01 -4.53770E+01
  -4.61867E+01 -4.60173E+01 -3.58391E+01 -4.95200E+01 -4.26070E+01 -4.37825E+01 -4.14750E+01 -4.47661E+01 -4.03559E+01 -4.15134E+01
  -3.71726E+01 -3.16460E+01 -3.56474E+01 -4.05677E+01 -2.94942E+01 -4.05218E+01 -3.33748E+01 -3.50370E+01 -3.65184E+01 -3.63750E+01
  -3.30962E+01 -4.86069E+01 -4.62136E+01 -5.51981E+01 -5.35844E+01 -5.11506E+01 -5.13846E+01 -4.76319E+01 -4.56574E+01 -5.00696E+01
  -5.25454E+01 -5.11786E+01 -4.77112E+01 -4.94927E+01 -5.05074E+01 -5.33455E+01 -3.93319E+01 -3.70801E+01 -2.85663E+01 -3.27011E+01
  -2.74402E+01 -2.77473E+01 -1.81914E+01 -1.49550E+01 -1.63493E+01 -2.26043E+01 -1.62535E+01 -2.73668E+01 -2.55989E+01 -2.75995E+01
  -3.14360E+01 -2.18210E+01 -2.54941E+01 -1.76293E+01 -2.93378E+01 -2.69187E+01 -2.93320E+01 -3.22551E+01 -3.26655E+01 -3.23459E+01
  -3.98703E+01 -2.37857E+01 -2.18459E+01 -1.99972E+01 -1.28207E+01 -1.20002E+01 -9.42968E+00 -1.09342E+01 -1.11496E+01 -1.76875E+01
  -1.90196E+01 -2.88009E+01 -2.57029E+01 -1.88435E+01 -2.81632E+01 -2.41049E+01 -1.02348E+01 -1.64081E+01 -1.27518E+01 -3.87085E+00
  -3.16589E+00 -8.79115E+00 -5.09705E+00 -6.98497E+00 -8.35577E+00 -1.61902E+01 -7.65813E+00 -6.88923E+00 -1.02898E+01 -1.08115E+01
  -6.74572E+00 -1.72503E+01 -1.40842E+01 -1.22604E+01 -1.22362E+01 -1.42418E+01 -5.14475E+00 -2.67207E+00  8.73063E+00  4.77897E+00
   8.27052E+00  1.03431E+00  4.71545E+00  9.16796E+00  2.25480E+01  3.75339E+01  5.50482E+01  7.81434E+01  9.99570E+01  1.19240E+02
   1.22984E+02  1.14332E+02  9.78846E+01  7.13852E+01  6.82735E+01  3.85175E+01  1.22583E+01  9.72258E+00  1.74064E+01  6.22095E+00
   4.34962E+00  7.80022E+00 -2.62375E+00  5.70607E-01  6.98799E+00 -4.72007E+00  3.01899E+00 -7.60098E-01 -8.78994E-01  1.10345E+00
  -1.45373E+00 -2.80576E+00 -3.03753E+00 -8.66409E+00 -2.06575E+00 -9.01279E-02  9.77392E+00  7.46426E+00  4.35381E+00  1.37793E+00
   5.53243E+00  8.77847E+00  8.76647E+00  1.00139E+01  1.06357E+01  1.11622E+01  1.50660E+01  1.37814E+01  2.21169E+01  1.19235E+01
   2.00756E+01  1.68383E+01  2.43586E+01  2.32916E+01  2.58756E+01  3.05005E+01  2.97737E+01  2.84443E+01  2.70797E+01  2.62416E+01
   1.60304E+01  7.62320E+00  1.13838E+01  1.44886E+01  8.18204E+00  1.03240E+01  5.16194E+00 -1.13480E+00 -6.27231E+00 -3.87090E+00
  -8.76504E-01 -7.71044E+00 -1.69601E+00 -7.27998E+00 -1.11124E+01 -1.39626E+01 -7.88874E+00 -1.24235E+01 -1.15313E+01 -1.26769E+01
  -2.48908E+00 -8.62038E+00 -8.69544E+00 -4.92237E+00  2.55044E+00 -6.74313E+00 -2.48902E+00  2.38937E+00  2.81184E+00 -3.01708E+00
   1.78360E+00  3.41758E+00 -5.70404E+00  1.23247E+01  6.01668E+00 -1.63896E+00  5.76455E+00 -3.70988E+00 -2.75646E+00 -1.10766E+00
  -7.00615E+00  8.71798E-01  7.75598E+00  9.76576E+00  4.24531E+00  8.27298E+00  6.16104E+00  1.50994E+01  8.10039E+00  1.39203E+01
   9.20508E+00  6.48814E+00  7.08818E+00  8.29982E+00  8.21012E+00  6.13839E+00  1.25695E+01  1.00289E+01  6.92681E+00  6.43592E+00
   7.37784E+00  7.96557E+00  4.35698E+00 -1.69403E+00  9.61618E+00  5.55671E+00  3.64625E+00  5.45666E+00  2.28883E+00  7.40306E+00
   9.44489E+00  8.39142E+00  1.46831E+01  3.22894E+00  7.83825E-01  5.86886E+00  1.23790E+01  8.32703E+00  8.78317E+00  3.98103E+00
   1.41413E+00  8.17953E+00  1.51335E+01  8.02887E+00  3.06534E+00  1.55902E+01  1.20026E+01  1.28713E+01  7.04073E+00  5.23144E+00
   1.30699E+01  5.71814E+00  1.41192E+01  2.19338E+01  1.93940E+01  1.19692E+01  1.87037E+01  1.69126E+01  2.12967E+01  8.64828E+00
   7.38573E+00  1.23677E+01  1.47477E+01  6.22057E-01  1.24579E+01  2.42459E+00  3.79746E+00  1.05395E+01  3.74036E+00  1.29938E+01
   7.60111E+00  4.06520E+00  1.16807E+01  6.57121E+00  1.85657E+00  1.04851E+00  6.34959E+00  9.60828E+00  1.00931E+01  9.23428E+00
   5.80347E+00  1.21421E+01  7.17695E+00  5.63698E+00  1.07977E+01  5.94945E+00  2.64752E+00  8.64799E+00  2.94171E+00  3.06523E+00
   8.04625E+00  5.01505E+00  8.71534E+00  4.38455E+00  5.36739E+00  9.14456E+00  1.63731E+01  6.49475E+00  4.79971E+00  5.02014E+00
   9.89980E+00  7.24358E+00  1.50623E+00  4.73643E+00  9.41390E+00  6.15880E+00  3.27961E+00  1.05020E+01  6.55973E+00  4.90552E+00
   9.35534E+00  1.13528E+01  9.31754E+00  1.06615E+01  2.04492E+00  1.22694E+01  1.17748E+01  4.67209E+00  8.28608E+00  8.10804E+00
   1.19001E+01  1.30775E+01  1.08543E+01  4.69088E+00  7.40108E+00  1.19439E+01  1.14767E+01  1.08469E+01  1.50790E+01  1.43224E+01
   1.99797E+01  1.70341E+01  8.85492E+00  7.29693E+00  1.00748E+01  5.89136E+00  6.74542E+00  1.50243E+01  1.87305E+01  6.55630E+00
   8.15168E+00  1.65710E+01  2.21379E+01  1.23237E+01  1.69051E+01  8.93369E+00  1.22126E+01  1.25602E+01
 NY points of the fit to the data follow
  -1.62058E+02 -1.60842E+02 -1.58808E+02 -1.54646E+02 -1.47653E+02 -1.38588E+02 -1.28404E+02 -1.18186E+02 -1.09607E+02 -1.04850E+02
  -1.05056E+02 -1.09399E+02 -1.15685E+02 -1.21916E+02 -1.27273E+02 -1.31700E+02 -1.35269E+02 -1.37546E+02 -1.38468E+02 -1.38449E+02
  -1.37939E+02 -1.37262E+02 -1.36458E+02 -1.35002E+02 -1.31877E+02 -1.27518E+02 -1.22526E+02 -1.17239E+02 -1.12166E+02 -1.08415E+02
  -1.06755E+02 -1.06777E+02 -1.07616E+02 -1.08775E+02 -1.10453E+02 -1.12645E+02 -1.14979E+02 -1.16887E+02 -1.17912E+02 -1.17965E+02
  -1.16141E+02 -1.11965E+02 -1.06339E+02 -1.00352E+02 -9.44563E+01 -8.94074E+01 -8.67047E+01 -8.73861E+01 -9.07942E+01 -9.50653E+01
  -9.86919E+01 -1.01309E+02 -1.03028E+02 -1.03564E+02 -1.02650E+02 -1.00408E+02 -9.75719E+01 -9.48244E+01 -9.26495E+01 -9.15112E+01
  -9.15310E+01 -9.23571E+01 -9.33454E+01 -9.38364E+01 -9.36485E+01 -9.27650E+01 -9.13193E+01 -8.95713E+01 -8.77696E+01 -8.57303E+01
  -8.34901E+01 -8.14681E+01 -7.98877E+01 -7.87497E+01 -7.80600E+01 -7.79282E+01 -7.83466E+01 -7.90066E+01 -7.95085E+01 -7.93569E+01
  -7.79333E+01 -7.50934E+01 -7.18820E+01 -6.87392E+01 -6.58221E+01 -6.37943E+01 -6.35521E+01 -6.51638E+01 -6.76398E+01 -6.97504E+01
  -7.09646E+01 -7.17770E+01 -7.24256E+01 -7.26310E+01 -7.19721E+01 -6.97297E+01 -6.30339E+01 -4.80952E+01 -2.79394E+01 -5.55943E+00
   1.72899E+01  3.64356E+01  4.48126E+01  3.89170E+01  2.25532E+01  2.98863E+00 -1.44350E+01 -2.89817E+01 -4.15176E+01 -5.18141E+01
  -5.84311E+01 -6.06777E+01 -6.11840E+01 -6.12322E+01 -6.11364E+01 -6.09459E+01 -6.06503E+01 -6.02552E+01 -5.96808E+01 -5.86861E+01
  -5.61089E+01 -4.82104E+01 -3.52287E+01 -2.00633E+01 -4.01993E+00  1.12179E+01  2.12094E+01  2.18245E+01  1.36637E+01  1.15087E+00
  -1.10803E+01 -2.15120E+01 -3.09974E+01 -3.98196E+01 -4.70360E+01 -5.06779E+01 -5.14276E+01 -5.08206E+01 -4.94677E+01 -4.78533E+01
  -4.63772E+01 -4.52874E+01 -4.46619E+01 -4.44532E+01 -4.44886E+01 -4.46320E+01 -4.48304E+01 -4.50058E+01 -4.51602E+01 -4.52625E+01
  -4.52676E+01 -4.51804E+01 -4.49892E+01 -4.46709E+01 -4.42500E+01 -4.39276E+01 -4.38391E+01 -4.39381E+01 -4.41560E+01 -4.43038E+01
  -4.42252E+01 -4.38350E+01 -4.31217E+01 -4.23168E+01 -4.18205E+01 -4.18552E+01 -4.22413E+01 -4.26480E+01 -4.29014E+01 -4.31144E+01
  -4.34809E+01 -4.40278E+01 -4.45019E+01 -4.47441E+01 -4.47725E+01 -4.46194E+01 -4.41740E+01 -4.34232E+01 -4.26748E+01 -4.22564E+01
  -4.21105E+01 -4.19897E+01 -4.16931E+01 -4.10829E+01 -4.01601E+01 -3.87867E+01 -3.66183E+01 -3.36876E+01 -3.05232E+01 -2.78504E+01
  -2.62279E+01 -2.57663E+01 -2.62544E+01 -2.72018E+01 -2.81549E+01 -2.88412E+01 -2.90333E+01 -2.84793E+01 -2.70402E+01 -2.49503E+01
  -2.26620E+01 -2.05478E+01 -1.89210E+01 -1.81171E+01 -1.84855E+01 -1.99701E+01 -2.22158E+01 -2.48208E+01 -2.72399E+01 -2.87272E+01
  -2.87815E+01 -2.70845E+01 -2.40205E+01 -2.01558E+01 -1.60826E+01 -1.26896E+01 -1.12299E+01 -1.25192E+01 -1.60426E+01 -2.02964E+01
  -2.40362E+01 -2.67841E+01 -2.79470E+01 -2.69156E+01 -2.39163E+01 -2.00090E+01 -1.65533E+01 -1.40752E+01 -1.24713E+01 -1.15702E+01
  -1.11378E+01 -1.06683E+01 -9.81705E+00 -8.65917E+00 -7.39315E+00 -6.27469E+00 -5.68472E+00 -5.97821E+00 -7.16878E+00 -8.72386E+00
  -1.00256E+01 -1.06767E+01 -1.04688E+01 -9.24973E+00 -7.18938E+00 -4.86968E+00 -2.95995E+00 -1.70489E+00 -8.48011E-01 -1.99613E-02
   1.29331E+00  3.25474E+00  5.95333E+00  1.00519E+01  1.89635E+01  3.59086E+01  5.69903E+01  7.92335E+01  1.01407E+02  1.19425E+02
   1.25747E+02  1.16883E+02  9.72856E+01  7.48873E+01  5.51828E+01  3.85958E+01  2.41954E+01  1.22323E+01  4.33994E+00  1.13181E+00
  -2.22612E-01 -9.78429E-01 -1.38692E+00 -1.54715E+00 -1.61366E+00 -1.71859E+00 -1.88945E+00 -2.09264E+00 -2.27972E+00 -2.43121E+00
  -2.53332E+00 -2.55772E+00 -2.46295E+00 -2.23401E+00 -1.88651E+00 -1.42669E+00 -8.31972E-01 -7.95114E-02  8.44017E-01  1.94536E+00
   3.22951E+00  4.69377E+00  6.31329E+00  8.04813E+00  9.86067E+00  1.17106E+01  1.35488E+01  1.53191E+01  1.69660E+01  1.84355E+01
   1.96753E+01  2.06341E+01  2.12696E+01  2.15542E+01  2.14761E+01  2.10397E+01  2.02654E+01  1.91874E+01  1.78530E+01  1.63173E+01
   1.46392E+01  1.28789E+01  1.10947E+01  9.33916E+00  7.65754E+00  6.08618E+00  4.65208E+00  3.37281E+00  2.25736E+00  1.30737E+00
   5.19513E-01 -1.12833E-01 -6.09612E-01 -9.95986E-01 -1.29079E+00 -1.51294E+00 -1.68337E+00 -1.81608E+00 -1.91132E+00 -1.95602E+00
  -1.93966E+00 -1.86931E+00 -1.75382E+00 -1.59513E+00 -1.39675E+00 -1.16979E+00 -9.26230E-01 -6.61748E-01 -3.49544E-01  5.75059E-02
   6.57205E-01  1.60088E+00  2.64543E+00  3.45582E+00  3.93701E+00  3.95969E+00  3.28037E+00  1.86586E+00  1.87706E-01 -8.35060E-01
  -7.63644E-01  2.46248E-01  1.98541E+00  4.34045E+00  6.95713E+00  9.25588E+00  1.07003E+01  1.12187E+01  1.11368E+01  1.07017E+01
   9.99412E+00  9.06851E+00  8.03789E+00  7.13404E+00  6.39927E+00  5.78499E+00  5.27556E+00  4.86280E+00  4.53734E+00  4.28784E+00
   4.10231E+00  3.96954E+00  3.88020E+00  3.82730E+00  3.80620E+00  3.81436E+00  3.85107E+00  3.91705E+00  4.01407E+00  4.14454E+00
   4.31115E+00  4.51665E+00  4.76369E+00  5.05468E+00  5.39156E+00  5.77556E+00  6.20697E+00  6.68495E+00  7.20742E+00  7.77087E+00
   8.37022E+00  8.99867E+00  9.64766E+00  1.03070E+01  1.09653E+01  1.16097E+01  1.22269E+01  1.28031E+01  1.33250E+01  1.37799E+01
   1.41566E+01  1.44461E+01  1.46416E+01  1.47393E+01  1.47380E+01  1.46398E+01  1.44496E+01  1.41751E+01  1.38260E+01  1.34138E+01
   1.29510E+01  1.24508E+01  1.19264E+01  1.13905E+01  1.08547E+01  1.03293E+01  9.82321E+00  9.34347E+00  8.89560E+00  8.48340E+00
   8.10917E+00  7.77388E+00  7.47741E+00  7.21877E+00  6.99629E+00  6.80777E+00  6.65069E+00  6.52241E+00  6.42029E+00  6.34174E+00
   6.28431E+00  6.24565E+00  6.22364E+00  6.21636E+00  6.22215E+00  6.23952E+00  6.26713E+00  6.30382E+00  6.34855E+00  6.40049E+00
   6.45889E+00  6.52311E+00  6.59257E+00  6.66676E+00  6.74524E+00  6.82766E+00  6.91371E+00  7.00310E+00  7.09553E+00  7.19080E+00
   7.28869E+00  7.38907E+00  7.49179E+00  7.59669E+00  7.70362E+00  7.81244E+00  7.92306E+00  8.03538E+00  8.14930E+00  8.26470E+00
   8.38150E+00  8.49961E+00  8.61899E+00  8.73958E+00  8.86129E+00  8.98407E+00  9.10783E+00  9.23255E+00  9.35817E+00  9.48467E+00
   9.61197E+00  9.74003E+00  9.86879E+00  9.99826E+00  1.01284E+01  1.02591E+01  1.03905E+01  1.05223E+01  1.06546E+01  1.07875E+01
   1.09207E+01  1.10544E+01  1.11885E+01  1.13229E+01  1.14576E+01  1.15927E+01  1.17281E+01  1.18637E+01  1.19995E+01  1.21355E+01
   1.22717E+01  1.24081E+01  1.25446E+01  1.26813E+01  1.28181E+01  1.29550E+01  1.30920E+01  1.32291E+01
 NY background values follow
    -1.696E+02   -1.684E+02   -1.673E+02   -1.662E+02   -1.650E+02   -1.639E+02   -1.628E+02   -1.617E+02   -1.605E+02   -1.594E+02
    -1.583E+02   -1.572E+02   -1.560E+02   -1.549E+02   -1.538E+02   -1.527E+02   -1.516E+02   -1.505E+02   -1.493E+02   -1.482E+02
    -1.471E+02   -1.460E+02   -1.449E+02   -1.438E+02   -1.427E+02   -1.416E+02   -1.405E+02   -1.395E+02   -1.384E+02   -1.373E+02
    -1.362E+02   -1.351E+02   -1.341E+02   -1.330E+02   -1.319E+02   -1.309E+02   -1.298E+02   -1.288E+02   -1.277E+02   -1.267E+02
    -1.256E+02   -1.246E+02   -1.236E+02   -1.226E+02   -1.216E+02   -1.205E+02   -1.195E+02   -1.185E+02   -1.175E+02   -1.166E+02
    -1.156E+02   -1.146E+02   -1.136E+02   -1.127E+02   -1.117E+02   -1.107E+02   -1.098E+02   -1.089E+02   -1.079E+02   -1.070E+02
    -1.061E+02   -1.051E+02   -1.042E+02   -1.033E+02   -1.024E+02   -1.015E+02   -1.006E+02   -9.976E+01   -9.888E+01   -9.801E+01
    -9.715E+01   -9.629E+01   -9.544E+01   -9.460E+01   -9.376E+01   -9.292E+01   -9.210E+01   -9.128E+01   -9.047E+01   -8.966E+01
    -8.886E+01   -8.807E+01   -8.728E+01   -8.650E+01   -8.573E+01   -8.496E+01   -8.420E+01   -8.345E+01   -8.270E+01   -8.196E+01
    -8.123E+01   -8.051E+01   -7.979E+01   -7.907E+01   -7.837E+01   -7.767E+01   -7.698E+01   -7.629E+01   -7.561E+01   -7.494E+01
    -7.427E+01   -7.361E+01   -7.296E+01   -7.231E+01   -7.167E+01   -7.103E+01   -7.040E+01   -6.978E+01   -6.916E+01   -6.855E+01
    -6.794E+01   -6.734E+01   -6.674E+01   -6.615E+01   -6.557E+01   -6.499E+01   -6.441E+01   -6.385E+01   -6.328E+01   -6.272E+01
    -6.217E+01   -6.162E+01   -6.107E+01   -6.053E+01   -6.000E+01   -5.947E+01   -5.894E+01   -5.842E+01   -5.791E+01   -5.739E+01
    -5.689E+01   -5.638E+01   -5.588E+01   -5.539E+01   -5.490E+01   -5.441E+01   -5.393E+01   -5.345E+01   -5.297E+01   -5.250E+01
    -5.203E+01   -5.157E+01   -5.111E+01   -5.065E+01   -5.020E+01   -4.975E+01   -4.930E+01   -4.886E+01   -4.841E+01   -4.798E+01
    -4.754E+01   -4.711E+01   -4.668E+01   -4.626E+01   -4.584E+01   -4.542E+01   -4.500E+01   -4.459E+01   -4.417E+01   -4.376E+01
    -4.336E+01   -4.295E+01   -4.255E+01   -4.215E+01   -4.176E+01   -4.136E+01   -4.097E+01   -4.058E+01   -4.019E+01   -3.981E+01
    -3.942E+01   -3.904E+01   -3.866E+01   -3.828E+01   -3.790E+01   -3.753E+01   -3.715E+01   -3.678E+01   -3.641E+01   -3.604E+01
    -3.567E+01   -3.531E+01   -3.494E+01   -3.458E+01   -3.421E+01   -3.385E+01   -3.349E+01   -3.313E+01   -3.277E+01   -3.242E+01
    -3.206E+01   -3.171E+01   -3.136E+01   -3.101E+01   -3.066E+01   -3.031E+01   -2.996E+01   -2.962E+01   -2.927E+01   -2.893E+01
    -2.859E+01   -2.825E+01   -2.791E+01   -2.757E+01   -2.724E+01   -2.690E+01   -2.657E+01   -2.624E+01   -2.591E+01   -2.559E+01
    -2.526E+01   -2.493E+01   -2.461E+01   -2.429E+01   -2.397E+01   -2.365E+01   -2.334E+01   -2.302E+01   -2.271E+01   -2.240E+01
    -2.209E+01   -2.178E+01   -2.147E+01   -2.117E+01   -2.086E+01   -2.056E+01   -2.026E+01   -1.996E+01   -1.967E+01   -1.937E+01
    -1.908E+01   -1.879E+01   -1.850E+01   -1.821E+01   -1.793E+01   -1.765E+01   -1.737E+01   -1.709E+01   -1.681E+01   -1.654E+01
    -1.627E+01   -1.600E+01   -1.573E+01   -1.547E+01   -1.521E+01   -1.495E+01   -1.469E+01   -1.444E+01   -1.419E+01   -1.394E+01
    -1.370E+01   -1.346E+01   -1.322E+01   -1.298E+01   -1.275E+01   -1.252E+01   -1.230E+01   -1.208E+01   -1.186E+01   -1.164E+01
    -1.143E+01   -1.122E+01   -1.101E+01   -1.081E+01   -1.061E+01   -1.042E+01   -1.023E+01   -1.004E+01   -9.860E+00   -9.681E+00
    -9.506E+00   -9.335E+00   -9.168E+00   -9.004E+00   -8.845E+00   -8.690E+00   -8.538E+00   -8.390E+00   -8.246E+00   -8.105E+00
    -7.967E+00   -7.833E+00   -7.702E+00   -7.574E+00   -7.450E+00   -7.328E+00   -7.210E+00   -7.094E+00   -6.981E+00   -6.870E+00
    -6.763E+00   -6.658E+00   -6.555E+00   -6.455E+00   -6.357E+00   -6.261E+00   -6.168E+00   -6.076E+00   -5.987E+00   -5.899E+00
    -5.814E+00   -5.730E+00   -5.647E+00   -5.567E+00   -5.487E+00   -5.410E+00   -5.333E+00   -5.258E+00   -5.184E+00   -5.111E+00
    -5.040E+00   -4.969E+00   -4.899E+00   -4.830E+00   -4.761E+00   -4.694E+00   -4.626E+00   -4.560E+00   -4.494E+00   -4.428E+00
    -4.362E+00   -4.297E+00   -4.233E+00   -4.168E+00   -4.104E+00   -4.041E+00   -3.977E+00   -3.914E+00   -3.852E+00   -3.789E+00
    -3.727E+00   -3.665E+00   -3.603E+00   -3.541E+00   -3.480E+00   -3.418E+00   -3.357E+00   -3.296E+00   -3.235E+00   -3.174E+00
    -3.113E+00   -3.052E+00   -2.991E+00   -2.931E+00   -2.870E+00   -2.809E+00   -2.748E+00   -2.687E+00   -2.626E+00   -2.565E+00
    -2.503E+00   -2.442E+00   -2.380E+00   -2.319E+00   -2.257E+00   -2.195E+00   -2.132E+00   -2.070E+00   -2.007E+00   -1.944E+00
    -1.880E+00   -1.816E+00   -1.752E+00   -1.688E+00   -1.623E+00   -1.558E+00   -1.493E+00   -1.427E+00   -1.360E+00   -1.293E+00
    -1.226E+00   -1.159E+00   -1.091E+00   -1.022E+00   -9.529E-01   -8.834E-01   -8.133E-01   -7.427E-01   -6.716E-01   -6.000E-01
    -5.277E-01   -4.549E-01   -3.816E-01   -3.076E-01   -2.330E-01   -1.578E-01   -8.195E-02   -5.457E-03    7.170E-02    1.495E-01
     2.280E-01    3.073E-01    3.872E-01    4.678E-01    5.492E-01    6.313E-01    7.142E-01    7.979E-01    8.824E-01    9.676E-01
     1.054E+00    1.141E+00    1.228E+00    1.317E+00    1.406E+00    1.497E+00    1.588E+00    1.680E+00    1.773E+00    1.867E+00
     1.962E+00    2.057E+00    2.154E+00    2.251E+00    2.350E+00    2.449E+00    2.549E+00    2.650E+00    2.752E+00    2.855E+00
     2.958E+00    3.063E+00    3.168E+00    3.274E+00    3.381E+00    3.489E+00    3.597E+00    3.706E+00    3.817E+00    3.928E+00
     4.040E+00    4.152E+00    4.266E+00    4.380E+00    4.495E+00    4.611E+00    4.727E+00    4.844E+00    4.963E+00    5.081E+00
     5.201E+00    5.322E+00    5.443E+00    5.565E+00    5.687E+00    5.811E+00    5.935E+00    6.060E+00    6.185E+00    6.311E+00
     6.438E+00    6.566E+00    6.695E+00    6.824E+00    6.954E+00    7.084E+00    7.215E+00    7.347E+00    7.479E+00    7.612E+00
     7.746E+00    7.880E+00    8.014E+00    8.149E+00    8.285E+00    8.421E+00    8.557E+00    8.694E+00    8.832E+00    8.969E+00
     9.107E+00    9.246E+00    9.385E+00    9.524E+00    9.663E+00    9.803E+00    9.943E+00    1.008E+01    1.022E+01    1.036E+01
     1.050E+01    1.065E+01    1.079E+01    1.093E+01    1.107E+01    1.121E+01    1.135E+01    1.149E+01    1.164E+01    1.178E+01
     1.192E+01    1.206E+01    1.220E+01    1.234E+01    1.248E+01    1.263E+01    1.277E+01    1.291E+01
 Ala      Conc. = 1.11E+01
