 LCModel (Version 6.3-1L) Copyright: S.W. Provencher.          Ref.: Magn. Reson. Med. 30:672-679 (1993).                
 Slice#2 Row#8 Col#3  PD_24_press_2_raw_act
 36 lines in following concentration table = NCONC+1
    Conc.  %SD /Cr+PCr  Metabolite                                         
  422.630  55%   0.117 Ala                                                 
    0.000 999%   0.000 Asp                                                 
 1.07E+03  42%   0.297 Cr                                                  
 2.55E+03  18%   0.703 PCr                                                 
    0.000 999%   0.000 GABA                                                
    0.000 999%   0.000 Glc                                                 
 1.11E+03  43%   0.306 Gln                                                 
 2.56E+03  20%   0.707 Glu                                                 
 1.48E+03   3%   0.408 GPC                                                 
    0.000 999%   0.000 PCh                                                 
  887.326  15%   0.245 GSH                                                 
 1.97E+03  24%   0.544 Ins                                                 
  507.414  50%   0.140 Lac                                                 
 5.59E+03   5%   1.544 NAA                                                 
 1.04E+03  29%   0.288 NAAG                                                
  341.214  16% 9.4E-02 Scyllo                                              
    0.000 999%   0.000 Tau                                                 
  450.599  42%   0.124 -CrCH2                                              
 1.48E+03   3%   0.408 GPC+PCh                                             
 6.63E+03   2%   1.832 NAA+NAAG                                            
 3.62E+03   3%   1.000 Cr+PCr                                              
 3.67E+03  22%   1.013 Glu+Gln                                             
 2.01E+03  39%   0.555 Lip13a                                              
    0.000 999%   0.000 Lip13b                                              
   97.031 501% 2.7E-02 Lip09                                               
 3.01E+03  18%   0.831 MM09                                                
  299.806 112% 8.3E-02 Lip20                                               
 5.15E+03  14%   1.423 MM20                                                
 1.20E+03  33%   0.330 MM12                                                
  976.856  52%   0.270 MM14                                                
 5.67E+03   4%   1.567+MM17                                                
 2.01E+03  39%   0.555 Lip13a+Lip13b                                       
 4.18E+03  13%   1.155 MM14+Lip13a+Lip13b+MM12                             
 3.11E+03  10%   0.858 MM09+Lip09                                          
 5.45E+03  13%   1.506 MM20+Lip20                                          
   6 lines in following misc. output table
  FWHM = 0.061 ppm    S/N =  18                                            
  Data shift = 0.008 ppm                                                   
  Ph: -26 deg     -12.4 deg/ppm                                            
  alphaB,S = 4.0E+00,   3.2E+02                                            
   14 spline knots.   Ns = 9(1)                                            
  (14) 5 infls.   ( 7) 1 extrs.                                            
  498 points on ppm-axis = NY
      4.000000     3.992357     3.984714     3.977070     3.969427     3.961784     3.954141     3.946497     3.938854     3.931211
      3.923568     3.915925     3.908281     3.900638     3.892995     3.885352     3.877708     3.870065     3.862422     3.854779
      3.847136     3.839492     3.831849     3.824206     3.816563     3.808919     3.801276     3.793633     3.785990     3.778347
      3.770703     3.763060     3.755417     3.747774     3.740130     3.732487     3.724844     3.717201     3.709558     3.701914
      3.694271     3.686628     3.678985     3.671341     3.663698     3.656055     3.648412     3.640769     3.633125     3.625482
      3.617839     3.610196     3.602552     3.594909     3.587266     3.579623     3.571980     3.564336     3.556693     3.549050
      3.541407     3.533763     3.526120     3.518477     3.510834     3.503191     3.495547     3.487904     3.480261     3.472618
      3.464974     3.457331     3.449688     3.442045     3.434402     3.426758     3.419115     3.411472     3.403829     3.396185
      3.388542     3.380899     3.373256     3.365613     3.357969     3.350326     3.342683     3.335040     3.327396     3.319753
      3.312110     3.304467     3.296824     3.289180     3.281537     3.273894     3.266251     3.258607     3.250964     3.243321
      3.235678     3.228034     3.220391     3.212748     3.205105     3.197462     3.189818     3.182175     3.174532     3.166889
      3.159245     3.151602     3.143959     3.136316     3.128673     3.121029     3.113386     3.105743     3.098100     3.090456
      3.082813     3.075170     3.067527     3.059884     3.052240     3.044597     3.036954     3.029311     3.021667     3.014024
      3.006381     2.998738     2.991095     2.983451     2.975808     2.968165     2.960522     2.952878     2.945235     2.937592
      2.929949     2.922306     2.914662     2.907019     2.899376     2.891733     2.884089     2.876446     2.868803     2.861160
      2.853517     2.845873     2.838230     2.830587     2.822944     2.815300     2.807657     2.800014     2.792371     2.784728
      2.777084     2.769441     2.761798     2.754155     2.746511     2.738868     2.731225     2.723582     2.715939     2.708295
      2.700652     2.693009     2.685366     2.677722     2.670079     2.662436     2.654793     2.647150     2.639506     2.631863
      2.624220     2.616577     2.608933     2.601290     2.593647     2.586004     2.578361     2.570717     2.563074     2.555431
      2.547788     2.540144     2.532501     2.524858     2.517215     2.509572     2.501928     2.494285     2.486642     2.478999
      2.471355     2.463712     2.456069     2.448426     2.440783     2.433139     2.425496     2.417853     2.410210     2.402566
      2.394923     2.387280     2.379637     2.371994     2.364350     2.356707     2.349064     2.341421     2.333777     2.326134
      2.318491     2.310848     2.303205     2.295561     2.287918     2.280275     2.272632     2.264988     2.257345     2.249702
      2.242059     2.234416     2.226772     2.219129     2.211486     2.203843     2.196199     2.188556     2.180913     2.173270
      2.165627     2.157983     2.150340     2.142697     2.135054     2.127410     2.119767     2.112124     2.104481     2.096838
      2.089194     2.081551     2.073908     2.066265     2.058621     2.050978     2.043335     2.035692     2.028049     2.020405
      2.012762     2.005119     1.997476     1.989833     1.982190     1.974546     1.966903     1.959260     1.951617     1.943974
      1.936331     1.928688     1.921045     1.913402     1.905759     1.898115     1.890472     1.882829     1.875186     1.867543
      1.859900     1.852257     1.844614     1.836971     1.829327     1.821684     1.814041     1.806398     1.798755     1.791112
      1.783469     1.775826     1.768183     1.760540     1.752896     1.745253     1.737610     1.729967     1.722324     1.714681
      1.707038     1.699395     1.691752     1.684108     1.676465     1.668822     1.661179     1.653536     1.645893     1.638250
      1.630607     1.622964     1.615321     1.607677     1.600034     1.592391     1.584748     1.577105     1.569462     1.561819
      1.554176     1.546533     1.538890     1.531246     1.523603     1.515960     1.508317     1.500674     1.493031     1.485388
      1.477745     1.470102     1.462458     1.454815     1.447172     1.439529     1.431886     1.424243     1.416600     1.408957
      1.401314     1.393671     1.386027     1.378384     1.370741     1.363098     1.355455     1.347812     1.340169     1.332526
      1.324883     1.317240     1.309596     1.301953     1.294310     1.286667     1.279024     1.271381     1.263738     1.256095
      1.248452     1.240808     1.233165     1.225522     1.217879     1.210236     1.202593     1.194950     1.187307     1.179664
      1.172021     1.164377     1.156734     1.149091     1.141448     1.133805     1.126162     1.118519     1.110876     1.103233
      1.095590     1.087946     1.080303     1.072660     1.065017     1.057374     1.049731     1.042088     1.034445     1.026802
      1.019158     1.011515     1.003872     0.996229     0.988586     0.980943     0.973300     0.965657     0.958014     0.950371
      0.942727     0.935084     0.927441     0.919798     0.912155     0.904512     0.896869     0.889226     0.881583     0.873940
      0.866296     0.858653     0.851010     0.843367     0.835724     0.828081     0.820438     0.812795     0.805152     0.797508
      0.789865     0.782222     0.774579     0.766936     0.759293     0.751650     0.744007     0.736364     0.728721     0.721077
      0.713434     0.705791     0.698148     0.690505     0.682862     0.675219     0.667576     0.659933     0.652290     0.644646
      0.637003     0.629360     0.621717     0.614074     0.606431     0.598788     0.591145     0.583502     0.575858     0.568215
      0.560572     0.552929     0.545286     0.537643     0.530000     0.522357     0.514714     0.507071     0.499427     0.491784
      0.484141     0.476498     0.468855     0.461212     0.453569     0.445925     0.438282     0.430639     0.422996     0.415353
      0.407710     0.400067     0.392424     0.384780     0.377137     0.369494     0.361851     0.354208     0.346565     0.338922
      0.331278     0.323635     0.315992     0.308349     0.300706     0.293063     0.285420     0.277777     0.270133     0.262490
      0.254847     0.247204     0.239561     0.231918     0.224275     0.216631     0.208988     0.201345
 NY phased data points follow
  -3.99149E+01 -3.37892E+01 -2.42169E+01 -1.55851E+01 -1.51321E+01 -6.56972E-01  2.77176E+00  1.45139E+01  2.76974E+01  2.47339E+01
   3.39721E+01  2.99239E+01  1.88167E+01  1.36283E+01  1.38399E+00 -3.82906E+00 -1.77342E+01 -1.20790E+01 -2.47954E+01 -2.30885E+01
  -2.61663E+01 -2.29551E+01 -2.03897E+01 -2.10625E+01 -2.55362E+01 -2.44510E+01 -1.92851E+01 -2.50953E+01 -1.93842E+01 -9.47134E+00
  -1.27595E+01 -1.24055E+01 -1.74667E+01 -1.05726E+01 -1.26060E+01 -1.46685E+01 -2.66273E+01 -1.68873E+01 -2.07499E+01 -1.52606E+01
  -1.74033E+01 -1.71439E+01 -1.45759E+01 -9.25211E+00 -1.24677E+01 -1.64134E+01 -8.24896E+00 -4.41601E+00 -7.39980E+00 -1.28097E+01
  -1.30906E+01 -1.43745E+01 -1.77642E+01 -1.97272E+01 -2.27973E+01 -1.81453E+01 -2.09104E+01 -2.40016E+01 -1.74577E+01 -2.10282E+01
  -2.45601E+01 -2.96553E+01 -2.92837E+01 -3.20909E+01 -3.13912E+01 -3.12101E+01 -3.06697E+01 -2.71569E+01 -2.61675E+01 -2.79619E+01
  -2.77971E+01 -2.43864E+01 -3.38280E+01 -3.42171E+01 -2.41555E+01 -2.36425E+01 -2.19197E+01 -2.78118E+01 -2.26173E+01 -2.25394E+01
  -1.45160E+01 -1.41438E+01 -1.97148E+01 -1.74394E+01 -1.56156E+01 -1.71300E+01 -1.57535E+01 -1.71165E+01 -1.34612E+01 -2.14359E+01
  -7.35123E+00 -8.63167E+00 -9.33706E+00 -5.33262E+00 -1.10405E+00  1.07932E+01  3.74528E+00  2.32324E+01  3.04544E+01  4.04913E+01
   6.01455E+01  7.47602E+01  8.10040E+01  9.35162E+01  8.42803E+01  6.88625E+01  5.16650E+01  3.25686E+01  1.11302E+01  6.28162E+00
   4.60883E+00 -2.62007E+00 -1.01602E+01 -5.57125E+00 -1.05244E+01 -7.52368E+00 -1.03482E+01 -1.25043E+01 -7.14478E+00  1.46795E+00
   5.30206E+00  1.91119E+01  2.04046E+01  4.11161E+01  4.96508E+01  6.63776E+01  7.86671E+01  8.20587E+01  8.07570E+01  7.27309E+01
   5.51397E+01  2.87699E+01  1.59758E+01  9.72186E+00  6.09370E+00  5.62534E+00 -1.62249E+01 -1.19509E+01 -1.67326E+01 -1.90600E+01
  -8.33200E+00 -1.79685E+01 -1.76168E+01 -1.44116E+01 -1.90808E+01 -1.65078E+01 -1.19545E+01 -2.01129E+01 -1.49245E+01 -1.68396E+01
  -1.88395E+01 -1.56033E+01 -1.03462E+01 -1.76608E+01 -1.14810E+01 -1.73188E+01 -1.81241E+01 -1.10858E+01 -1.29565E+01 -1.26354E+01
  -1.44816E+01 -2.10459E+01 -1.86174E+01 -2.05897E+01 -1.78708E+01 -2.58888E+01 -1.52245E+01 -1.62209E+01 -2.65610E+01 -2.19015E+01
  -2.74447E+01 -2.80334E+01 -3.15728E+01 -3.30530E+01 -3.11814E+01 -3.89636E+01 -3.90172E+01 -3.75047E+01 -3.68001E+01 -3.50066E+01
  -3.33236E+01 -3.14065E+01 -3.32315E+01 -2.79038E+01 -3.59191E+01 -2.67562E+01 -1.80740E+01 -1.89522E+01 -1.51239E+01 -1.62162E+01
  -8.72732E+00 -4.67601E+00  1.65618E+00  5.02410E+00 -2.68587E+00 -5.79608E+00 -5.32523E+00 -7.85092E+00 -6.67172E+00 -1.59153E+01
  -5.55506E+00 -1.01213E+01 -1.45014E+01 -5.91517E+00 -7.45282E+00 -4.17415E+00 -7.13051E+00 -6.23797E+00 -9.09829E+00 -1.13350E+01
  -6.88982E+00 -6.28159E+00 -4.52992E+00 -9.58752E-01  2.16873E+00  9.88779E+00  7.12110E+00  8.82161E+00  1.18265E-02  8.94929E-01
  -6.81591E+00 -9.74419E+00 -8.36240E+00 -1.02980E+01 -9.59898E-01  5.69226E-01  5.27054E+00  4.09693E+00  3.88527E+00  6.44599E+00
   4.16023E+00  6.26343E+00  2.85216E+00  3.77649E+00 -1.25186E+00  3.71535E+00  7.64654E+00  5.57046E+00  1.25748E+00 -9.86329E-01
  -4.49531E+00 -2.89412E+00 -2.36723E+00  1.98344E+00 -1.63184E-01 -1.81012E-01  4.17854E+00  1.83242E+01  1.74241E+01  2.69778E+01
   3.13450E+01  3.83093E+01  4.72603E+01  6.61820E+01  8.10836E+01  1.02578E+02  1.22419E+02  1.35378E+02  1.55495E+02  1.66200E+02
   1.78256E+02  1.74143E+02  1.53317E+02  1.31964E+02  9.95456E+01  6.61292E+01  5.37350E+01  4.42668E+01  2.91112E+01  2.77501E+01
   2.45812E+01  1.97632E+01  1.78401E+01  1.20123E+01  1.07600E+01  9.46167E+00  5.26011E+00  3.49366E+00  2.49525E+00  9.01746E+00
  -4.21284E-01  9.58278E+00  1.84156E+00  5.88898E+00  5.91078E+00  3.31586E+00 -2.49644E+00  1.39977E+00  1.01198E+00 -3.78336E-01
   8.39924E+00  7.07008E+00 -1.28182E+00  7.23084E+00  3.95839E+00  7.65495E+00  1.15217E+01  7.47412E+00  1.20410E+01  1.13240E+01
   2.39356E+01  2.44900E+01  2.16569E+01  3.19242E+01  3.20703E+01  3.59338E+01  3.69406E+01  3.72986E+01  4.30143E+01  5.15596E+01
   4.70042E+01  5.37507E+01  5.13953E+01  5.31531E+01  5.37679E+01  4.91678E+01  4.36031E+01  4.31386E+01  4.61490E+01  3.74820E+01
   3.49618E+01  3.66868E+01  2.84346E+01  2.69316E+01  3.07433E+01  1.93974E+01  1.94099E+01  1.15673E+01  6.42680E+00  7.58832E+00
   6.69834E+00  9.62839E+00  1.55591E+01  9.84277E+00  7.63659E+00  7.88061E+00  1.22719E+01  1.28238E+01  1.00052E+01  1.71130E+01
   1.60085E+01  1.62330E+01  1.14588E+01  1.83143E+01  1.12972E+01  1.00475E+01  1.89728E+01  1.62715E+01  1.14623E+01  1.45073E+01
   7.73888E+00  1.27267E+01  1.11225E+01  1.07382E+01  1.75476E+01  1.68871E+01  2.05759E+01  2.21502E+01  1.54271E+01  1.66330E+01
   1.83920E+01  1.89164E+01  2.31890E+01  1.90398E+01  2.07197E+01  1.77693E+01  1.88851E+01  1.24845E+01  1.60851E+01  1.18849E+01
   1.50478E+01  1.46321E+01  1.29044E+01  1.76465E+01  1.64065E+01  1.58531E+01  1.55373E+01  1.25053E+01  1.46766E+01  1.68470E+01
   1.30051E+01  7.87373E+00  1.63255E+01  1.29619E+01  1.11017E+01  1.30782E+01  1.91958E+01  1.41533E+01  1.17091E+01  1.66902E+01
   1.83273E+01  1.31758E+01  1.05964E+01  1.13331E+01  2.41845E+01  2.46504E+01  1.85219E+01  2.27991E+01  2.10871E+01  2.23122E+01
   2.65176E+01  2.04761E+01  2.45999E+01  2.02827E+01  2.41322E+01  2.50440E+01  2.98783E+01  2.76507E+01  3.19505E+01  3.27241E+01
   2.97352E+01  2.71845E+01  2.40655E+01  2.85968E+01  2.59346E+01  1.11034E+01  2.78054E+01  1.82752E+01  1.71754E+01  1.92895E+01
   1.29192E+01  1.12763E+01  1.52295E+01  1.45617E+01  1.36479E+01  9.79212E+00  1.10755E+01  8.94326E+00  1.00850E+01  1.05552E+01
   8.21187E+00  1.47932E+01  5.38608E+00  1.28992E+01  7.83178E+00  6.67537E+00  6.83749E+00  8.74970E+00  4.59865E+00  6.40868E+00
   9.56063E+00  5.01785E+00  1.18510E+01  2.78897E+00  5.44627E+00  1.13189E+01  6.30098E+00  7.48409E+00  7.04450E+00  6.70372E+00
   6.52528E+00  7.02828E+00  1.02199E+01  1.23488E+01  5.86178E+00  8.22337E+00  1.31577E+01  1.02933E+01  1.01762E+01  9.46673E+00
   5.87129E+00  7.65923E+00  4.34973E+00  1.03028E+01  1.17538E+01  4.67938E+00  1.05455E+01  8.17440E+00  1.11533E+01  4.70843E+00
   6.19207E+00  3.84759E+00  8.57476E+00  9.79559E+00  7.59690E+00  6.96031E+00  1.16700E+01  6.86040E+00  3.67504E+00  3.46364E+00
   6.25466E+00  4.96923E+00  9.75964E+00  2.37929E+00  9.37781E+00  6.06067E+00  8.12600E+00  9.30317E+00  3.17220E+00  1.07111E+01
   7.73451E+00  1.27064E+01  1.33789E+01  2.79417E+00  1.09251E+01  9.99580E+00  6.04983E+00  1.18353E+01
 NY points of the fit to the data follow
  -3.06514E+01 -2.70945E+01 -2.21148E+01 -1.62261E+01 -9.68083E+00 -2.42862E+00  5.64575E+00  1.41827E+01  2.20870E+01  2.77475E+01
   2.96834E+01  2.72143E+01  2.08283E+01  1.21117E+01  3.19887E+00 -4.23371E+00 -9.67433E+00 -1.37248E+01 -1.72952E+01 -2.08575E+01
  -2.37090E+01 -2.51330E+01 -2.52122E+01 -2.47025E+01 -2.39870E+01 -2.29967E+01 -2.15554E+01 -1.95403E+01 -1.68675E+01 -1.37585E+01
  -1.08642E+01 -8.96340E+00 -8.68475E+00 -1.00963E+01 -1.27067E+01 -1.58038E+01 -1.85584E+01 -2.02979E+01 -2.08705E+01 -2.07196E+01
  -2.01719E+01 -1.91025E+01 -1.76304E+01 -1.60458E+01 -1.44464E+01 -1.29545E+01 -1.18760E+01 -1.16008E+01 -1.23198E+01 -1.39524E+01
  -1.61508E+01 -1.84258E+01 -2.03222E+01 -2.15622E+01 -2.22167E+01 -2.26112E+01 -2.29266E+01 -2.30842E+01 -2.30319E+01 -2.29621E+01
  -2.30931E+01 -2.35193E+01 -2.41847E+01 -2.49277E+01 -2.55749E+01 -2.59420E+01 -2.59336E+01 -2.56083E+01 -2.51430E+01 -2.46861E+01
  -2.42980E+01 -2.40342E+01 -2.39135E+01 -2.39404E+01 -2.40926E+01 -2.43089E+01 -2.45064E+01 -2.45413E+01 -2.39839E+01 -2.29011E+01
  -2.17292E+01 -2.05656E+01 -1.92665E+01 -1.77118E+01 -1.59101E+01 -1.40273E+01 -1.24220E+01 -1.15129E+01 -1.16552E+01 -1.28716E+01
  -1.47813E+01 -1.67091E+01 -1.76975E+01 -1.57431E+01 -9.02093E+00  9.08605E-02  9.62558E+00  1.97804E+01  3.16458E+01  4.56165E+01
   6.08956E+01  7.54484E+01  8.60333E+01  8.93298E+01  8.36050E+01  6.97813E+01  5.11793E+01  3.23481E+01  1.71299E+01  6.76510E+00
  -2.10501E-01 -6.06880E+00 -1.18192E+01 -1.62729E+01 -1.80821E+01 -1.85323E+01 -1.83159E+01 -1.64906E+01 -1.06359E+01 -2.18776E+00
   6.81025E+00  1.62950E+01  2.69620E+01  3.93063E+01  5.30799E+01  6.68141E+01  7.76510E+01  8.23804E+01  7.90577E+01  6.80684E+01
   5.20860E+01  3.51393E+01  2.09530E+01  1.11120E+01  4.43355E+00 -1.28547E+00 -7.16897E+00 -1.21691E+01 -1.42658E+01 -1.43977E+01
  -1.38018E+01 -1.30375E+01 -1.25115E+01 -1.24085E+01 -1.26596E+01 -1.30902E+01 -1.36014E+01 -1.40923E+01 -1.44983E+01 -1.48534E+01
  -1.51902E+01 -1.55535E+01 -1.60654E+01 -1.66218E+01 -1.70818E+01 -1.73604E+01 -1.74192E+01 -1.74682E+01 -1.77300E+01 -1.82268E+01
  -1.88462E+01 -1.94161E+01 -1.97457E+01 -1.97737E+01 -1.96666E+01 -1.97370E+01 -2.02881E+01 -2.14262E+01 -2.28672E+01 -2.40662E+01
  -2.47687E+01 -2.51241E+01 -2.55546E+01 -2.61974E+01 -2.68823E+01 -2.73370E+01 -2.73775E+01 -2.70953E+01 -2.67053E+01 -2.62546E+01
  -2.57300E+01 -2.51639E+01 -2.44524E+01 -2.34015E+01 -2.19396E+01 -2.01470E+01 -1.81541E+01 -1.60658E+01 -1.38285E+01 -1.15781E+01
  -9.56500E+00 -8.05795E+00 -7.36487E+00 -7.49008E+00 -8.04973E+00 -8.46178E+00 -8.46680E+00 -8.04528E+00 -7.30014E+00 -6.30434E+00
  -5.23470E+00 -4.35884E+00 -3.72646E+00 -3.58830E+00 -4.36339E+00 -6.03366E+00 -8.19335E+00 -1.01930E+01 -1.16851E+01 -1.25687E+01
  -1.25083E+01 -1.13263E+01 -9.27133E+00 -6.95447E+00 -4.94301E+00 -3.48943E+00 -2.87113E+00 -3.40708E+00 -5.10734E+00 -7.59047E+00
  -1.01533E+01 -1.19256E+01 -1.22450E+01 -1.10993E+01 -8.85992E+00 -5.99720E+00 -3.09325E+00 -5.78627E-01  1.20598E+00  2.21396E+00
   2.74125E+00  3.15539E+00  3.68195E+00  4.24491E+00  4.77919E+00  5.43150E+00  6.16546E+00  6.69216E+00  6.73551E+00  6.24474E+00
   5.40435E+00  4.55528E+00  4.06326E+00  4.27448E+00  5.41674E+00  7.34783E+00  9.89862E+00  1.33554E+01  1.72336E+01  2.10468E+01
   2.56626E+01  3.48360E+01  5.01024E+01  6.76006E+01  8.53223E+01  1.03188E+02  1.21265E+02  1.39214E+02  1.55894E+02  1.68881E+02
   1.74733E+02  1.70463E+02  1.55219E+02  1.31078E+02  1.02702E+02  7.59979E+01  5.56014E+01  4.23436E+01  3.31107E+01  2.46218E+01
   1.63523E+01  1.08053E+01  8.67604E+00  7.62713E+00  6.87826E+00  6.24451E+00  5.61613E+00  4.95632E+00  4.31945E+00  3.75051E+00
   3.28334E+00  2.91896E+00  2.62884E+00  2.38478E+00  2.17679E+00  2.01223E+00  1.89814E+00  1.84039E+00  1.86009E+00  1.99985E+00
   2.29479E+00  2.76781E+00  3.43295E+00  4.30713E+00  5.41058E+00  6.76162E+00  8.37849E+00  1.02912E+01  1.25274E+01  1.50996E+01
   1.79980E+01  2.11861E+01  2.46072E+01  2.81904E+01  3.18409E+01  3.54507E+01  3.89082E+01  4.21022E+01  4.49240E+01  4.72704E+01
   4.90513E+01  5.02035E+01  5.06909E+01  5.05062E+01  4.96743E+01  4.82525E+01  4.63317E+01  4.40494E+01  4.15650E+01  3.88407E+01
   3.58697E+01  3.27901E+01  2.97313E+01  2.67535E+01  2.38380E+01  2.09173E+01  1.80660E+01  1.53628E+01  1.28082E+01  1.05274E+01
   8.75131E+00  7.70463E+00  7.50589E+00  8.08705E+00  9.20327E+00  1.05446E+01  1.18590E+01  1.30428E+01  1.41241E+01  1.49032E+01
   1.52811E+01  1.54909E+01  1.57118E+01  1.59214E+01  1.59438E+01  1.56128E+01  1.50879E+01  1.44283E+01  1.35455E+01  1.25707E+01
   1.18085E+01  1.15849E+01  1.21090E+01  1.33532E+01  1.50330E+01  1.67462E+01  1.81567E+01  1.91104E+01  1.96156E+01  1.96675E+01
   1.93738E+01  1.89868E+01  1.86383E+01  1.82989E+01  1.78689E+01  1.73187E+01  1.67859E+01  1.63178E+01  1.58709E+01  1.54294E+01
   1.49912E+01  1.45588E+01  1.41371E+01  1.37322E+01  1.33507E+01  1.29993E+01  1.26847E+01  1.24135E+01  1.21919E+01  1.20259E+01
   1.19209E+01  1.18823E+01  1.19151E+01  1.20238E+01  1.22127E+01  1.24855E+01  1.28454E+01  1.32947E+01  1.38345E+01  1.44648E+01
   1.51836E+01  1.59869E+01  1.68683E+01  1.78187E+01  1.88259E+01  1.98749E+01  2.09477E+01  2.20236E+01  2.30798E+01  2.40919E+01
   2.50348E+01  2.58836E+01  2.66151E+01  2.72079E+01  2.76446E+01  2.79117E+01  2.80009E+01  2.79092E+01  2.76392E+01  2.71989E+01
   2.66012E+01  2.58633E+01  2.50056E+01  2.40511E+01  2.30238E+01  2.19478E+01  2.08465E+01  1.97418E+01  1.86528E+01  1.75963E+01
   1.65858E+01  1.56315E+01  1.47410E+01  1.39187E+01  1.31666E+01  1.24848E+01  1.18713E+01  1.13232E+01  1.08364E+01  1.04063E+01
   1.00281E+01  9.69683E+00  9.40754E+00  9.15565E+00  8.93689E+00  8.74729E+00  8.58332E+00  8.44179E+00  8.31994E+00  8.21531E+00
   8.12581E+00  8.04955E+00  7.98495E+00  7.93062E+00  7.88537E+00  7.84818E+00  7.81816E+00  7.79452E+00  7.77660E+00  7.76380E+00
   7.75564E+00  7.75165E+00  7.75146E+00  7.75470E+00  7.76108E+00  7.77030E+00  7.78217E+00  7.79644E+00  7.81293E+00  7.83144E+00
   7.85183E+00  7.87394E+00  7.89769E+00  7.92292E+00  7.94956E+00  7.97747E+00  8.00661E+00  8.03686E+00  8.06819E+00  8.10051E+00
   8.13377E+00  8.16789E+00  8.20285E+00  8.23859E+00  8.27510E+00  8.31230E+00  8.35017E+00  8.38866E+00  8.42778E+00  8.46746E+00
   8.50771E+00  8.54847E+00  8.58976E+00  8.63151E+00  8.67377E+00  8.71647E+00  8.75965E+00  8.80324E+00  8.84727E+00  8.89172E+00
   8.93661E+00  8.98191E+00  9.02765E+00  9.07380E+00  9.12040E+00  9.16745E+00  9.21498E+00  9.26301E+00
 NY background values follow
    -3.934E+01   -3.920E+01   -3.907E+01   -3.893E+01   -3.879E+01   -3.865E+01   -3.852E+01   -3.838E+01   -3.824E+01   -3.810E+01
    -3.797E+01   -3.783E+01   -3.769E+01   -3.756E+01   -3.742E+01   -3.728E+01   -3.714E+01   -3.701E+01   -3.687E+01   -3.673E+01
    -3.660E+01   -3.646E+01   -3.632E+01   -3.618E+01   -3.605E+01   -3.591E+01   -3.577E+01   -3.564E+01   -3.550E+01   -3.536E+01
    -3.523E+01   -3.509E+01   -3.495E+01   -3.482E+01   -3.468E+01   -3.454E+01   -3.441E+01   -3.427E+01   -3.413E+01   -3.400E+01
    -3.386E+01   -3.372E+01   -3.359E+01   -3.345E+01   -3.331E+01   -3.318E+01   -3.304E+01   -3.291E+01   -3.277E+01   -3.263E+01
    -3.250E+01   -3.236E+01   -3.223E+01   -3.209E+01   -3.196E+01   -3.182E+01   -3.169E+01   -3.155E+01   -3.142E+01   -3.128E+01
    -3.115E+01   -3.101E+01   -3.088E+01   -3.074E+01   -3.061E+01   -3.047E+01   -3.034E+01   -3.020E+01   -3.007E+01   -2.994E+01
    -2.980E+01   -2.967E+01   -2.953E+01   -2.940E+01   -2.927E+01   -2.913E+01   -2.900E+01   -2.887E+01   -2.873E+01   -2.860E+01
    -2.847E+01   -2.834E+01   -2.820E+01   -2.807E+01   -2.794E+01   -2.781E+01   -2.768E+01   -2.754E+01   -2.741E+01   -2.728E+01
    -2.715E+01   -2.702E+01   -2.689E+01   -2.676E+01   -2.663E+01   -2.650E+01   -2.636E+01   -2.623E+01   -2.610E+01   -2.597E+01
    -2.584E+01   -2.572E+01   -2.559E+01   -2.546E+01   -2.533E+01   -2.520E+01   -2.507E+01   -2.494E+01   -2.481E+01   -2.468E+01
    -2.456E+01   -2.443E+01   -2.430E+01   -2.417E+01   -2.404E+01   -2.392E+01   -2.379E+01   -2.366E+01   -2.353E+01   -2.341E+01
    -2.328E+01   -2.315E+01   -2.303E+01   -2.290E+01   -2.277E+01   -2.265E+01   -2.252E+01   -2.240E+01   -2.227E+01   -2.215E+01
    -2.202E+01   -2.190E+01   -2.177E+01   -2.165E+01   -2.152E+01   -2.140E+01   -2.127E+01   -2.115E+01   -2.102E+01   -2.090E+01
    -2.078E+01   -2.065E+01   -2.053E+01   -2.040E+01   -2.028E+01   -2.016E+01   -2.004E+01   -1.991E+01   -1.979E+01   -1.967E+01
    -1.954E+01   -1.942E+01   -1.930E+01   -1.918E+01   -1.906E+01   -1.893E+01   -1.881E+01   -1.869E+01   -1.857E+01   -1.845E+01
    -1.833E+01   -1.821E+01   -1.809E+01   -1.797E+01   -1.784E+01   -1.772E+01   -1.760E+01   -1.748E+01   -1.736E+01   -1.724E+01
    -1.712E+01   -1.701E+01   -1.689E+01   -1.677E+01   -1.665E+01   -1.653E+01   -1.641E+01   -1.629E+01   -1.617E+01   -1.605E+01
    -1.593E+01   -1.582E+01   -1.570E+01   -1.558E+01   -1.546E+01   -1.534E+01   -1.523E+01   -1.511E+01   -1.499E+01   -1.487E+01
    -1.476E+01   -1.464E+01   -1.452E+01   -1.441E+01   -1.429E+01   -1.418E+01   -1.406E+01   -1.394E+01   -1.383E+01   -1.371E+01
    -1.360E+01   -1.348E+01   -1.337E+01   -1.325E+01   -1.314E+01   -1.303E+01   -1.291E+01   -1.280E+01   -1.268E+01   -1.257E+01
    -1.246E+01   -1.235E+01   -1.223E+01   -1.212E+01   -1.201E+01   -1.190E+01   -1.179E+01   -1.168E+01   -1.157E+01   -1.146E+01
    -1.135E+01   -1.124E+01   -1.113E+01   -1.102E+01   -1.091E+01   -1.080E+01   -1.069E+01   -1.059E+01   -1.048E+01   -1.037E+01
    -1.026E+01   -1.016E+01   -1.005E+01   -9.945E+00   -9.840E+00   -9.735E+00   -9.630E+00   -9.526E+00   -9.421E+00   -9.318E+00
    -9.214E+00   -9.111E+00   -9.008E+00   -8.906E+00   -8.803E+00   -8.702E+00   -8.600E+00   -8.499E+00   -8.398E+00   -8.298E+00
    -8.197E+00   -8.098E+00   -7.998E+00   -7.899E+00   -7.800E+00   -7.701E+00   -7.603E+00   -7.505E+00   -7.408E+00   -7.311E+00
    -7.214E+00   -7.117E+00   -7.021E+00   -6.925E+00   -6.829E+00   -6.734E+00   -6.639E+00   -6.545E+00   -6.450E+00   -6.356E+00
    -6.263E+00   -6.170E+00   -6.077E+00   -5.984E+00   -5.892E+00   -5.800E+00   -5.708E+00   -5.617E+00   -5.526E+00   -5.435E+00
    -5.345E+00   -5.255E+00   -5.165E+00   -5.076E+00   -4.987E+00   -4.898E+00   -4.810E+00   -4.722E+00   -4.634E+00   -4.547E+00
    -4.460E+00   -4.373E+00   -4.286E+00   -4.200E+00   -4.114E+00   -4.029E+00   -3.944E+00   -3.859E+00   -3.774E+00   -3.690E+00
    -3.606E+00   -3.522E+00   -3.439E+00   -3.356E+00   -3.273E+00   -3.191E+00   -3.109E+00   -3.027E+00   -2.946E+00   -2.865E+00
    -2.784E+00   -2.703E+00   -2.623E+00   -2.543E+00   -2.463E+00   -2.384E+00   -2.305E+00   -2.226E+00   -2.148E+00   -2.070E+00
    -1.992E+00   -1.914E+00   -1.837E+00   -1.760E+00   -1.684E+00   -1.607E+00   -1.531E+00   -1.455E+00   -1.380E+00   -1.305E+00
    -1.230E+00   -1.155E+00   -1.081E+00   -1.007E+00   -9.327E-01   -8.591E-01   -7.858E-01   -7.128E-01   -6.400E-01   -5.675E-01
    -4.953E-01   -4.233E-01   -3.515E-01   -2.801E-01   -2.088E-01   -1.379E-01   -6.717E-02    3.292E-03    7.351E-02    1.435E-01
     2.132E-01    2.827E-01    3.519E-01    4.209E-01    4.897E-01    5.582E-01    6.265E-01    6.946E-01    7.624E-01    8.300E-01
     8.974E-01    9.646E-01    1.032E+00    1.098E+00    1.165E+00    1.231E+00    1.297E+00    1.363E+00    1.429E+00    1.494E+00
     1.559E+00    1.624E+00    1.689E+00    1.754E+00    1.818E+00    1.882E+00    1.946E+00    2.010E+00    2.074E+00    2.137E+00
     2.201E+00    2.264E+00    2.327E+00    2.390E+00    2.452E+00    2.515E+00    2.577E+00    2.639E+00    2.701E+00    2.763E+00
     2.824E+00    2.886E+00    2.947E+00    3.008E+00    3.069E+00    3.130E+00    3.190E+00    3.251E+00    3.311E+00    3.371E+00
     3.432E+00    3.492E+00    3.551E+00    3.611E+00    3.671E+00    3.730E+00    3.789E+00    3.849E+00    3.908E+00    3.967E+00
     4.025E+00    4.084E+00    4.143E+00    4.201E+00    4.259E+00    4.318E+00    4.376E+00    4.434E+00    4.492E+00    4.550E+00
     4.607E+00    4.665E+00    4.723E+00    4.780E+00    4.837E+00    4.895E+00    4.952E+00    5.009E+00    5.066E+00    5.123E+00
     5.180E+00    5.237E+00    5.293E+00    5.350E+00    5.406E+00    5.463E+00    5.519E+00    5.576E+00    5.632E+00    5.688E+00
     5.744E+00    5.800E+00    5.856E+00    5.912E+00    5.968E+00    6.024E+00    6.080E+00    6.136E+00    6.191E+00    6.247E+00
     6.303E+00    6.358E+00    6.414E+00    6.469E+00    6.525E+00    6.580E+00    6.636E+00    6.691E+00    6.746E+00    6.802E+00
     6.857E+00    6.912E+00    6.967E+00    7.023E+00    7.078E+00    7.133E+00    7.188E+00    7.243E+00    7.298E+00    7.353E+00
     7.408E+00    7.463E+00    7.518E+00    7.573E+00    7.628E+00    7.683E+00    7.738E+00    7.793E+00    7.848E+00    7.903E+00
     7.958E+00    8.013E+00    8.068E+00    8.122E+00    8.177E+00    8.232E+00    8.287E+00    8.342E+00    8.397E+00    8.452E+00
     8.506E+00    8.561E+00    8.616E+00    8.671E+00    8.726E+00    8.781E+00    8.836E+00    8.890E+00
 Ala      Conc. = 4.23E+02
