 LCModel (Version 6.3-1L) Copyright: S.W. Provencher.          Ref.: Magn. Reson. Med. 30:672-679 (1993).                
 Slice#2 Row#6 Col#12  PD_24_press_2_raw_act
 36 lines in following concentration table = NCONC+1
    Conc.  %SD /Cr+PCr  Metabolite                                         
  587.425  28%   0.000 Ala                                                 
   85.394  89%   0.000 Asp                                                 
    0.000 999%   0.000 Cr                                                  
    0.000 999%   0.000 PCr                                                 
   23.586 197%   0.000 GABA                                                
   15.514 294%   0.000 Glc                                                 
    0.000 999%   0.000 Gln                                                 
  782.212  42%   0.000 Glu                                                 
    0.000 999%   0.000 GPC                                                 
    0.000 999%   0.000 PCh                                                 
    0.000 999%   0.000 GSH                                                 
  184.647 106%   0.000 Ins                                                 
    0.000 999%   0.000 Lac                                                 
    0.000 999%   0.000 NAA                                                 
 1.32E+03   7%   0.000 NAAG                                                
   13.912  95%   0.000 Scyllo                                              
    0.000 999%   0.000 Tau                                                 
    0.000 999%   0.000 -CrCH2                                              
    0.000 999%   0.000 GPC+PCh                                             
 1.32E+03   7%   0.000 NAA+NAAG                                            
    0.000 999%   0.000 Cr+PCr                                              
  782.212  42%   0.000 Glu+Gln                                             
  628.393 105%   0.000 Lip13a                                              
    0.000 999%   0.000 Lip13b                                              
    0.000 999%   0.000 Lip09                                               
 4.92E+03   8%   0.000 MM09                                                
  200.242 106%   0.000 Lip20                                               
 1.49E+03  30%   0.000 MM20                                                
 2.87E+03  18%   0.000 MM12                                                
 2.70E+03  22%   0.000 MM14                                                
 2.74E+03  20%   0.000 MM17                                                
  628.393 105%   0.000 Lip13a+Lip13b                                       
 6.20E+03  10%   0.000 MM14+Lip13a+Lip13b+MM12                             
 4.92E+03   8%   0.000 MM09+Lip09                                          
 1.69E+03  26%   0.000 MM20+Lip20                                          
   6 lines in following misc. output table
  FWHM = 0.076 ppm    S/N =   7                                            
  Data shift = 0.023 ppm                                                   
  Ph: 121 deg      45.3 deg/ppm                                            
  alphaB,S = 1.0E+00,   1.4E+02                                            
   14 spline knots.   Ns =11(1)                                            
  (15) 2 infls.   (15) 1 extrs.                                            
  498 points on ppm-axis = NY
      4.000000     3.992357     3.984714     3.977070     3.969427     3.961784     3.954141     3.946497     3.938854     3.931211
      3.923568     3.915925     3.908281     3.900638     3.892995     3.885352     3.877708     3.870065     3.862422     3.854779
      3.847136     3.839492     3.831849     3.824206     3.816563     3.808919     3.801276     3.793633     3.785990     3.778347
      3.770703     3.763060     3.755417     3.747774     3.740130     3.732487     3.724844     3.717201     3.709558     3.701914
      3.694271     3.686628     3.678985     3.671341     3.663698     3.656055     3.648412     3.640769     3.633125     3.625482
      3.617839     3.610196     3.602552     3.594909     3.587266     3.579623     3.571980     3.564336     3.556693     3.549050
      3.541407     3.533763     3.526120     3.518477     3.510834     3.503191     3.495547     3.487904     3.480261     3.472618
      3.464974     3.457331     3.449688     3.442045     3.434402     3.426758     3.419115     3.411472     3.403829     3.396185
      3.388542     3.380899     3.373256     3.365613     3.357969     3.350326     3.342683     3.335040     3.327396     3.319753
      3.312110     3.304467     3.296824     3.289180     3.281537     3.273894     3.266251     3.258607     3.250964     3.243321
      3.235678     3.228034     3.220391     3.212748     3.205105     3.197462     3.189818     3.182175     3.174532     3.166889
      3.159245     3.151602     3.143959     3.136316     3.128673     3.121029     3.113386     3.105743     3.098100     3.090456
      3.082813     3.075170     3.067527     3.059884     3.052240     3.044597     3.036954     3.029311     3.021667     3.014024
      3.006381     2.998738     2.991095     2.983451     2.975808     2.968165     2.960522     2.952878     2.945235     2.937592
      2.929949     2.922306     2.914662     2.907019     2.899376     2.891733     2.884089     2.876446     2.868803     2.861160
      2.853517     2.845873     2.838230     2.830587     2.822944     2.815300     2.807657     2.800014     2.792371     2.784728
      2.777084     2.769441     2.761798     2.754155     2.746511     2.738868     2.731225     2.723582     2.715939     2.708295
      2.700652     2.693009     2.685366     2.677722     2.670079     2.662436     2.654793     2.647150     2.639506     2.631863
      2.624220     2.616577     2.608933     2.601290     2.593647     2.586004     2.578361     2.570717     2.563074     2.555431
      2.547788     2.540144     2.532501     2.524858     2.517215     2.509572     2.501928     2.494285     2.486642     2.478999
      2.471355     2.463712     2.456069     2.448426     2.440783     2.433139     2.425496     2.417853     2.410210     2.402566
      2.394923     2.387280     2.379637     2.371994     2.364350     2.356707     2.349064     2.341421     2.333777     2.326134
      2.318491     2.310848     2.303205     2.295561     2.287918     2.280275     2.272632     2.264988     2.257345     2.249702
      2.242059     2.234416     2.226772     2.219129     2.211486     2.203843     2.196199     2.188556     2.180913     2.173270
      2.165627     2.157983     2.150340     2.142697     2.135054     2.127410     2.119767     2.112124     2.104481     2.096838
      2.089194     2.081551     2.073908     2.066265     2.058621     2.050978     2.043335     2.035692     2.028049     2.020405
      2.012762     2.005119     1.997476     1.989833     1.982190     1.974546     1.966903     1.959260     1.951617     1.943974
      1.936331     1.928688     1.921045     1.913402     1.905759     1.898115     1.890472     1.882829     1.875186     1.867543
      1.859900     1.852257     1.844614     1.836971     1.829327     1.821684     1.814041     1.806398     1.798755     1.791112
      1.783469     1.775826     1.768183     1.760540     1.752896     1.745253     1.737610     1.729967     1.722324     1.714681
      1.707038     1.699395     1.691752     1.684108     1.676465     1.668822     1.661179     1.653536     1.645893     1.638250
      1.630607     1.622964     1.615321     1.607677     1.600034     1.592391     1.584748     1.577105     1.569462     1.561819
      1.554176     1.546533     1.538890     1.531246     1.523603     1.515960     1.508317     1.500674     1.493031     1.485388
      1.477745     1.470102     1.462458     1.454815     1.447172     1.439529     1.431886     1.424243     1.416600     1.408957
      1.401314     1.393671     1.386027     1.378384     1.370741     1.363098     1.355455     1.347812     1.340169     1.332526
      1.324883     1.317240     1.309596     1.301953     1.294310     1.286667     1.279024     1.271381     1.263738     1.256095
      1.248452     1.240808     1.233165     1.225522     1.217879     1.210236     1.202593     1.194950     1.187307     1.179664
      1.172021     1.164377     1.156734     1.149091     1.141448     1.133805     1.126162     1.118519     1.110876     1.103233
      1.095590     1.087946     1.080303     1.072660     1.065017     1.057374     1.049731     1.042088     1.034445     1.026802
      1.019158     1.011515     1.003872     0.996229     0.988586     0.980943     0.973300     0.965657     0.958014     0.950371
      0.942727     0.935084     0.927441     0.919798     0.912155     0.904512     0.896869     0.889226     0.881583     0.873940
      0.866296     0.858653     0.851010     0.843367     0.835724     0.828081     0.820438     0.812795     0.805152     0.797508
      0.789865     0.782222     0.774579     0.766936     0.759293     0.751650     0.744007     0.736364     0.728721     0.721077
      0.713434     0.705791     0.698148     0.690505     0.682862     0.675219     0.667576     0.659933     0.652290     0.644646
      0.637003     0.629360     0.621717     0.614074     0.606431     0.598788     0.591145     0.583502     0.575858     0.568215
      0.560572     0.552929     0.545286     0.537643     0.530000     0.522357     0.514714     0.507071     0.499427     0.491784
      0.484141     0.476498     0.468855     0.461212     0.453569     0.445925     0.438282     0.430639     0.422996     0.415353
      0.407710     0.400067     0.392424     0.384780     0.377137     0.369494     0.361851     0.354208     0.346565     0.338922
      0.331278     0.323635     0.315992     0.308349     0.300706     0.293063     0.285420     0.277777     0.270133     0.262490
      0.254847     0.247204     0.239561     0.231918     0.224275     0.216631     0.208988     0.201345
 NY phased data points follow
   1.10490E+01  8.36014E+00  8.44913E+00  7.14012E+00  8.72140E+00  4.84052E+00  1.06552E+01  8.03152E+00  9.86721E+00  8.54267E+00
   3.05330E+00  1.30003E+00  7.84797E+00  7.15570E+00  3.14555E+00  5.82028E+00  3.06640E+00  5.78270E+00  8.14892E+00  1.02992E+00
   7.00764E+00  6.01818E+00  3.84461E+00  3.75621E+00  2.06382E+00  3.80053E+00  5.67960E+00  2.59555E+00  6.82374E+00  3.24591E+00
  -1.83113E+00  2.02503E+00  1.96445E+00 -4.80718E-01 -1.95563E+00  1.82746E+00  3.32219E+00  2.35133E+00  4.62128E+00  1.54099E+00
   6.69932E+00  4.46824E+00  1.48313E+00  6.59943E+00  4.16668E+00  2.07260E+00  2.79747E+00  2.41709E+00 -1.00975E+00  3.33684E+00
   3.91172E+00  4.47186E+00  5.00419E+00 -1.47341E+00 -6.69235E-01  3.27239E+00  2.87222E+00  2.68831E+00  2.68764E+00  1.77537E+00
  -1.19695E+00 -3.16334E+00 -4.43874E-01  4.68954E+00  6.88618E-01  4.00797E+00 -2.80842E-01 -4.10479E-02  5.70821E-01 -4.25893E-01
   1.18559E+00  1.51793E+00  4.51211E+00 -5.13997E+00 -3.13665E+00  1.01173E+00  1.21535E+00 -1.20684E+00 -5.72322E-01  1.72864E+00
   1.85377E+00 -8.66120E-01  1.19145E+00  1.59228E+00  3.97367E-02  2.61672E+00  6.13171E+00  4.29610E+00  9.37284E-02  7.17264E-01
  -4.25850E+00  1.12805E-01 -4.28991E-01  2.09296E+00  1.86921E+00  4.21638E-01  1.88669E+00  2.70499E+00 -2.43377E+00 -2.24622E-01
   2.48139E+00 -2.13657E+00 -1.46322E+00 -5.55264E+00 -4.15648E+00 -8.00157E-01 -1.87939E+00 -8.81665E-01 -2.37709E+00  7.10537E-01
   4.25701E+00 -3.60706E-01 -1.65320E+00  8.60453E-01  2.25085E+00 -2.77087E+00  6.10099E-01  7.49262E-01 -1.97567E+00 -1.65765E-01
  -2.43877E+00  4.78051E+00  2.26795E+00  2.43857E+00 -4.45325E+00  2.02715E+00  1.14918E+00 -1.83725E+00 -1.64168E+00 -3.39418E+00
  -6.30824E+00 -1.41483E+00 -1.79659E+00 -4.84976E+00 -2.66627E+00 -4.08238E+00 -1.69338E+00 -2.85874E+00  2.50429E-01  6.62116E-01
  -3.22267E+00 -2.78304E-01  5.69176E+00 -1.17712E+00 -4.10797E+00 -2.17432E+00  8.77761E-01  3.66069E+00 -5.77821E+00 -9.08281E-01
  -1.64746E+00 -1.38211E+00  7.32201E-01 -1.23765E+00 -7.47331E-01 -4.23595E+00 -3.70537E+00  1.88751E+00  5.29822E-01 -3.43714E+00
  -5.17537E+00 -1.49277E+00 -8.03154E+00 -3.03363E-01 -2.35911E+00 -3.45830E+00 -1.56879E+00  4.00216E+00 -4.55451E+00 -5.63543E+00
  -9.57141E-01 -2.63126E+00 -2.96205E+00  3.65710E-01 -1.40597E+00 -1.02613E+00 -3.74449E+00 -5.84036E+00 -2.77981E+00  1.65816E+00
  -5.96040E+00 -2.51779E+00 -3.43496E+00 -3.14308E+00  2.75573E+00 -3.68451E+00 -1.34161E+00  2.93506E+00 -1.61630E+00 -2.41741E+00
  -1.12548E+00 -4.01097E+00  3.12945E-01  8.56636E-02 -3.21078E+00 -1.21928E+00 -1.53343E+00 -1.02733E+00  1.33086E+00 -4.53812E+00
  -3.50140E+00  1.54536E-01  9.51968E-01 -1.57498E-01  7.55767E-01 -1.11237E+00  1.09416E+00  1.20181E+00 -1.36277E+00  1.04313E+00
   8.40972E-01  1.40584E+00 -2.38147E-01  8.17480E-01  2.65397E+00  2.74268E+00  1.56546E+00  2.66435E+00  8.31091E-01  1.31776E+00
  -4.14869E+00  1.79631E+00 -1.35288E+00 -4.54873E+00 -4.18425E-01 -2.38868E+00 -5.72753E-01  1.70709E+00  2.33474E+00 -3.19177E-01
   6.26476E-01  3.54181E+00  3.04701E+00  2.25678E+00  2.31701E-01  3.71346E+00  4.17553E+00  3.49387E+00  3.57938E+00  3.95646E+00
  -4.32803E-01  4.48397E-01  4.80634E+00  5.95830E+00  1.62648E-01  8.70322E+00  2.74278E+00  8.69970E+00  6.12500E+00  6.73288E+00
   1.10085E+01  9.93281E+00  1.17418E+01  1.73903E+01  2.51812E+01  2.90313E+01  2.76851E+01  3.36105E+01  3.60339E+01  3.31407E+01
   3.50653E+01  3.14202E+01  2.60924E+01  2.33225E+01  1.65745E+01  1.23870E+01  1.39926E+01  7.20681E+00  4.00884E+00  6.13356E-01
   4.06177E-01 -1.82821E-01  4.34963E+00 -1.29036E+00  5.09487E+00  1.98682E+00  6.98381E-01 -1.21127E+00 -6.27089E-01 -7.82546E-01
  -1.78296E-01  3.45981E+00  2.40649E+00  3.68633E+00  2.11586E+00  4.45072E+00  5.74842E-01  5.91844E+00  5.23315E+00  4.22593E+00
   2.33980E+00  1.11100E+00  4.62700E+00  7.88307E+00  7.18673E+00  6.28129E+00  3.54890E+00  9.12519E+00  1.02680E+01  5.06430E+00
   8.61236E+00  1.13949E+01  9.82763E+00  7.21321E+00  1.25076E+01  1.41655E+01  1.32990E+01  1.13778E+01  1.33253E+01  1.08452E+01
   1.15289E+01  1.38087E+01  1.45193E+01  1.63703E+01  1.62242E+01  1.47587E+01  9.60062E+00  1.01707E+01  1.10405E+01  1.09977E+01
   8.71038E+00  1.28341E+01  1.13492E+01  9.77574E+00  7.92398E+00  1.24990E+01  1.38694E+01  1.31584E+01  1.38868E+01  1.30839E+01
   1.24676E+01  8.07798E+00  1.14530E+01  6.27450E+00  1.13145E+01  9.49219E+00  9.71980E+00  8.83387E+00  1.11498E+01  1.07054E+01
   1.83432E+01  1.86850E+01  1.70725E+01  1.38767E+01  1.17155E+01  1.31962E+01  1.72010E+01  1.18713E+01  1.62483E+01  1.25945E+01
   1.20138E+01  1.53660E+01  1.34640E+01  1.42729E+01  9.32928E+00  1.09527E+01  1.42852E+01  1.63177E+01  1.42134E+01  1.39677E+01
   1.25929E+01  1.56217E+01  1.06054E+01  1.77296E+01  1.50050E+01  1.12706E+01  1.60435E+01  1.92460E+01  1.32166E+01  1.48125E+01
   1.08767E+01  1.68221E+01  1.75635E+01  1.46956E+01  1.61053E+01  1.21718E+01  1.15805E+01  1.49278E+01  1.55380E+01  1.54655E+01
   1.79815E+01  1.59697E+01  1.49814E+01  1.44431E+01  1.36242E+01  1.74732E+01  1.59558E+01  1.74270E+01  1.66529E+01  1.76368E+01
   1.37760E+01  1.75588E+01  1.96919E+01  1.67459E+01  1.85215E+01  1.31501E+01  1.76053E+01  1.80181E+01  1.59227E+01  1.62328E+01
   1.98490E+01  1.84864E+01  1.42941E+01  1.31790E+01  1.08528E+01  1.50734E+01  1.34542E+01  1.18734E+01  1.64240E+01  8.58708E+00
   1.16573E+01  9.29447E+00  5.53531E+00  5.95691E+00  3.91983E+00  7.02846E+00  4.03745E+00  2.82148E+00  6.07666E+00  9.35856E-01
   5.94928E+00  3.33901E+00 -1.50399E+00  2.37813E-02  1.01104E+00  5.47776E+00  1.98249E+00  1.39523E+00 -3.18394E-02  3.05175E+00
  -4.73939E-01  3.11536E-01 -1.18238E+00  2.71175E+00 -3.20093E+00  3.80424E+00 -4.91566E+00 -3.61845E+00 -2.00811E+00 -8.24286E+00
   5.26760E-01 -5.61986E+00 -5.35494E+00 -3.03146E+00 -5.25622E+00 -8.54209E+00 -7.74303E-01 -1.00950E+01 -9.91841E+00 -9.50919E+00
  -6.11371E+00 -3.81849E+00 -9.00507E+00 -8.87897E+00 -7.75848E+00 -8.88073E+00 -8.48336E+00 -7.47083E+00 -7.08176E+00 -8.99924E+00
  -1.04961E+01 -1.44970E+01 -8.51931E+00 -1.18450E+01 -1.15806E+01 -8.40656E+00 -1.24862E+01 -1.11274E+01 -8.99784E+00 -1.07309E+01
  -1.26521E+01 -1.29928E+01 -1.36885E+01 -1.12626E+01 -1.40061E+01 -1.40042E+01 -1.38326E+01 -1.16055E+01 -7.37516E+00 -1.32100E+01
  -1.13616E+01 -1.06484E+01 -6.68755E+00 -1.57957E+01 -1.46780E+01 -9.98114E+00 -8.59405E+00 -1.18999E+01 -1.52925E+01 -1.54621E+01
  -1.25942E+01 -1.38674E+01 -1.41767E+01 -1.24747E+01 -9.07348E+00 -1.40953E+01 -1.53477E+01 -1.43271E+01
 NY points of the fit to the data follow
   5.37748E+00  5.19293E+00  5.00226E+00  4.82732E+00  4.66654E+00  4.52300E+00  4.39944E+00  4.28157E+00  4.17101E+00  4.08044E+00
   4.00939E+00  3.95181E+00  3.90362E+00  3.86385E+00  3.83132E+00  3.79145E+00  3.72316E+00  3.63519E+00  3.56736E+00  3.55587E+00
   3.61792E+00  3.75661E+00  3.96095E+00  4.18400E+00  4.32120E+00  4.30010E+00  4.11679E+00  3.81176E+00  3.44955E+00  3.11855E+00
   2.88870E+00  2.79392E+00  2.83103E+00  2.97158E+00  3.17604E+00  3.39420E+00  3.57628E+00  3.70564E+00  3.78026E+00  3.76368E+00
   3.62854E+00  3.41808E+00  3.20545E+00  3.03499E+00  2.91946E+00  2.86694E+00  2.89621E+00  2.99847E+00  3.10488E+00  3.17297E+00
   3.17735E+00  3.10516E+00  2.97292E+00  2.80596E+00  2.61361E+00  2.42665E+00  2.27263E+00  2.16140E+00  2.08508E+00  2.03369E+00
   2.00939E+00  2.01068E+00  2.01453E+00  1.99930E+00  1.96008E+00  1.90221E+00  1.83320E+00  1.76147E+00  1.69738E+00  1.64861E+00
   1.61366E+00  1.58651E+00  1.56650E+00  1.55356E+00  1.54399E+00  1.53748E+00  1.52428E+00  1.49378E+00  1.44469E+00  1.38555E+00
   1.32892E+00  1.28427E+00  1.25798E+00  1.24985E+00  1.24865E+00  1.23996E+00  1.21360E+00  1.16807E+00  1.10405E+00  1.02251E+00
   9.28080E-01  8.26755E-01  7.26106E-01  6.34114E-01  5.55246E-01  4.87917E-01  4.23752E-01  3.56972E-01  2.94384E-01  2.47116E-01
   2.05557E-01  1.58644E-01  1.09779E-01  6.69183E-02  3.50448E-02  1.59039E-02  9.79523E-03  1.60612E-02  3.31146E-02  5.98883E-02
   9.34955E-02  1.28556E-01  1.62324E-01  1.94470E-01  2.25538E-01  2.55249E-01  2.82274E-01  3.05633E-01  3.25915E-01  3.44451E-01
   3.60965E-01  3.75386E-01  3.88495E-01  4.01679E-01  4.15890E-01  4.31769E-01  4.48447E-01  4.64416E-01  4.78003E-01  4.86534E-01
   4.87089E-01  4.76427E-01  4.53536E-01  4.20130E-01  3.79356E-01  3.33597E-01  2.82494E-01  2.25977E-01  1.64772E-01  1.00588E-01
   3.66599E-02 -2.40189E-02 -8.07163E-02 -1.40990E-01 -2.09188E-01 -2.76405E-01 -3.36390E-01 -3.87410E-01 -4.34871E-01 -5.02952E-01
  -6.11785E-01 -7.66567E-01 -9.48746E-01 -1.12631E+00 -1.27459E+00 -1.38632E+00 -1.46740E+00 -1.53520E+00 -1.60744E+00 -1.69093E+00
  -1.77781E+00 -1.86958E+00 -1.98325E+00 -2.13389E+00 -2.32819E+00 -2.55216E+00 -2.78361E+00 -3.01272E+00 -3.20706E+00 -3.33198E+00
  -3.38899E+00 -3.39513E+00 -3.37394E+00 -3.33761E+00 -3.27933E+00 -3.20239E+00 -3.13560E+00 -3.10417E+00 -3.11093E+00 -3.13807E+00
  -3.13718E+00 -3.05703E+00 -2.90654E+00 -2.72671E+00 -2.50372E+00 -2.20821E+00 -1.84437E+00 -1.44241E+00 -1.04711E+00 -6.89450E-01
  -3.99401E-01 -2.13740E-01 -1.35563E-01 -1.38385E-01 -2.09594E-01 -3.49383E-01 -5.23977E-01 -6.61940E-01 -7.55677E-01 -8.10627E-01
  -8.16872E-01 -7.75492E-01 -7.12967E-01 -6.63230E-01 -6.44508E-01 -6.66479E-01 -7.95275E-01 -1.04707E+00 -1.36128E+00 -1.65853E+00
  -1.88284E+00 -1.98576E+00 -1.88581E+00 -1.54430E+00 -1.04989E+00 -5.43636E-01 -1.38013E-01  7.74087E-02  3.63803E-02 -2.69647E-01
  -7.72760E-01 -1.34187E+00 -1.86207E+00 -2.22596E+00 -2.34357E+00 -2.18983E+00 -1.80922E+00 -1.26483E+00 -5.92596E-01  1.45913E-01
   8.25909E-01  1.39285E+00  1.86825E+00  2.29148E+00  2.62844E+00  2.82162E+00  2.90350E+00  2.94068E+00  2.93045E+00  2.85680E+00
   2.75669E+00  2.70176E+00  2.76329E+00  2.95986E+00  3.37032E+00  4.25881E+00  5.38863E+00  6.40148E+00  7.24837E+00  8.14151E+00
   9.35809E+00  1.11973E+01  1.40517E+01  1.80312E+01  2.25967E+01  2.69008E+01  3.04782E+01  3.31823E+01  3.47270E+01  3.48232E+01
   3.34140E+01  3.06212E+01  2.67822E+01  2.24182E+01  1.80593E+01  1.40403E+01  1.03374E+01  6.92981E+00  4.32127E+00  3.03241E+00
   2.49826E+00  2.17098E+00  1.94501E+00  1.78642E+00  1.65953E+00  1.54633E+00  1.44263E+00  1.34089E+00  1.23015E+00  1.13004E+00
   1.06690E+00  1.05713E+00  1.10935E+00  1.22366E+00  1.39788E+00  1.62656E+00  1.90165E+00  2.22365E+00  2.59447E+00  3.00898E+00
   3.46134E+00  3.95953E+00  4.51093E+00  5.11254E+00  5.75372E+00  6.42427E+00  7.11688E+00  7.81775E+00  8.50845E+00  9.17867E+00
   9.81769E+00  1.04178E+01  1.09694E+01  1.14587E+01  1.18795E+01  1.22350E+01  1.25187E+01  1.27219E+01  1.28410E+01  1.28789E+01
   1.28429E+01  1.27392E+01  1.25768E+01  1.23758E+01  1.21605E+01  1.19609E+01  1.18213E+01  1.17198E+01  1.15854E+01  1.14428E+01
   1.13625E+01  1.14094E+01  1.16036E+01  1.19335E+01  1.23749E+01  1.28407E+01  1.31146E+01  1.30621E+01  1.26727E+01  1.19805E+01
   1.10429E+01  1.00114E+01  9.13385E+00  8.64194E+00  8.63101E+00  9.05977E+00  9.85176E+00  1.08916E+01  1.20280E+01  1.31840E+01
   1.43025E+01  1.51645E+01  1.55887E+01  1.56480E+01  1.54710E+01  1.51519E+01  1.46973E+01  1.41181E+01  1.35794E+01  1.32484E+01
   1.30670E+01  1.29804E+01  1.29666E+01  1.30132E+01  1.31115E+01  1.32533E+01  1.34307E+01  1.36348E+01  1.38568E+01  1.40871E+01
   1.43163E+01  1.45351E+01  1.47347E+01  1.49073E+01  1.50462E+01  1.51463E+01  1.52046E+01  1.52197E+01  1.51923E+01  1.51251E+01
   1.50229E+01  1.48921E+01  1.47406E+01  1.45773E+01  1.44118E+01  1.42543E+01  1.41144E+01  1.40016E+01  1.39242E+01  1.38893E+01
   1.39023E+01  1.39670E+01  1.40850E+01  1.42560E+01  1.44775E+01  1.47451E+01  1.50521E+01  1.53903E+01  1.57501E+01  1.61204E+01
   1.64892E+01  1.68439E+01  1.71719E+01  1.74605E+01  1.76979E+01  1.78730E+01  1.79762E+01  1.79993E+01  1.79362E+01  1.77827E+01
   1.75368E+01  1.71984E+01  1.67698E+01  1.62551E+01  1.56601E+01  1.49924E+01  1.42603E+01  1.34735E+01  1.26418E+01  1.17756E+01
   1.08850E+01  9.97980E+00  9.06922E+00  8.16172E+00  7.26483E+00  6.38511E+00  5.52810E+00  4.69829E+00  3.89917E+00  3.13327E+00
   2.40229E+00  1.70716E+00  1.04817E+00  4.25061E-01 -1.62916E-01 -7.16846E-01 -1.23807E+00 -1.72811E+00 -2.18861E+00 -2.62131E+00
  -3.02796E+00 -3.41030E+00 -3.77000E+00 -4.10869E+00 -4.42790E+00 -4.72911E+00 -5.01370E+00 -5.28295E+00 -5.53804E+00 -5.78005E+00
  -6.01001E+00 -6.22885E+00 -6.43744E+00 -6.63656E+00 -6.82691E+00 -7.00914E+00 -7.18388E+00 -7.35168E+00 -7.51305E+00 -7.66844E+00
  -7.81827E+00 -7.96293E+00 -8.10279E+00 -8.23818E+00 -8.36940E+00 -8.49672E+00 -8.62038E+00 -8.74063E+00 -8.85769E+00 -8.97176E+00
  -9.08302E+00 -9.19163E+00 -9.29775E+00 -9.40153E+00 -9.50312E+00 -9.60264E+00 -9.70020E+00 -9.79590E+00 -9.88984E+00 -9.98213E+00
  -1.00729E+01 -1.01621E+01 -1.02499E+01 -1.03364E+01 -1.04216E+01 -1.05056E+01 -1.05885E+01 -1.06702E+01 -1.07509E+01 -1.08306E+01
  -1.09094E+01 -1.09872E+01 -1.10641E+01 -1.11403E+01 -1.12156E+01 -1.12901E+01 -1.13639E+01 -1.14370E+01 -1.15094E+01 -1.15811E+01
  -1.16522E+01 -1.17227E+01 -1.17926E+01 -1.18619E+01 -1.19307E+01 -1.19989E+01 -1.20665E+01 -1.21337E+01
 NY background values follow
     4.179E+00    4.133E+00    4.087E+00    4.041E+00    3.996E+00    3.950E+00    3.904E+00    3.858E+00    3.812E+00    3.767E+00
     3.721E+00    3.675E+00    3.629E+00    3.584E+00    3.538E+00    3.493E+00    3.447E+00    3.401E+00    3.356E+00    3.310E+00
     3.265E+00    3.220E+00    3.174E+00    3.129E+00    3.084E+00    3.039E+00    2.994E+00    2.949E+00    2.904E+00    2.859E+00
     2.814E+00    2.770E+00    2.725E+00    2.681E+00    2.636E+00    2.592E+00    2.548E+00    2.504E+00    2.460E+00    2.416E+00
     2.372E+00    2.329E+00    2.285E+00    2.242E+00    2.199E+00    2.156E+00    2.113E+00    2.070E+00    2.027E+00    1.985E+00
     1.942E+00    1.900E+00    1.858E+00    1.816E+00    1.774E+00    1.733E+00    1.691E+00    1.650E+00    1.609E+00    1.568E+00
     1.527E+00    1.486E+00    1.446E+00    1.406E+00    1.365E+00    1.325E+00    1.286E+00    1.246E+00    1.207E+00    1.167E+00
     1.128E+00    1.089E+00    1.051E+00    1.012E+00    9.737E-01    9.355E-01    8.975E-01    8.598E-01    8.222E-01    7.848E-01
     7.476E-01    7.106E-01    6.739E-01    6.373E-01    6.009E-01    5.647E-01    5.288E-01    4.931E-01    4.575E-01    4.222E-01
     3.871E-01    3.522E-01    3.176E-01    2.831E-01    2.489E-01    2.149E-01    1.811E-01    1.475E-01    1.142E-01    8.101E-02
     4.808E-02    1.536E-02   -1.715E-02   -4.944E-02   -8.152E-02   -1.134E-01   -1.450E-01   -1.765E-01   -2.077E-01   -2.387E-01
    -2.696E-01   -3.002E-01   -3.306E-01   -3.607E-01   -3.907E-01   -4.205E-01   -4.501E-01   -4.794E-01   -5.086E-01   -5.375E-01
    -5.663E-01   -5.948E-01   -6.232E-01   -6.513E-01   -6.792E-01   -7.069E-01   -7.345E-01   -7.618E-01   -7.889E-01   -8.159E-01
    -8.426E-01   -8.691E-01   -8.954E-01   -9.216E-01   -9.475E-01   -9.732E-01   -9.988E-01   -1.024E+00   -1.049E+00   -1.074E+00
    -1.099E+00   -1.124E+00   -1.148E+00   -1.172E+00   -1.196E+00   -1.220E+00   -1.244E+00   -1.268E+00   -1.291E+00   -1.314E+00
    -1.338E+00   -1.361E+00   -1.383E+00   -1.406E+00   -1.429E+00   -1.451E+00   -1.474E+00   -1.496E+00   -1.518E+00   -1.540E+00
    -1.562E+00   -1.584E+00   -1.605E+00   -1.627E+00   -1.648E+00   -1.670E+00   -1.691E+00   -1.712E+00   -1.734E+00   -1.755E+00
    -1.776E+00   -1.797E+00   -1.817E+00   -1.838E+00   -1.859E+00   -1.880E+00   -1.901E+00   -1.921E+00   -1.942E+00   -1.962E+00
    -1.983E+00   -2.003E+00   -2.024E+00   -2.044E+00   -2.065E+00   -2.085E+00   -2.105E+00   -2.126E+00   -2.146E+00   -2.167E+00
    -2.187E+00   -2.207E+00   -2.228E+00   -2.248E+00   -2.268E+00   -2.289E+00   -2.309E+00   -2.329E+00   -2.350E+00   -2.370E+00
    -2.391E+00   -2.411E+00   -2.432E+00   -2.452E+00   -2.473E+00   -2.493E+00   -2.514E+00   -2.535E+00   -2.555E+00   -2.576E+00
    -2.597E+00   -2.618E+00   -2.639E+00   -2.660E+00   -2.681E+00   -2.702E+00   -2.723E+00   -2.744E+00   -2.765E+00   -2.786E+00
    -2.808E+00   -2.829E+00   -2.851E+00   -2.873E+00   -2.894E+00   -2.916E+00   -2.938E+00   -2.960E+00   -2.982E+00   -3.004E+00
    -3.026E+00   -3.049E+00   -3.071E+00   -3.094E+00   -3.116E+00   -3.139E+00   -3.162E+00   -3.185E+00   -3.208E+00   -3.231E+00
    -3.254E+00   -3.277E+00   -3.301E+00   -3.324E+00   -3.348E+00   -3.371E+00   -3.395E+00   -3.419E+00   -3.443E+00   -3.467E+00
    -3.491E+00   -3.515E+00   -3.540E+00   -3.564E+00   -3.589E+00   -3.613E+00   -3.638E+00   -3.663E+00   -3.688E+00   -3.713E+00
    -3.738E+00   -3.763E+00   -3.788E+00   -3.814E+00   -3.839E+00   -3.865E+00   -3.891E+00   -3.916E+00   -3.942E+00   -3.968E+00
    -3.994E+00   -4.021E+00   -4.047E+00   -4.073E+00   -4.100E+00   -4.126E+00   -4.153E+00   -4.180E+00   -4.207E+00   -4.234E+00
    -4.261E+00   -4.288E+00   -4.316E+00   -4.343E+00   -4.371E+00   -4.398E+00   -4.426E+00   -4.454E+00   -4.482E+00   -4.510E+00
    -4.538E+00   -4.567E+00   -4.595E+00   -4.624E+00   -4.652E+00   -4.681E+00   -4.710E+00   -4.739E+00   -4.768E+00   -4.797E+00
    -4.826E+00   -4.856E+00   -4.885E+00   -4.915E+00   -4.945E+00   -4.975E+00   -5.005E+00   -5.035E+00   -5.065E+00   -5.095E+00
    -5.126E+00   -5.156E+00   -5.187E+00   -5.218E+00   -5.249E+00   -5.280E+00   -5.311E+00   -5.342E+00   -5.373E+00   -5.405E+00
    -5.437E+00   -5.468E+00   -5.500E+00   -5.532E+00   -5.564E+00   -5.597E+00   -5.629E+00   -5.661E+00   -5.694E+00   -5.727E+00
    -5.760E+00   -5.792E+00   -5.826E+00   -5.859E+00   -5.892E+00   -5.926E+00   -5.959E+00   -5.993E+00   -6.027E+00   -6.061E+00
    -6.095E+00   -6.129E+00   -6.163E+00   -6.198E+00   -6.232E+00   -6.267E+00   -6.302E+00   -6.337E+00   -6.372E+00   -6.407E+00
    -6.442E+00   -6.478E+00   -6.513E+00   -6.549E+00   -6.585E+00   -6.621E+00   -6.657E+00   -6.693E+00   -6.730E+00   -6.766E+00
    -6.803E+00   -6.839E+00   -6.876E+00   -6.913E+00   -6.950E+00   -6.988E+00   -7.025E+00   -7.063E+00   -7.100E+00   -7.138E+00
    -7.176E+00   -7.214E+00   -7.252E+00   -7.291E+00   -7.329E+00   -7.368E+00   -7.407E+00   -7.446E+00   -7.485E+00   -7.524E+00
    -7.563E+00   -7.603E+00   -7.642E+00   -7.682E+00   -7.722E+00   -7.762E+00   -7.802E+00   -7.842E+00   -7.883E+00   -7.923E+00
    -7.964E+00   -8.005E+00   -8.046E+00   -8.087E+00   -8.128E+00   -8.170E+00   -8.211E+00   -8.253E+00   -8.295E+00   -8.337E+00
    -8.379E+00   -8.422E+00   -8.464E+00   -8.507E+00   -8.550E+00   -8.592E+00   -8.636E+00   -8.679E+00   -8.722E+00   -8.766E+00
    -8.809E+00   -8.853E+00   -8.897E+00   -8.941E+00   -8.986E+00   -9.030E+00   -9.075E+00   -9.119E+00   -9.164E+00   -9.209E+00
    -9.254E+00   -9.299E+00   -9.345E+00   -9.390E+00   -9.436E+00   -9.482E+00   -9.528E+00   -9.574E+00   -9.620E+00   -9.666E+00
    -9.713E+00   -9.759E+00   -9.806E+00   -9.853E+00   -9.900E+00   -9.947E+00   -9.994E+00   -1.004E+01   -1.009E+01   -1.014E+01
    -1.018E+01   -1.023E+01   -1.028E+01   -1.033E+01   -1.038E+01   -1.042E+01   -1.047E+01   -1.052E+01   -1.057E+01   -1.062E+01
    -1.067E+01   -1.072E+01   -1.077E+01   -1.081E+01   -1.086E+01   -1.091E+01   -1.096E+01   -1.101E+01   -1.106E+01   -1.111E+01
    -1.116E+01   -1.121E+01   -1.126E+01   -1.131E+01   -1.136E+01   -1.141E+01   -1.146E+01   -1.151E+01   -1.156E+01   -1.161E+01
    -1.166E+01   -1.171E+01   -1.176E+01   -1.181E+01   -1.187E+01   -1.192E+01   -1.197E+01   -1.202E+01   -1.207E+01   -1.212E+01
    -1.217E+01   -1.222E+01   -1.227E+01   -1.232E+01   -1.237E+01   -1.243E+01   -1.248E+01   -1.253E+01   -1.258E+01   -1.263E+01
    -1.268E+01   -1.273E+01   -1.278E+01   -1.283E+01   -1.288E+01   -1.293E+01   -1.299E+01   -1.304E+01
 Ala      Conc. = 5.87E+02
