 LCModel (Version 6.3-1L) Copyright: S.W. Provencher.          Ref.: Magn. Reson. Med. 30:672-679 (1993).                
 Slice#2 Row#10 Col#5  PD_24_press_2_raw_act
 36 lines in following concentration table = NCONC+1
    Conc.  %SD /Cr+PCr  Metabolite                                         
  278.546  45%   0.142 Ala                                                 
    0.000 999%   0.000 Asp                                                 
 1.20E+03  22%   0.610 Cr                                                  
  767.506  36%   0.390 PCr                                                 
    0.000 999%   0.000 GABA                                                
    0.000 999%   0.000 Glc                                                 
  906.403  29%   0.461 Gln                                                 
 1.38E+03  21%   0.702 Glu                                                 
  472.726   6%   0.240 GPC                                                 
    0.000 999%   0.000 PCh                                                 
  616.631  14%   0.314 GSH                                                 
 1.45E+03  24%   0.738 Ins                                                 
    0.000 999%   0.000 Lac                                                 
 2.94E+03   6%   1.493 NAA                                                 
  183.859  99% 9.4E-02 NAAG                                                
  114.288  29% 5.8E-02 Scyllo                                              
    0.000 999%   0.000 Tau                                                 
  223.455  64%   0.114 -CrCH2                                              
  472.726   6%   0.240 GPC+PCh                                             
 3.12E+03   3%   1.587 NAA+NAAG                                            
 1.97E+03   4%   1.000 Cr+PCr                                              
 2.29E+03  18%   1.163 Glu+Gln                                             
 1.09E+04  18%   5.537 Lip13a                                              
    0.000 999%   0.000 Lip13b                                              
    0.000 999%   0.000 Lip09                                               
 2.94E+03  16%   1.495 MM09                                                
 1.65E+03  40%   0.841 Lip20                                               
 5.22E+03  15%   2.653 MM20                                                
  896.269  33%   0.456 MM12                                                
 5.22E+03  16%   2.657 MM14                                                
    0.000 999%   0.000 MM17                                                
 1.09E+04  18%   5.537 Lip13a+Lip13b                                       
 1.70E+04  11%   8.650 MM14+Lip13a+Lip13b+MM12                             
 2.94E+03  16%   1.495 MM09+Lip09                                          
 6.87E+03  10%   3.494 MM20+Lip20                                          
   6 lines in following misc. output table
  FWHM = 0.054 ppm    S/N =  16                                            
  Data shift = 0.023 ppm                                                   
  Ph: -23 deg      -3.9 deg/ppm                                            
  alphaB,S = 5.4E-01,   9.8E+01                                            
   14 spline knots.   Ns = 7(1)                                            
  ( 9) 2 infls.   ( 5) 1 extrs.                                            
  498 points on ppm-axis = NY
      4.000000     3.992357     3.984714     3.977070     3.969427     3.961784     3.954141     3.946497     3.938854     3.931211
      3.923568     3.915925     3.908281     3.900638     3.892995     3.885352     3.877708     3.870065     3.862422     3.854779
      3.847136     3.839492     3.831849     3.824206     3.816563     3.808919     3.801276     3.793633     3.785990     3.778347
      3.770703     3.763060     3.755417     3.747774     3.740130     3.732487     3.724844     3.717201     3.709558     3.701914
      3.694271     3.686628     3.678985     3.671341     3.663698     3.656055     3.648412     3.640769     3.633125     3.625482
      3.617839     3.610196     3.602552     3.594909     3.587266     3.579623     3.571980     3.564336     3.556693     3.549050
      3.541407     3.533763     3.526120     3.518477     3.510834     3.503191     3.495547     3.487904     3.480261     3.472618
      3.464974     3.457331     3.449688     3.442045     3.434402     3.426758     3.419115     3.411472     3.403829     3.396185
      3.388542     3.380899     3.373256     3.365613     3.357969     3.350326     3.342683     3.335040     3.327396     3.319753
      3.312110     3.304467     3.296824     3.289180     3.281537     3.273894     3.266251     3.258607     3.250964     3.243321
      3.235678     3.228034     3.220391     3.212748     3.205105     3.197462     3.189818     3.182175     3.174532     3.166889
      3.159245     3.151602     3.143959     3.136316     3.128673     3.121029     3.113386     3.105743     3.098100     3.090456
      3.082813     3.075170     3.067527     3.059884     3.052240     3.044597     3.036954     3.029311     3.021667     3.014024
      3.006381     2.998738     2.991095     2.983451     2.975808     2.968165     2.960522     2.952878     2.945235     2.937592
      2.929949     2.922306     2.914662     2.907019     2.899376     2.891733     2.884089     2.876446     2.868803     2.861160
      2.853517     2.845873     2.838230     2.830587     2.822944     2.815300     2.807657     2.800014     2.792371     2.784728
      2.777084     2.769441     2.761798     2.754155     2.746511     2.738868     2.731225     2.723582     2.715939     2.708295
      2.700652     2.693009     2.685366     2.677722     2.670079     2.662436     2.654793     2.647150     2.639506     2.631863
      2.624220     2.616577     2.608933     2.601290     2.593647     2.586004     2.578361     2.570717     2.563074     2.555431
      2.547788     2.540144     2.532501     2.524858     2.517215     2.509572     2.501928     2.494285     2.486642     2.478999
      2.471355     2.463712     2.456069     2.448426     2.440783     2.433139     2.425496     2.417853     2.410210     2.402566
      2.394923     2.387280     2.379637     2.371994     2.364350     2.356707     2.349064     2.341421     2.333777     2.326134
      2.318491     2.310848     2.303205     2.295561     2.287918     2.280275     2.272632     2.264988     2.257345     2.249702
      2.242059     2.234416     2.226772     2.219129     2.211486     2.203843     2.196199     2.188556     2.180913     2.173270
      2.165627     2.157983     2.150340     2.142697     2.135054     2.127410     2.119767     2.112124     2.104481     2.096838
      2.089194     2.081551     2.073908     2.066265     2.058621     2.050978     2.043335     2.035692     2.028049     2.020405
      2.012762     2.005119     1.997476     1.989833     1.982190     1.974546     1.966903     1.959260     1.951617     1.943974
      1.936331     1.928688     1.921045     1.913402     1.905759     1.898115     1.890472     1.882829     1.875186     1.867543
      1.859900     1.852257     1.844614     1.836971     1.829327     1.821684     1.814041     1.806398     1.798755     1.791112
      1.783469     1.775826     1.768183     1.760540     1.752896     1.745253     1.737610     1.729967     1.722324     1.714681
      1.707038     1.699395     1.691752     1.684108     1.676465     1.668822     1.661179     1.653536     1.645893     1.638250
      1.630607     1.622964     1.615321     1.607677     1.600034     1.592391     1.584748     1.577105     1.569462     1.561819
      1.554176     1.546533     1.538890     1.531246     1.523603     1.515960     1.508317     1.500674     1.493031     1.485388
      1.477745     1.470102     1.462458     1.454815     1.447172     1.439529     1.431886     1.424243     1.416600     1.408957
      1.401314     1.393671     1.386027     1.378384     1.370741     1.363098     1.355455     1.347812     1.340169     1.332526
      1.324883     1.317240     1.309596     1.301953     1.294310     1.286667     1.279024     1.271381     1.263738     1.256095
      1.248452     1.240808     1.233165     1.225522     1.217879     1.210236     1.202593     1.194950     1.187307     1.179664
      1.172021     1.164377     1.156734     1.149091     1.141448     1.133805     1.126162     1.118519     1.110876     1.103233
      1.095590     1.087946     1.080303     1.072660     1.065017     1.057374     1.049731     1.042088     1.034445     1.026802
      1.019158     1.011515     1.003872     0.996229     0.988586     0.980943     0.973300     0.965657     0.958014     0.950371
      0.942727     0.935084     0.927441     0.919798     0.912155     0.904512     0.896869     0.889226     0.881583     0.873940
      0.866296     0.858653     0.851010     0.843367     0.835724     0.828081     0.820438     0.812795     0.805152     0.797508
      0.789865     0.782222     0.774579     0.766936     0.759293     0.751650     0.744007     0.736364     0.728721     0.721077
      0.713434     0.705791     0.698148     0.690505     0.682862     0.675219     0.667576     0.659933     0.652290     0.644646
      0.637003     0.629360     0.621717     0.614074     0.606431     0.598788     0.591145     0.583502     0.575858     0.568215
      0.560572     0.552929     0.545286     0.537643     0.530000     0.522357     0.514714     0.507071     0.499427     0.491784
      0.484141     0.476498     0.468855     0.461212     0.453569     0.445925     0.438282     0.430639     0.422996     0.415353
      0.407710     0.400067     0.392424     0.384780     0.377137     0.369494     0.361851     0.354208     0.346565     0.338922
      0.331278     0.323635     0.315992     0.308349     0.300706     0.293063     0.285420     0.277777     0.270133     0.262490
      0.254847     0.247204     0.239561     0.231918     0.224275     0.216631     0.208988     0.201345
 NY phased data points follow
  -2.36946E+02 -2.29231E+02 -2.24810E+02 -2.25865E+02 -2.19585E+02 -2.13813E+02 -2.04015E+02 -1.98705E+02 -1.83758E+02 -1.78281E+02
  -1.68264E+02 -1.71058E+02 -1.69011E+02 -1.68772E+02 -1.70307E+02 -1.77850E+02 -1.82995E+02 -1.90155E+02 -1.87325E+02 -1.92286E+02
  -1.88911E+02 -1.83498E+02 -1.84327E+02 -1.83044E+02 -1.78648E+02 -1.71160E+02 -1.74095E+02 -1.66985E+02 -1.70595E+02 -1.60289E+02
  -1.58240E+02 -1.51718E+02 -1.50997E+02 -1.53191E+02 -1.48578E+02 -1.54591E+02 -1.50629E+02 -1.48260E+02 -1.44836E+02 -1.45919E+02
  -1.44434E+02 -1.40431E+02 -1.40274E+02 -1.38128E+02 -1.37780E+02 -1.34906E+02 -1.35093E+02 -1.29297E+02 -1.27959E+02 -1.28935E+02
  -1.30238E+02 -1.30097E+02 -1.29620E+02 -1.32165E+02 -1.31041E+02 -1.29715E+02 -1.29605E+02 -1.27616E+02 -1.22573E+02 -1.24775E+02
  -1.25918E+02 -1.25045E+02 -1.23781E+02 -1.30963E+02 -1.28072E+02 -1.23206E+02 -1.28352E+02 -1.22667E+02 -1.22952E+02 -1.22890E+02
  -1.20690E+02 -1.14334E+02 -1.15065E+02 -1.12916E+02 -1.13170E+02 -1.14102E+02 -1.13930E+02 -1.08722E+02 -1.10137E+02 -1.13652E+02
  -1.09501E+02 -1.10098E+02 -1.05038E+02 -1.06356E+02 -1.03976E+02 -1.03935E+02 -1.00345E+02 -1.00909E+02 -9.88290E+01 -9.84185E+01
  -9.76984E+01 -9.62937E+01 -9.53367E+01 -9.52876E+01 -9.49222E+01 -9.50251E+01 -9.15885E+01 -8.76789E+01 -8.54075E+01 -8.04940E+01
  -7.22289E+01 -6.63274E+01 -5.93174E+01 -5.29852E+01 -5.17729E+01 -5.42248E+01 -6.46346E+01 -7.20690E+01 -7.41459E+01 -7.88606E+01
  -7.95889E+01 -8.12729E+01 -8.18418E+01 -8.45310E+01 -8.55565E+01 -8.22686E+01 -8.47167E+01 -8.18951E+01 -8.18188E+01 -7.86784E+01
  -7.47532E+01 -7.63224E+01 -7.04197E+01 -6.08432E+01 -4.70157E+01 -3.52654E+01 -2.30805E+01 -1.83264E+01 -1.58202E+01 -2.22299E+01
  -3.05469E+01 -4.53272E+01 -5.38635E+01 -5.98764E+01 -7.02697E+01 -6.95480E+01 -7.19717E+01 -7.56969E+01 -7.69090E+01 -7.61274E+01
  -7.45318E+01 -7.83572E+01 -7.25833E+01 -7.67299E+01 -7.95471E+01 -7.81592E+01 -7.54164E+01 -7.48893E+01 -7.12995E+01 -7.59354E+01
  -7.56223E+01 -7.52252E+01 -7.75010E+01 -7.57982E+01 -7.54512E+01 -7.57253E+01 -7.35930E+01 -7.07143E+01 -6.97412E+01 -7.13629E+01
  -7.10104E+01 -7.06936E+01 -7.56567E+01 -7.77794E+01 -7.54894E+01 -7.37588E+01 -7.19534E+01 -7.15539E+01 -7.03365E+01 -7.52562E+01
  -7.56829E+01 -7.59695E+01 -8.05163E+01 -8.41385E+01 -8.24604E+01 -7.99342E+01 -8.29806E+01 -8.07349E+01 -7.90015E+01 -7.72149E+01
  -7.71443E+01 -7.84984E+01 -7.67508E+01 -7.40571E+01 -7.31554E+01 -7.30003E+01 -7.18904E+01 -6.82222E+01 -6.58434E+01 -6.54474E+01
  -5.80637E+01 -5.83426E+01 -5.94924E+01 -5.41995E+01 -5.71559E+01 -6.01428E+01 -5.52042E+01 -6.08590E+01 -5.94730E+01 -5.71347E+01
  -6.26055E+01 -5.93748E+01 -5.38899E+01 -5.41906E+01 -5.18901E+01 -5.17961E+01 -5.55501E+01 -5.82184E+01 -5.85015E+01 -6.01721E+01
  -6.00452E+01 -5.55151E+01 -4.92920E+01 -5.01744E+01 -4.21175E+01 -4.13567E+01 -3.96166E+01 -4.03877E+01 -4.00979E+01 -4.29559E+01
  -4.84486E+01 -4.84554E+01 -4.82649E+01 -4.55986E+01 -4.40785E+01 -3.96792E+01 -3.90711E+01 -3.67591E+01 -3.39708E+01 -3.84078E+01
  -3.50241E+01 -3.69778E+01 -3.28284E+01 -3.42777E+01 -3.97283E+01 -4.00690E+01 -3.34233E+01 -3.69767E+01 -3.87975E+01 -4.05253E+01
  -4.09724E+01 -4.08107E+01 -3.85124E+01 -3.56707E+01 -3.49279E+01 -3.59184E+01 -3.24729E+01 -2.95961E+01 -3.19030E+01 -3.11850E+01
  -2.61521E+01 -1.96175E+01 -2.00536E+01 -1.31999E+01 -6.53823E+00 -3.79416E+00  8.39164E+00  1.98043E+01  4.61334E+01  5.72510E+01
   6.14408E+01  6.25602E+01  5.14200E+01  2.81261E+01  1.07536E+01 -9.46323E+00 -1.99812E+01 -2.66235E+01 -3.54607E+01 -3.87325E+01
  -4.05610E+01 -4.53969E+01 -4.39166E+01 -4.34768E+01 -4.59537E+01 -4.32842E+01 -4.20602E+01 -4.54041E+01 -4.46039E+01 -4.81965E+01
  -5.13348E+01 -5.05728E+01 -4.72860E+01 -5.22029E+01 -5.00026E+01 -5.33971E+01 -5.21913E+01 -5.43207E+01 -5.66163E+01 -5.58324E+01
  -5.68257E+01 -5.89232E+01 -6.03214E+01 -5.64178E+01 -5.83739E+01 -5.95947E+01 -5.87465E+01 -5.63317E+01 -5.91518E+01 -5.72730E+01
  -6.25406E+01 -6.16013E+01 -5.97459E+01 -5.70312E+01 -5.16281E+01 -4.95587E+01 -5.26169E+01 -5.13642E+01 -4.62351E+01 -4.18213E+01
  -3.77392E+01 -3.39684E+01 -3.54172E+01 -2.75638E+01 -2.75616E+01 -2.76377E+01 -2.69821E+01 -2.60007E+01 -2.21203E+01 -2.16563E+01
  -2.32633E+01 -1.96396E+01 -2.15626E+01 -1.54876E+01 -1.54166E+01 -2.35869E+01 -1.56043E+01 -1.58658E+01 -1.45931E+01 -1.34762E+01
  -1.70778E+01 -1.19233E+01 -1.22171E+01 -1.84672E+01 -1.00199E+01 -1.49175E+01 -8.08773E+00 -9.34468E+00 -9.86958E+00 -6.91757E+00
  -1.04500E+01 -1.22760E+01 -8.94175E+00 -4.22230E+00 -7.08517E+00 -5.48975E+00 -6.91204E+00 -8.07168E+00 -3.24011E+00 -6.10079E+00
  -6.28173E+00 -7.46514E+00 -5.28390E+00 -6.60511E+00 -6.47507E+00 -8.41604E+00 -6.74044E+00 -9.85627E+00 -1.15990E+01 -9.43627E+00
  -8.79562E+00 -1.08342E+01 -7.59435E+00 -1.03561E+01 -8.39282E+00 -1.20334E+01 -1.08031E+01 -1.31083E+01 -9.79873E+00 -1.47270E+01
  -1.15085E+01 -1.39691E+01 -7.93180E+00 -1.34243E+01 -1.09158E+01 -1.80334E+01 -1.40245E+01 -1.53794E+01 -1.35070E+01 -1.99909E+01
  -1.25996E+01 -1.72782E+01 -1.68420E+01 -1.44754E+01 -1.33995E+01 -1.20320E+01 -1.74087E+01 -1.62865E+01 -1.54016E+01 -1.71706E+01
  -1.26737E+01 -1.39853E+01 -1.63729E+01 -1.01492E+01 -1.67294E+01 -1.50372E+01 -8.36745E+00 -1.14364E+01 -1.08627E+01 -7.99316E+00
  -6.27221E+00 -9.82105E+00 -8.09793E+00 -9.34300E+00 -8.44453E+00 -9.99798E+00 -4.92966E+00 -9.28287E+00 -1.00036E+01 -1.07317E+01
  -8.24699E+00 -1.36124E+01 -1.18917E+01 -1.26971E+01 -1.38470E+01 -1.52309E+01 -1.78450E+01 -1.81536E+01 -2.07306E+01 -1.61168E+01
  -2.38806E+01 -1.88990E+01 -1.59402E+01 -1.66986E+01 -1.82695E+01 -2.15267E+01 -1.84017E+01 -1.84615E+01 -1.83102E+01 -2.29791E+01
  -2.17425E+01 -1.87629E+01 -1.97828E+01 -1.78437E+01 -2.00862E+01 -2.22742E+01 -1.71750E+01 -1.66911E+01 -2.19562E+01 -1.92452E+01
  -1.95222E+01 -2.28921E+01 -1.95507E+01 -1.98174E+01 -2.32607E+01 -2.26312E+01 -1.84932E+01 -1.79607E+01 -2.39160E+01 -2.05091E+01
  -1.67757E+01 -1.90675E+01 -2.12051E+01 -1.88966E+01 -1.99578E+01 -1.93025E+01 -2.05513E+01 -2.17086E+01 -2.25775E+01 -1.93594E+01
  -2.03191E+01 -2.02406E+01 -1.52803E+01 -2.03606E+01 -1.89168E+01 -1.87811E+01 -2.11332E+01 -2.40692E+01 -1.98429E+01 -2.19356E+01
  -2.11001E+01 -2.48998E+01 -1.67516E+01 -2.06972E+01 -1.66147E+01 -2.22863E+01 -1.57015E+01 -2.00877E+01 -1.90495E+01 -2.43491E+01
  -1.69874E+01 -1.78744E+01 -1.72842E+01 -1.69511E+01 -1.99017E+01 -1.93169E+01 -2.05905E+01 -1.73325E+01 -1.84117E+01 -1.98004E+01
  -1.66785E+01 -1.31022E+01 -1.68269E+01 -1.81218E+01 -1.73852E+01 -2.04937E+01 -1.80007E+01 -1.57054E+01
 NY points of the fit to the data follow
  -2.27305E+02 -2.25679E+02 -2.23399E+02 -2.20166E+02 -2.15799E+02 -2.10478E+02 -2.04346E+02 -1.96727E+02 -1.87767E+02 -1.78860E+02
  -1.71765E+02 -1.67750E+02 -1.67259E+02 -1.69910E+02 -1.74400E+02 -1.78916E+02 -1.82201E+02 -1.84205E+02 -1.85345E+02 -1.85738E+02
  -1.85190E+02 -1.83886E+02 -1.82399E+02 -1.80623E+02 -1.78699E+02 -1.76832E+02 -1.74447E+02 -1.70870E+02 -1.66124E+02 -1.60864E+02
  -1.55870E+02 -1.51958E+02 -1.49885E+02 -1.49802E+02 -1.51157E+02 -1.52907E+02 -1.54209E+02 -1.54925E+02 -1.55087E+02 -1.54217E+02
  -1.52135E+02 -1.49528E+02 -1.46784E+02 -1.43652E+02 -1.40094E+02 -1.36624E+02 -1.33842E+02 -1.32103E+02 -1.31498E+02 -1.31876E+02
  -1.32944E+02 -1.33994E+02 -1.34350E+02 -1.33994E+02 -1.33242E+02 -1.32155E+02 -1.30555E+02 -1.28593E+02 -1.26681E+02 -1.25065E+02
  -1.23856E+02 -1.23122E+02 -1.22783E+02 -1.22635E+02 -1.22320E+02 -1.21641E+02 -1.20660E+02 -1.19439E+02 -1.18013E+02 -1.16515E+02
  -1.15088E+02 -1.13849E+02 -1.12838E+02 -1.12046E+02 -1.11443E+02 -1.10939E+02 -1.10417E+02 -1.09821E+02 -1.09151E+02 -1.08425E+02
  -1.07463E+02 -1.06474E+02 -1.05491E+02 -1.04328E+02 -1.02987E+02 -1.01687E+02 -1.00669E+02 -1.00003E+02 -9.96740E+01 -9.95945E+01
  -9.96074E+01 -9.94552E+01 -9.89979E+01 -9.83295E+01 -9.76367E+01 -9.66272E+01 -9.40053E+01 -9.05229E+01 -8.67107E+01 -8.11561E+01
  -7.31958E+01 -6.41872E+01 -5.65439E+01 -5.20422E+01 -5.15501E+01 -5.52421E+01 -6.20245E+01 -6.95864E+01 -7.58554E+01 -8.02349E+01
  -8.35086E+01 -8.62320E+01 -8.74689E+01 -8.74069E+01 -8.69893E+01 -8.64549E+01 -8.58540E+01 -8.51788E+01 -8.43281E+01 -8.27785E+01
  -7.88428E+01 -7.34164E+01 -6.75861E+01 -5.94003E+01 -4.78152E+01 -3.47354E+01 -2.36692E+01 -1.71708E+01 -1.65487E+01 -2.21764E+01
  -3.24116E+01 -4.38866E+01 -5.36505E+01 -6.08867E+01 -6.68499E+01 -7.23848E+01 -7.59115E+01 -7.71575E+01 -7.73306E+01 -7.67474E+01
  -7.57212E+01 -7.46555E+01 -7.38035E+01 -7.32221E+01 -7.29701E+01 -7.30075E+01 -7.31702E+01 -7.33671E+01 -7.35711E+01 -7.37321E+01
  -7.38647E+01 -7.39276E+01 -7.39358E+01 -7.39283E+01 -7.39624E+01 -7.39361E+01 -7.38595E+01 -7.38409E+01 -7.39199E+01 -7.41613E+01
  -7.43890E+01 -7.43808E+01 -7.40966E+01 -7.36693E+01 -7.33084E+01 -7.31867E+01 -7.34028E+01 -7.39029E+01 -7.44698E+01 -7.49613E+01
  -7.53208E+01 -7.55276E+01 -7.57917E+01 -7.61441E+01 -7.64034E+01 -7.63814E+01 -7.60585E+01 -7.55599E+01 -7.50266E+01 -7.45728E+01
  -7.42602E+01 -7.39539E+01 -7.35719E+01 -7.30472E+01 -7.23023E+01 -7.13449E+01 -7.01017E+01 -6.84485E+01 -6.63426E+01 -6.40018E+01
  -6.19306E+01 -6.06373E+01 -6.01011E+01 -6.00728E+01 -6.03931E+01 -6.09251E+01 -6.13634E+01 -6.12186E+01 -6.03567E+01 -5.88653E+01
  -5.68694E+01 -5.45878E+01 -5.25961E+01 -5.15206E+01 -5.13450E+01 -5.21081E+01 -5.38041E+01 -5.59949E+01 -5.79035E+01 -5.87920E+01
  -5.86062E+01 -5.72480E+01 -5.46352E+01 -5.12222E+01 -4.79288E+01 -4.55821E+01 -4.44491E+01 -4.44324E+01 -4.56134E+01 -4.78008E+01
  -4.98933E+01 -5.10163E+01 -5.09656E+01 -4.97894E+01 -4.77163E+01 -4.50111E+01 -4.23222E+01 -4.02602E+01 -3.91080E+01 -3.86845E+01
  -3.85092E+01 -3.84323E+01 -3.84302E+01 -3.81888E+01 -3.73566E+01 -3.61259E+01 -3.48851E+01 -3.38565E+01 -3.32290E+01 -3.31466E+01
  -3.36874E+01 -3.45806E+01 -3.52890E+01 -3.53879E+01 -3.48039E+01 -3.37240E+01 -3.23034E+01 -3.07864E+01 -2.93647E+01 -2.79794E+01
  -2.66035E+01 -2.51221E+01 -2.26154E+01 -1.64180E+01 -8.21898E+00 -1.65894E-01  1.06103E+01  2.58378E+01  4.27163E+01  5.61399E+01
   6.26173E+01  6.05664E+01  4.94187E+01  3.12881E+01  1.13324E+01 -5.47667E+00 -1.77324E+01 -2.73865E+01 -3.60001E+01 -4.13703E+01
  -4.35055E+01 -4.47827E+01 -4.57561E+01 -4.65425E+01 -4.72517E+01 -4.79502E+01 -4.86513E+01 -4.93680E+01 -5.00797E+01 -5.07448E+01
  -5.13430E+01 -5.18809E+01 -5.23533E+01 -5.27517E+01 -5.30871E+01 -5.33767E+01 -5.36348E+01 -5.38589E+01 -5.40382E+01 -5.41690E+01
  -5.42518E+01 -5.42844E+01 -5.42666E+01 -5.41989E+01 -5.40864E+01 -5.39315E+01 -5.37318E+01 -5.34814E+01 -5.31712E+01 -5.27931E+01
  -5.23404E+01 -5.18040E+01 -5.11779E+01 -5.04579E+01 -4.96393E+01 -4.87165E+01 -4.76828E+01 -4.65327E+01 -4.52631E+01 -4.38710E+01
  -4.23555E+01 -4.07199E+01 -3.89698E+01 -3.71144E+01 -3.51662E+01 -3.31398E+01 -3.10523E+01 -2.89206E+01 -2.67583E+01 -2.45611E+01
  -2.23139E+01 -2.01780E+01 -1.82221E+01 -1.63603E+01 -1.46849E+01 -1.34408E+01 -1.28251E+01 -1.28464E+01 -1.32674E+01 -1.38668E+01
  -1.45188E+01 -1.49042E+01 -1.47425E+01 -1.40352E+01 -1.30284E+01 -1.19378E+01 -1.08438E+01 -9.99613E+00 -9.60971E+00 -9.60012E+00
  -9.74477E+00 -9.84560E+00 -9.85800E+00 -9.85334E+00 -9.76928E+00 -9.50789E+00 -9.13408E+00 -8.69720E+00 -8.22822E+00 -7.75215E+00
  -7.29103E+00 -6.86476E+00 -6.49084E+00 -6.18423E+00 -5.95712E+00 -5.81890E+00 -5.77615E+00 -5.83259E+00 -5.98901E+00 -6.24349E+00
  -6.59169E+00 -7.02725E+00 -7.54209E+00 -8.12648E+00 -8.76935E+00 -9.45872E+00 -1.01822E+01 -1.09273E+01 -1.16816E+01 -1.24330E+01
  -1.31696E+01 -1.38802E+01 -1.45543E+01 -1.51824E+01 -1.57558E+01 -1.62666E+01 -1.67077E+01 -1.70731E+01 -1.73577E+01 -1.75574E+01
  -1.76693E+01 -1.76911E+01 -1.76218E+01 -1.74615E+01 -1.72118E+01 -1.68757E+01 -1.64576E+01 -1.59635E+01 -1.54012E+01 -1.47804E+01
  -1.41125E+01 -1.34107E+01 -1.26897E+01 -1.19652E+01 -1.12541E+01 -1.05737E+01 -9.94118E+00 -9.37315E+00 -8.88471E+00 -8.48917E+00
  -8.19745E+00 -8.01772E+00 -7.95489E+00 -8.01043E+00 -8.18233E+00 -8.46537E+00 -8.85137E+00 -9.32966E+00 -9.88744E+00 -1.05104E+01
  -1.11834E+01 -1.18912E+01 -1.26188E+01 -1.33523E+01 -1.40789E+01 -1.47873E+01 -1.54682E+01 -1.61139E+01 -1.67189E+01 -1.72793E+01
  -1.77928E+01 -1.82582E+01 -1.86761E+01 -1.90476E+01 -1.93748E+01 -1.96604E+01 -1.99071E+01 -2.01180E+01 -2.02964E+01 -2.04453E+01
  -2.05679E+01 -2.06669E+01 -2.07451E+01 -2.08047E+01 -2.08480E+01 -2.08771E+01 -2.08939E+01 -2.08997E+01 -2.08961E+01 -2.08841E+01
  -2.08651E+01 -2.08400E+01 -2.08096E+01 -2.07747E+01 -2.07358E+01 -2.06937E+01 -2.06488E+01 -2.06016E+01 -2.05526E+01 -2.05020E+01
  -2.04501E+01 -2.03974E+01 -2.03440E+01 -2.02902E+01 -2.02360E+01 -2.01816E+01 -2.01270E+01 -2.00723E+01 -2.00176E+01 -1.99629E+01
  -1.99082E+01 -1.98535E+01 -1.97987E+01 -1.97441E+01 -1.96895E+01 -1.96348E+01 -1.95801E+01 -1.95253E+01 -1.94703E+01 -1.94153E+01
  -1.93600E+01 -1.93045E+01 -1.92486E+01 -1.91923E+01 -1.91357E+01 -1.90785E+01 -1.90208E+01 -1.89624E+01 -1.89033E+01 -1.88434E+01
  -1.87826E+01 -1.87210E+01 -1.86583E+01 -1.85944E+01 -1.85294E+01 -1.84631E+01 -1.83955E+01 -1.83264E+01 -1.82558E+01 -1.81834E+01
  -1.81094E+01 -1.80335E+01 -1.79558E+01 -1.78760E+01 -1.77940E+01 -1.77097E+01 -1.76232E+01 -1.75342E+01
 NY background values follow
    -2.313E+02   -2.292E+02   -2.272E+02   -2.252E+02   -2.232E+02   -2.212E+02   -2.192E+02   -2.172E+02   -2.152E+02   -2.133E+02
    -2.113E+02   -2.093E+02   -2.074E+02   -2.054E+02   -2.034E+02   -2.015E+02   -1.996E+02   -1.977E+02   -1.957E+02   -1.938E+02
    -1.919E+02   -1.901E+02   -1.882E+02   -1.863E+02   -1.845E+02   -1.827E+02   -1.808E+02   -1.790E+02   -1.772E+02   -1.755E+02
    -1.737E+02   -1.720E+02   -1.702E+02   -1.685E+02   -1.668E+02   -1.651E+02   -1.635E+02   -1.619E+02   -1.602E+02   -1.586E+02
    -1.571E+02   -1.555E+02   -1.540E+02   -1.525E+02   -1.510E+02   -1.495E+02   -1.480E+02   -1.466E+02   -1.452E+02   -1.439E+02
    -1.425E+02   -1.412E+02   -1.399E+02   -1.386E+02   -1.373E+02   -1.361E+02   -1.348E+02   -1.336E+02   -1.324E+02   -1.313E+02
    -1.301E+02   -1.290E+02   -1.279E+02   -1.268E+02   -1.258E+02   -1.247E+02   -1.237E+02   -1.227E+02   -1.217E+02   -1.207E+02
    -1.197E+02   -1.188E+02   -1.179E+02   -1.170E+02   -1.161E+02   -1.152E+02   -1.143E+02   -1.135E+02   -1.127E+02   -1.118E+02
    -1.110E+02   -1.103E+02   -1.095E+02   -1.087E+02   -1.080E+02   -1.072E+02   -1.065E+02   -1.058E+02   -1.051E+02   -1.044E+02
    -1.038E+02   -1.031E+02   -1.025E+02   -1.018E+02   -1.012E+02   -1.006E+02   -1.000E+02   -9.941E+01   -9.883E+01   -9.826E+01
    -9.770E+01   -9.715E+01   -9.661E+01   -9.608E+01   -9.556E+01   -9.505E+01   -9.455E+01   -9.406E+01   -9.358E+01   -9.310E+01
    -9.264E+01   -9.219E+01   -9.174E+01   -9.130E+01   -9.087E+01   -9.045E+01   -9.004E+01   -8.963E+01   -8.923E+01   -8.884E+01
    -8.846E+01   -8.808E+01   -8.772E+01   -8.735E+01   -8.700E+01   -8.665E+01   -8.631E+01   -8.598E+01   -8.565E+01   -8.533E+01
    -8.501E+01   -8.470E+01   -8.439E+01   -8.410E+01   -8.380E+01   -8.351E+01   -8.323E+01   -8.295E+01   -8.268E+01   -8.241E+01
    -8.214E+01   -8.188E+01   -8.162E+01   -8.137E+01   -8.111E+01   -8.086E+01   -8.061E+01   -8.037E+01   -8.012E+01   -7.988E+01
    -7.964E+01   -7.940E+01   -7.915E+01   -7.891E+01   -7.867E+01   -7.843E+01   -7.818E+01   -7.794E+01   -7.769E+01   -7.744E+01
    -7.719E+01   -7.694E+01   -7.668E+01   -7.642E+01   -7.616E+01   -7.589E+01   -7.562E+01   -7.535E+01   -7.507E+01   -7.479E+01
    -7.450E+01   -7.420E+01   -7.390E+01   -7.359E+01   -7.328E+01   -7.296E+01   -7.263E+01   -7.230E+01   -7.196E+01   -7.161E+01
    -7.125E+01   -7.088E+01   -7.050E+01   -7.012E+01   -6.973E+01   -6.933E+01   -6.893E+01   -6.852E+01   -6.810E+01   -6.768E+01
    -6.726E+01   -6.683E+01   -6.640E+01   -6.597E+01   -6.554E+01   -6.511E+01   -6.468E+01   -6.424E+01   -6.381E+01   -6.338E+01
    -6.296E+01   -6.254E+01   -6.212E+01   -6.170E+01   -6.129E+01   -6.089E+01   -6.049E+01   -6.010E+01   -5.971E+01   -5.934E+01
    -5.897E+01   -5.861E+01   -5.827E+01   -5.793E+01   -5.760E+01   -5.729E+01   -5.699E+01   -5.670E+01   -5.643E+01   -5.616E+01
    -5.592E+01   -5.569E+01   -5.548E+01   -5.528E+01   -5.510E+01   -5.494E+01   -5.479E+01   -5.467E+01   -5.457E+01   -5.448E+01
    -5.441E+01   -5.436E+01   -5.432E+01   -5.430E+01   -5.429E+01   -5.430E+01   -5.433E+01   -5.436E+01   -5.441E+01   -5.448E+01
    -5.455E+01   -5.464E+01   -5.474E+01   -5.484E+01   -5.496E+01   -5.509E+01   -5.522E+01   -5.536E+01   -5.551E+01   -5.567E+01
    -5.583E+01   -5.600E+01   -5.618E+01   -5.635E+01   -5.654E+01   -5.672E+01   -5.691E+01   -5.711E+01   -5.730E+01   -5.750E+01
    -5.769E+01   -5.789E+01   -5.808E+01   -5.828E+01   -5.847E+01   -5.866E+01   -5.885E+01   -5.904E+01   -5.922E+01   -5.940E+01
    -5.957E+01   -5.974E+01   -5.990E+01   -6.006E+01   -6.021E+01   -6.035E+01   -6.049E+01   -6.062E+01   -6.074E+01   -6.086E+01
    -6.097E+01   -6.107E+01   -6.117E+01   -6.126E+01   -6.134E+01   -6.142E+01   -6.148E+01   -6.154E+01   -6.159E+01   -6.164E+01
    -6.167E+01   -6.170E+01   -6.172E+01   -6.173E+01   -6.174E+01   -6.173E+01   -6.172E+01   -6.169E+01   -6.166E+01   -6.162E+01
    -6.157E+01   -6.151E+01   -6.145E+01   -6.137E+01   -6.128E+01   -6.119E+01   -6.108E+01   -6.096E+01   -6.084E+01   -6.070E+01
    -6.056E+01   -6.040E+01   -6.023E+01   -6.006E+01   -5.987E+01   -5.967E+01   -5.946E+01   -5.924E+01   -5.901E+01   -5.877E+01
    -5.852E+01   -5.826E+01   -5.799E+01   -5.771E+01   -5.742E+01   -5.713E+01   -5.682E+01   -5.651E+01   -5.619E+01   -5.586E+01
    -5.553E+01   -5.519E+01   -5.484E+01   -5.449E+01   -5.413E+01   -5.377E+01   -5.340E+01   -5.303E+01   -5.265E+01   -5.227E+01
    -5.188E+01   -5.149E+01   -5.110E+01   -5.071E+01   -5.031E+01   -4.991E+01   -4.951E+01   -4.911E+01   -4.870E+01   -4.830E+01
    -4.789E+01   -4.749E+01   -4.708E+01   -4.668E+01   -4.627E+01   -4.587E+01   -4.547E+01   -4.507E+01   -4.467E+01   -4.427E+01
    -4.388E+01   -4.349E+01   -4.310E+01   -4.272E+01   -4.234E+01   -4.196E+01   -4.159E+01   -4.122E+01   -4.085E+01   -4.049E+01
    -4.013E+01   -3.977E+01   -3.942E+01   -3.907E+01   -3.872E+01   -3.838E+01   -3.804E+01   -3.770E+01   -3.737E+01   -3.704E+01
    -3.671E+01   -3.639E+01   -3.607E+01   -3.575E+01   -3.544E+01   -3.513E+01   -3.482E+01   -3.452E+01   -3.421E+01   -3.392E+01
    -3.362E+01   -3.333E+01   -3.305E+01   -3.276E+01   -3.248E+01   -3.220E+01   -3.193E+01   -3.166E+01   -3.139E+01   -3.113E+01
    -3.087E+01   -3.061E+01   -3.035E+01   -3.010E+01   -2.985E+01   -2.961E+01   -2.937E+01   -2.913E+01   -2.889E+01   -2.866E+01
    -2.843E+01   -2.820E+01   -2.798E+01   -2.776E+01   -2.754E+01   -2.733E+01   -2.712E+01   -2.691E+01   -2.671E+01   -2.651E+01
    -2.631E+01   -2.611E+01   -2.592E+01   -2.573E+01   -2.555E+01   -2.536E+01   -2.518E+01   -2.500E+01   -2.483E+01   -2.466E+01
    -2.449E+01   -2.432E+01   -2.416E+01   -2.400E+01   -2.384E+01   -2.369E+01   -2.354E+01   -2.339E+01   -2.324E+01   -2.310E+01
    -2.296E+01   -2.282E+01   -2.268E+01   -2.255E+01   -2.242E+01   -2.229E+01   -2.217E+01   -2.205E+01   -2.193E+01   -2.181E+01
    -2.170E+01   -2.159E+01   -2.148E+01   -2.137E+01   -2.127E+01   -2.116E+01   -2.107E+01   -2.097E+01   -2.087E+01   -2.078E+01
    -2.069E+01   -2.060E+01   -2.051E+01   -2.042E+01   -2.034E+01   -2.025E+01   -2.017E+01   -2.009E+01   -2.001E+01   -1.993E+01
    -1.985E+01   -1.977E+01   -1.970E+01   -1.962E+01   -1.954E+01   -1.947E+01   -1.939E+01   -1.931E+01   -1.924E+01   -1.916E+01
    -1.908E+01   -1.901E+01   -1.893E+01   -1.885E+01   -1.877E+01   -1.869E+01   -1.861E+01   -1.853E+01   -1.845E+01   -1.837E+01
    -1.828E+01   -1.820E+01   -1.811E+01   -1.802E+01   -1.793E+01   -1.784E+01   -1.774E+01   -1.765E+01
 Ala      Conc. = 2.79E+02
