 LCModel (Version 6.3-1L) Copyright: S.W. Provencher.          Ref.: Magn. Reson. Med. 30:672-679 (1993).                
 Slice#1 Row#12 Col#12  PD_24_press_2_raw_act
 36 lines in following concentration table = NCONC+1
    Conc.  %SD /Cr+PCr  Metabolite                                         
    3.278 222%   0.312 Ala                                                 
    2.314  51%   0.220 Asp                                                 
    0.000 999%   0.000 Cr                                                  
   10.500  47%   1.000 PCr                                                 
    1.405  51%   0.134 GABA                                                
    1.378  52%   0.131 Glc                                                 
   27.159  60%   2.587 Gln                                                 
    0.000 999%   0.000 Glu                                                 
    0.000 999%   0.000 GPC                                                 
    1.581 106%   0.151 PCh                                                 
    2.792 202%   0.266 GSH                                                 
    0.000 999%   0.000 Ins                                                 
    0.000 999%   0.000 Lac                                                 
   19.081  36%   1.817 NAA                                                 
   11.852  46%   1.129 NAAG                                                
    0.489  49% 4.7E-02 Scyllo                                              
    2.267  52%   0.216 Tau                                                 
    1.390 166%   0.132 -CrCH2                                              
    1.581 106%   0.151 GPC+PCh                                             
   30.933  26%   2.946 NAA+NAAG                                            
   10.500  47%   1.000 Cr+PCr                                              
   27.159  60%   2.587 Glu+Gln                                             
    0.000 999%   0.000 Lip13a                                              
    0.000 999%   0.000 Lip13b                                              
    0.000 999%   0.000 Lip09                                               
   48.811  33%   4.649 MM09                                                
    0.305 446% 2.9E-02 Lip20                                               
   98.621  26%   9.392 MM20                                                
   14.062  43%   1.339 MM12                                                
    5.429 321%   0.517 MM14                                                
   13.434  86%   1.279 MM17                                                
    0.000 999%   0.000 Lip13a+Lip13b                                       
   19.492 107%   1.856 MM14+Lip13a+Lip13b+MM12                             
   48.811  33%   4.649 MM09+Lip09                                          
   98.927  26%   9.422 MM20+Lip20                                          
   6 lines in following misc. output table
  FWHM = 0.031 ppm    S/N =   1                                            
  Data shift = 0.237 ppm                                                   
  Ph: 149 deg     -12.4 deg/ppm                                            
  alphaB,S = 8.5E+01,   6.0E+00                                            
   14 spline knots.   Ns = 5(1)                                            
   2 inflections.     2 extrema                                            
  498 points on ppm-axis = NY
      4.000000     3.992357     3.984714     3.977070     3.969427     3.961784     3.954141     3.946497     3.938854     3.931211
      3.923568     3.915925     3.908281     3.900638     3.892995     3.885352     3.877708     3.870065     3.862422     3.854779
      3.847136     3.839492     3.831849     3.824206     3.816563     3.808919     3.801276     3.793633     3.785990     3.778347
      3.770703     3.763060     3.755417     3.747774     3.740130     3.732487     3.724844     3.717201     3.709558     3.701914
      3.694271     3.686628     3.678985     3.671341     3.663698     3.656055     3.648412     3.640769     3.633125     3.625482
      3.617839     3.610196     3.602552     3.594909     3.587266     3.579623     3.571980     3.564336     3.556693     3.549050
      3.541407     3.533763     3.526120     3.518477     3.510834     3.503191     3.495547     3.487904     3.480261     3.472618
      3.464974     3.457331     3.449688     3.442045     3.434402     3.426758     3.419115     3.411472     3.403829     3.396185
      3.388542     3.380899     3.373256     3.365613     3.357969     3.350326     3.342683     3.335040     3.327396     3.319753
      3.312110     3.304467     3.296824     3.289180     3.281537     3.273894     3.266251     3.258607     3.250964     3.243321
      3.235678     3.228034     3.220391     3.212748     3.205105     3.197462     3.189818     3.182175     3.174532     3.166889
      3.159245     3.151602     3.143959     3.136316     3.128673     3.121029     3.113386     3.105743     3.098100     3.090456
      3.082813     3.075170     3.067527     3.059884     3.052240     3.044597     3.036954     3.029311     3.021667     3.014024
      3.006381     2.998738     2.991095     2.983451     2.975808     2.968165     2.960522     2.952878     2.945235     2.937592
      2.929949     2.922306     2.914662     2.907019     2.899376     2.891733     2.884089     2.876446     2.868803     2.861160
      2.853517     2.845873     2.838230     2.830587     2.822944     2.815300     2.807657     2.800014     2.792371     2.784728
      2.777084     2.769441     2.761798     2.754155     2.746511     2.738868     2.731225     2.723582     2.715939     2.708295
      2.700652     2.693009     2.685366     2.677722     2.670079     2.662436     2.654793     2.647150     2.639506     2.631863
      2.624220     2.616577     2.608933     2.601290     2.593647     2.586004     2.578361     2.570717     2.563074     2.555431
      2.547788     2.540144     2.532501     2.524858     2.517215     2.509572     2.501928     2.494285     2.486642     2.478999
      2.471355     2.463712     2.456069     2.448426     2.440783     2.433139     2.425496     2.417853     2.410210     2.402566
      2.394923     2.387280     2.379637     2.371994     2.364350     2.356707     2.349064     2.341421     2.333777     2.326134
      2.318491     2.310848     2.303205     2.295561     2.287918     2.280275     2.272632     2.264988     2.257345     2.249702
      2.242059     2.234416     2.226772     2.219129     2.211486     2.203843     2.196199     2.188556     2.180913     2.173270
      2.165627     2.157983     2.150340     2.142697     2.135054     2.127410     2.119767     2.112124     2.104481     2.096838
      2.089194     2.081551     2.073908     2.066265     2.058621     2.050978     2.043335     2.035692     2.028049     2.020405
      2.012762     2.005119     1.997476     1.989833     1.982190     1.974546     1.966903     1.959260     1.951617     1.943974
      1.936331     1.928688     1.921045     1.913402     1.905759     1.898115     1.890472     1.882829     1.875186     1.867543
      1.859900     1.852257     1.844614     1.836971     1.829327     1.821684     1.814041     1.806398     1.798755     1.791112
      1.783469     1.775826     1.768183     1.760540     1.752896     1.745253     1.737610     1.729967     1.722324     1.714681
      1.707038     1.699395     1.691752     1.684108     1.676465     1.668822     1.661179     1.653536     1.645893     1.638250
      1.630607     1.622964     1.615321     1.607677     1.600034     1.592391     1.584748     1.577105     1.569462     1.561819
      1.554176     1.546533     1.538890     1.531246     1.523603     1.515960     1.508317     1.500674     1.493031     1.485388
      1.477745     1.470102     1.462458     1.454815     1.447172     1.439529     1.431886     1.424243     1.416600     1.408957
      1.401314     1.393671     1.386027     1.378384     1.370741     1.363098     1.355455     1.347812     1.340169     1.332526
      1.324883     1.317240     1.309596     1.301953     1.294310     1.286667     1.279024     1.271381     1.263738     1.256095
      1.248452     1.240808     1.233165     1.225522     1.217879     1.210236     1.202593     1.194950     1.187307     1.179664
      1.172021     1.164377     1.156734     1.149091     1.141448     1.133805     1.126162     1.118519     1.110876     1.103233
      1.095590     1.087946     1.080303     1.072660     1.065017     1.057374     1.049731     1.042088     1.034445     1.026802
      1.019158     1.011515     1.003872     0.996229     0.988586     0.980943     0.973300     0.965657     0.958014     0.950371
      0.942727     0.935084     0.927441     0.919798     0.912155     0.904512     0.896869     0.889226     0.881583     0.873940
      0.866296     0.858653     0.851010     0.843367     0.835724     0.828081     0.820438     0.812795     0.805152     0.797508
      0.789865     0.782222     0.774579     0.766936     0.759293     0.751650     0.744007     0.736364     0.728721     0.721077
      0.713434     0.705791     0.698148     0.690505     0.682862     0.675219     0.667576     0.659933     0.652290     0.644646
      0.637003     0.629360     0.621717     0.614074     0.606431     0.598788     0.591145     0.583502     0.575858     0.568215
      0.560572     0.552929     0.545286     0.537643     0.530000     0.522357     0.514714     0.507071     0.499427     0.491784
      0.484141     0.476498     0.468855     0.461212     0.453569     0.445925     0.438282     0.430639     0.422996     0.415353
      0.407710     0.400067     0.392424     0.384780     0.377137     0.369494     0.361851     0.354208     0.346565     0.338922
      0.331278     0.323635     0.315992     0.308349     0.300706     0.293063     0.285420     0.277777     0.270133     0.262490
      0.254847     0.247204     0.239561     0.231918     0.224275     0.216631     0.208988     0.201345
 NY phased data points follow
   2.81461E-01  1.07922E-01  1.92908E-01 -1.14692E-01  6.37394E-02  8.44281E-01 -1.46623E-01  7.21381E-01  6.58178E-01  1.19921E+00
   3.93092E-04  3.62448E-01  7.18342E-01 -9.19884E-02  1.68771E-01  1.34501E+00  4.25359E-01  2.92034E-02 -2.84928E-01 -1.87650E-01
   2.48089E-01 -7.25151E-01  4.02211E-01  6.88340E-01  7.08654E-01  4.98018E-01 -4.66215E-01 -1.30066E-01  1.99001E-01 -2.26706E-01
   6.75672E-01  6.68683E-01  8.27968E-01  1.19263E-01 -1.52779E-01  6.08209E-02  5.37823E-01  3.22885E-02 -1.74393E-01  2.23965E-02
   4.13596E-01  2.95599E-01  2.26196E-01  7.26912E-01 -4.51542E-02 -1.47115E-01  3.16512E-01  6.63843E-01 -4.77000E-01  5.77736E-01
   9.40655E-01  3.82110E-01  5.80820E-01  2.04040E-01  2.08658E-01 -3.09721E-01  9.20794E-01  7.88951E-01  6.27475E-01  7.66228E-01
   2.94791E-01  4.86818E-01  7.08342E-01  3.41046E-01  2.79817E-01 -2.34877E-01 -5.93588E-01 -8.01191E-02  2.57703E-01 -2.39134E-01
  -9.51372E-02 -3.86648E-02  1.12870E+00 -8.41399E-01 -4.69073E-01  9.17225E-01  1.15918E+00 -3.89875E-01  3.78928E-01  4.89699E-01
  -1.87939E-02  6.76689E-01 -7.85786E-02  1.64825E-01  1.13789E-01  8.34134E-01  6.04030E-01  8.80933E-01  3.59314E-01  1.53986E+00
  -1.37582E-01  4.82408E-01  1.42143E-02 -2.41706E-01  9.00214E-01 -2.84987E-01  4.56647E-01  6.73808E-01  1.24398E-01  9.42381E-02
  -5.09618E-01  1.18694E-01  5.87475E-01  4.31551E-01 -1.39932E-01  1.18498E+00  2.78843E-01  5.49797E-01  8.37725E-01  6.42755E-01
   1.19301E-01  4.36918E-01  3.73103E-01  9.42291E-01 -3.38566E-01  1.66611E+00  1.16410E+00  1.26647E-02 -5.84316E-01  5.96602E-01
   1.56742E-01  1.88278E-01 -4.97208E-01  8.72863E-01  3.58609E-01  1.07551E-01  1.33066E+00  1.29570E+00  6.78852E-01  1.31847E+00
   8.15716E-02 -2.47710E-01  5.29416E-01 -6.19354E-01  1.11169E+00  7.89515E-02  5.77359E-01 -9.80512E-02  6.39644E-01  1.05419E+00
   7.33858E-01  7.52904E-01  7.54671E-01  9.07491E-01  4.53602E-01 -4.38041E-01 -6.04471E-02  1.26183E+00  1.29656E+00  4.00595E-01
   3.12163E-01  1.83226E-01  2.75064E-01  1.10376E+00  6.59757E-01  9.06188E-01  1.18874E-02  4.82798E-01  3.28073E-01  1.14276E-01
   1.68931E-01  9.44747E-01  9.07460E-01  5.07604E-01  2.59912E-01  8.08883E-01 -8.80476E-02  3.10661E-02 -1.43801E-01 -3.56848E-01
   9.69790E-01  1.47786E-01  1.66634E-01  5.00079E-01  8.88370E-01  1.46398E+00 -1.81224E-01  6.47975E-01  4.54507E-01  9.63514E-01
   2.34771E-01  3.73465E-01  6.45427E-01 -1.73140E-01  3.82848E-01 -3.41731E-01  5.03576E-01  3.26296E-01  4.55819E-01  8.35413E-01
   9.82938E-01  6.43224E-01  6.97408E-02  4.91199E-01  9.10546E-02  4.82931E-02  5.40906E-01  5.07419E-01 -8.58470E-02  4.60709E-01
   2.36295E-01  2.86941E-01  7.90997E-01  1.04110E+00  7.35795E-01  9.57028E-01  1.29967E+00 -1.65994E-01  3.25095E-01  1.39105E+00
   9.25024E-02 -2.32147E-01  5.73951E-01  3.16676E-01  3.39484E-01  1.40394E-01  4.76088E-01  3.42975E-01  4.98957E-01 -2.47578E-01
   6.49971E-01  2.83745E-01  4.38624E-01  1.34351E+00  1.71049E-01  7.36170E-01  9.69930E-01  1.59812E+00  4.38461E-01  1.17941E+00
   1.14884E-01  7.49458E-01  5.11392E-01  1.17367E+00  2.89139E-01  6.03769E-01  6.80886E-01  9.58851E-01  8.79875E-01  8.83535E-01
   4.15832E-01  1.33697E+00  1.06799E+00  4.55102E-01  1.14218E+00  5.21026E-02  3.36740E-01  8.42644E-01  4.85456E-01  1.25540E-01
   6.25319E-01  4.82120E-01  9.78472E-01  1.18500E+00  1.38297E+00  1.16518E+00  1.05444E+00  9.61969E-01  1.48792E+00  4.98478E-01
   2.03140E+00  1.44395E+00  1.65433E+00  1.48615E+00  8.99683E-01  1.34369E+00  5.64713E-01  6.81604E-01  3.32692E-01  6.89400E-01
   1.73111E-01  1.03816E+00  1.52563E+00  1.46694E+00  6.75240E-01  5.98056E-01  1.39240E+00  1.36484E+00  1.03353E+00  8.47679E-01
   2.50844E-01  1.03671E+00  1.58972E+00  1.34177E+00  2.15252E-01  1.23909E-01  1.23341E+00  2.03333E-01  1.00360E+00  3.13747E-01
   6.53878E-01 -3.63887E-01  7.93022E-02  4.47600E-01  7.20707E-02  5.75681E-01  3.97699E-01  3.16515E-01  6.87114E-01 -1.08088E-01
  -4.40072E-01 -8.10666E-02 -4.92624E-01  1.34668E+00 -8.10635E-02  4.56207E-02  8.02544E-01 -5.23225E-03  3.57906E-01  2.00305E-01
   2.74797E-01  3.85418E-01 -1.57478E-01 -8.81729E-02 -4.42466E-01 -1.07956E+00 -1.00919E+00 -5.45569E-01 -7.22324E-01 -6.96475E-01
   2.43901E-01  3.40893E-02 -3.99181E-01 -1.05526E-01 -7.32039E-01 -1.13314E-01 -3.52374E-01  7.78903E-01 -9.25369E-02  5.28028E-01
   4.64434E-01 -7.61169E-01 -9.35360E-01  5.20122E-01 -6.11104E-01  2.04074E-01  6.49068E-03 -7.96219E-01 -2.31081E-01  5.13967E-02
   4.19290E-01  1.53742E-01 -1.96399E-01  4.78660E-01  6.54615E-01  5.62904E-01  3.83749E-01 -3.33888E-01 -5.92534E-01  3.78834E-01
  -6.50598E-01  6.90981E-01  7.07752E-01  2.44149E-01  4.64029E-01 -1.19066E-01  1.31356E-02 -4.78127E-01 -6.21320E-01  9.89470E-01
   8.79623E-02 -1.45884E-02 -4.23247E-01  9.25671E-01  6.79744E-01  3.29761E-01  7.29820E-01 -8.67292E-01  3.80740E-02 -5.29906E-01
   4.41630E-01  1.00639E-01  2.95719E-01  3.35945E-01  1.03459E-01 -2.77496E-01  1.26439E-01  3.45608E-01  4.04890E-01  5.68943E-01
  -5.65842E-01  2.04212E-01  5.84564E-01  2.42832E-02  1.28013E-02  3.04286E-01  4.19830E-01  1.06174E+00  6.27458E-02 -4.10661E-01
  -7.79503E-02  7.09213E-01 -9.14188E-01  8.31335E-01  8.22481E-01  6.92906E-01  5.69527E-01 -2.59070E-01 -4.83660E-01  5.67295E-01
   7.54523E-02  2.73486E-01 -1.04305E-01  4.17558E-01 -5.36316E-01  5.89677E-01  7.20399E-01  3.51789E-02 -4.62633E-01  5.90390E-01
   1.06939E+00 -4.99383E-02  5.83375E-01  8.41539E-01  3.99167E-01  1.75292E-02  2.79745E-01  4.03824E-02 -4.37740E-01 -4.23381E-02
  -8.35490E-02  2.00370E-01  5.67436E-01  5.03427E-01  9.27426E-01  6.60872E-02  4.39232E-01 -8.43746E-02  8.04922E-01  9.87649E-01
   5.36676E-01  6.50995E-01  2.22050E-01 -2.59531E-01  6.76389E-01  4.34072E-01 -2.56764E-02 -4.61721E-01 -3.46761E-01  9.11293E-01
   3.80125E-03 -2.10331E-01  4.43910E-01 -2.31348E-01 -7.31471E-02 -5.69216E-01 -2.67244E-01 -3.76297E-01 -3.70672E-01  3.13431E-01
   1.78313E-01 -1.87340E-01  4.04137E-01  1.63097E-01 -1.53250E-01 -2.24636E-01 -1.06258E-01  9.06097E-01  8.07797E-01  2.50791E-02
   4.86145E-01  5.67737E-01  6.48721E-02  1.22948E-01 -1.58722E-01  4.11052E-01  1.81986E-01  6.23535E-01 -4.09107E-01  3.71767E-02
  -6.71125E-01  2.00753E-01 -1.74579E-01 -2.07747E-01 -5.34388E-01  2.54493E-01  3.05415E-01  5.32931E-01 -1.66884E-01 -4.20038E-02
  -7.57403E-04 -1.81112E-01  1.29810E-01  2.52314E-01  3.21710E-01 -1.03848E-01 -3.78831E-01  3.51197E-01 -4.20184E-01  2.16135E-01
   2.97182E-01 -8.85979E-03  1.20051E-01 -3.11322E-01  5.90277E-01 -1.33692E-01 -5.11802E-01  4.02480E-02
 NY points of the fit to the data follow
   3.66220E-01  3.64653E-01  3.60419E-01  3.36574E-01  2.92480E-01  3.10594E-01  3.94671E-01  5.08943E-01  6.34799E-01  7.12739E-01
   7.01667E-01  6.26116E-01  5.28913E-01  4.50314E-01  4.01234E-01  3.77629E-01  3.66171E-01  3.55830E-01  3.47250E-01  3.43871E-01
   3.46631E-01  3.73404E-01  4.15645E-01  4.38961E-01  4.30254E-01  3.77874E-01  3.03421E-01  2.37861E-01  2.29791E-01  3.06792E-01
   4.28189E-01  5.44776E-01  6.17609E-01  6.12020E-01  5.27182E-01  4.11808E-01  3.17362E-01  2.64982E-01  2.62422E-01  2.95992E-01
   3.35569E-01  3.62817E-01  3.72178E-01  3.68860E-01  3.60475E-01  3.51923E-01  3.46278E-01  3.42725E-01  3.39598E-01  3.37499E-01
   3.36365E-01  3.35747E-01  3.36230E-01  3.37505E-01  3.38118E-01  3.37347E-01  3.35211E-01  3.32465E-01  3.29819E-01  3.27867E-01
   3.26769E-01  3.25807E-01  3.25074E-01  3.26143E-01  3.27282E-01  3.29329E-01  3.31830E-01  3.31478E-01  3.28623E-01  3.24947E-01
   3.18543E-01  3.12453E-01  3.13650E-01  3.21347E-01  3.32104E-01  3.43110E-01  3.47857E-01  3.42225E-01  3.30174E-01  3.17938E-01
   3.08732E-01  3.00399E-01  2.99497E-01  3.11762E-01  3.30231E-01  3.50419E-01  3.66781E-01  3.70299E-01  3.62330E-01  3.49928E-01
   3.37573E-01  3.27526E-01  3.18912E-01  3.08419E-01  2.96707E-01  2.91675E-01  2.94320E-01  2.98824E-01  2.88024E-01  2.64069E-01
   2.84780E-01  3.51108E-01  4.40951E-01  5.36408E-01  5.91476E-01  5.79343E-01  5.19867E-01  4.46353E-01  3.87886E-01  3.52422E-01
   3.36963E-01  3.32352E-01  3.31325E-01  3.31625E-01  3.33101E-01  3.36194E-01  3.39182E-01  3.41022E-01  3.42329E-01  3.41142E-01
   3.30845E-01  2.77442E-01  2.03694E-01  2.50534E-01  4.11283E-01  6.28318E-01  8.56741E-01  9.85256E-01  9.53876E-01  8.14647E-01
   6.50114E-01  5.23659E-01  4.48813E-01  4.14814E-01  3.93290E-01  3.67092E-01  3.40589E-01  3.20340E-01  3.13402E-01  3.18845E-01
   3.30017E-01  3.40090E-01  3.45022E-01  3.44564E-01  3.39993E-01  3.33770E-01  3.27462E-01  3.20389E-01  3.13360E-01  3.08827E-01
   3.04832E-01  2.96931E-01  2.85699E-01  2.72315E-01  2.59828E-01  2.58217E-01  2.69222E-01  2.81832E-01  2.85214E-01  2.75125E-01
   2.51556E-01  2.28991E-01  2.20700E-01  2.26061E-01  2.40084E-01  2.53632E-01  2.52807E-01  2.37895E-01  2.19907E-01  2.06987E-01
   2.06481E-01  2.18753E-01  2.29726E-01  2.25212E-01  2.08979E-01  1.90382E-01  1.81415E-01  1.87943E-01  1.99945E-01  2.02682E-01
   1.95828E-01  1.86805E-01  1.85208E-01  1.92399E-01  2.01262E-01  2.07802E-01  2.09927E-01  2.12307E-01  2.29878E-01  2.65868E-01
   3.00118E-01  3.23660E-01  3.25701E-01  2.99673E-01  2.53176E-01  1.97896E-01  1.44621E-01  1.07865E-01  1.07014E-01  1.50147E-01
   2.20769E-01  3.10865E-01  4.03368E-01  4.71953E-01  5.14978E-01  5.33343E-01  4.66233E-01  3.06617E-01  1.30563E-01 -1.65021E-02
  -9.22325E-02 -5.75705E-02  5.24711E-02  1.75502E-01  2.72184E-01  3.30793E-01  3.58062E-01  3.66295E-01  3.66340E-01  3.64412E-01
   3.64285E-01  3.68082E-01  3.75392E-01  3.86219E-01  3.95925E-01  4.02260E-01  4.08611E-01  4.11704E-01  4.05967E-01  3.93373E-01
   3.84698E-01  3.95345E-01  3.97082E-01  3.77588E-01  3.53392E-01  3.24868E-01  3.08504E-01  3.51918E-01  4.60262E-01  5.71746E-01
   6.50154E-01  6.76446E-01  6.33439E-01  5.50862E-01  4.75904E-01  4.24192E-01  3.97592E-01  3.99105E-01  4.26290E-01  4.67367E-01
   4.90616E-01  4.59187E-01  5.03569E-01  6.60741E-01  8.58334E-01  9.94277E-01  1.01836E+00  1.08976E+00  1.22076E+00  1.39364E+00
   1.61207E+00  1.71015E+00  1.58374E+00  1.30132E+00  9.76891E-01  7.18422E-01  5.55215E-01  4.72160E-01  4.32467E-01  4.07203E-01
   3.88758E-01  3.77097E-01  3.70798E-01  3.65322E-01  3.57258E-01  3.45497E-01  3.30467E-01  3.14011E-01  2.98213E-01  2.85586E-01
   2.77439E-01  2.72163E-01  2.69328E-01  2.68263E-01  2.67103E-01  2.65546E-01  2.63340E-01  2.59131E-01  2.54439E-01  2.51183E-01
   2.49972E-01  2.51438E-01  2.55142E-01  2.59509E-01  2.63494E-01  2.65523E-01  2.65451E-01  2.64104E-01  2.61941E-01  2.59879E-01
   2.58728E-01  2.58376E-01  2.58361E-01  2.58043E-01  2.56995E-01  2.55101E-01  2.52457E-01  2.49248E-01  2.45626E-01  2.41735E-01
   2.37667E-01  2.33508E-01  2.29342E-01  2.25244E-01  2.21277E-01  2.17517E-01  2.14027E-01  2.10859E-01  2.08023E-01  2.05461E-01
   2.02900E-01  1.99304E-01  1.93714E-01  2.00447E-01  2.24659E-01  2.48752E-01  2.63478E-01  2.60927E-01  2.34995E-01  1.96994E-01
   1.53344E-01  1.10472E-01  8.98248E-02  9.38915E-02  1.18696E-01  1.60903E-01  2.04089E-01  2.31916E-01  2.40438E-01  2.34269E-01
   2.22441E-01  2.11209E-01  2.03561E-01  1.99096E-01  1.96316E-01  1.94482E-01  1.93283E-01  1.92570E-01  1.92248E-01  1.92261E-01
   1.92565E-01  1.93134E-01  1.93941E-01  1.94956E-01  1.96136E-01  1.97437E-01  1.98813E-01  2.00224E-01  2.01621E-01  2.02954E-01
   2.04167E-01  2.05214E-01  2.06054E-01  2.06663E-01  2.07016E-01  2.07099E-01  2.06903E-01  2.06442E-01  2.05741E-01  2.04839E-01
   2.03781E-01  2.02621E-01  2.01417E-01  2.00248E-01  1.99194E-01  1.98344E-01  1.97781E-01  1.97595E-01  1.97876E-01  1.98725E-01
   2.00240E-01  2.02520E-01  2.05654E-01  2.09737E-01  2.14856E-01  2.21101E-01  2.28544E-01  2.37244E-01  2.47228E-01  2.58507E-01
   2.71056E-01  2.84819E-01  2.99682E-01  3.15486E-01  3.32011E-01  3.48995E-01  3.66125E-01  3.83049E-01  3.99372E-01  4.14681E-01
   4.28557E-01  4.40604E-01  4.50453E-01  4.57790E-01  4.62356E-01  4.63978E-01  4.62572E-01  4.58152E-01  4.50822E-01  4.40774E-01
   4.28269E-01  4.13636E-01  3.97247E-01  3.79510E-01  3.60831E-01  3.41610E-01  3.22217E-01  3.02992E-01  2.84228E-01  2.66171E-01
   2.49006E-01  2.32869E-01  2.17842E-01  2.03971E-01  1.91262E-01  1.79694E-01  1.69215E-01  1.59758E-01  1.51244E-01  1.43595E-01
   1.36728E-01  1.30565E-01  1.25021E-01  1.20023E-01  1.15504E-01  1.11407E-01  1.07680E-01  1.04276E-01  1.01150E-01  9.82659E-02
   9.55935E-02  9.31111E-02  9.07939E-02  8.86228E-02  8.65759E-02  8.46410E-02  8.28061E-02  8.10646E-02  7.94039E-02  7.78152E-02
   7.62874E-02  7.48179E-02  7.34018E-02  7.20378E-02  7.07172E-02  6.94362E-02  6.81883E-02  6.69750E-02  6.57937E-02  6.46438E-02
   6.35181E-02  6.24154E-02  6.13325E-02  6.02729E-02  5.92344E-02  5.82163E-02  5.72124E-02  5.62229E-02  5.52462E-02  5.42864E-02
   5.33402E-02  5.24071E-02  5.14818E-02  5.05666E-02  4.96608E-02  4.87680E-02  4.78843E-02  4.70091E-02  4.61382E-02  4.52751E-02
   4.44195E-02  4.35740E-02  4.27341E-02  4.18996E-02  4.10676E-02  4.02426E-02  3.94238E-02  3.86128E-02  3.78048E-02  3.70003E-02
   3.61977E-02  3.54017E-02  3.46109E-02  3.38259E-02  3.30420E-02  3.22608E-02  3.14816E-02  3.07089E-02
 NY background values follow
     3.592E-01    3.585E-01    3.578E-01    3.571E-01    3.565E-01    3.558E-01    3.551E-01    3.545E-01    3.538E-01    3.531E-01
     3.524E-01    3.518E-01    3.511E-01    3.504E-01    3.497E-01    3.491E-01    3.484E-01    3.477E-01    3.471E-01    3.464E-01
     3.457E-01    3.450E-01    3.444E-01    3.437E-01    3.430E-01    3.423E-01    3.417E-01    3.410E-01    3.403E-01    3.397E-01
     3.390E-01    3.383E-01    3.376E-01    3.370E-01    3.363E-01    3.356E-01    3.350E-01    3.343E-01    3.336E-01    3.329E-01
     3.323E-01    3.316E-01    3.309E-01    3.302E-01    3.296E-01    3.289E-01    3.282E-01    3.276E-01    3.269E-01    3.262E-01
     3.255E-01    3.249E-01    3.242E-01    3.235E-01    3.228E-01    3.222E-01    3.215E-01    3.208E-01    3.202E-01    3.195E-01
     3.188E-01    3.181E-01    3.175E-01    3.168E-01    3.161E-01    3.155E-01    3.148E-01    3.141E-01    3.134E-01    3.128E-01
     3.121E-01    3.114E-01    3.107E-01    3.101E-01    3.094E-01    3.087E-01    3.081E-01    3.074E-01    3.067E-01    3.060E-01
     3.054E-01    3.047E-01    3.040E-01    3.033E-01    3.027E-01    3.020E-01    3.013E-01    3.007E-01    3.000E-01    2.993E-01
     2.986E-01    2.980E-01    2.973E-01    2.966E-01    2.959E-01    2.953E-01    2.946E-01    2.939E-01    2.933E-01    2.926E-01
     2.919E-01    2.912E-01    2.906E-01    2.899E-01    2.892E-01    2.886E-01    2.879E-01    2.872E-01    2.865E-01    2.859E-01
     2.852E-01    2.845E-01    2.838E-01    2.832E-01    2.825E-01    2.818E-01    2.812E-01    2.805E-01    2.798E-01    2.791E-01
     2.785E-01    2.778E-01    2.771E-01    2.764E-01    2.758E-01    2.751E-01    2.744E-01    2.738E-01    2.731E-01    2.724E-01
     2.717E-01    2.711E-01    2.704E-01    2.697E-01    2.690E-01    2.684E-01    2.677E-01    2.670E-01    2.664E-01    2.657E-01
     2.650E-01    2.643E-01    2.637E-01    2.630E-01    2.623E-01    2.616E-01    2.610E-01    2.603E-01    2.596E-01    2.590E-01
     2.583E-01    2.576E-01    2.569E-01    2.563E-01    2.556E-01    2.549E-01    2.543E-01    2.536E-01    2.529E-01    2.522E-01
     2.516E-01    2.509E-01    2.502E-01    2.495E-01    2.489E-01    2.482E-01    2.475E-01    2.469E-01    2.462E-01    2.455E-01
     2.448E-01    2.442E-01    2.435E-01    2.428E-01    2.421E-01    2.415E-01    2.408E-01    2.401E-01    2.395E-01    2.388E-01
     2.381E-01    2.374E-01    2.368E-01    2.361E-01    2.354E-01    2.347E-01    2.341E-01    2.334E-01    2.327E-01    2.321E-01
     2.314E-01    2.307E-01    2.300E-01    2.294E-01    2.287E-01    2.280E-01    2.273E-01    2.267E-01    2.260E-01    2.253E-01
     2.247E-01    2.240E-01    2.233E-01    2.226E-01    2.220E-01    2.213E-01    2.206E-01    2.199E-01    2.193E-01    2.186E-01
     2.179E-01    2.173E-01    2.166E-01    2.159E-01    2.152E-01    2.146E-01    2.139E-01    2.132E-01    2.125E-01    2.119E-01
     2.112E-01    2.105E-01    2.099E-01    2.092E-01    2.085E-01    2.078E-01    2.072E-01    2.065E-01    2.058E-01    2.051E-01
     2.045E-01    2.038E-01    2.031E-01    2.025E-01    2.018E-01    2.011E-01    2.004E-01    1.998E-01    1.991E-01    1.984E-01
     1.977E-01    1.971E-01    1.964E-01    1.957E-01    1.951E-01    1.944E-01    1.937E-01    1.930E-01    1.924E-01    1.917E-01
     1.910E-01    1.903E-01    1.897E-01    1.890E-01    1.883E-01    1.877E-01    1.870E-01    1.863E-01    1.856E-01    1.850E-01
     1.843E-01    1.836E-01    1.829E-01    1.823E-01    1.816E-01    1.809E-01    1.803E-01    1.796E-01    1.789E-01    1.782E-01
     1.776E-01    1.769E-01    1.762E-01    1.755E-01    1.749E-01    1.742E-01    1.735E-01    1.729E-01    1.722E-01    1.715E-01
     1.708E-01    1.702E-01    1.695E-01    1.688E-01    1.681E-01    1.675E-01    1.668E-01    1.661E-01    1.655E-01    1.648E-01
     1.641E-01    1.634E-01    1.628E-01    1.621E-01    1.614E-01    1.607E-01    1.601E-01    1.594E-01    1.587E-01    1.581E-01
     1.574E-01    1.567E-01    1.560E-01    1.554E-01    1.547E-01    1.540E-01    1.533E-01    1.527E-01    1.520E-01    1.513E-01
     1.506E-01    1.500E-01    1.493E-01    1.486E-01    1.480E-01    1.473E-01    1.466E-01    1.459E-01    1.453E-01    1.446E-01
     1.439E-01    1.432E-01    1.426E-01    1.419E-01    1.412E-01    1.406E-01    1.399E-01    1.392E-01    1.385E-01    1.379E-01
     1.372E-01    1.365E-01    1.358E-01    1.352E-01    1.345E-01    1.338E-01    1.332E-01    1.325E-01    1.318E-01    1.311E-01
     1.305E-01    1.298E-01    1.291E-01    1.284E-01    1.278E-01    1.271E-01    1.264E-01    1.258E-01    1.251E-01    1.244E-01
     1.237E-01    1.231E-01    1.224E-01    1.217E-01    1.210E-01    1.204E-01    1.197E-01    1.190E-01    1.184E-01    1.177E-01
     1.170E-01    1.163E-01    1.157E-01    1.150E-01    1.143E-01    1.136E-01    1.130E-01    1.123E-01    1.116E-01    1.109E-01
     1.103E-01    1.096E-01    1.089E-01    1.083E-01    1.076E-01    1.069E-01    1.062E-01    1.056E-01    1.049E-01    1.042E-01
     1.035E-01    1.029E-01    1.022E-01    1.015E-01    1.009E-01    1.002E-01    9.951E-02    9.884E-02    9.816E-02    9.749E-02
     9.682E-02    9.615E-02    9.547E-02    9.480E-02    9.413E-02    9.345E-02    9.278E-02    9.211E-02    9.144E-02    9.076E-02
     9.009E-02    8.942E-02    8.874E-02    8.807E-02    8.740E-02    8.673E-02    8.605E-02    8.538E-02    8.471E-02    8.403E-02
     8.336E-02    8.269E-02    8.202E-02    8.134E-02    8.067E-02    8.000E-02    7.932E-02    7.865E-02    7.798E-02    7.731E-02
     7.663E-02    7.596E-02    7.529E-02    7.461E-02    7.394E-02    7.327E-02    7.259E-02    7.192E-02    7.125E-02    7.058E-02
     6.990E-02    6.923E-02    6.856E-02    6.788E-02    6.721E-02    6.654E-02    6.587E-02    6.519E-02    6.452E-02    6.385E-02
     6.317E-02    6.250E-02    6.183E-02    6.116E-02    6.048E-02    5.981E-02    5.914E-02    5.846E-02    5.779E-02    5.712E-02
     5.645E-02    5.577E-02    5.510E-02    5.443E-02    5.375E-02    5.308E-02    5.241E-02    5.174E-02    5.106E-02    5.039E-02
     4.972E-02    4.904E-02    4.837E-02    4.770E-02    4.702E-02    4.635E-02    4.568E-02    4.501E-02    4.433E-02    4.366E-02
     4.299E-02    4.231E-02    4.164E-02    4.097E-02    4.030E-02    3.962E-02    3.895E-02    3.828E-02    3.760E-02    3.693E-02
     3.626E-02    3.559E-02    3.491E-02    3.424E-02    3.357E-02    3.289E-02    3.222E-02    3.155E-02    3.088E-02    3.020E-02
     2.953E-02    2.886E-02    2.818E-02    2.751E-02    2.684E-02    2.617E-02    2.549E-02    2.482E-02
 Ala      Conc. = 3.28E+00
