 LCModel (Version 6.3-1L) Copyright: S.W. Provencher.          Ref.: Magn. Reson. Med. 30:672-679 (1993).                
 Slice#2 Row#1 Col#11  PD_24_press_2_raw_act
 36 lines in following concentration table = NCONC+1
    Conc.  %SD /Cr+PCr  Metabolite                                         
   23.476 464%   0.167 Ala                                                 
   24.256  53%   0.173 Asp                                                 
    0.000 999%   0.000 Cr                                                  
  140.252  40%   1.000 PCr                                                 
   14.840  52%   0.106 GABA                                                
   14.770  53%   0.105 Glc                                                 
    0.000 999%   0.000 Gln                                                 
  402.696  62%   2.871 Glu                                                 
    0.000 999%   0.000 GPC                                                 
   41.429  50%   0.295 PCh                                                 
    0.000 999%   0.000 GSH                                                 
    0.000 999%   0.000 Ins                                                 
    0.000 999%   0.000 Lac                                                 
  141.021  53%   1.005 NAA                                                 
   90.344  87%   0.644 NAAG                                                
    4.981  52% 3.6E-02 Scyllo                                              
   24.850  52%   0.177 Tau                                                 
   15.825 139%   0.113 -CrCH2                                              
   41.429  50%   0.295 GPC+PCh                                             
  231.365  33%   1.650 NAA+NAAG                                            
  140.252  40%   1.000 Cr+PCr                                              
  402.696  62%   2.871 Glu+Gln                                             
    0.000 999%   0.000 Lip13a                                              
    0.000 999%   0.000 Lip13b                                              
    0.000 999%   0.000 Lip09                                               
  219.467  54%   1.565 MM09                                                
 1.88E-04 999% 1.3E-06 Lip20                                               
  376.085  54%   2.681 MM20                                                
   64.895  73%   0.463 MM12                                                
    0.000 999%   0.000 MM14                                                
  257.558  37%   1.836 MM17                                                
    0.000 999%   0.000 Lip13a+Lip13b                                       
   64.895  73%   0.463 MM14+Lip13a+Lip13b+MM12                             
  219.467  54%   1.565 MM09+Lip09                                          
  376.085  54%   2.681 MM20+Lip20                                          
   6 lines in following misc. output table
  FWHM = 0.046 ppm    S/N =   1                                            
  Data shift =-0.015 ppm                                                   
  Ph: 102 deg      17.1 deg/ppm                                            
  alphaB,S = 8.5E+01,   2.6E+01                                            
   14 spline knots.   Ns = 5(1)                                            
   2 inflections.     1 extrema                                            
  498 points on ppm-axis = NY
      4.000000     3.992357     3.984714     3.977070     3.969427     3.961784     3.954141     3.946497     3.938854     3.931211
      3.923568     3.915925     3.908281     3.900638     3.892995     3.885352     3.877708     3.870065     3.862422     3.854779
      3.847136     3.839492     3.831849     3.824206     3.816563     3.808919     3.801276     3.793633     3.785990     3.778347
      3.770703     3.763060     3.755417     3.747774     3.740130     3.732487     3.724844     3.717201     3.709558     3.701914
      3.694271     3.686628     3.678985     3.671341     3.663698     3.656055     3.648412     3.640769     3.633125     3.625482
      3.617839     3.610196     3.602552     3.594909     3.587266     3.579623     3.571980     3.564336     3.556693     3.549050
      3.541407     3.533763     3.526120     3.518477     3.510834     3.503191     3.495547     3.487904     3.480261     3.472618
      3.464974     3.457331     3.449688     3.442045     3.434402     3.426758     3.419115     3.411472     3.403829     3.396185
      3.388542     3.380899     3.373256     3.365613     3.357969     3.350326     3.342683     3.335040     3.327396     3.319753
      3.312110     3.304467     3.296824     3.289180     3.281537     3.273894     3.266251     3.258607     3.250964     3.243321
      3.235678     3.228034     3.220391     3.212748     3.205105     3.197462     3.189818     3.182175     3.174532     3.166889
      3.159245     3.151602     3.143959     3.136316     3.128673     3.121029     3.113386     3.105743     3.098100     3.090456
      3.082813     3.075170     3.067527     3.059884     3.052240     3.044597     3.036954     3.029311     3.021667     3.014024
      3.006381     2.998738     2.991095     2.983451     2.975808     2.968165     2.960522     2.952878     2.945235     2.937592
      2.929949     2.922306     2.914662     2.907019     2.899376     2.891733     2.884089     2.876446     2.868803     2.861160
      2.853517     2.845873     2.838230     2.830587     2.822944     2.815300     2.807657     2.800014     2.792371     2.784728
      2.777084     2.769441     2.761798     2.754155     2.746511     2.738868     2.731225     2.723582     2.715939     2.708295
      2.700652     2.693009     2.685366     2.677722     2.670079     2.662436     2.654793     2.647150     2.639506     2.631863
      2.624220     2.616577     2.608933     2.601290     2.593647     2.586004     2.578361     2.570717     2.563074     2.555431
      2.547788     2.540144     2.532501     2.524858     2.517215     2.509572     2.501928     2.494285     2.486642     2.478999
      2.471355     2.463712     2.456069     2.448426     2.440783     2.433139     2.425496     2.417853     2.410210     2.402566
      2.394923     2.387280     2.379637     2.371994     2.364350     2.356707     2.349064     2.341421     2.333777     2.326134
      2.318491     2.310848     2.303205     2.295561     2.287918     2.280275     2.272632     2.264988     2.257345     2.249702
      2.242059     2.234416     2.226772     2.219129     2.211486     2.203843     2.196199     2.188556     2.180913     2.173270
      2.165627     2.157983     2.150340     2.142697     2.135054     2.127410     2.119767     2.112124     2.104481     2.096838
      2.089194     2.081551     2.073908     2.066265     2.058621     2.050978     2.043335     2.035692     2.028049     2.020405
      2.012762     2.005119     1.997476     1.989833     1.982190     1.974546     1.966903     1.959260     1.951617     1.943974
      1.936331     1.928688     1.921045     1.913402     1.905759     1.898115     1.890472     1.882829     1.875186     1.867543
      1.859900     1.852257     1.844614     1.836971     1.829327     1.821684     1.814041     1.806398     1.798755     1.791112
      1.783469     1.775826     1.768183     1.760540     1.752896     1.745253     1.737610     1.729967     1.722324     1.714681
      1.707038     1.699395     1.691752     1.684108     1.676465     1.668822     1.661179     1.653536     1.645893     1.638250
      1.630607     1.622964     1.615321     1.607677     1.600034     1.592391     1.584748     1.577105     1.569462     1.561819
      1.554176     1.546533     1.538890     1.531246     1.523603     1.515960     1.508317     1.500674     1.493031     1.485388
      1.477745     1.470102     1.462458     1.454815     1.447172     1.439529     1.431886     1.424243     1.416600     1.408957
      1.401314     1.393671     1.386027     1.378384     1.370741     1.363098     1.355455     1.347812     1.340169     1.332526
      1.324883     1.317240     1.309596     1.301953     1.294310     1.286667     1.279024     1.271381     1.263738     1.256095
      1.248452     1.240808     1.233165     1.225522     1.217879     1.210236     1.202593     1.194950     1.187307     1.179664
      1.172021     1.164377     1.156734     1.149091     1.141448     1.133805     1.126162     1.118519     1.110876     1.103233
      1.095590     1.087946     1.080303     1.072660     1.065017     1.057374     1.049731     1.042088     1.034445     1.026802
      1.019158     1.011515     1.003872     0.996229     0.988586     0.980943     0.973300     0.965657     0.958014     0.950371
      0.942727     0.935084     0.927441     0.919798     0.912155     0.904512     0.896869     0.889226     0.881583     0.873940
      0.866296     0.858653     0.851010     0.843367     0.835724     0.828081     0.820438     0.812795     0.805152     0.797508
      0.789865     0.782222     0.774579     0.766936     0.759293     0.751650     0.744007     0.736364     0.728721     0.721077
      0.713434     0.705791     0.698148     0.690505     0.682862     0.675219     0.667576     0.659933     0.652290     0.644646
      0.637003     0.629360     0.621717     0.614074     0.606431     0.598788     0.591145     0.583502     0.575858     0.568215
      0.560572     0.552929     0.545286     0.537643     0.530000     0.522357     0.514714     0.507071     0.499427     0.491784
      0.484141     0.476498     0.468855     0.461212     0.453569     0.445925     0.438282     0.430639     0.422996     0.415353
      0.407710     0.400067     0.392424     0.384780     0.377137     0.369494     0.361851     0.354208     0.346565     0.338922
      0.331278     0.323635     0.315992     0.308349     0.300706     0.293063     0.285420     0.277777     0.270133     0.262490
      0.254847     0.247204     0.239561     0.231918     0.224275     0.216631     0.208988     0.201345
 NY phased data points follow
  -1.06997E+00  8.90667E+00 -6.47771E+00 -1.80069E+00  3.10027E-01 -5.97709E+00 -1.03153E+01  4.98105E+00  4.15821E+00  4.50294E-01
   9.61144E+00  1.14305E+00 -9.63383E-01 -4.69455E+00 -4.05812E-01 -8.92088E+00 -2.47608E-01  1.74031E-01  5.82646E+00 -3.29767E+00
  -2.89200E+00  1.90975E+00  4.26103E+00 -2.59318E+00 -6.43214E+00 -5.27936E+00 -7.59039E-01 -1.72881E+00 -6.62499E+00 -4.10468E+00
   5.94430E-01 -9.57435E-01  5.12033E+00 -5.48690E-01 -1.54875E+00 -1.33731E+01  2.28801E-01 -6.60307E-02 -5.64330E-01 -9.39721E+00
  -6.91650E+00  5.63957E+00 -7.11533E+00 -9.57031E+00 -1.04174E+01 -1.20815E-01 -1.92502E+00 -6.17660E+00  8.48360E-01 -9.09259E-01
  -2.88532E+00 -4.63339E-01  1.53549E+00  5.83058E-01  9.71706E-01  2.67112E+00 -1.43783E-01  5.29747E+00 -1.02032E+01  4.14654E-03
  -1.83259E+00  5.93378E-01  2.32325E+00 -8.52106E+00 -9.99826E-01 -2.24681E+00 -6.24842E-01 -4.31031E+00 -1.16304E+01 -1.37493E+00
  -4.09864E+00  3.74994E+00 -1.96583E+00  1.71328E+00  1.04032E+01  9.96980E-01 -6.04918E-01 -3.89294E+00  3.30044E+00 -1.29618E+00
  -2.05154E+00 -4.20095E-01  3.75353E+00  2.76326E+00 -5.15299E+00  7.62241E+00 -4.51084E+00  1.24226E+00 -2.83008E+00 -1.71101E+00
   4.98848E+00 -1.18111E+00 -3.42464E+00  1.50228E-01  9.87035E-01 -1.14008E+00  2.80022E+00 -2.22316E+00  1.60729E+00  1.28867E+01
  -6.89017E+00  3.72269E+00  8.45488E+00  3.63766E+00  5.25752E-02  7.10840E+00  2.87696E+00 -8.85328E-01  1.72934E+00 -3.88078E+00
  -6.07226E+00 -4.95371E-01 -5.28705E+00  5.12391E+00  7.17545E+00  2.03848E+00 -3.58462E-01 -3.42886E+00  1.32682E+00 -1.38817E+00
   4.81155E+00 -1.31420E+01  2.75166E+00 -1.24089E+00  3.98945E+00  5.03059E+00  6.48684E+00  7.67733E+00  4.97636E+00  2.41610E+00
   6.34280E+00 -5.63254E+00  1.19897E+00 -2.55695E+00  9.28754E-01  1.01567E+00 -2.73577E+00 -1.96498E+00  1.51163E+00  3.09530E+00
   4.98170E+00 -4.49179E+00  4.19917E+00  1.83127E+00 -7.02749E+00 -2.98256E+00  2.15264E+00  1.55669E+00  6.58259E+00  8.86264E+00
  -3.22558E+00 -2.92734E+00  4.17758E+00  5.89681E+00  2.16365E+00  4.40717E+00 -6.04195E+00  5.76935E+00  1.14772E+00 -3.89607E+00
   5.47080E+00  9.01277E-01 -3.04166E+00 -5.19458E+00  1.68445E+00 -1.10338E+00  4.68156E+00  5.58361E+00  1.23727E+00  7.06451E-01
   4.76812E+00  7.24555E-01  4.56671E+00 -2.33915E+00 -6.95627E+00 -1.05916E+01  8.90787E-01 -2.87281E-01  1.97070E+00  2.07840E+00
   5.35531E+00  2.32051E+00 -2.79132E-02 -4.17250E+00 -2.31214E+00  2.18540E+00 -1.94709E+00 -4.94425E-01  4.65088E+00  1.03580E+00
   9.85278E-01  5.17825E+00  2.72119E+00 -2.53614E+00  2.13938E+00  2.88355E-01  1.43823E+00  4.54867E+00 -4.21286E+00  2.73165E-01
  -4.09102E+00 -4.11289E+00  5.83225E+00  1.06989E+00 -6.54209E+00  3.29341E+00  1.15137E+00  3.62856E+00 -5.61044E+00  5.29012E+00
   2.23104E+00  1.79800E+00  1.10900E+00  8.92848E-01  9.28847E+00  3.22709E+00  2.34009E+00 -1.33973E+00  4.64521E+00 -8.95790E-01
  -1.54087E+00 -6.57823E+00 -2.01522E+00 -3.75264E-01 -2.14228E+00 -3.78749E+00  8.47603E+00 -2.40375E-01  4.34214E-01  8.66761E-01
  -1.31197E-01  3.50121E+00 -5.38606E+00  2.97196E+00 -5.89908E+00 -2.66070E+00 -5.03159E+00 -2.40302E+00 -1.94589E+00  3.65852E+00
  -2.18803E+00  3.61834E+00 -1.79573E+00 -4.92414E+00  2.39043E+00  1.57124E+00  4.03198E+00  2.13816E+00  7.12455E+00  9.71799E-01
   5.67425E+00  4.77690E+00 -3.04774E+00  5.17846E-01  4.15027E+00  9.31950E+00  9.02480E+00  5.65477E+00  8.99561E+00  1.70360E+00
   1.02437E+01  4.60027E+00  9.75223E+00  1.01163E+01 -1.40335E+00  1.71368E+00 -8.16342E-01 -1.36121E+00 -1.24242E+00 -2.60906E+00
   6.29467E+00  6.03190E+00  2.58125E+00  2.00516E+00  3.30040E+00  7.82309E+00  1.89125E+00  4.94091E+00  9.47044E-01  4.08937E+00
   1.00875E+01  3.12662E+00  2.77987E+00  1.79800E+00  1.05006E+00  7.01973E+00  1.06476E+01  8.85318E+00  1.18794E+00  2.37270E+00
   5.47526E+00  1.57534E+01  5.37984E+00  4.84676E+00  3.84454E+00  7.33253E+00  8.97838E-02  4.06166E+00  1.08381E+01  2.85182E+00
   5.04546E+00  7.63576E+00  5.83677E-01 -5.75718E-01  1.60331E+00 -5.11781E-01  1.80410E+01  3.17304E+00  3.70883E+00  6.28499E+00
   1.14266E+01  1.12981E+01 -1.47421E+00  7.40610E-01  8.06533E+00  5.01154E+00  3.19232E+00 -1.11599E+00  3.23696E-02  3.36720E-01
  -8.62489E+00  1.10205E-01 -5.54851E+00 -5.86107E+00 -5.03008E+00 -6.76673E+00 -1.33601E+01 -1.04262E+01 -1.20838E+01 -7.43779E+00
  -9.92838E+00 -9.24064E+00 -1.10034E+01 -2.13808E+00 -5.21831E+00 -7.11785E+00 -9.25544E+00 -3.69274E+00 -7.22558E+00 -3.23029E+00
   2.55365E+00 -4.26751E+00 -1.26106E+00 -8.85023E+00 -2.36207E+00  7.01493E+00  7.13466E-01  3.05949E+00  4.49104E+00  1.03116E+00
  -1.01129E+00 -2.09965E+00  7.87305E-01  1.07673E+00 -1.20912E+01  8.36887E-01  3.33756E+00 -4.48632E+00 -5.47466E+00 -7.59856E+00
  -5.03953E-01 -8.76952E+00 -4.35654E+00  3.94250E+00  3.51936E+00  7.01160E+00 -2.49969E+00 -3.36917E+00 -6.70634E+00  3.25215E+00
   4.61906E+00  9.58867E+00  4.81512E+00  9.49852E+00  9.98410E-01  4.34789E+00  2.85313E+00 -4.59748E+00  6.80566E+00  7.47028E+00
  -4.18706E+00 -1.31530E+00  3.95331E+00 -3.68926E+00 -3.04602E+00  8.82366E+00 -2.30824E+00 -5.00511E+00  3.79661E+00  3.75501E+00
   9.81131E+00  6.60732E+00  2.16069E+00  4.20915E+00 -7.53949E+00 -3.82789E+00  5.77802E+00  2.63824E+00 -4.56837E+00  1.43324E+00
   1.41603E+01 -9.82782E-01  7.52325E+00  1.47476E+00  1.67966E+00 -1.22415E+01  1.01789E+01  4.00166E-01 -3.17891E+00 -1.03271E+01
   1.86736E-01 -1.36251E+00  1.47103E-01 -4.25147E+00 -3.10435E+00 -2.23140E+00 -3.42348E+00 -7.58253E+00  2.06745E+00 -8.35345E+00
  -6.40973E+00  8.35800E+00 -6.90411E+00 -8.13367E+00 -3.63688E+00 -1.96262E+00 -1.46724E+00  5.11151E+00 -2.34730E+00  3.05956E+00
  -9.33097E-01  6.77246E+00  3.20203E+00  4.16456E+00  4.75132E+00  4.32104E+00  2.73456E+00 -7.49633E-01 -9.64937E-01 -1.71138E+00
   4.04020E+00  3.48755E+00 -7.01606E-01 -7.13007E+00  5.23090E+00  5.32033E-01  1.33885E+00 -3.19750E+00  2.44038E+00  4.72509E+00
  -6.92425E+00 -3.01844E-02  2.02995E+00  4.49345E+00 -3.27020E+00 -7.28014E-01  3.11844E-01  4.20124E-01  8.73941E-01 -4.08761E+00
   5.56164E+00 -1.07367E+00  4.94328E-01  4.08342E+00 -5.65202E+00 -2.00118E+00 -2.78025E+00 -6.11058E+00  1.21293E+01  3.66952E-01
  -1.64132E+00 -2.34104E+00 -3.91092E+00  5.43563E+00 -2.05520E+00  4.60480E-02 -2.28474E+00 -3.59398E+00  1.10346E+00 -6.20742E+00
  -2.35686E+00 -6.04151E-01  5.06057E+00 -5.32526E+00  1.53049E+00  3.88137E+00 -1.99897E-01 -9.19011E-01  1.66888E+00 -6.08646E+00
  -2.26309E+00 -6.69354E+00  5.87446E-01 -1.88951E+00 -1.20355E+01  3.65165E+00 -2.82527E+00 -2.29843E+00
 NY points of the fit to the data follow
  -5.12780E-01 -4.87635E-01 -4.44868E-01 -3.45575E-01 -3.51473E-02  5.34141E-01  1.27289E+00  2.04240E+00  2.62080E+00  2.81668E+00
   2.56704E+00  1.93412E+00  1.09383E+00  3.11106E-01 -1.93481E-01 -3.92901E-01 -4.44751E-01 -4.57628E-01 -4.39449E-01 -3.85946E-01
  -2.87261E-01 -1.38348E-01  2.18286E-02  9.93671E-02  3.96897E-02 -1.78030E-01 -5.12808E-01 -8.36429E-01 -9.95166E-01 -8.71669E-01
  -4.60141E-01  1.10646E-01  6.10592E-01  8.02176E-01  5.98732E-01  1.26000E-01 -4.24766E-01 -8.39740E-01 -9.72598E-01 -8.27437E-01
  -5.36956E-01 -2.62842E-01 -1.08012E-01 -9.90760E-02 -1.89062E-01 -2.91147E-01 -3.56117E-01 -3.93085E-01 -4.14736E-01 -4.27755E-01
  -4.31611E-01 -4.27098E-01 -4.17339E-01 -4.08309E-01 -4.06557E-01 -4.15109E-01 -4.32141E-01 -4.52148E-01 -4.66905E-01 -4.73492E-01
  -4.73299E-01 -4.66446E-01 -4.54225E-01 -4.41756E-01 -4.29865E-01 -4.22870E-01 -4.24884E-01 -4.35709E-01 -4.53068E-01 -4.71685E-01
  -4.76659E-01 -4.55403E-01 -4.11553E-01 -3.56770E-01 -3.09896E-01 -2.90709E-01 -3.09289E-01 -3.57173E-01 -4.16759E-01 -4.65922E-01
  -4.80704E-01 -4.38115E-01 -3.45919E-01 -2.34169E-01 -1.29217E-01 -5.89224E-02 -4.03914E-02 -7.14145E-02 -1.42541E-01 -2.39978E-01
  -3.38747E-01 -4.15141E-01 -4.62268E-01 -4.85277E-01 -4.79836E-01 -4.38719E-01 -3.53071E-01 -1.89679E-01  2.26236E-01  1.02983E+00
   2.10339E+00  3.26559E+00  4.21453E+00  4.64803E+00  4.42535E+00  3.59136E+00  2.36536E+00  1.13127E+00  2.63977E-01 -1.19081E-01
  -2.15658E-01 -2.52045E-01 -2.70880E-01 -2.77446E-01 -2.75084E-01 -2.69093E-01 -2.60495E-01 -2.48075E-01 -2.30656E-01 -2.01902E-01
  -1.41478E-01  5.48038E-02  6.71579E-01  1.72898E+00  3.06155E+00  4.39310E+00  5.32749E+00  5.56103E+00  5.01679E+00  3.82971E+00
   2.34295E+00  1.03568E+00  2.47840E-01 -4.22510E-02 -1.33654E-01 -1.82695E-01 -2.07736E-01 -2.20029E-01 -2.29725E-01 -2.42050E-01
  -2.57238E-01 -2.70514E-01 -2.79199E-01 -2.84643E-01 -2.87587E-01 -2.91071E-01 -3.00642E-01 -3.19427E-01 -3.46327E-01 -3.79179E-01
  -4.15076E-01 -4.49617E-01 -4.80476E-01 -5.02743E-01 -5.08607E-01 -5.02191E-01 -4.98252E-01 -5.09851E-01 -5.45559E-01 -6.03142E-01
  -6.61405E-01 -6.99842E-01 -7.05381E-01 -6.80125E-01 -6.45168E-01 -6.31833E-01 -6.54871E-01 -7.01751E-01 -7.46844E-01 -7.68128E-01
  -7.65123E-01 -7.59208E-01 -7.69174E-01 -7.93567E-01 -8.25096E-01 -8.49293E-01 -8.55977E-01 -8.43983E-01 -8.23265E-01 -8.01560E-01
  -7.82379E-01 -7.63404E-01 -7.34504E-01 -6.79481E-01 -5.97135E-01 -5.07217E-01 -4.24426E-01 -3.51463E-01 -2.85134E-01 -2.22559E-01
  -1.70138E-01 -1.43995E-01 -1.45144E-01 -1.61152E-01 -1.71691E-01 -1.65717E-01 -1.49056E-01 -1.28224E-01 -1.05669E-01 -7.45316E-02
  -2.30217E-02  6.04933E-02  1.49151E-01  2.09538E-01  1.97529E-01  6.69910E-02 -1.78285E-01 -5.02794E-01 -8.28959E-01 -1.02746E+00
  -9.68228E-01 -5.26153E-01  2.20283E-01  1.08365E+00  1.81520E+00  2.14101E+00  1.88178E+00  9.92319E-01 -3.79563E-01 -1.85668E+00
  -2.98931E+00 -3.47244E+00 -3.22841E+00 -2.43415E+00 -1.31873E+00 -1.52993E-01  7.54812E-01  1.20712E+00  1.23047E+00  1.02951E+00
   8.09764E-01  6.64319E-01  6.18316E-01  6.73068E-01  7.92055E-01  8.99108E-01  9.25687E-01  8.41531E-01  6.55743E-01  4.47785E-01
   3.08163E-01  3.03349E-01  4.56138E-01  7.48333E-01  1.10165E+00  1.40348E+00  1.55213E+00  1.51272E+00  1.34083E+00  1.15885E+00
   1.15060E+00  1.53808E+00  2.32125E+00  3.33915E+00  4.39291E+00  5.38681E+00  6.31956E+00  7.08730E+00  7.64956E+00  7.90942E+00
   7.76268E+00  7.18398E+00  6.14694E+00  4.66317E+00  3.07122E+00  1.84699E+00  1.17907E+00  8.72161E-01  6.78220E-01  5.59467E-01
   5.08070E-01  5.10264E-01  5.56010E-01  6.23042E-01  6.75531E-01  6.86857E-01  6.46797E-01  5.67488E-01  4.76997E-01  4.05541E-01
   3.67569E-01  3.62220E-01  3.81555E-01  4.16895E-01  4.61056E-01  5.06261E-01  5.47791E-01  5.90457E-01  6.42219E-01  7.07481E-01
   7.87337E-01  8.79681E-01  9.80013E-01  1.08133E+00  1.17613E+00  1.25992E+00  1.33139E+00  1.39187E+00  1.44369E+00  1.48655E+00
   1.51889E+00  1.53903E+00  1.54459E+00  1.53273E+00  1.50160E+00  1.45165E+00  1.38559E+00  1.30647E+00  1.21735E+00  1.12127E+00
   1.02090E+00  9.18750E-01  8.17208E-01  7.18468E-01  6.24474E-01  5.36883E-01  4.57068E-01  3.86168E-01  3.25214E-01  2.75415E-01
   2.38961E-01  2.21467E-01  2.32536E-01  2.57222E-01  2.68235E-01  2.42860E-01  1.61699E-01  2.36673E-02 -1.52559E-01 -3.38788E-01
  -4.84541E-01 -5.37372E-01 -4.84617E-01 -3.49521E-01 -1.81336E-01 -2.18962E-02  1.01146E-01  1.65854E-01  1.64171E-01  1.12741E-01
   4.85043E-02  3.91035E-03 -1.75523E-02 -2.82341E-02 -3.30506E-02 -3.39316E-02 -3.19000E-02 -2.75625E-02 -2.13117E-02 -1.34371E-02
  -4.16917E-03  6.28684E-03  1.77441E-02  3.00140E-02  4.29022E-02  5.61956E-02  6.96718E-02  8.30994E-02  9.62519E-02  1.08905E-01
   1.20845E-01  1.31876E-01  1.41828E-01  1.50574E-01  1.58038E-01  1.64191E-01  1.69063E-01  1.72735E-01  1.75356E-01  1.77135E-01
   1.78345E-01  1.79306E-01  1.80391E-01  1.82011E-01  1.84623E-01  1.88717E-01  1.94817E-01  2.03461E-01  2.15201E-01  2.30595E-01
   2.50206E-01  2.74580E-01  3.04236E-01  3.39636E-01  3.81169E-01  4.29119E-01  4.83643E-01  5.44722E-01  6.12138E-01  6.85427E-01
   7.63869E-01  8.46463E-01  9.31936E-01  1.01874E+00  1.10509E+00  1.18901E+00  1.26841E+00  1.34114E+00  1.40514E+00  1.45848E+00
   1.49947E+00  1.52679E+00  1.53950E+00  1.53714E+00  1.51973E+00  1.48779E+00  1.44227E+00  1.38453E+00  1.31627E+00  1.23939E+00
   1.15596E+00  1.06807E+00  9.77751E-01  8.86900E-01  7.97223E-01  7.10178E-01  6.26953E-01  5.48447E-01  4.75294E-01  4.07873E-01
   3.46346E-01  2.90682E-01  2.40703E-01  1.96114E-01  1.56547E-01  1.21586E-01  9.07971E-02  6.37415E-02  3.99958E-02  1.91585E-02
   8.67167E-04 -1.52076E-02 -2.93557E-02 -4.18375E-02 -5.28784E-02 -6.26755E-02 -7.13928E-02 -7.91722E-02 -8.61321E-02 -9.23785E-02
  -9.79988E-02 -1.03070E-01 -1.07653E-01 -1.11804E-01 -1.15569E-01 -1.18994E-01 -1.22114E-01 -1.24961E-01 -1.27557E-01 -1.29928E-01
  -1.32094E-01 -1.34076E-01 -1.35889E-01 -1.37547E-01 -1.39060E-01 -1.40440E-01 -1.41698E-01 -1.42848E-01 -1.43895E-01 -1.44849E-01
  -1.45713E-01 -1.46495E-01 -1.47201E-01 -1.47839E-01 -1.48408E-01 -1.48916E-01 -1.49363E-01 -1.49758E-01 -1.50102E-01 -1.50402E-01
  -1.50654E-01 -1.50862E-01 -1.51027E-01 -1.51154E-01 -1.51244E-01 -1.51300E-01 -1.51322E-01 -1.51313E-01 -1.51273E-01 -1.51209E-01
  -1.51118E-01 -1.51003E-01 -1.50861E-01 -1.50695E-01 -1.50506E-01 -1.50298E-01 -1.50068E-01 -1.49819E-01 -1.49548E-01 -1.49258E-01
  -1.48950E-01 -1.48627E-01 -1.48284E-01 -1.47924E-01 -1.47544E-01 -1.47146E-01 -1.46731E-01 -1.46300E-01
 NY background values follow
    -6.185E-01   -6.176E-01   -6.168E-01   -6.159E-01   -6.150E-01   -6.141E-01   -6.132E-01   -6.123E-01   -6.115E-01   -6.106E-01
    -6.097E-01   -6.088E-01   -6.079E-01   -6.070E-01   -6.062E-01   -6.053E-01   -6.044E-01   -6.035E-01   -6.026E-01   -6.017E-01
    -6.009E-01   -6.000E-01   -5.991E-01   -5.982E-01   -5.973E-01   -5.964E-01   -5.956E-01   -5.947E-01   -5.938E-01   -5.929E-01
    -5.920E-01   -5.911E-01   -5.903E-01   -5.894E-01   -5.885E-01   -5.876E-01   -5.867E-01   -5.858E-01   -5.850E-01   -5.841E-01
    -5.832E-01   -5.823E-01   -5.814E-01   -5.805E-01   -5.797E-01   -5.788E-01   -5.779E-01   -5.770E-01   -5.761E-01   -5.752E-01
    -5.744E-01   -5.735E-01   -5.726E-01   -5.717E-01   -5.708E-01   -5.699E-01   -5.691E-01   -5.682E-01   -5.673E-01   -5.664E-01
    -5.655E-01   -5.646E-01   -5.638E-01   -5.629E-01   -5.620E-01   -5.611E-01   -5.602E-01   -5.593E-01   -5.585E-01   -5.576E-01
    -5.567E-01   -5.558E-01   -5.549E-01   -5.540E-01   -5.532E-01   -5.523E-01   -5.514E-01   -5.505E-01   -5.496E-01   -5.487E-01
    -5.479E-01   -5.470E-01   -5.461E-01   -5.452E-01   -5.443E-01   -5.434E-01   -5.426E-01   -5.417E-01   -5.408E-01   -5.399E-01
    -5.390E-01   -5.381E-01   -5.373E-01   -5.364E-01   -5.355E-01   -5.346E-01   -5.337E-01   -5.329E-01   -5.320E-01   -5.311E-01
    -5.302E-01   -5.293E-01   -5.284E-01   -5.276E-01   -5.267E-01   -5.258E-01   -5.249E-01   -5.240E-01   -5.231E-01   -5.223E-01
    -5.214E-01   -5.205E-01   -5.196E-01   -5.187E-01   -5.178E-01   -5.170E-01   -5.161E-01   -5.152E-01   -5.143E-01   -5.134E-01
    -5.125E-01   -5.117E-01   -5.108E-01   -5.099E-01   -5.090E-01   -5.081E-01   -5.072E-01   -5.064E-01   -5.055E-01   -5.046E-01
    -5.037E-01   -5.028E-01   -5.019E-01   -5.011E-01   -5.002E-01   -4.993E-01   -4.984E-01   -4.975E-01   -4.967E-01   -4.958E-01
    -4.949E-01   -4.940E-01   -4.931E-01   -4.922E-01   -4.914E-01   -4.905E-01   -4.896E-01   -4.887E-01   -4.878E-01   -4.869E-01
    -4.861E-01   -4.852E-01   -4.843E-01   -4.834E-01   -4.825E-01   -4.816E-01   -4.808E-01   -4.799E-01   -4.790E-01   -4.781E-01
    -4.772E-01   -4.764E-01   -4.755E-01   -4.746E-01   -4.737E-01   -4.728E-01   -4.719E-01   -4.711E-01   -4.702E-01   -4.693E-01
    -4.684E-01   -4.675E-01   -4.666E-01   -4.658E-01   -4.649E-01   -4.640E-01   -4.631E-01   -4.622E-01   -4.614E-01   -4.605E-01
    -4.596E-01   -4.587E-01   -4.578E-01   -4.569E-01   -4.561E-01   -4.552E-01   -4.543E-01   -4.534E-01   -4.525E-01   -4.516E-01
    -4.508E-01   -4.499E-01   -4.490E-01   -4.481E-01   -4.472E-01   -4.464E-01   -4.455E-01   -4.446E-01   -4.437E-01   -4.428E-01
    -4.419E-01   -4.411E-01   -4.402E-01   -4.393E-01   -4.384E-01   -4.375E-01   -4.367E-01   -4.358E-01   -4.349E-01   -4.340E-01
    -4.331E-01   -4.322E-01   -4.314E-01   -4.305E-01   -4.296E-01   -4.287E-01   -4.278E-01   -4.270E-01   -4.261E-01   -4.252E-01
    -4.243E-01   -4.234E-01   -4.225E-01   -4.217E-01   -4.208E-01   -4.199E-01   -4.190E-01   -4.181E-01   -4.173E-01   -4.164E-01
    -4.155E-01   -4.146E-01   -4.137E-01   -4.128E-01   -4.120E-01   -4.111E-01   -4.102E-01   -4.093E-01   -4.084E-01   -4.076E-01
    -4.067E-01   -4.058E-01   -4.049E-01   -4.040E-01   -4.031E-01   -4.023E-01   -4.014E-01   -4.005E-01   -3.996E-01   -3.987E-01
    -3.979E-01   -3.970E-01   -3.961E-01   -3.952E-01   -3.943E-01   -3.935E-01   -3.926E-01   -3.917E-01   -3.908E-01   -3.899E-01
    -3.890E-01   -3.882E-01   -3.873E-01   -3.864E-01   -3.855E-01   -3.846E-01   -3.838E-01   -3.829E-01   -3.820E-01   -3.811E-01
    -3.802E-01   -3.794E-01   -3.785E-01   -3.776E-01   -3.767E-01   -3.758E-01   -3.749E-01   -3.741E-01   -3.732E-01   -3.723E-01
    -3.714E-01   -3.705E-01   -3.697E-01   -3.688E-01   -3.679E-01   -3.670E-01   -3.661E-01   -3.653E-01   -3.644E-01   -3.635E-01
    -3.626E-01   -3.617E-01   -3.609E-01   -3.600E-01   -3.591E-01   -3.582E-01   -3.573E-01   -3.564E-01   -3.556E-01   -3.547E-01
    -3.538E-01   -3.529E-01   -3.520E-01   -3.512E-01   -3.503E-01   -3.494E-01   -3.485E-01   -3.476E-01   -3.468E-01   -3.459E-01
    -3.450E-01   -3.441E-01   -3.432E-01   -3.424E-01   -3.415E-01   -3.406E-01   -3.397E-01   -3.388E-01   -3.380E-01   -3.371E-01
    -3.362E-01   -3.353E-01   -3.344E-01   -3.335E-01   -3.327E-01   -3.318E-01   -3.309E-01   -3.300E-01   -3.291E-01   -3.283E-01
    -3.274E-01   -3.265E-01   -3.256E-01   -3.247E-01   -3.239E-01   -3.230E-01   -3.221E-01   -3.212E-01   -3.203E-01   -3.195E-01
    -3.186E-01   -3.177E-01   -3.168E-01   -3.159E-01   -3.151E-01   -3.142E-01   -3.133E-01   -3.124E-01   -3.115E-01   -3.107E-01
    -3.098E-01   -3.089E-01   -3.080E-01   -3.071E-01   -3.063E-01   -3.054E-01   -3.045E-01   -3.036E-01   -3.027E-01   -3.019E-01
    -3.010E-01   -3.001E-01   -2.992E-01   -2.983E-01   -2.974E-01   -2.966E-01   -2.957E-01   -2.948E-01   -2.939E-01   -2.930E-01
    -2.922E-01   -2.913E-01   -2.904E-01   -2.895E-01   -2.886E-01   -2.878E-01   -2.869E-01   -2.860E-01   -2.851E-01   -2.842E-01
    -2.834E-01   -2.825E-01   -2.816E-01   -2.807E-01   -2.798E-01   -2.790E-01   -2.781E-01   -2.772E-01   -2.763E-01   -2.754E-01
    -2.746E-01   -2.737E-01   -2.728E-01   -2.719E-01   -2.710E-01   -2.702E-01   -2.693E-01   -2.684E-01   -2.675E-01   -2.666E-01
    -2.658E-01   -2.649E-01   -2.640E-01   -2.631E-01   -2.622E-01   -2.614E-01   -2.605E-01   -2.596E-01   -2.587E-01   -2.578E-01
    -2.570E-01   -2.561E-01   -2.552E-01   -2.543E-01   -2.534E-01   -2.526E-01   -2.517E-01   -2.508E-01   -2.499E-01   -2.490E-01
    -2.482E-01   -2.473E-01   -2.464E-01   -2.455E-01   -2.446E-01   -2.438E-01   -2.429E-01   -2.420E-01   -2.411E-01   -2.402E-01
    -2.393E-01   -2.385E-01   -2.376E-01   -2.367E-01   -2.358E-01   -2.349E-01   -2.341E-01   -2.332E-01   -2.323E-01   -2.314E-01
    -2.305E-01   -2.297E-01   -2.288E-01   -2.279E-01   -2.270E-01   -2.261E-01   -2.253E-01   -2.244E-01   -2.235E-01   -2.226E-01
    -2.217E-01   -2.209E-01   -2.200E-01   -2.191E-01   -2.182E-01   -2.173E-01   -2.165E-01   -2.156E-01   -2.147E-01   -2.138E-01
    -2.129E-01   -2.121E-01   -2.112E-01   -2.103E-01   -2.094E-01   -2.085E-01   -2.077E-01   -2.068E-01   -2.059E-01   -2.050E-01
    -2.041E-01   -2.033E-01   -2.024E-01   -2.015E-01   -2.006E-01   -1.997E-01   -1.989E-01   -1.980E-01   -1.971E-01   -1.962E-01
    -1.953E-01   -1.945E-01   -1.936E-01   -1.927E-01   -1.918E-01   -1.909E-01   -1.901E-01   -1.892E-01   -1.883E-01   -1.874E-01
    -1.865E-01   -1.857E-01   -1.848E-01   -1.839E-01   -1.830E-01   -1.821E-01   -1.813E-01   -1.804E-01
 Ala      Conc. = 2.35E+01
