 LCModel (Version 6.3-1L) Copyright: S.W. Provencher.          Ref.: Magn. Reson. Med. 30:672-679 (1993).                
 Slice#3 Row#5 Col#3  PD_24_press_2_raw_act
 36 lines in following concentration table = NCONC+1
    Conc.  %SD /Cr+PCr  Metabolite                                         
    0.000 999%   0.000 Ala                                                 
    0.000 999%   0.000 Asp                                                 
    0.000 999%   0.000 Cr                                                  
 2.88E+03   4%   1.000 PCr                                                 
  304.281 109%   0.106 GABA                                                
  462.743  69%   0.161 Glc                                                 
 1.68E+03  39%   0.582 Gln                                                 
 3.60E+03  21%   1.250 Glu                                                 
 1.09E+03  33%   0.379 GPC                                                 
  211.175 178% 7.3E-02 PCh                                                 
  474.148  36%   0.165 GSH                                                 
 1.68E+03  37%   0.583 Ins                                                 
    0.000 999%   0.000 Lac                                                 
 3.78E+03   7%   1.311 NAA                                                 
  238.717 131% 8.3E-02 NAAG                                                
  307.680  20%   0.107 Scyllo                                              
  862.702  54%   0.300 Tau                                                 
  348.834  69%   0.121 -CrCH2                                              
 1.30E+03   4%   0.452 GPC+PCh                                             
 4.01E+03   4%   1.394 NAA+NAAG                                            
 2.88E+03   4%   1.000 Cr+PCr                                              
 5.28E+03  22%   1.832 Glu+Gln                                             
    0.000 999%   0.000 Lip13a                                              
    0.000 999%   0.000 Lip13b                                              
    0.000 999%   0.000 Lip09                                               
  837.143  28%   0.291 MM09                                                
   31.387 291% 1.1E-02 Lip20                                               
 2.69E+03  19%   0.933 MM20                                                
  152.854 104% 5.3E-02 MM12                                                
    0.000 999%   0.000 MM14                                                
 1.81E+03  17%   0.630 MM17                                                
    0.000 999%   0.000 Lip13a+Lip13b                                       
  152.854 104% 5.3E-02 MM14+Lip13a+Lip13b+MM12                             
  837.143  28%   0.291 MM09+Lip09                                          
 2.72E+03  19%   0.944 MM20+Lip20                                          
   6 lines in following misc. output table
  FWHM = 0.076 ppm    S/N =   9                                            
  Data shift = 0.038 ppm                                                   
  Ph: -41 deg     -17.3 deg/ppm                                            
  alphaB,S = 1.8E+00,   9.7E+01                                            
   14 spline knots.   Ns = 8(1)                                            
  (12) 4 infls.   ( 9) 1 extrs.                                            
  498 points on ppm-axis = NY
      4.000000     3.992357     3.984714     3.977070     3.969427     3.961784     3.954141     3.946497     3.938854     3.931211
      3.923568     3.915925     3.908281     3.900638     3.892995     3.885352     3.877708     3.870065     3.862422     3.854779
      3.847136     3.839492     3.831849     3.824206     3.816563     3.808919     3.801276     3.793633     3.785990     3.778347
      3.770703     3.763060     3.755417     3.747774     3.740130     3.732487     3.724844     3.717201     3.709558     3.701914
      3.694271     3.686628     3.678985     3.671341     3.663698     3.656055     3.648412     3.640769     3.633125     3.625482
      3.617839     3.610196     3.602552     3.594909     3.587266     3.579623     3.571980     3.564336     3.556693     3.549050
      3.541407     3.533763     3.526120     3.518477     3.510834     3.503191     3.495547     3.487904     3.480261     3.472618
      3.464974     3.457331     3.449688     3.442045     3.434402     3.426758     3.419115     3.411472     3.403829     3.396185
      3.388542     3.380899     3.373256     3.365613     3.357969     3.350326     3.342683     3.335040     3.327396     3.319753
      3.312110     3.304467     3.296824     3.289180     3.281537     3.273894     3.266251     3.258607     3.250964     3.243321
      3.235678     3.228034     3.220391     3.212748     3.205105     3.197462     3.189818     3.182175     3.174532     3.166889
      3.159245     3.151602     3.143959     3.136316     3.128673     3.121029     3.113386     3.105743     3.098100     3.090456
      3.082813     3.075170     3.067527     3.059884     3.052240     3.044597     3.036954     3.029311     3.021667     3.014024
      3.006381     2.998738     2.991095     2.983451     2.975808     2.968165     2.960522     2.952878     2.945235     2.937592
      2.929949     2.922306     2.914662     2.907019     2.899376     2.891733     2.884089     2.876446     2.868803     2.861160
      2.853517     2.845873     2.838230     2.830587     2.822944     2.815300     2.807657     2.800014     2.792371     2.784728
      2.777084     2.769441     2.761798     2.754155     2.746511     2.738868     2.731225     2.723582     2.715939     2.708295
      2.700652     2.693009     2.685366     2.677722     2.670079     2.662436     2.654793     2.647150     2.639506     2.631863
      2.624220     2.616577     2.608933     2.601290     2.593647     2.586004     2.578361     2.570717     2.563074     2.555431
      2.547788     2.540144     2.532501     2.524858     2.517215     2.509572     2.501928     2.494285     2.486642     2.478999
      2.471355     2.463712     2.456069     2.448426     2.440783     2.433139     2.425496     2.417853     2.410210     2.402566
      2.394923     2.387280     2.379637     2.371994     2.364350     2.356707     2.349064     2.341421     2.333777     2.326134
      2.318491     2.310848     2.303205     2.295561     2.287918     2.280275     2.272632     2.264988     2.257345     2.249702
      2.242059     2.234416     2.226772     2.219129     2.211486     2.203843     2.196199     2.188556     2.180913     2.173270
      2.165627     2.157983     2.150340     2.142697     2.135054     2.127410     2.119767     2.112124     2.104481     2.096838
      2.089194     2.081551     2.073908     2.066265     2.058621     2.050978     2.043335     2.035692     2.028049     2.020405
      2.012762     2.005119     1.997476     1.989833     1.982190     1.974546     1.966903     1.959260     1.951617     1.943974
      1.936331     1.928688     1.921045     1.913402     1.905759     1.898115     1.890472     1.882829     1.875186     1.867543
      1.859900     1.852257     1.844614     1.836971     1.829327     1.821684     1.814041     1.806398     1.798755     1.791112
      1.783469     1.775826     1.768183     1.760540     1.752896     1.745253     1.737610     1.729967     1.722324     1.714681
      1.707038     1.699395     1.691752     1.684108     1.676465     1.668822     1.661179     1.653536     1.645893     1.638250
      1.630607     1.622964     1.615321     1.607677     1.600034     1.592391     1.584748     1.577105     1.569462     1.561819
      1.554176     1.546533     1.538890     1.531246     1.523603     1.515960     1.508317     1.500674     1.493031     1.485388
      1.477745     1.470102     1.462458     1.454815     1.447172     1.439529     1.431886     1.424243     1.416600     1.408957
      1.401314     1.393671     1.386027     1.378384     1.370741     1.363098     1.355455     1.347812     1.340169     1.332526
      1.324883     1.317240     1.309596     1.301953     1.294310     1.286667     1.279024     1.271381     1.263738     1.256095
      1.248452     1.240808     1.233165     1.225522     1.217879     1.210236     1.202593     1.194950     1.187307     1.179664
      1.172021     1.164377     1.156734     1.149091     1.141448     1.133805     1.126162     1.118519     1.110876     1.103233
      1.095590     1.087946     1.080303     1.072660     1.065017     1.057374     1.049731     1.042088     1.034445     1.026802
      1.019158     1.011515     1.003872     0.996229     0.988586     0.980943     0.973300     0.965657     0.958014     0.950371
      0.942727     0.935084     0.927441     0.919798     0.912155     0.904512     0.896869     0.889226     0.881583     0.873940
      0.866296     0.858653     0.851010     0.843367     0.835724     0.828081     0.820438     0.812795     0.805152     0.797508
      0.789865     0.782222     0.774579     0.766936     0.759293     0.751650     0.744007     0.736364     0.728721     0.721077
      0.713434     0.705791     0.698148     0.690505     0.682862     0.675219     0.667576     0.659933     0.652290     0.644646
      0.637003     0.629360     0.621717     0.614074     0.606431     0.598788     0.591145     0.583502     0.575858     0.568215
      0.560572     0.552929     0.545286     0.537643     0.530000     0.522357     0.514714     0.507071     0.499427     0.491784
      0.484141     0.476498     0.468855     0.461212     0.453569     0.445925     0.438282     0.430639     0.422996     0.415353
      0.407710     0.400067     0.392424     0.384780     0.377137     0.369494     0.361851     0.354208     0.346565     0.338922
      0.331278     0.323635     0.315992     0.308349     0.300706     0.293063     0.285420     0.277777     0.270133     0.262490
      0.254847     0.247204     0.239561     0.231918     0.224275     0.216631     0.208988     0.201345
 NY phased data points follow
  -8.47732E+01 -8.52979E+01 -8.17318E+01 -6.42988E+01 -6.31281E+01 -4.92252E+01 -4.77641E+01 -3.54306E+01 -3.24984E+01 -2.89935E+01
  -2.61508E+01 -2.80551E+01 -3.40289E+01 -4.15862E+01 -4.94121E+01 -5.58990E+01 -5.77856E+01 -6.82045E+01 -7.76963E+01 -7.21029E+01
  -7.61281E+01 -7.46046E+01 -7.84419E+01 -6.31516E+01 -6.54097E+01 -5.95511E+01 -6.54070E+01 -5.57280E+01 -5.94243E+01 -5.39020E+01
  -6.25973E+01 -5.70572E+01 -7.20012E+01 -5.53577E+01 -5.11726E+01 -6.00660E+01 -5.01817E+01 -5.95142E+01 -6.70163E+01 -6.04004E+01
  -6.07858E+01 -5.56223E+01 -5.08028E+01 -5.66052E+01 -5.03145E+01 -5.44595E+01 -4.54974E+01 -5.39239E+01 -5.32308E+01 -4.26262E+01
  -5.21330E+01 -5.30561E+01 -5.18932E+01 -5.45001E+01 -6.06619E+01 -4.97554E+01 -6.10417E+01 -5.75705E+01 -5.43622E+01 -5.15392E+01
  -5.89886E+01 -6.08372E+01 -6.30168E+01 -6.46962E+01 -6.21806E+01 -6.28934E+01 -6.31192E+01 -6.34200E+01 -6.50596E+01 -4.96768E+01
  -5.20275E+01 -5.06140E+01 -5.43720E+01 -5.11536E+01 -4.63355E+01 -5.39830E+01 -5.70902E+01 -4.78744E+01 -4.35333E+01 -4.16988E+01
  -3.87608E+01 -3.89037E+01 -5.22904E+01 -4.59040E+01 -4.72344E+01 -4.24414E+01 -4.93474E+01 -3.73824E+01 -3.41440E+01 -3.89757E+01
  -4.24786E+01 -4.61523E+01 -4.06704E+01 -3.78859E+01 -2.84939E+01 -1.91879E+01 -8.53905E+00 -1.55821E+01  1.06388E+01  1.42832E+01
   2.76919E+01  3.38504E+01  3.93674E+01  4.70983E+01  4.46383E+01  3.64704E+01  2.97635E+01  9.50577E+00 -9.00058E+00 -1.41902E+01
  -3.60292E+01 -2.56754E+01 -3.18146E+01 -4.20477E+01 -4.93237E+01 -4.88848E+01 -4.42185E+01 -4.11831E+01 -3.85604E+01 -3.76105E+01
  -3.03536E+01 -1.76789E+01 -3.80579E+00  4.19367E+00  1.17199E+01  1.87069E+01  3.02439E+01  3.01148E+01  3.81179E+01  1.92721E+01
   2.23610E+01  5.34974E+00  5.33643E+00 -1.33868E+01 -1.90204E+01 -2.92017E+01 -2.91825E+01 -4.09700E+01 -2.95082E+01 -4.03606E+01
  -3.82944E+01 -4.20949E+01 -3.83076E+01 -4.21115E+01 -4.67585E+01 -3.53111E+01 -3.08075E+01 -3.96686E+01 -3.19707E+01 -3.17352E+01
  -4.39543E+01 -3.30081E+01 -3.50542E+01 -3.22615E+01 -4.26594E+01 -3.99537E+01 -3.86589E+01 -3.64777E+01 -3.44431E+01 -4.67264E+01
  -3.42996E+01 -2.49640E+01 -3.26562E+01 -3.35665E+01 -3.62446E+01 -2.68200E+01 -3.14494E+01 -3.46301E+01 -2.93653E+01 -4.07743E+01
  -4.07576E+01 -3.42957E+01 -3.59485E+01 -5.07221E+01 -4.11278E+01 -3.88012E+01 -4.95874E+01 -5.15862E+01 -4.37289E+01 -4.82671E+01
  -4.93072E+01 -4.73803E+01 -5.67075E+01 -4.21437E+01 -4.49734E+01 -4.62384E+01 -3.87635E+01 -4.65084E+01 -3.41628E+01 -2.82180E+01
  -2.32360E+01 -2.03453E+01 -1.40720E+01 -2.13012E+01 -2.11288E+01 -1.40459E+01 -1.97078E+01 -1.42342E+01 -1.28995E+01 -2.69984E+01
  -1.68291E+01 -1.59488E+01 -1.70122E+01 -2.48562E+01 -1.67778E+01 -2.68895E+01 -1.76419E+01 -2.87146E+01 -2.50987E+01 -2.59104E+01
  -2.62270E+01 -2.79290E+01 -2.03988E+01 -1.29423E+01 -8.40400E+00 -8.11092E+00 -5.07973E+00 -1.21022E+01 -1.90180E+01 -1.21653E+01
  -1.79194E+01 -2.49443E+01 -2.26676E+01 -2.02926E+01 -2.39312E+01 -1.82043E+01 -1.74385E+01 -1.71125E+01 -3.51732E+00 -3.99492E+00
  -6.37422E+00 -4.72502E+00 -1.50467E+01 -1.67276E+01 -1.63575E+01 -7.44453E+00 -6.62222E+00 -3.92415E+00 -4.70671E+00 -4.16124E+00
  -9.75850E+00 -6.79981E+00 -3.67480E+00 -1.56983E+01 -2.05606E+00 -3.75820E+00 -1.17054E+01 -3.09924E+00  4.20102E-01 -4.06656E+00
   1.93063E+00  9.55486E+00  1.49279E+01  2.34661E+01  2.69071E+01  4.24239E+01  5.69386E+01  6.60145E+01  8.52330E+01  9.06250E+01
   9.92625E+01  9.71745E+01  8.74481E+01  8.43171E+01  6.57418E+01  4.38511E+01  3.50527E+01  1.70393E+01  2.22012E+01  1.59434E+00
   4.16125E+00  8.76463E-01  1.02711E+01  3.87385E+00  1.05277E+00  9.97893E+00  5.25737E+00  7.41615E-01 -3.09783E+00  6.55985E+00
   1.76871E+00 -2.54202E+00 -2.93791E+00  3.41884E+00 -2.56101E-01 -6.61415E+00  2.53755E+00 -4.97898E+00  5.09848E+00 -1.76534E+00
   4.67142E+00  3.93010E-01  8.27348E+00  1.85375E+00  1.61146E+01  1.62242E+00  1.10915E+01  2.14525E+00  1.34333E+01  3.65308E+00
   1.33206E+01  1.03738E+01  8.58103E+00  6.68521E+00  1.66331E+01  1.83116E+01  8.29216E+00 -1.10769E-02  1.22610E+01  4.39882E+00
   1.19253E+01  3.75060E+00  9.11926E+00  2.18931E+00  5.59962E-01  1.37203E+00 -2.91622E+00 -5.35485E-01  3.58069E+00 -2.33832E+00
   1.10907E+00 -1.12002E+01 -9.46271E+00 -6.99623E+00 -1.57877E+00 -5.66458E+00 -6.02950E+00 -7.76362E+00  2.97540E+00 -5.83322E+00
  -1.09470E+00 -4.10814E-02 -1.08473E+00 -5.37358E+00 -3.63585E+00 -6.01400E-01  8.37882E-01 -8.25210E-01  2.94813E+00  4.05241E-01
   2.44650E+00 -6.31997E+00  7.80510E+00 -1.21713E+01 -1.03093E+01 -1.92425E+00 -3.05275E+00 -1.16736E+01 -8.22840E-01  1.55076E+00
   1.57588E+00  3.85510E-01 -3.34265E+00  3.18620E+00 -2.36254E+00 -4.65064E-04 -3.64738E+00 -3.23935E+00 -6.62668E+00 -3.95428E+00
   2.95406E+00  5.21419E+00 -1.61818E+00 -3.07788E+00 -3.44116E+00 -5.84186E+00  4.65444E+00 -1.82617E+00  1.70545E+00  8.11812E+00
  -2.23930E+00  3.82664E+00 -1.42798E+00  3.47160E+00  2.82389E-01  6.90100E-01  1.56582E+00 -2.37737E+00  4.17882E+00  4.64387E+00
   3.70257E+00 -4.48387E+00  4.51138E+00 -4.72367E+00  1.20179E+01 -2.12280E+00 -3.36910E-01 -9.02276E+00  4.95805E+00  1.56256E+00
   5.54565E+00  6.00903E+00  3.61516E-01  1.01311E+01  1.63931E+00  2.29206E+00  5.09833E+00  4.61203E+00  1.70943E+01  4.54892E+00
   7.34930E+00 -6.63881E+00 -1.77284E+00  1.26624E+01  4.87878E+00  5.15686E+00  7.03503E+00  1.11579E+01  1.05119E+01  6.58638E+00
   1.49723E+01  1.32602E+01  6.95988E+00  7.52798E+00  9.64890E+00  8.70651E+00  1.57402E+01  1.12970E+01  6.05950E+00  4.92441E+00
   9.36820E+00 -2.56502E+00  1.98188E+00  2.30558E+00  7.75412E+00  2.97196E+00  2.62677E+00  3.76801E+00  2.41380E+00  1.10298E+01
   5.54431E+00  5.45666E+00  5.89029E+00  2.74068E+00  1.66836E+01  4.59312E+00  7.31094E+00  1.11587E+01  1.30748E+01  1.38695E+01
   1.59980E+01  6.30490E+00  8.87116E+00 -7.66698E-01  1.40587E+01  8.28751E+00  9.24718E+00  1.51712E+00  7.58012E+00  5.49763E+00
   1.80256E+01  2.55250E+00  9.67256E-01 -9.23620E-01  7.19162E+00  2.37486E+00  1.20331E+01  8.46782E+00  1.14313E+01  7.12352E+00
   1.03927E+01  6.61967E+00  2.13207E+01  1.65356E+00  6.71678E+00  6.75626E+00  2.37011E+00  6.87646E+00  1.32943E+01  2.03592E+01
   6.88993E+00  9.82047E+00  1.43293E+01  6.47340E+00  1.50353E+01  7.02511E+00  4.82341E-01  1.20761E+01  1.76450E+01  7.26059E+00
   4.69739E+00  8.37911E+00  8.61598E+00  1.51880E+01  3.56635E+00  1.36186E+01  6.58034E+00  1.34763E+01 -1.10196E+00  3.25996E+00
   8.25370E+00 -9.68843E-02  1.25218E+01  1.40369E+01  1.16169E+01  6.98326E+00  1.60328E+01  8.83589E+00
 NY points of the fit to the data follow
  -7.74172E+01 -7.43268E+01 -6.87332E+01 -6.29123E+01 -5.71644E+01 -5.11292E+01 -4.49447E+01 -3.90863E+01 -3.41422E+01 -3.07750E+01
  -2.96462E+01 -3.11218E+01 -3.49855E+01 -4.08582E+01 -4.77890E+01 -5.41833E+01 -5.91220E+01 -6.28806E+01 -6.60797E+01 -6.80112E+01
  -6.88198E+01 -6.93607E+01 -6.92655E+01 -6.86329E+01 -6.76050E+01 -6.62458E+01 -6.45776E+01 -6.27050E+01 -6.08803E+01 -5.91049E+01
  -5.73451E+01 -5.58515E+01 -5.48112E+01 -5.44461E+01 -5.49480E+01 -5.63029E+01 -5.82445E+01 -6.00941E+01 -6.14457E+01 -6.19522E+01
  -6.13690E+01 -5.99712E+01 -5.81797E+01 -5.63235E+01 -5.45651E+01 -5.30680E+01 -5.20560E+01 -5.15861E+01 -5.16226E+01 -5.22445E+01
  -5.34390E+01 -5.48955E+01 -5.62484E+01 -5.72932E+01 -5.80226E+01 -5.84590E+01 -5.85994E+01 -5.84676E+01 -5.81164E+01 -5.76061E+01
  -5.71740E+01 -5.68492E+01 -5.66866E+01 -5.67038E+01 -5.67347E+01 -5.66905E+01 -5.65330E+01 -5.61125E+01 -5.53338E+01 -5.44188E+01
  -5.35614E+01 -5.27813E+01 -5.21029E+01 -5.15757E+01 -5.11374E+01 -5.07997E+01 -5.06384E+01 -5.05882E+01 -5.01943E+01 -4.90955E+01
  -4.80635E+01 -4.71504E+01 -4.59471E+01 -4.44356E+01 -4.28529E+01 -4.14374E+01 -4.04365E+01 -4.01201E+01 -4.05388E+01 -4.16208E+01
  -4.31837E+01 -4.47858E+01 -4.58709E+01 -4.52804E+01 -3.98606E+01 -3.00160E+01 -1.89783E+01 -7.47005E+00  4.62379E+00  1.69395E+01
   2.86528E+01  3.85264E+01  4.52617E+01  4.75092E+01  4.44361E+01  3.61764E+01  2.34541E+01  8.20586E+00 -6.45996E+00 -1.84212E+01
  -2.79341E+01 -3.57407E+01 -4.07105E+01 -4.27957E+01 -4.35369E+01 -4.37943E+01 -4.37933E+01 -4.34525E+01 -4.18070E+01 -3.56275E+01
  -2.63915E+01 -1.74737E+01 -8.60560E+00  8.56674E-01  1.05436E+01  1.97002E+01  2.73039E+01  3.21691E+01  3.31467E+01  2.97134E+01
   2.21198E+01  1.10706E+01 -1.39327E+00 -1.25946E+01 -2.12998E+01 -2.83303E+01 -3.42091E+01 -3.73066E+01 -3.80751E+01 -3.81195E+01
  -3.78090E+01 -3.73139E+01 -3.68001E+01 -3.63695E+01 -3.60621E+01 -3.59271E+01 -3.59427E+01 -3.60508E+01 -3.61920E+01 -3.63006E+01
  -3.63492E+01 -3.63370E+01 -3.62938E+01 -3.63848E+01 -3.65440E+01 -3.66458E+01 -3.66475E+01 -3.65098E+01 -3.63990E+01 -3.63975E+01
  -3.64331E+01 -3.64603E+01 -3.64558E+01 -3.63998E+01 -3.63024E+01 -3.62044E+01 -3.62019E+01 -3.64185E+01 -3.69333E+01 -3.75632E+01
  -3.79917E+01 -3.82624E+01 -3.84770E+01 -3.87505E+01 -3.89703E+01 -3.89418E+01 -3.87191E+01 -3.84144E+01 -3.80813E+01 -3.77896E+01
  -3.73945E+01 -3.68044E+01 -3.61057E+01 -3.52884E+01 -3.42556E+01 -3.30281E+01 -3.17817E+01 -3.05376E+01 -2.92632E+01 -2.79402E+01
  -2.67952E+01 -2.59434E+01 -2.53585E+01 -2.49589E+01 -2.46559E+01 -2.43016E+01 -2.36814E+01 -2.27528E+01 -2.15348E+01 -2.01760E+01
  -1.88820E+01 -1.79552E+01 -1.78405E+01 -1.81915E+01 -1.90221E+01 -2.06298E+01 -2.26575E+01 -2.44753E+01 -2.53846E+01 -2.55106E+01
  -2.50685E+01 -2.36882E+01 -2.13823E+01 -1.86893E+01 -1.64142E+01 -1.51572E+01 -1.48110E+01 -1.52963E+01 -1.68552E+01 -1.93482E+01
  -2.24219E+01 -2.50256E+01 -2.63462E+01 -2.63116E+01 -2.50457E+01 -2.26189E+01 -1.91692E+01 -1.56186E+01 -1.29273E+01 -1.11217E+01
  -9.92341E+00 -9.12727E+00 -8.74677E+00 -8.66203E+00 -8.63459E+00 -8.58206E+00 -8.35877E+00 -7.96700E+00 -7.61202E+00 -7.44441E+00
  -7.40920E+00 -7.64449E+00 -8.19500E+00 -8.75148E+00 -8.96567E+00 -8.68252E+00 -7.93549E+00 -6.61670E+00 -4.69029E+00 -2.54017E+00
  -4.33486E-01  2.68012E+00  1.04935E+01  2.28482E+01  3.51522E+01  4.69067E+01  5.89557E+01  7.08367E+01  8.15840E+01  9.02167E+01
   9.55432E+01  9.62993E+01  9.17424E+01  8.21444E+01  6.80557E+01  5.14959E+01  3.60574E+01  2.37628E+01  1.39088E+01  5.56560E+00
   3.13072E-01 -1.58466E+00 -2.35049E+00 -2.71439E+00 -2.80056E+00 -2.74960E+00 -2.72043E+00 -2.73802E+00 -2.82150E+00 -2.96683E+00
  -3.13636E+00 -3.26756E+00 -3.32314E+00 -3.26416E+00 -3.04628E+00 -2.66267E+00 -2.13705E+00 -1.49550E+00 -7.61857E-01  4.88463E-02
   9.18460E-01  1.81981E+00  2.74616E+00  3.68582E+00  4.61205E+00  5.50085E+00  6.33288E+00  7.08119E+00  7.71822E+00  8.22358E+00
   8.58136E+00  8.77676E+00  8.80456E+00  8.66773E+00  8.37072E+00  7.92543E+00  7.35055E+00  6.66987E+00  5.90973E+00  5.09686E+00
   4.25906E+00  3.42214E+00  2.60817E+00  1.83617E+00  1.12082E+00  4.72165E-01 -1.03667E-01 -6.04189E-01 -1.02998E+00 -1.38407E+00
  -1.67141E+00 -1.89817E+00 -2.07121E+00 -2.19753E+00 -2.28401E+00 -2.33704E+00 -2.36240E+00 -2.36520E+00 -2.34980E+00 -2.31987E+00
  -2.27843E+00 -2.22781E+00 -2.16992E+00 -2.10621E+00 -2.03784E+00 -1.96561E+00 -1.89012E+00 -1.81178E+00 -1.73093E+00 -1.64776E+00
  -1.56242E+00 -1.47494E+00 -1.38534E+00 -1.29360E+00 -1.19976E+00 -1.10379E+00 -1.00571E+00 -9.05486E-01 -8.03170E-01 -6.98808E-01
  -5.92554E-01 -4.84555E-01 -3.75047E-01 -2.64274E-01 -1.52593E-01 -4.03786E-02  7.19031E-02  1.83819E-01  2.94877E-01  4.04637E-01
   5.12607E-01  6.18383E-01  7.21575E-01  8.21942E-01  9.19279E-01  1.01355E+00  1.10479E+00  1.19319E+00  1.27905E+00  1.36288E+00
   1.44524E+00  1.52687E+00  1.60854E+00  1.69119E+00  1.77579E+00  1.86346E+00  1.95532E+00  2.05262E+00  2.15660E+00  2.26863E+00
   2.39010E+00  2.52253E+00  2.66742E+00  2.82635E+00  3.00088E+00  3.19261E+00  3.40304E+00  3.63355E+00  3.88525E+00  4.15895E+00
   4.45499E+00  4.77317E+00  5.11256E+00  5.47146E+00  5.84720E+00  6.23624E+00  6.63400E+00  7.03505E+00  7.43309E+00  7.82126E+00
   8.19218E+00  8.53847E+00  8.85285E+00  9.12870E+00  9.36016E+00  9.54261E+00  9.67280E+00  9.74914E+00  9.77165E+00  9.74211E+00
   9.66379E+00  9.54143E+00  9.38080E+00  9.18861E+00  8.97200E+00  8.73829E+00  8.49462E+00  8.24772E+00  8.00363E+00  7.76761E+00
   7.54395E+00  7.33606E+00  7.14628E+00  6.97620E+00  6.82651E+00  6.69736E+00  6.58824E+00  6.49831E+00  6.42634E+00  6.37099E+00
   6.33078E+00  6.30425E+00  6.28991E+00  6.28640E+00  6.29237E+00  6.30671E+00  6.32831E+00  6.35630E+00  6.38979E+00  6.42811E+00
   6.47059E+00  6.51673E+00  6.56605E+00  6.61819E+00  6.67276E+00  6.72949E+00  6.78810E+00  6.84841E+00  6.91020E+00  6.97334E+00
   7.03763E+00  7.10300E+00  7.16928E+00  7.23645E+00  7.30438E+00  7.37303E+00  7.44228E+00  7.51213E+00  7.58250E+00  7.65337E+00
   7.72468E+00  7.79641E+00  7.86847E+00  7.94091E+00  8.01365E+00  8.08671E+00  8.16003E+00  8.23361E+00  8.30741E+00  8.38145E+00
   8.45568E+00  8.53014E+00  8.60475E+00  8.67955E+00  8.75450E+00  8.82963E+00  8.90489E+00  8.98032E+00  9.05586E+00  9.13154E+00
   9.20732E+00  9.28325E+00  9.35927E+00  9.43543E+00  9.51167E+00  9.58803E+00  9.66448E+00  9.74107E+00  9.81775E+00  9.89455E+00
   9.97143E+00  1.00484E+01  1.01256E+01  1.02028E+01  1.02802E+01  1.03577E+01  1.04353E+01  1.05132E+01
 NY background values follow
    -8.581E+01   -8.547E+01   -8.513E+01   -8.480E+01   -8.446E+01   -8.412E+01   -8.378E+01   -8.344E+01   -8.311E+01   -8.277E+01
    -8.243E+01   -8.209E+01   -8.176E+01   -8.142E+01   -8.108E+01   -8.074E+01   -8.041E+01   -8.007E+01   -7.973E+01   -7.939E+01
    -7.906E+01   -7.872E+01   -7.838E+01   -7.805E+01   -7.771E+01   -7.737E+01   -7.704E+01   -7.670E+01   -7.636E+01   -7.603E+01
    -7.569E+01   -7.536E+01   -7.502E+01   -7.469E+01   -7.435E+01   -7.402E+01   -7.368E+01   -7.335E+01   -7.301E+01   -7.268E+01
    -7.235E+01   -7.201E+01   -7.168E+01   -7.135E+01   -7.102E+01   -7.068E+01   -7.035E+01   -7.002E+01   -6.969E+01   -6.936E+01
    -6.903E+01   -6.870E+01   -6.837E+01   -6.804E+01   -6.771E+01   -6.738E+01   -6.705E+01   -6.672E+01   -6.639E+01   -6.607E+01
    -6.574E+01   -6.541E+01   -6.509E+01   -6.476E+01   -6.443E+01   -6.411E+01   -6.378E+01   -6.346E+01   -6.314E+01   -6.281E+01
    -6.249E+01   -6.217E+01   -6.184E+01   -6.152E+01   -6.120E+01   -6.088E+01   -6.056E+01   -6.024E+01   -5.992E+01   -5.960E+01
    -5.929E+01   -5.897E+01   -5.865E+01   -5.834E+01   -5.802E+01   -5.770E+01   -5.739E+01   -5.708E+01   -5.676E+01   -5.645E+01
    -5.614E+01   -5.582E+01   -5.551E+01   -5.520E+01   -5.489E+01   -5.458E+01   -5.427E+01   -5.397E+01   -5.366E+01   -5.335E+01
    -5.304E+01   -5.274E+01   -5.243E+01   -5.213E+01   -5.182E+01   -5.152E+01   -5.122E+01   -5.092E+01   -5.061E+01   -5.031E+01
    -5.001E+01   -4.971E+01   -4.941E+01   -4.912E+01   -4.882E+01   -4.852E+01   -4.822E+01   -4.793E+01   -4.763E+01   -4.734E+01
    -4.704E+01   -4.675E+01   -4.646E+01   -4.616E+01   -4.587E+01   -4.558E+01   -4.529E+01   -4.500E+01   -4.471E+01   -4.442E+01
    -4.413E+01   -4.385E+01   -4.356E+01   -4.327E+01   -4.299E+01   -4.270E+01   -4.242E+01   -4.213E+01   -4.185E+01   -4.157E+01
    -4.129E+01   -4.101E+01   -4.073E+01   -4.045E+01   -4.017E+01   -3.989E+01   -3.961E+01   -3.933E+01   -3.905E+01   -3.878E+01
    -3.850E+01   -3.823E+01   -3.795E+01   -3.768E+01   -3.741E+01   -3.713E+01   -3.686E+01   -3.659E+01   -3.632E+01   -3.605E+01
    -3.578E+01   -3.551E+01   -3.525E+01   -3.498E+01   -3.471E+01   -3.445E+01   -3.418E+01   -3.391E+01   -3.365E+01   -3.339E+01
    -3.312E+01   -3.286E+01   -3.260E+01   -3.234E+01   -3.208E+01   -3.182E+01   -3.156E+01   -3.130E+01   -3.104E+01   -3.079E+01
    -3.053E+01   -3.028E+01   -3.002E+01   -2.977E+01   -2.951E+01   -2.926E+01   -2.901E+01   -2.876E+01   -2.850E+01   -2.825E+01
    -2.800E+01   -2.776E+01   -2.751E+01   -2.726E+01   -2.701E+01   -2.677E+01   -2.652E+01   -2.628E+01   -2.604E+01   -2.580E+01
    -2.555E+01   -2.531E+01   -2.507E+01   -2.484E+01   -2.460E+01   -2.436E+01   -2.413E+01   -2.389E+01   -2.366E+01   -2.342E+01
    -2.319E+01   -2.296E+01   -2.273E+01   -2.250E+01   -2.228E+01   -2.205E+01   -2.182E+01   -2.160E+01   -2.138E+01   -2.115E+01
    -2.093E+01   -2.071E+01   -2.049E+01   -2.028E+01   -2.006E+01   -1.984E+01   -1.963E+01   -1.942E+01   -1.921E+01   -1.900E+01
    -1.879E+01   -1.858E+01   -1.837E+01   -1.817E+01   -1.796E+01   -1.776E+01   -1.756E+01   -1.736E+01   -1.716E+01   -1.696E+01
    -1.676E+01   -1.657E+01   -1.637E+01   -1.618E+01   -1.599E+01   -1.580E+01   -1.561E+01   -1.542E+01   -1.523E+01   -1.505E+01
    -1.486E+01   -1.468E+01   -1.450E+01   -1.432E+01   -1.414E+01   -1.396E+01   -1.378E+01   -1.361E+01   -1.343E+01   -1.326E+01
    -1.309E+01   -1.292E+01   -1.275E+01   -1.258E+01   -1.242E+01   -1.225E+01   -1.209E+01   -1.192E+01   -1.176E+01   -1.160E+01
    -1.144E+01   -1.129E+01   -1.113E+01   -1.098E+01   -1.082E+01   -1.067E+01   -1.052E+01   -1.037E+01   -1.022E+01   -1.007E+01
    -9.928E+00   -9.783E+00   -9.640E+00   -9.497E+00   -9.356E+00   -9.216E+00   -9.077E+00   -8.939E+00   -8.803E+00   -8.668E+00
    -8.533E+00   -8.400E+00   -8.268E+00   -8.137E+00   -8.007E+00   -7.878E+00   -7.750E+00   -7.624E+00   -7.498E+00   -7.373E+00
    -7.249E+00   -7.127E+00   -7.005E+00   -6.884E+00   -6.764E+00   -6.646E+00   -6.528E+00   -6.411E+00   -6.295E+00   -6.180E+00
    -6.066E+00   -5.952E+00   -5.840E+00   -5.729E+00   -5.618E+00   -5.508E+00   -5.399E+00   -5.291E+00   -5.184E+00   -5.077E+00
    -4.972E+00   -4.867E+00   -4.763E+00   -4.659E+00   -4.557E+00   -4.455E+00   -4.353E+00   -4.253E+00   -4.153E+00   -4.054E+00
    -3.955E+00   -3.857E+00   -3.760E+00   -3.663E+00   -3.567E+00   -3.471E+00   -3.376E+00   -3.282E+00   -3.188E+00   -3.094E+00
    -3.001E+00   -2.909E+00   -2.817E+00   -2.725E+00   -2.634E+00   -2.543E+00   -2.453E+00   -2.363E+00   -2.273E+00   -2.184E+00
    -2.095E+00   -2.007E+00   -1.919E+00   -1.831E+00   -1.743E+00   -1.656E+00   -1.569E+00   -1.482E+00   -1.395E+00   -1.309E+00
    -1.223E+00   -1.137E+00   -1.051E+00   -9.651E-01   -8.796E-01   -7.942E-01   -7.089E-01   -6.238E-01   -5.389E-01   -4.540E-01
    -3.693E-01   -2.848E-01   -2.003E-01   -1.159E-01   -3.170E-02    5.245E-02    1.365E-01    2.204E-01    3.043E-01    3.881E-01
     4.718E-01    5.554E-01    6.389E-01    7.224E-01    8.058E-01    8.892E-01    9.725E-01    1.056E+00    1.139E+00    1.222E+00
     1.305E+00    1.388E+00    1.472E+00    1.555E+00    1.638E+00    1.721E+00    1.804E+00    1.887E+00    1.970E+00    2.053E+00
     2.136E+00    2.219E+00    2.302E+00    2.385E+00    2.469E+00    2.552E+00    2.635E+00    2.718E+00    2.802E+00    2.885E+00
     2.968E+00    3.052E+00    3.135E+00    3.219E+00    3.303E+00    3.386E+00    3.470E+00    3.554E+00    3.637E+00    3.721E+00
     3.805E+00    3.888E+00    3.972E+00    4.056E+00    4.140E+00    4.223E+00    4.307E+00    4.391E+00    4.475E+00    4.558E+00
     4.642E+00    4.726E+00    4.809E+00    4.893E+00    4.977E+00    5.060E+00    5.144E+00    5.227E+00    5.311E+00    5.394E+00
     5.478E+00    5.561E+00    5.645E+00    5.728E+00    5.811E+00    5.894E+00    5.978E+00    6.061E+00    6.144E+00    6.227E+00
     6.310E+00    6.392E+00    6.475E+00    6.558E+00    6.640E+00    6.723E+00    6.805E+00    6.888E+00    6.970E+00    7.052E+00
     7.135E+00    7.217E+00    7.299E+00    7.381E+00    7.463E+00    7.545E+00    7.627E+00    7.709E+00    7.790E+00    7.872E+00
     7.954E+00    8.036E+00    8.117E+00    8.199E+00    8.280E+00    8.362E+00    8.443E+00    8.525E+00    8.606E+00    8.688E+00
     8.769E+00    8.850E+00    8.932E+00    9.013E+00    9.094E+00    9.176E+00    9.257E+00    9.338E+00    9.419E+00    9.501E+00
     9.582E+00    9.663E+00    9.744E+00    9.826E+00    9.907E+00    9.988E+00    1.007E+01    1.015E+01
 PCr      Conc. = 2.88E+03
