 LCModel (Version 6.3-1L) Copyright: S.W. Provencher.          Ref.: Magn. Reson. Med. 30:672-679 (1993).                
 Slice#2 Row#9 Col#11  PD_24_press_2_raw_act
 36 lines in following concentration table = NCONC+1
    Conc.  %SD /Cr+PCr  Metabolite                                         
  213.422  96%   0.266 Ala                                                 
    0.000 999%   0.000 Asp                                                 
  223.553 123%   0.279 Cr                                                  
  577.968  48%   0.721 PCr                                                 
   74.367 119% 9.3E-02 GABA                                                
   18.363 464% 2.3E-02 Glc                                                 
  524.423  74%   0.654 Gln                                                 
 1.06E+03  41%   1.324 Glu                                                 
  178.629  13%   0.223 GPC                                                 
    0.000 999%   0.000 PCh                                                 
  255.586  39%   0.319 GSH                                                 
  666.422  49%   0.831 Ins                                                 
    0.000 999%   0.000 Lac                                                 
 1.11E+03  13%   1.381 NAA                                                 
  344.384  43%   0.430 NAAG                                                
   52.400  44% 6.5E-02 Scyllo                                              
  127.913 104%   0.160 Tau                                                 
  325.487  44%   0.406 -CrCH2                                              
  178.629  13%   0.223 GPC+PCh                                             
 1.45E+03  11%   1.811 NAA+NAAG                                            
  801.521   9%   1.000 Cr+PCr                                              
 1.59E+03  44%   1.979 Glu+Gln                                             
    0.000 999%   0.000 Lip13a                                              
    0.000 999%   0.000 Lip13b                                              
    0.000 999%   0.000 Lip09                                               
 1.32E+03  15%   1.647 MM09                                                
    0.000 999%   0.000 Lip20                                               
  167.616 306%   0.209 MM20                                                
    0.000 999%   0.000 MM12                                                
 6.60E+03  16%   8.229 MM14                                                
 7.80E+03  13%   9.729+MM17                                                
    0.000 999%   0.000 Lip13a+Lip13b                                       
 6.60E+03  16%   8.229 MM14+Lip13a+Lip13b+MM12                             
 1.32E+03  15%   1.647 MM09+Lip09                                          
  167.616 306%   0.209 MM20+Lip20                                          
   6 lines in following misc. output table
  FWHM = 0.092 ppm    S/N =  14                                            
  Data shift = 0.084 ppm                                                   
  Ph:  -7 deg      -6.6 deg/ppm                                            
  alphaB,S = 1.2E+00,   5.1E+01                                            
   10 spline knots.   Ns = 9(2)                                            
  (11)10 infls.   (11) 7 extrs.                                            
  498 points on ppm-axis = NY
      4.000000     3.992357     3.984714     3.977070     3.969427     3.961784     3.954141     3.946497     3.938854     3.931211
      3.923568     3.915925     3.908281     3.900638     3.892995     3.885352     3.877708     3.870065     3.862422     3.854779
      3.847136     3.839492     3.831849     3.824206     3.816563     3.808919     3.801276     3.793633     3.785990     3.778347
      3.770703     3.763060     3.755417     3.747774     3.740130     3.732487     3.724844     3.717201     3.709558     3.701914
      3.694271     3.686628     3.678985     3.671341     3.663698     3.656055     3.648412     3.640769     3.633125     3.625482
      3.617839     3.610196     3.602552     3.594909     3.587266     3.579623     3.571980     3.564336     3.556693     3.549050
      3.541407     3.533763     3.526120     3.518477     3.510834     3.503191     3.495547     3.487904     3.480261     3.472618
      3.464974     3.457331     3.449688     3.442045     3.434402     3.426758     3.419115     3.411472     3.403829     3.396185
      3.388542     3.380899     3.373256     3.365613     3.357969     3.350326     3.342683     3.335040     3.327396     3.319753
      3.312110     3.304467     3.296824     3.289180     3.281537     3.273894     3.266251     3.258607     3.250964     3.243321
      3.235678     3.228034     3.220391     3.212748     3.205105     3.197462     3.189818     3.182175     3.174532     3.166889
      3.159245     3.151602     3.143959     3.136316     3.128673     3.121029     3.113386     3.105743     3.098100     3.090456
      3.082813     3.075170     3.067527     3.059884     3.052240     3.044597     3.036954     3.029311     3.021667     3.014024
      3.006381     2.998738     2.991095     2.983451     2.975808     2.968165     2.960522     2.952878     2.945235     2.937592
      2.929949     2.922306     2.914662     2.907019     2.899376     2.891733     2.884089     2.876446     2.868803     2.861160
      2.853517     2.845873     2.838230     2.830587     2.822944     2.815300     2.807657     2.800014     2.792371     2.784728
      2.777084     2.769441     2.761798     2.754155     2.746511     2.738868     2.731225     2.723582     2.715939     2.708295
      2.700652     2.693009     2.685366     2.677722     2.670079     2.662436     2.654793     2.647150     2.639506     2.631863
      2.624220     2.616577     2.608933     2.601290     2.593647     2.586004     2.578361     2.570717     2.563074     2.555431
      2.547788     2.540144     2.532501     2.524858     2.517215     2.509572     2.501928     2.494285     2.486642     2.478999
      2.471355     2.463712     2.456069     2.448426     2.440783     2.433139     2.425496     2.417853     2.410210     2.402566
      2.394923     2.387280     2.379637     2.371994     2.364350     2.356707     2.349064     2.341421     2.333777     2.326134
      2.318491     2.310848     2.303205     2.295561     2.287918     2.280275     2.272632     2.264988     2.257345     2.249702
      2.242059     2.234416     2.226772     2.219129     2.211486     2.203843     2.196199     2.188556     2.180913     2.173270
      2.165627     2.157983     2.150340     2.142697     2.135054     2.127410     2.119767     2.112124     2.104481     2.096838
      2.089194     2.081551     2.073908     2.066265     2.058621     2.050978     2.043335     2.035692     2.028049     2.020405
      2.012762     2.005119     1.997476     1.989833     1.982190     1.974546     1.966903     1.959260     1.951617     1.943974
      1.936331     1.928688     1.921045     1.913402     1.905759     1.898115     1.890472     1.882829     1.875186     1.867543
      1.859900     1.852257     1.844614     1.836971     1.829327     1.821684     1.814041     1.806398     1.798755     1.791112
      1.783469     1.775826     1.768183     1.760540     1.752896     1.745253     1.737610     1.729967     1.722324     1.714681
      1.707038     1.699395     1.691752     1.684108     1.676465     1.668822     1.661179     1.653536     1.645893     1.638250
      1.630607     1.622964     1.615321     1.607677     1.600034     1.592391     1.584748     1.577105     1.569462     1.561819
      1.554176     1.546533     1.538890     1.531246     1.523603     1.515960     1.508317     1.500674     1.493031     1.485388
      1.477745     1.470102     1.462458     1.454815     1.447172     1.439529     1.431886     1.424243     1.416600     1.408957
      1.401314     1.393671     1.386027     1.378384     1.370741     1.363098     1.355455     1.347812     1.340169     1.332526
      1.324883     1.317240     1.309596     1.301953     1.294310     1.286667     1.279024     1.271381     1.263738     1.256095
      1.248452     1.240808     1.233165     1.225522     1.217879     1.210236     1.202593     1.194950     1.187307     1.179664
      1.172021     1.164377     1.156734     1.149091     1.141448     1.133805     1.126162     1.118519     1.110876     1.103233
      1.095590     1.087946     1.080303     1.072660     1.065017     1.057374     1.049731     1.042088     1.034445     1.026802
      1.019158     1.011515     1.003872     0.996229     0.988586     0.980943     0.973300     0.965657     0.958014     0.950371
      0.942727     0.935084     0.927441     0.919798     0.912155     0.904512     0.896869     0.889226     0.881583     0.873940
      0.866296     0.858653     0.851010     0.843367     0.835724     0.828081     0.820438     0.812795     0.805152     0.797508
      0.789865     0.782222     0.774579     0.766936     0.759293     0.751650     0.744007     0.736364     0.728721     0.721077
      0.713434     0.705791     0.698148     0.690505     0.682862     0.675219     0.667576     0.659933     0.652290     0.644646
      0.637003     0.629360     0.621717     0.614074     0.606431     0.598788     0.591145     0.583502     0.575858     0.568215
      0.560572     0.552929     0.545286     0.537643     0.530000     0.522357     0.514714     0.507071     0.499427     0.491784
      0.484141     0.476498     0.468855     0.461212     0.453569     0.445925     0.438282     0.430639     0.422996     0.415353
      0.407710     0.400067     0.392424     0.384780     0.377137     0.369494     0.361851     0.354208     0.346565     0.338922
      0.331278     0.323635     0.315992     0.308349     0.300706     0.293063     0.285420     0.277777     0.270133     0.262490
      0.254847     0.247204     0.239561     0.231918     0.224275     0.216631     0.208988     0.201345
 NY phased data points follow
   1.16924E+01  1.22853E+01  8.31689E+00  1.27660E+01  1.04100E+01  8.01602E+00  7.08132E+00  9.75860E+00  1.02315E+01  7.71821E+00
   9.95592E+00  9.70665E+00  1.08885E+01  1.02507E+01  9.39480E+00  1.00351E+01  1.04135E+01  1.09566E+01  9.24590E+00  8.05930E+00
   8.17735E+00  7.71871E+00  1.21349E+01  9.17762E+00  9.07498E+00  1.08247E+01  1.08386E+01  1.00423E+01  7.17925E+00  1.04195E+01
   1.05140E+01  9.09749E+00  7.90192E+00  1.02991E+01  1.06740E+01  1.04420E+01  9.36208E+00  1.03438E+01  1.05047E+01  1.20942E+01
   7.56685E+00  1.14871E+01  6.13574E+00  7.18102E+00  9.46657E+00  9.61917E+00  8.15608E+00  8.95922E+00  1.04538E+01  9.19036E+00
   1.10410E+01  1.11069E+01  6.55667E+00  8.49425E+00  6.37573E+00  8.71875E+00  6.62091E+00  8.70434E+00  4.89183E+00  7.57095E+00
   7.30757E+00  6.26073E+00  6.49724E+00  8.95951E+00  9.66274E+00  4.81515E+00  2.57640E+00  7.39625E+00  6.15874E+00  6.82596E+00
   4.09913E+00  4.59815E+00  5.20336E+00  7.69304E+00  6.55389E+00  8.71709E+00  5.03012E+00  5.81922E+00  9.52382E+00  9.25056E+00
   7.37335E+00  8.07987E+00  9.47703E+00  7.21241E+00  8.57776E+00  1.12832E+01  5.23125E+00  1.26472E+01  1.18379E+01  1.36069E+01
   1.59719E+01  1.42649E+01  9.96891E+00  1.19563E+01  1.36682E+01  1.26548E+01  1.37262E+01  1.17275E+01  7.48075E+00  9.39181E+00
   7.62445E+00  8.08453E+00  7.98609E+00  7.06582E+00  7.80694E+00  6.68968E+00  7.78776E+00  6.71436E+00  1.17710E+01  8.32034E+00
   1.02929E+01  1.44804E+01  1.38173E+01  1.67398E+01  1.86041E+01  1.96621E+01  1.94309E+01  2.00688E+01  2.11059E+01  1.85391E+01
   2.00762E+01  1.64917E+01  1.02123E+01  1.11876E+01  1.02480E+01  8.30956E+00  1.00055E+01  8.56428E+00  1.06383E+01  7.59753E+00
   1.01040E+01  9.61602E+00  8.18147E+00  8.66223E+00  9.34152E+00  6.27022E+00  6.39329E+00  1.03681E+01  1.01209E+01  7.56902E+00
   7.56445E+00  6.80863E+00  7.23855E+00  8.08968E+00  5.98368E+00  9.50321E+00  9.17726E+00  8.15854E+00  6.75909E+00  6.76067E+00
   8.51109E+00  7.76841E+00  7.69265E+00  7.51714E+00  5.00193E+00  5.75046E+00  3.75176E+00  2.17007E+00  3.25349E+00  4.72084E+00
   3.99705E+00  3.69844E+00  3.23759E+00  2.30368E+00  7.55807E-01  1.17492E+00  2.69375E+00  2.82194E+00  1.86042E+00  3.42667E-01
   4.28730E+00  2.05867E+00  1.70973E+00  2.20278E+00  4.32670E+00  3.43114E+00  1.12185E+00  6.90930E+00  1.74353E+00  2.11303E+00
   2.80404E+00  3.55021E+00  1.37077E+00  3.47668E+00  4.04787E+00  4.54528E+00  3.81800E+00  2.64508E+00  3.74616E+00  1.17687E+00
   5.19320E+00  6.58651E+00  7.60445E+00  6.67914E+00  4.79082E+00  8.55823E+00  6.70762E+00  5.90572E+00  8.24725E+00  8.55957E+00
   9.48921E+00  7.38825E+00  8.91975E+00  9.63044E+00  8.45389E+00  6.01862E+00  6.62080E+00  9.12955E+00  1.16768E+01  8.72151E+00
   4.81579E+00  8.38431E+00  7.37981E+00  6.43319E+00  7.61319E+00  7.53952E+00  6.72979E+00  1.18243E+01  7.13519E+00  1.25571E+01
   8.72582E+00  9.60034E+00  1.24245E+01  9.33137E+00  8.95150E+00  1.19546E+01  1.33088E+01  9.35463E+00  8.82344E+00  7.00801E+00
   1.07745E+01  1.18852E+01  1.04885E+01  7.65046E+00  9.55813E+00  8.11922E+00  1.05862E+01  1.08115E+01  1.38388E+01  1.63995E+01
   1.69246E+01  1.86765E+01  1.96542E+01  2.39644E+01  2.70899E+01  2.77328E+01  3.26812E+01  3.64062E+01  3.47526E+01  3.78321E+01
   3.20823E+01  3.20847E+01  3.47938E+01  3.52232E+01  3.24489E+01  2.82278E+01  2.35731E+01  2.34881E+01  1.89493E+01  2.24121E+01
   1.95985E+01  1.91188E+01  1.92333E+01  1.98708E+01  1.94647E+01  2.41982E+01  1.79114E+01  1.93685E+01  2.08098E+01  1.97880E+01
   2.18023E+01  2.53806E+01  2.36704E+01  2.25465E+01  2.22977E+01  2.86573E+01  2.47550E+01  2.58512E+01  2.42823E+01  2.51969E+01
   2.73587E+01  2.54667E+01  2.67881E+01  2.86566E+01  3.41194E+01  2.96291E+01  3.04827E+01  3.25929E+01  3.40512E+01  3.85132E+01
   3.92408E+01  3.96468E+01  4.37132E+01  4.27469E+01  4.71918E+01  4.94033E+01  5.27173E+01  5.38205E+01  5.76559E+01  6.28595E+01
   6.53360E+01  6.54609E+01  6.91432E+01  7.27264E+01  7.32433E+01  7.56678E+01  7.38696E+01  7.81829E+01  7.55338E+01  7.67491E+01
   8.07817E+01  7.60518E+01  7.80660E+01  7.88778E+01  7.64497E+01  7.57634E+01  7.32906E+01  7.28475E+01  7.03158E+01  6.86728E+01
   6.69085E+01  6.52589E+01  6.28470E+01  6.32948E+01  5.94892E+01  5.61851E+01  5.83955E+01  5.26234E+01  4.89993E+01  4.88656E+01
   4.89340E+01  4.73401E+01  4.32761E+01  4.01122E+01  4.07929E+01  3.73505E+01  3.43116E+01  3.18917E+01  3.50228E+01  2.91797E+01
   2.92870E+01  2.87271E+01  2.73527E+01  2.41545E+01  2.40801E+01  2.51427E+01  2.55045E+01  2.47430E+01  2.51819E+01  2.53035E+01
   2.26414E+01  2.12310E+01  1.66655E+01  2.18534E+01  1.86747E+01  2.42488E+01  2.20199E+01  2.08291E+01  2.08283E+01  2.19779E+01
   1.80887E+01  1.92401E+01  2.08001E+01  2.07190E+01  2.28341E+01  1.94427E+01  2.03424E+01  2.20476E+01  2.28201E+01  1.98109E+01
   2.19841E+01  2.51819E+01  2.29283E+01  2.18898E+01  2.39696E+01  2.13070E+01  2.21140E+01  2.13256E+01  1.93071E+01  2.18811E+01
   2.33373E+01  2.31753E+01  2.56348E+01  2.42222E+01  2.41328E+01  2.49752E+01  2.67937E+01  2.46182E+01  2.41075E+01  2.40999E+01
   2.37043E+01  2.47002E+01  2.74449E+01  2.21090E+01  2.56230E+01  2.74866E+01  2.90529E+01  2.86267E+01  2.67320E+01  2.72960E+01
   2.57705E+01  2.57453E+01  2.76448E+01  2.70353E+01  2.76386E+01  2.59832E+01  2.56788E+01  2.94972E+01  2.60504E+01  2.86996E+01
   3.00983E+01  2.79372E+01  2.43244E+01  2.61144E+01  2.52161E+01  2.41978E+01  2.68227E+01  2.54847E+01  2.55009E+01  2.30956E+01
   2.41917E+01  2.27181E+01  2.31236E+01  2.30501E+01  2.18654E+01  2.23543E+01  2.37954E+01  1.98978E+01  2.08515E+01  2.19494E+01
   2.20009E+01  1.98939E+01  1.99045E+01  2.20022E+01  2.28062E+01  2.38093E+01  2.03457E+01  2.11041E+01  2.52027E+01  1.99779E+01
   1.84036E+01  2.10443E+01  2.00401E+01  2.02980E+01  1.83605E+01  1.76677E+01  1.89270E+01  1.87940E+01  1.73224E+01  1.79208E+01
   1.58260E+01  1.71490E+01  1.77632E+01  1.50895E+01  2.03347E+01  1.51682E+01  1.21729E+01  1.71304E+01  1.69053E+01  1.53833E+01
   1.33363E+01  1.26240E+01  1.50693E+01  1.50435E+01  1.43091E+01  1.74095E+01  1.38857E+01  1.66299E+01  1.40788E+01  1.20439E+01
   1.26857E+01  1.36444E+01  1.07675E+01  1.13916E+01  1.25291E+01  1.13574E+01  9.75393E+00  1.10760E+01  9.93686E+00  1.33668E+01
   8.51090E+00  1.40749E+01  1.12719E+01  8.56934E+00  1.24122E+01  1.05399E+01  1.39887E+01  7.43158E+00  7.05020E+00  7.80282E+00
   8.32037E+00  9.22632E+00  8.76827E+00  7.96287E+00  4.84368E+00  9.38894E+00  7.95488E+00  8.60340E+00
 NY points of the fit to the data follow
   1.13685E+01  1.16643E+01  1.07068E+01  1.10727E+01  1.01305E+01  1.01166E+01  9.51596E+00  9.46615E+00  9.00486E+00  8.99131E+00
   8.42978E+00  8.64330E+00  8.47390E+00  8.67362E+00  8.73018E+00  9.13791E+00  9.76835E+00  1.00535E+01  1.06385E+01  1.07621E+01
   1.07659E+01  1.09225E+01  1.11880E+01  1.11761E+01  1.09110E+01  1.09544E+01  1.01990E+01  1.00196E+01  8.93488E+00  8.99660E+00
   8.83141E+00  8.89040E+00  9.01396E+00  9.45777E+00  9.80148E+00  1.00629E+01  9.88816E+00  9.92386E+00  9.57117E+00  9.52145E+00
   9.20005E+00  8.95946E+00  8.58840E+00  8.42497E+00  8.34663E+00  8.30269E+00  8.29688E+00  8.43956E+00  8.44237E+00  8.44477E+00
   8.03851E+00  8.13043E+00  7.69832E+00  7.63871E+00  7.25948E+00  7.30985E+00  7.17836E+00  7.41492E+00  7.41977E+00  7.69797E+00
   7.63768E+00  7.87876E+00  7.75398E+00  7.81480E+00  7.69237E+00  7.53073E+00  7.27059E+00  7.01513E+00  6.95912E+00  7.03503E+00
   6.99773E+00  7.20189E+00  7.03528E+00  7.34450E+00  7.05514E+00  7.33222E+00  6.95910E+00  7.17687E+00  6.83977E+00  6.95793E+00
   6.47303E+00  6.48221E+00  6.14050E+00  6.40310E+00  7.46870E+00  8.48981E+00  9.57273E+00  1.08457E+01  1.16592E+01  1.29795E+01
   1.28525E+01  1.38741E+01  1.29496E+01  1.37131E+01  1.30491E+01  1.36378E+01  1.18258E+01  1.17426E+01  9.72410E+00  9.33559E+00
   8.15621E+00  7.95257E+00  7.30742E+00  7.33375E+00  7.04881E+00  7.23297E+00  7.03124E+00  7.48352E+00  8.49756E+00  1.00389E+01
   1.16448E+01  1.35129E+01  1.53654E+01  1.72770E+01  1.80153E+01  1.92505E+01  1.93066E+01  2.00044E+01  1.97066E+01  1.98849E+01
   1.78070E+01  1.64407E+01  1.33239E+01  1.15360E+01  1.01004E+01  9.22497E+00  8.75224E+00  8.36200E+00  8.42461E+00  8.37523E+00
   8.55572E+00  8.56383E+00  8.23221E+00  7.89006E+00  7.76675E+00  7.61703E+00  7.81364E+00  7.88746E+00  7.89631E+00  7.92629E+00
   8.15352E+00  8.39203E+00  8.27771E+00  8.16209E+00  7.73627E+00  7.21131E+00  6.12233E+00  5.33125E+00  5.06800E+00  4.93093E+00
   4.81266E+00  4.73312E+00  4.53585E+00  4.38706E+00  4.22112E+00  4.24535E+00  4.19392E+00  4.21813E+00  4.05317E+00  3.89081E+00
   3.75744E+00  3.54798E+00  3.45918E+00  3.25955E+00  3.29164E+00  3.11514E+00  3.24731E+00  3.06158E+00  3.16407E+00  2.96302E+00
   3.24192E+00  3.15454E+00  3.52420E+00  3.60050E+00  4.02306E+00  4.28506E+00  4.64759E+00  4.90232E+00  5.08583E+00  5.21691E+00
   5.20449E+00  5.49052E+00  5.44774E+00  5.72528E+00  5.62550E+00  5.87622E+00  5.90003E+00  6.31960E+00  6.53984E+00  6.84325E+00
   7.03061E+00  7.13296E+00  6.98598E+00  6.98549E+00  6.70672E+00  6.52852E+00  6.21546E+00  6.22237E+00  6.40445E+00  6.44707E+00
   6.89506E+00  7.00772E+00  7.48534E+00  7.50415E+00  7.82994E+00  7.54516E+00  7.90160E+00  7.68643E+00  7.81135E+00  7.48734E+00
   7.17870E+00  7.08903E+00  6.68728E+00  6.92228E+00  6.79602E+00  7.39143E+00  8.00029E+00  8.84394E+00  9.35736E+00  1.00461E+01
   1.01002E+01  1.03183E+01  9.95459E+00  9.95031E+00  9.56095E+00  9.51888E+00  9.64845E+00  9.72326E+00  1.02344E+01  1.02484E+01
   1.11019E+01  1.06384E+01  1.10739E+01  1.04289E+01  1.07949E+01  1.01876E+01  1.06083E+01  1.11001E+01  1.28448E+01  1.36658E+01
   1.56835E+01  1.67493E+01  2.11855E+01  2.35372E+01  2.68486E+01  2.94421E+01  3.16057E+01  3.45119E+01  3.45639E+01  3.64458E+01
   3.40283E+01  3.53582E+01  3.27549E+01  3.41612E+01  2.92785E+01  2.92726E+01  2.47164E+01  2.40022E+01  2.15914E+01  2.13692E+01
   2.05815E+01  2.07187E+01  2.05093E+01  2.12753E+01  2.11775E+01  2.19557E+01  2.11407E+01  2.13435E+01  2.11314E+01  2.16299E+01
   2.23594E+01  2.31393E+01  2.33253E+01  2.39895E+01  2.43794E+01  2.52086E+01  2.45821E+01  2.55030E+01  2.50156E+01  2.56069E+01
   2.43812E+01  2.45342E+01  2.53371E+01  2.63866E+01  2.75536E+01  2.89301E+01  3.04408E+01  3.21104E+01  3.39494E+01  3.59495E+01
   3.81068E+01  4.03963E+01  4.28364E+01  4.53803E+01  4.80236E+01  5.07435E+01  5.35171E+01  5.63011E+01  5.90443E+01  6.17162E+01
   6.42703E+01  6.66791E+01  6.88895E+01  7.08889E+01  7.26445E+01  7.41603E+01  7.54068E+01  7.64197E+01  7.72053E+01  7.78299E+01
   7.79807E+01  7.79708E+01  7.75392E+01  7.69499E+01  7.59842E+01  7.48024E+01  7.34154E+01  7.20126E+01  7.06030E+01  6.90168E+01
   6.74228E+01  6.54579E+01  6.38839E+01  6.17380E+01  6.01204E+01  5.79105E+01  5.61390E+01  5.39516E+01  5.21706E+01  4.98114E+01
   4.77860E+01  4.53316E+01  4.31423E+01  4.07997E+01  3.87938E+01  3.68168E+01  3.50895E+01  3.34697E+01  3.20177E+01  3.06495E+01
   2.95028E+01  2.83315E+01  2.72933E+01  2.62928E+01  2.54627E+01  2.47090E+01  2.41319E+01  2.35292E+01  2.32225E+01  2.29582E+01
   2.28030E+01  2.25865E+01  2.24879E+01  2.23150E+01  2.22420E+01  2.20183E+01  2.18368E+01  2.17340E+01  2.16470E+01  2.15996E+01
   2.15526E+01  2.15369E+01  2.15165E+01  2.15235E+01  2.15230E+01  2.15478E+01  2.15635E+01  2.16032E+01  2.16332E+01  2.16864E+01
   2.17297E+01  2.17960E+01  2.18525E+01  2.19324E+01  2.20030E+01  2.20975E+01  2.21836E+01  2.22946E+01  2.23984E+01  2.25283E+01
   2.26525E+01  2.28043E+01  2.29519E+01  2.31286E+01  2.33027E+01  2.35070E+01  2.37099E+01  2.39436E+01  2.41761E+01  2.44388E+01
   2.46991E+01  2.49873E+01  2.52699E+01  2.55758E+01  2.58703E+01  2.61812E+01  2.64726E+01  2.67710E+01  2.70397E+01  2.73043E+01
   2.75281E+01  2.77363E+01  2.78927E+01  2.80234E+01  2.80935E+01  2.81305E+01  2.81015E+01  2.80364E+01  2.79047E+01  2.77385E+01
   2.75098E+01  2.72528E+01  2.69417E+01  2.66120E+01  2.62392E+01  2.58596E+01  2.54489E+01  2.50431E+01  2.46177E+01  2.42076E+01
   2.37874E+01  2.33906E+01  2.29903E+01  2.26187E+01  2.22477E+01  2.19078E+01  2.15700E+01  2.12637E+01  2.09592E+01  2.06851E+01
   2.04114E+01  2.01661E+01  1.99190E+01  1.96980E+01  1.94729E+01  1.92716E+01  1.90640E+01  1.88781E+01  1.86839E+01  1.85095E+01
   1.83253E+01  1.81594E+01  1.79824E+01  1.78225E+01  1.76506E+01  1.74947E+01  1.73261E+01  1.71729E+01  1.70063E+01  1.68546E+01
   1.66891E+01  1.65380E+01  1.63729E+01  1.62219E+01  1.60566E+01  1.59051E+01  1.57393E+01  1.55871E+01  1.54204E+01  1.52672E+01
   1.50996E+01  1.49453E+01  1.47765E+01  1.46209E+01  1.44510E+01  1.42942E+01  1.41231E+01  1.39650E+01  1.37926E+01  1.36333E+01
   1.34598E+01  1.32994E+01  1.31247E+01  1.29631E+01  1.27875E+01  1.26250E+01  1.24484E+01  1.22850E+01  1.21076E+01  1.19434E+01
   1.17654E+01  1.16006E+01  1.14221E+01  1.12568E+01  1.10779E+01  1.09123E+01  1.07334E+01  1.05677E+01  1.03888E+01  1.02233E+01
   1.00448E+01  9.87971E+00  9.70190E+00  9.53772E+00  9.36105E+00  9.19827E+00  9.02345E+00  8.86302E+00
 NY background values follow
     5.672E+00    5.672E+00    5.672E+00    5.672E+00    5.672E+00    5.672E+00    5.672E+00    5.672E+00    5.673E+00    5.673E+00
     5.673E+00    5.673E+00    5.673E+00    5.673E+00    5.674E+00    5.674E+00    5.674E+00    5.674E+00    5.674E+00    5.674E+00
     5.674E+00    5.674E+00    5.673E+00    5.673E+00    5.673E+00    5.673E+00    5.672E+00    5.672E+00    5.671E+00    5.670E+00
     5.670E+00    5.669E+00    5.668E+00    5.667E+00    5.666E+00    5.664E+00    5.663E+00    5.662E+00    5.660E+00    5.658E+00
     5.656E+00    5.654E+00    5.652E+00    5.650E+00    5.648E+00    5.645E+00    5.642E+00    5.639E+00    5.636E+00    5.633E+00
     5.630E+00    5.626E+00    5.622E+00    5.618E+00    5.614E+00    5.610E+00    5.605E+00    5.600E+00    5.595E+00    5.590E+00
     5.585E+00    5.579E+00    5.573E+00    5.567E+00    5.561E+00    5.554E+00    5.547E+00    5.540E+00    5.533E+00    5.525E+00
     5.517E+00    5.509E+00    5.501E+00    5.492E+00    5.483E+00    5.474E+00    5.465E+00    5.455E+00    5.445E+00    5.435E+00
     5.425E+00    5.415E+00    5.404E+00    5.394E+00    5.383E+00    5.372E+00    5.361E+00    5.350E+00    5.339E+00    5.328E+00
     5.316E+00    5.305E+00    5.293E+00    5.282E+00    5.270E+00    5.259E+00    5.248E+00    5.236E+00    5.225E+00    5.213E+00
     5.202E+00    5.191E+00    5.179E+00    5.168E+00    5.157E+00    5.146E+00    5.136E+00    5.125E+00    5.114E+00    5.104E+00
     5.094E+00    5.084E+00    5.074E+00    5.065E+00    5.055E+00    5.046E+00    5.037E+00    5.028E+00    5.020E+00    5.012E+00
     5.004E+00    4.996E+00    4.989E+00    4.982E+00    4.976E+00    4.969E+00    4.963E+00    4.958E+00    4.953E+00    4.948E+00
     4.944E+00    4.940E+00    4.936E+00    4.933E+00    4.930E+00    4.928E+00    4.927E+00    4.925E+00    4.925E+00    4.924E+00
     4.925E+00    4.925E+00    4.927E+00    4.929E+00    4.931E+00    4.934E+00    4.938E+00    4.942E+00    4.947E+00    4.953E+00
     4.959E+00    4.966E+00    4.973E+00    4.981E+00    4.990E+00    5.000E+00    5.010E+00    5.021E+00    5.033E+00    5.045E+00
     5.059E+00    5.073E+00    5.088E+00    5.103E+00    5.120E+00    5.137E+00    5.155E+00    5.175E+00    5.195E+00    5.215E+00
     5.237E+00    5.260E+00    5.284E+00    5.308E+00    5.334E+00    5.360E+00    5.388E+00    5.416E+00    5.446E+00    5.476E+00
     5.508E+00    5.540E+00    5.574E+00    5.609E+00    5.645E+00    5.682E+00    5.720E+00    5.759E+00    5.799E+00    5.841E+00
     5.883E+00    5.927E+00    5.972E+00    6.018E+00    6.066E+00    6.114E+00    6.164E+00    6.215E+00    6.268E+00    6.321E+00
     6.376E+00    6.433E+00    6.490E+00    6.549E+00    6.610E+00    6.671E+00    6.734E+00    6.799E+00    6.865E+00    6.932E+00
     7.000E+00    7.071E+00    7.142E+00    7.215E+00    7.290E+00    7.366E+00    7.443E+00    7.522E+00    7.602E+00    7.683E+00
     7.766E+00    7.850E+00    7.935E+00    8.021E+00    8.109E+00    8.198E+00    8.288E+00    8.379E+00    8.471E+00    8.564E+00
     8.658E+00    8.753E+00    8.849E+00    8.946E+00    9.043E+00    9.142E+00    9.241E+00    9.342E+00    9.443E+00    9.544E+00
     9.647E+00    9.750E+00    9.854E+00    9.958E+00    1.006E+01    1.017E+01    1.027E+01    1.038E+01    1.049E+01    1.060E+01
     1.070E+01    1.081E+01    1.092E+01    1.103E+01    1.114E+01    1.125E+01    1.136E+01    1.147E+01    1.158E+01    1.169E+01
     1.180E+01    1.191E+01    1.202E+01    1.213E+01    1.224E+01    1.235E+01    1.246E+01    1.257E+01    1.268E+01    1.279E+01
     1.290E+01    1.301E+01    1.312E+01    1.323E+01    1.333E+01    1.344E+01    1.355E+01    1.366E+01    1.377E+01    1.387E+01
     1.398E+01    1.408E+01    1.419E+01    1.429E+01    1.440E+01    1.450E+01    1.460E+01    1.471E+01    1.481E+01    1.491E+01
     1.501E+01    1.511E+01    1.521E+01    1.530E+01    1.540E+01    1.550E+01    1.559E+01    1.569E+01    1.578E+01    1.588E+01
     1.597E+01    1.606E+01    1.616E+01    1.625E+01    1.634E+01    1.643E+01    1.652E+01    1.661E+01    1.669E+01    1.678E+01
     1.687E+01    1.695E+01    1.704E+01    1.712E+01    1.721E+01    1.729E+01    1.737E+01    1.745E+01    1.753E+01    1.761E+01
     1.769E+01    1.777E+01    1.785E+01    1.793E+01    1.800E+01    1.808E+01    1.815E+01    1.823E+01    1.830E+01    1.837E+01
     1.844E+01    1.851E+01    1.858E+01    1.865E+01    1.872E+01    1.879E+01    1.886E+01    1.892E+01    1.899E+01    1.905E+01
     1.912E+01    1.918E+01    1.924E+01    1.930E+01    1.937E+01    1.943E+01    1.948E+01    1.954E+01    1.960E+01    1.966E+01
     1.971E+01    1.977E+01    1.982E+01    1.988E+01    1.993E+01    1.998E+01    2.003E+01    2.008E+01    2.013E+01    2.018E+01
     2.022E+01    2.027E+01    2.032E+01    2.036E+01    2.040E+01    2.045E+01    2.049E+01    2.053E+01    2.057E+01    2.060E+01
     2.064E+01    2.067E+01    2.071E+01    2.074E+01    2.077E+01    2.080E+01    2.083E+01    2.085E+01    2.088E+01    2.090E+01
     2.093E+01    2.095E+01    2.097E+01    2.098E+01    2.100E+01    2.101E+01    2.103E+01    2.104E+01    2.105E+01    2.105E+01
     2.106E+01    2.106E+01    2.107E+01    2.107E+01    2.106E+01    2.106E+01    2.105E+01    2.105E+01    2.104E+01    2.102E+01
     2.101E+01    2.099E+01    2.098E+01    2.096E+01    2.093E+01    2.091E+01    2.088E+01    2.085E+01    2.082E+01    2.079E+01
     2.075E+01    2.071E+01    2.067E+01    2.063E+01    2.058E+01    2.053E+01    2.048E+01    2.043E+01    2.037E+01    2.031E+01
     2.025E+01    2.019E+01    2.012E+01    2.005E+01    1.998E+01    1.991E+01    1.983E+01    1.975E+01    1.967E+01    1.958E+01
     1.949E+01    1.940E+01    1.931E+01    1.921E+01    1.911E+01    1.901E+01    1.891E+01    1.880E+01    1.869E+01    1.858E+01
     1.847E+01    1.835E+01    1.823E+01    1.811E+01    1.799E+01    1.787E+01    1.774E+01    1.761E+01    1.748E+01    1.735E+01
     1.722E+01    1.708E+01    1.695E+01    1.681E+01    1.667E+01    1.652E+01    1.638E+01    1.623E+01    1.609E+01    1.594E+01
     1.579E+01    1.564E+01    1.548E+01    1.533E+01    1.517E+01    1.502E+01    1.486E+01    1.470E+01    1.454E+01    1.438E+01
     1.422E+01    1.405E+01    1.389E+01    1.373E+01    1.356E+01    1.339E+01    1.323E+01    1.306E+01    1.289E+01    1.272E+01
     1.255E+01    1.238E+01    1.221E+01    1.203E+01    1.186E+01    1.169E+01    1.152E+01    1.134E+01    1.117E+01    1.100E+01
     1.082E+01    1.065E+01    1.047E+01    1.030E+01    1.012E+01    9.948E+00    9.774E+00    9.599E+00
 Ala      Conc. = 2.13E+02
