 LCModel (Version 6.3-1L) Copyright: S.W. Provencher.          Ref.: Magn. Reson. Med. 30:672-679 (1993).                
 Slice#3 Row#11 Col#4  PD_24_press_2_raw_act
 36 lines in following concentration table = NCONC+1
    Conc.  %SD /Cr+PCr  Metabolite                                         
    0.000 999%   0.000 Ala                                                 
    2.919 538% 9.5E-02 Asp                                                 
    0.000 999%   0.000 Cr                                                  
   30.601 125%   1.000 PCr                                                 
    0.576 999% 1.9E-02 GABA                                                
    2.235 422% 7.3E-02 Glc                                                 
    0.000 999%   0.000 Gln                                                 
    0.000 999%   0.000 Glu                                                 
   13.319 113%   0.435 GPC                                                 
    0.000 999%   0.000 PCh                                                 
    0.000 999%   0.000 GSH                                                 
  594.552  37%  19.429 Ins                                                 
    4.415 999%   0.144 Lac                                                 
    0.000 999%   0.000 NAA                                                 
    0.000 999%   0.000 NAAG                                                
    1.142 275% 3.7E-02 Scyllo                                              
    5.034 312%   0.165 Tau                                                 
    0.000 999%   0.000 -CrCH2                                              
   13.319 113%   0.435 GPC+PCh                                             
    0.000 999%   0.000 NAA+NAAG                                            
   30.601 125%   1.000 Cr+PCr                                              
    0.000 999%   0.000 Glu+Gln                                             
    0.000 999%   0.000 Lip13a                                              
   85.369 117%   2.790 Lip13b                                              
    0.000 999%   0.000 Lip09                                               
 1.49E+03  20%  48.706 MM09                                                
    0.000 999%   0.000 Lip20                                               
 2.20E+03  21%  71.782 MM20                                                
  450.691  21%  14.728 MM12                                                
 1.06E+03  23%  34.798 MM14                                                
  737.540  16%  24.102+MM17                                                
   85.369 117%   2.790 Lip13a+Lip13b                                       
 1.60E+03  22%  52.315 MM14+Lip13a+Lip13b+MM12                             
 1.49E+03  20%  48.706 MM09+Lip09                                          
 2.20E+03  21%  71.782 MM20+Lip20                                          
   6 lines in following misc. output table
  FWHM = 0.054 ppm    S/N =   1                                            
  Data shift = 0.031 ppm                                                   
  Ph: 114 deg       0.7 deg/ppm                                            
  alphaB,S = 3.9E-01,   7.3E+01                                            
   14 spline knots.   Ns = 5(1)                                            
   2 inflections.     1 extrema                                            
  498 points on ppm-axis = NY
      4.000000     3.992357     3.984714     3.977070     3.969427     3.961784     3.954141     3.946497     3.938854     3.931211
      3.923568     3.915925     3.908281     3.900638     3.892995     3.885352     3.877708     3.870065     3.862422     3.854779
      3.847136     3.839492     3.831849     3.824206     3.816563     3.808919     3.801276     3.793633     3.785990     3.778347
      3.770703     3.763060     3.755417     3.747774     3.740130     3.732487     3.724844     3.717201     3.709558     3.701914
      3.694271     3.686628     3.678985     3.671341     3.663698     3.656055     3.648412     3.640769     3.633125     3.625482
      3.617839     3.610196     3.602552     3.594909     3.587266     3.579623     3.571980     3.564336     3.556693     3.549050
      3.541407     3.533763     3.526120     3.518477     3.510834     3.503191     3.495547     3.487904     3.480261     3.472618
      3.464974     3.457331     3.449688     3.442045     3.434402     3.426758     3.419115     3.411472     3.403829     3.396185
      3.388542     3.380899     3.373256     3.365613     3.357969     3.350326     3.342683     3.335040     3.327396     3.319753
      3.312110     3.304467     3.296824     3.289180     3.281537     3.273894     3.266251     3.258607     3.250964     3.243321
      3.235678     3.228034     3.220391     3.212748     3.205105     3.197462     3.189818     3.182175     3.174532     3.166889
      3.159245     3.151602     3.143959     3.136316     3.128673     3.121029     3.113386     3.105743     3.098100     3.090456
      3.082813     3.075170     3.067527     3.059884     3.052240     3.044597     3.036954     3.029311     3.021667     3.014024
      3.006381     2.998738     2.991095     2.983451     2.975808     2.968165     2.960522     2.952878     2.945235     2.937592
      2.929949     2.922306     2.914662     2.907019     2.899376     2.891733     2.884089     2.876446     2.868803     2.861160
      2.853517     2.845873     2.838230     2.830587     2.822944     2.815300     2.807657     2.800014     2.792371     2.784728
      2.777084     2.769441     2.761798     2.754155     2.746511     2.738868     2.731225     2.723582     2.715939     2.708295
      2.700652     2.693009     2.685366     2.677722     2.670079     2.662436     2.654793     2.647150     2.639506     2.631863
      2.624220     2.616577     2.608933     2.601290     2.593647     2.586004     2.578361     2.570717     2.563074     2.555431
      2.547788     2.540144     2.532501     2.524858     2.517215     2.509572     2.501928     2.494285     2.486642     2.478999
      2.471355     2.463712     2.456069     2.448426     2.440783     2.433139     2.425496     2.417853     2.410210     2.402566
      2.394923     2.387280     2.379637     2.371994     2.364350     2.356707     2.349064     2.341421     2.333777     2.326134
      2.318491     2.310848     2.303205     2.295561     2.287918     2.280275     2.272632     2.264988     2.257345     2.249702
      2.242059     2.234416     2.226772     2.219129     2.211486     2.203843     2.196199     2.188556     2.180913     2.173270
      2.165627     2.157983     2.150340     2.142697     2.135054     2.127410     2.119767     2.112124     2.104481     2.096838
      2.089194     2.081551     2.073908     2.066265     2.058621     2.050978     2.043335     2.035692     2.028049     2.020405
      2.012762     2.005119     1.997476     1.989833     1.982190     1.974546     1.966903     1.959260     1.951617     1.943974
      1.936331     1.928688     1.921045     1.913402     1.905759     1.898115     1.890472     1.882829     1.875186     1.867543
      1.859900     1.852257     1.844614     1.836971     1.829327     1.821684     1.814041     1.806398     1.798755     1.791112
      1.783469     1.775826     1.768183     1.760540     1.752896     1.745253     1.737610     1.729967     1.722324     1.714681
      1.707038     1.699395     1.691752     1.684108     1.676465     1.668822     1.661179     1.653536     1.645893     1.638250
      1.630607     1.622964     1.615321     1.607677     1.600034     1.592391     1.584748     1.577105     1.569462     1.561819
      1.554176     1.546533     1.538890     1.531246     1.523603     1.515960     1.508317     1.500674     1.493031     1.485388
      1.477745     1.470102     1.462458     1.454815     1.447172     1.439529     1.431886     1.424243     1.416600     1.408957
      1.401314     1.393671     1.386027     1.378384     1.370741     1.363098     1.355455     1.347812     1.340169     1.332526
      1.324883     1.317240     1.309596     1.301953     1.294310     1.286667     1.279024     1.271381     1.263738     1.256095
      1.248452     1.240808     1.233165     1.225522     1.217879     1.210236     1.202593     1.194950     1.187307     1.179664
      1.172021     1.164377     1.156734     1.149091     1.141448     1.133805     1.126162     1.118519     1.110876     1.103233
      1.095590     1.087946     1.080303     1.072660     1.065017     1.057374     1.049731     1.042088     1.034445     1.026802
      1.019158     1.011515     1.003872     0.996229     0.988586     0.980943     0.973300     0.965657     0.958014     0.950371
      0.942727     0.935084     0.927441     0.919798     0.912155     0.904512     0.896869     0.889226     0.881583     0.873940
      0.866296     0.858653     0.851010     0.843367     0.835724     0.828081     0.820438     0.812795     0.805152     0.797508
      0.789865     0.782222     0.774579     0.766936     0.759293     0.751650     0.744007     0.736364     0.728721     0.721077
      0.713434     0.705791     0.698148     0.690505     0.682862     0.675219     0.667576     0.659933     0.652290     0.644646
      0.637003     0.629360     0.621717     0.614074     0.606431     0.598788     0.591145     0.583502     0.575858     0.568215
      0.560572     0.552929     0.545286     0.537643     0.530000     0.522357     0.514714     0.507071     0.499427     0.491784
      0.484141     0.476498     0.468855     0.461212     0.453569     0.445925     0.438282     0.430639     0.422996     0.415353
      0.407710     0.400067     0.392424     0.384780     0.377137     0.369494     0.361851     0.354208     0.346565     0.338922
      0.331278     0.323635     0.315992     0.308349     0.300706     0.293063     0.285420     0.277777     0.270133     0.262490
      0.254847     0.247204     0.239561     0.231918     0.224275     0.216631     0.208988     0.201345
 NY phased data points follow
   3.74891E+02  3.65477E+02  3.68338E+02  3.56423E+02  3.56375E+02  3.50863E+02  3.46432E+02  3.42159E+02  3.45488E+02  3.34377E+02
   3.32883E+02  3.27476E+02  3.27820E+02  3.18000E+02  3.22283E+02  3.14075E+02  3.14494E+02  3.00620E+02  3.08505E+02  2.99134E+02
   3.00321E+02  2.94274E+02  2.95571E+02  2.84092E+02  2.88530E+02  2.81848E+02  2.79351E+02  2.72183E+02  2.75309E+02  2.67482E+02
   2.68897E+02  2.62979E+02  2.65154E+02  2.54545E+02  2.57827E+02  2.48614E+02  2.51313E+02  2.45039E+02  2.48247E+02  2.41604E+02
   2.41940E+02  2.35684E+02  2.40976E+02  2.36952E+02  2.36568E+02  2.34980E+02  2.36376E+02  2.31955E+02  2.32852E+02  2.25670E+02
   2.26434E+02  2.24821E+02  2.23300E+02  2.19857E+02  2.22224E+02  2.17106E+02  2.21549E+02  2.15402E+02  2.20240E+02  2.12229E+02
   2.11325E+02  2.08247E+02  2.09931E+02  2.06183E+02  2.07550E+02  2.00077E+02  2.01610E+02  1.99213E+02  1.97174E+02  1.95553E+02
   1.96704E+02  1.91629E+02  1.94451E+02  1.91408E+02  1.92785E+02  1.86725E+02  1.91372E+02  1.88062E+02  1.86319E+02  1.82214E+02
   1.84788E+02  1.81154E+02  1.81047E+02  1.81552E+02  1.78559E+02  1.77411E+02  1.81124E+02  1.70301E+02  1.78072E+02  1.70435E+02
   1.70209E+02  1.68048E+02  1.69239E+02  1.67243E+02  1.68707E+02  1.62998E+02  1.67338E+02  1.63768E+02  1.64110E+02  1.65890E+02
   1.64775E+02  1.61787E+02  1.65608E+02  1.57136E+02  1.59571E+02  1.55917E+02  1.56203E+02  1.52861E+02  1.55618E+02  1.45970E+02
   1.51412E+02  1.52617E+02  1.54727E+02  1.44195E+02  1.52349E+02  1.47913E+02  1.51248E+02  1.45778E+02  1.48495E+02  1.43602E+02
   1.47173E+02  1.44295E+02  1.45532E+02  1.44915E+02  1.46305E+02  1.44503E+02  1.43371E+02  1.38983E+02  1.38022E+02  1.31889E+02
   1.35863E+02  1.32036E+02  1.34743E+02  1.31135E+02  1.36336E+02  1.32570E+02  1.40392E+02  1.34700E+02  1.35627E+02  1.33680E+02
   1.34396E+02  1.30401E+02  1.32970E+02  1.29742E+02  1.31776E+02  1.27460E+02  1.29542E+02  1.25630E+02  1.26747E+02  1.30241E+02
   1.27603E+02  1.25322E+02  1.25627E+02  1.26983E+02  1.27272E+02  1.21515E+02  1.24007E+02  1.23556E+02  1.22841E+02  1.23059E+02
   1.23714E+02  1.20748E+02  1.24606E+02  1.22213E+02  1.19729E+02  1.18067E+02  1.16628E+02  1.17591E+02  1.23218E+02  1.19022E+02
   1.23162E+02  1.17799E+02  1.22311E+02  1.17720E+02  1.20272E+02  1.16748E+02  1.17329E+02  1.14146E+02  1.14489E+02  1.15552E+02
   1.13763E+02  1.11841E+02  1.11220E+02  1.11049E+02  1.11134E+02  1.10739E+02  1.12947E+02  1.09114E+02  1.08606E+02  1.05402E+02
   1.07306E+02  1.10040E+02  1.08109E+02  1.07447E+02  1.06877E+02  1.06484E+02  1.09108E+02  1.02037E+02  1.01865E+02  1.04986E+02
   1.01901E+02  1.03139E+02  1.04039E+02  1.03484E+02  1.03041E+02  1.02533E+02  1.01941E+02  1.00564E+02  1.03386E+02  9.68698E+01
   1.00980E+02  9.74007E+01  1.02006E+02  9.61304E+01  9.81489E+01  9.76231E+01  1.01185E+02  9.78714E+01  9.39492E+01  9.48240E+01
   9.80275E+01  9.16529E+01  9.86776E+01  9.75271E+01  9.62823E+01  9.66676E+01  9.63087E+01  9.63765E+01  9.51545E+01  9.29043E+01
   9.43840E+01  9.54109E+01  9.79624E+01  9.78556E+01  9.72865E+01  9.36526E+01  9.42680E+01  9.43863E+01  9.38833E+01  9.14885E+01
   9.40734E+01  9.08554E+01  9.72606E+01  9.40574E+01  9.14487E+01  9.28611E+01  9.28773E+01  9.35591E+01  9.06727E+01  9.22525E+01
   9.19583E+01  9.17459E+01  9.52806E+01  9.13013E+01  9.14101E+01  9.06118E+01  9.12926E+01  9.57859E+01  9.84080E+01  9.48032E+01
   9.39593E+01  8.81385E+01  8.73287E+01  8.72480E+01  8.59888E+01  8.65304E+01  8.29040E+01  8.74945E+01  9.01345E+01  8.53971E+01
   8.64486E+01  8.61792E+01  8.91515E+01  8.41058E+01  8.43836E+01  8.35841E+01  8.33452E+01  8.31275E+01  8.27184E+01  8.44534E+01
   8.66483E+01  8.43623E+01  8.65646E+01  8.27156E+01  8.30830E+01  8.34186E+01  8.86490E+01  8.40121E+01  8.60763E+01  8.66218E+01
   8.73361E+01  8.32554E+01  8.68025E+01  8.59177E+01  8.45462E+01  8.52069E+01  8.62440E+01  8.26237E+01  8.46039E+01  8.24314E+01
   8.45277E+01  7.96249E+01  7.98354E+01  7.81069E+01  7.79946E+01  7.49907E+01  7.40978E+01  7.17203E+01  7.29049E+01  6.53851E+01
   6.50903E+01  6.53004E+01  6.28078E+01  6.46789E+01  6.12970E+01  6.17645E+01  6.09883E+01  6.06578E+01  6.33047E+01  5.87456E+01
   6.36460E+01  5.97680E+01  6.21421E+01  5.84120E+01  6.50751E+01  6.35827E+01  6.47594E+01  6.46525E+01  6.54141E+01  6.47164E+01
   6.71013E+01  6.31269E+01  6.43234E+01  6.38185E+01  6.23541E+01  6.02658E+01  6.19367E+01  6.03651E+01  6.18489E+01  6.22546E+01
   6.41100E+01  6.01571E+01  6.18073E+01  5.89854E+01  6.21730E+01  5.60472E+01  5.55734E+01  5.53656E+01  5.57257E+01  5.41211E+01
   5.82703E+01  5.75041E+01  6.08901E+01  5.76045E+01  6.14411E+01  5.60077E+01  6.09745E+01  5.94012E+01  6.04685E+01  5.65125E+01
   6.05665E+01  5.56340E+01  5.64354E+01  5.36488E+01  5.69554E+01  5.49919E+01  6.11878E+01  5.49824E+01  5.83547E+01  5.44685E+01
   5.60847E+01  5.53460E+01  5.73252E+01  5.84120E+01  5.74785E+01  5.58689E+01  5.52473E+01  5.81509E+01  5.77583E+01  5.25337E+01
   5.88309E+01  5.42743E+01  5.40618E+01  5.22979E+01  5.71946E+01  5.20864E+01  5.37375E+01  5.47785E+01  5.54468E+01  5.24843E+01
   5.76195E+01  5.22622E+01  5.36397E+01  5.44746E+01  5.89149E+01  5.37451E+01  5.41946E+01  5.22601E+01  5.57376E+01  5.37713E+01
   5.47272E+01  5.47921E+01  5.47641E+01  5.22502E+01  5.40548E+01  5.17138E+01  5.62912E+01  5.42255E+01  5.40278E+01  5.55255E+01
   5.30667E+01  5.14217E+01  5.31759E+01  5.03869E+01  5.30152E+01  5.25808E+01  5.13188E+01  5.02940E+01  5.15231E+01  4.97281E+01
   4.99581E+01  4.87574E+01  5.04949E+01  4.93746E+01  4.77473E+01  4.73864E+01  4.71978E+01  4.66805E+01  4.70723E+01  4.81508E+01
   4.82229E+01  4.61226E+01  4.92933E+01  5.05027E+01  4.64441E+01  4.75142E+01  4.95522E+01  4.83856E+01  4.66454E+01  4.88245E+01
   4.79843E+01  4.26072E+01  4.85136E+01  4.26703E+01  4.52675E+01  4.65902E+01  4.29599E+01  4.40284E+01  4.48812E+01  4.55842E+01
   4.49819E+01  4.42578E+01  4.68695E+01  4.22930E+01  4.70683E+01  4.34789E+01  4.63630E+01  4.08337E+01  4.35061E+01  4.49962E+01
   4.15131E+01  4.22252E+01  4.49271E+01  4.23447E+01  4.40968E+01  4.56584E+01  4.41081E+01  4.08894E+01  4.09960E+01  3.97968E+01
   4.23784E+01  3.78814E+01  4.18144E+01  3.99363E+01  4.27282E+01  4.22393E+01  4.11085E+01  3.86305E+01  3.91885E+01  3.94972E+01
   3.84361E+01  3.76665E+01  4.00082E+01  3.88825E+01  4.03960E+01  3.75108E+01  3.61315E+01  3.63507E+01  3.48072E+01  3.53070E+01
   3.60488E+01  3.80051E+01  3.45938E+01  3.78554E+01  3.82444E+01  3.44658E+01  3.41684E+01  3.49005E+01
 NY points of the fit to the data follow
   3.67305E+02  3.63324E+02  3.59433E+02  3.55703E+02  3.52175E+02  3.48761E+02  3.45385E+02  3.42008E+02  3.38609E+02  3.35184E+02
   3.31739E+02  3.28284E+02  3.24828E+02  3.21385E+02  3.17979E+02  3.14645E+02  3.11400E+02  3.08206E+02  3.05049E+02  3.01929E+02
   2.98844E+02  2.95795E+02  2.92785E+02  2.89815E+02  2.86885E+02  2.83994E+02  2.81142E+02  2.78330E+02  2.75560E+02  2.72835E+02
   2.70159E+02  2.67538E+02  2.64986E+02  2.62529E+02  2.60160E+02  2.57785E+02  2.55330E+02  2.52791E+02  2.50201E+02  2.47605E+02
   2.45047E+02  2.42584E+02  2.40349E+02  2.38585E+02  2.37359E+02  2.36416E+02  2.35368E+02  2.33930E+02  2.32034E+02  2.29751E+02
   2.27191E+02  2.24462E+02  2.21685E+02  2.18996E+02  2.16618E+02  2.14809E+02  2.13528E+02  2.12516E+02  2.11538E+02  2.10453E+02
   2.09185E+02  2.07711E+02  2.06069E+02  2.04344E+02  2.02615E+02  2.00935E+02  1.99361E+02  1.97990E+02  1.96852E+02  1.95875E+02
   1.94949E+02  1.93976E+02  1.92908E+02  1.91739E+02  1.90494E+02  1.89216E+02  1.87927E+02  1.86648E+02  1.85389E+02  1.84188E+02
   1.83054E+02  1.81954E+02  1.80830E+02  1.79612E+02  1.78272E+02  1.76845E+02  1.75412E+02  1.74055E+02  1.72828E+02  1.71764E+02
   1.70872E+02  1.70132E+02  1.69524E+02  1.68965E+02  1.68326E+02  1.67514E+02  1.66530E+02  1.65475E+02  1.64488E+02  1.63568E+02
   1.62661E+02  1.61755E+02  1.60848E+02  1.59940E+02  1.59036E+02  1.58100E+02  1.57110E+02  1.56077E+02  1.55047E+02  1.54089E+02
   1.53239E+02  1.52423E+02  1.51606E+02  1.50796E+02  1.49991E+02  1.49186E+02  1.48383E+02  1.47584E+02  1.46794E+02  1.46021E+02
   1.45278E+02  1.44616E+02  1.44076E+02  1.43596E+02  1.43104E+02  1.42555E+02  1.41927E+02  1.41220E+02  1.40446E+02  1.39620E+02
   1.38755E+02  1.37874E+02  1.37017E+02  1.36243E+02  1.35559E+02  1.34908E+02  1.34273E+02  1.33649E+02  1.33036E+02  1.32432E+02
   1.31839E+02  1.31257E+02  1.30685E+02  1.30124E+02  1.29573E+02  1.29032E+02  1.28501E+02  1.27980E+02  1.27469E+02  1.26967E+02
   1.26476E+02  1.25994E+02  1.25521E+02  1.25059E+02  1.24605E+02  1.24159E+02  1.23720E+02  1.23288E+02  1.22862E+02  1.22443E+02
   1.22030E+02  1.21621E+02  1.21217E+02  1.20818E+02  1.20422E+02  1.20029E+02  1.19638E+02  1.19247E+02  1.18855E+02  1.18463E+02
   1.18070E+02  1.17674E+02  1.17276E+02  1.16875E+02  1.16470E+02  1.16061E+02  1.15647E+02  1.15228E+02  1.14804E+02  1.14373E+02
   1.13937E+02  1.13494E+02  1.13044E+02  1.12587E+02  1.12123E+02  1.11654E+02  1.11178E+02  1.10697E+02  1.10210E+02  1.09719E+02
   1.09226E+02  1.08730E+02  1.08234E+02  1.07737E+02  1.07240E+02  1.06744E+02  1.06248E+02  1.05754E+02  1.05262E+02  1.04773E+02
   1.04286E+02  1.03803E+02  1.03324E+02  1.02851E+02  1.02384E+02  1.01924E+02  1.01471E+02  1.01026E+02  1.00589E+02  1.00162E+02
   9.97438E+01  9.93357E+01  9.89382E+01  9.85516E+01  9.81765E+01  9.78133E+01  9.74627E+01  9.71251E+01  9.68012E+01  9.64917E+01
   9.61971E+01  9.59177E+01  9.56540E+01  9.54064E+01  9.51758E+01  9.49629E+01  9.47688E+01  9.45946E+01  9.44410E+01  9.43083E+01
   9.41968E+01  9.41066E+01  9.40372E+01  9.39881E+01  9.39586E+01  9.39478E+01  9.39541E+01  9.39760E+01  9.40113E+01  9.40578E+01
   9.41127E+01  9.41726E+01  9.42338E+01  9.42921E+01  9.43433E+01  9.43830E+01  9.44071E+01  9.44114E+01  9.43922E+01  9.43463E+01
   9.42710E+01  9.41643E+01  9.40250E+01  9.38524E+01  9.36469E+01  9.34093E+01  9.31409E+01  9.28439E+01  9.25205E+01  9.21733E+01
   9.18051E+01  9.14184E+01  9.10158E+01  9.05996E+01  9.01720E+01  8.97351E+01  8.92907E+01  8.88407E+01  8.83868E+01  8.79312E+01
   8.74756E+01  8.70225E+01  8.65743E+01  8.61347E+01  8.57076E+01  8.52976E+01  8.49091E+01  8.45470E+01  8.42157E+01  8.39195E+01
   8.36616E+01  8.34440E+01  8.32671E+01  8.31291E+01  8.30261E+01  8.29514E+01  8.28962E+01  8.28491E+01  8.27972E+01  8.27261E+01
   8.26209E+01  8.24672E+01  8.22516E+01  8.19630E+01  8.15930E+01  8.11368E+01  8.05933E+01  7.99653E+01  7.92594E+01  7.84856E+01
   7.76562E+01  7.67856E+01  7.58890E+01  7.49819E+01  7.40787E+01  7.31928E+01  7.23353E+01  7.15152E+01  7.07393E+01  7.00119E+01
   6.93353E+01  6.87098E+01  6.81345E+01  6.76072E+01  6.71252E+01  6.66852E+01  6.62840E+01  6.59181E+01  6.55842E+01  6.52790E+01
   6.49994E+01  6.47427E+01  6.45064E+01  6.42881E+01  6.40857E+01  6.38970E+01  6.37199E+01  6.35521E+01  6.33915E+01  6.32357E+01
   6.30826E+01  6.29297E+01  6.27749E+01  6.26159E+01  6.24507E+01  6.22777E+01  6.20952E+01  6.19024E+01  6.16986E+01  6.14841E+01
   6.12598E+01  6.10284E+01  6.07943E+01  6.05573E+01  6.03150E+01  6.00704E+01  5.98298E+01  5.96012E+01  5.93916E+01  5.92071E+01
   5.90554E+01  5.89385E+01  5.88496E+01  5.87768E+01  5.87044E+01  5.86121E+01  5.84838E+01  5.83126E+01  5.80969E+01  5.78406E+01
   5.75523E+01  5.72459E+01  5.69383E+01  5.66405E+01  5.63580E+01  5.60941E+01  5.58496E+01  5.56229E+01  5.54117E+01  5.52130E+01
   5.50247E+01  5.48456E+01  5.46754E+01  5.45151E+01  5.43663E+01  5.42314E+01  5.41129E+01  5.40135E+01  5.39359E+01  5.38821E+01
   5.38539E+01  5.38528E+01  5.38791E+01  5.39330E+01  5.40137E+01  5.41196E+01  5.42486E+01  5.43975E+01  5.45627E+01  5.47398E+01
   5.49238E+01  5.51093E+01  5.52905E+01  5.54613E+01  5.56158E+01  5.57480E+01  5.58526E+01  5.59244E+01  5.59594E+01  5.59542E+01
   5.59065E+01  5.58150E+01  5.56797E+01  5.55017E+01  5.52831E+01  5.50270E+01  5.47374E+01  5.44186E+01  5.40759E+01  5.37142E+01
   5.33390E+01  5.29552E+01  5.25677E+01  5.21811E+01  5.17993E+01  5.14258E+01  5.10634E+01  5.07144E+01  5.03805E+01  5.00627E+01
   4.97617E+01  4.94776E+01  4.92103E+01  4.89593E+01  4.87240E+01  4.85033E+01  4.82963E+01  4.81018E+01  4.79189E+01  4.77462E+01
   4.75828E+01  4.74275E+01  4.72793E+01  4.71372E+01  4.70003E+01  4.68678E+01  4.67387E+01  4.66124E+01  4.64882E+01  4.63654E+01
   4.62435E+01  4.61218E+01  4.59999E+01  4.58773E+01  4.57536E+01  4.56282E+01  4.55009E+01  4.53712E+01  4.52388E+01  4.51033E+01
   4.49645E+01  4.48219E+01  4.46754E+01  4.45247E+01  4.43698E+01  4.42107E+01  4.40476E+01  4.38804E+01  4.37093E+01  4.35343E+01
   4.33554E+01  4.31728E+01  4.29865E+01  4.27966E+01  4.26033E+01  4.24066E+01  4.22065E+01  4.20033E+01  4.17970E+01  4.15877E+01
   4.13755E+01  4.11605E+01  4.09429E+01  4.07227E+01  4.05001E+01  4.02751E+01  4.00479E+01  3.98187E+01  3.95874E+01  3.93543E+01
   3.91194E+01  3.88829E+01  3.86449E+01  3.84056E+01  3.81649E+01  3.79231E+01  3.76804E+01  3.74367E+01  3.71922E+01  3.69471E+01
   3.67015E+01  3.64555E+01  3.62092E+01  3.59628E+01  3.57164E+01  3.54701E+01  3.52240E+01  3.49783E+01
 NY background values follow
     3.658E+02    3.621E+02    3.585E+02    3.550E+02    3.514E+02    3.479E+02    3.444E+02    3.409E+02    3.375E+02    3.341E+02
     3.307E+02    3.273E+02    3.240E+02    3.207E+02    3.174E+02    3.142E+02    3.109E+02    3.078E+02    3.046E+02    3.015E+02
     2.984E+02    2.954E+02    2.924E+02    2.894E+02    2.864E+02    2.835E+02    2.806E+02    2.778E+02    2.750E+02    2.722E+02
     2.695E+02    2.668E+02    2.642E+02    2.616E+02    2.590E+02    2.565E+02    2.540E+02    2.515E+02    2.491E+02    2.467E+02
     2.444E+02    2.421E+02    2.399E+02    2.377E+02    2.356E+02    2.335E+02    2.314E+02    2.294E+02    2.274E+02    2.255E+02
     2.236E+02    2.218E+02    2.200E+02    2.182E+02    2.165E+02    2.148E+02    2.131E+02    2.115E+02    2.099E+02    2.084E+02
     2.069E+02    2.054E+02    2.039E+02    2.025E+02    2.011E+02    1.997E+02    1.984E+02    1.971E+02    1.958E+02    1.945E+02
     1.933E+02    1.920E+02    1.908E+02    1.897E+02    1.885E+02    1.873E+02    1.862E+02    1.851E+02    1.840E+02    1.829E+02
     1.818E+02    1.808E+02    1.797E+02    1.787E+02    1.777E+02    1.766E+02    1.756E+02    1.746E+02    1.736E+02    1.726E+02
     1.716E+02    1.706E+02    1.696E+02    1.686E+02    1.676E+02    1.667E+02    1.657E+02    1.647E+02    1.637E+02    1.628E+02
     1.618E+02    1.609E+02    1.599E+02    1.589E+02    1.580E+02    1.571E+02    1.561E+02    1.552E+02    1.543E+02    1.534E+02
     1.525E+02    1.516E+02    1.507E+02    1.498E+02    1.490E+02    1.481E+02    1.473E+02    1.464E+02    1.456E+02    1.448E+02
     1.440E+02    1.432E+02    1.424E+02    1.416E+02    1.408E+02    1.401E+02    1.393E+02    1.386E+02    1.379E+02    1.372E+02
     1.365E+02    1.358E+02    1.352E+02    1.345E+02    1.339E+02    1.333E+02    1.327E+02    1.321E+02    1.315E+02    1.309E+02
     1.304E+02    1.299E+02    1.293E+02    1.288E+02    1.283E+02    1.278E+02    1.274E+02    1.269E+02    1.264E+02    1.260E+02
     1.256E+02    1.251E+02    1.247E+02    1.243E+02    1.239E+02    1.234E+02    1.230E+02    1.226E+02    1.223E+02    1.219E+02
     1.215E+02    1.211E+02    1.207E+02    1.203E+02    1.199E+02    1.196E+02    1.192E+02    1.188E+02    1.184E+02    1.180E+02
     1.176E+02    1.172E+02    1.168E+02    1.164E+02    1.160E+02    1.156E+02    1.152E+02    1.148E+02    1.144E+02    1.139E+02
     1.135E+02    1.130E+02    1.126E+02    1.121E+02    1.117E+02    1.112E+02    1.107E+02    1.102E+02    1.097E+02    1.092E+02
     1.087E+02    1.082E+02    1.077E+02    1.071E+02    1.066E+02    1.061E+02    1.056E+02    1.051E+02    1.045E+02    1.040E+02
     1.035E+02    1.030E+02    1.024E+02    1.019E+02    1.014E+02    1.009E+02    1.004E+02    9.989E+01    9.939E+01    9.889E+01
     9.841E+01    9.792E+01    9.745E+01    9.698E+01    9.652E+01    9.607E+01    9.563E+01    9.519E+01    9.477E+01    9.436E+01
     9.396E+01    9.356E+01    9.319E+01    9.282E+01    9.246E+01    9.212E+01    9.180E+01    9.149E+01    9.119E+01    9.090E+01
     9.063E+01    9.037E+01    9.012E+01    8.988E+01    8.965E+01    8.943E+01    8.922E+01    8.902E+01    8.882E+01    8.863E+01
     8.845E+01    8.828E+01    8.811E+01    8.794E+01    8.778E+01    8.763E+01    8.747E+01    8.732E+01    8.717E+01    8.702E+01
     8.687E+01    8.673E+01    8.658E+01    8.643E+01    8.628E+01    8.612E+01    8.597E+01    8.580E+01    8.564E+01    8.547E+01
     8.530E+01    8.511E+01    8.493E+01    8.473E+01    8.453E+01    8.432E+01    8.410E+01    8.387E+01    8.363E+01    8.338E+01
     8.312E+01    8.285E+01    8.256E+01    8.226E+01    8.195E+01    8.163E+01    8.130E+01    8.096E+01    8.060E+01    8.024E+01
     7.987E+01    7.949E+01    7.910E+01    7.871E+01    7.830E+01    7.789E+01    7.748E+01    7.705E+01    7.663E+01    7.619E+01
     7.575E+01    7.531E+01    7.486E+01    7.441E+01    7.396E+01    7.351E+01    7.305E+01    7.259E+01    7.213E+01    7.167E+01
     7.120E+01    7.074E+01    7.028E+01    6.982E+01    6.936E+01    6.890E+01    6.845E+01    6.800E+01    6.755E+01    6.710E+01
     6.666E+01    6.622E+01    6.579E+01    6.536E+01    6.494E+01    6.453E+01    6.412E+01    6.372E+01    6.332E+01    6.293E+01
     6.255E+01    6.218E+01    6.181E+01    6.145E+01    6.110E+01    6.075E+01    6.041E+01    6.007E+01    5.975E+01    5.942E+01
     5.911E+01    5.879E+01    5.849E+01    5.819E+01    5.790E+01    5.761E+01    5.733E+01    5.705E+01    5.678E+01    5.651E+01
     5.625E+01    5.599E+01    5.574E+01    5.549E+01    5.525E+01    5.501E+01    5.478E+01    5.455E+01    5.432E+01    5.410E+01
     5.388E+01    5.367E+01    5.346E+01    5.326E+01    5.306E+01    5.286E+01    5.267E+01    5.248E+01    5.229E+01    5.211E+01
     5.193E+01    5.175E+01    5.157E+01    5.140E+01    5.124E+01    5.107E+01    5.091E+01    5.075E+01    5.059E+01    5.044E+01
     5.029E+01    5.014E+01    4.999E+01    4.985E+01    4.971E+01    4.958E+01    4.944E+01    4.931E+01    4.918E+01    4.906E+01
     4.894E+01    4.882E+01    4.870E+01    4.858E+01    4.847E+01    4.836E+01    4.826E+01    4.815E+01    4.805E+01    4.795E+01
     4.786E+01    4.777E+01    4.768E+01    4.759E+01    4.750E+01    4.742E+01    4.734E+01    4.726E+01    4.719E+01    4.712E+01
     4.705E+01    4.698E+01    4.691E+01    4.685E+01    4.679E+01    4.673E+01    4.668E+01    4.663E+01    4.658E+01    4.653E+01
     4.648E+01    4.644E+01    4.639E+01    4.635E+01    4.631E+01    4.627E+01    4.624E+01    4.620E+01    4.616E+01    4.613E+01
     4.609E+01    4.606E+01    4.602E+01    4.598E+01    4.595E+01    4.591E+01    4.587E+01    4.583E+01    4.579E+01    4.575E+01
     4.571E+01    4.566E+01    4.562E+01    4.557E+01    4.552E+01    4.546E+01    4.541E+01    4.535E+01    4.528E+01    4.522E+01
     4.515E+01    4.508E+01    4.500E+01    4.492E+01    4.484E+01    4.475E+01    4.466E+01    4.456E+01    4.446E+01    4.436E+01
     4.425E+01    4.413E+01    4.401E+01    4.388E+01    4.375E+01    4.361E+01    4.346E+01    4.332E+01    4.316E+01    4.300E+01
     4.284E+01    4.267E+01    4.250E+01    4.233E+01    4.215E+01    4.196E+01    4.177E+01    4.158E+01    4.139E+01    4.119E+01
     4.099E+01    4.078E+01    4.057E+01    4.036E+01    4.015E+01    3.993E+01    3.971E+01    3.949E+01    3.927E+01    3.904E+01
     3.881E+01    3.858E+01    3.835E+01    3.812E+01    3.788E+01    3.765E+01    3.741E+01    3.717E+01    3.693E+01    3.669E+01
     3.645E+01    3.621E+01    3.597E+01    3.573E+01    3.549E+01    3.524E+01    3.500E+01    3.476E+01
 Asp      Conc. = 2.92E+00
