 LCModel (Version 6.3-1L) Copyright: S.W. Provencher.          Ref.: Magn. Reson. Med. 30:672-679 (1993).                
 Slice#2 Row#6 Col#2  PD_24_press_2_raw_act
 36 lines in following concentration table = NCONC+1
    Conc.  %SD /Cr+PCr  Metabolite                                         
  990.775  44%   0.282 Ala                                                 
    0.000 999%   0.000 Asp                                                 
 3.51E+03   5%   1.000 Cr                                                  
    0.000 999%   0.000 PCr                                                 
  263.674 183% 7.5E-02 GABA                                                
    0.000 999%   0.000 Glc                                                 
 3.97E+03  26%   1.131 Gln                                                 
 4.29E+03  27%   1.222 Glu                                                 
 1.56E+03   4%   0.443 GPC                                                 
    0.000 999%   0.000 PCh                                                 
 1.74E+03  13%   0.496 GSH                                                 
 5.13E+03  15%   1.460 Ins                                                 
    0.000 999%   0.000 Lac                                                 
 4.98E+03   9%   1.419 NAA                                                 
  429.559 118%   0.122 NAAG                                                
  376.977  19%   0.107 Scyllo                                              
    0.000 999%   0.000 Tau                                                 
    0.000 999%   0.000 -CrCH2                                              
 1.56E+03   4%   0.443 GPC+PCh                                             
 5.41E+03   5%   1.541 NAA+NAAG                                            
 3.51E+03   5%   1.000 Cr+PCr                                              
 8.26E+03  23%   2.353 Glu+Gln                                             
 6.01E+03  20%   1.712 Lip13a                                              
    0.000 999%   0.000 Lip13b                                              
    0.000 999%   0.000 Lip09                                               
 3.44E+03  14%   0.980 MM09                                                
 2.14E+03  24%   0.608 Lip20                                               
 1.02E+04   9%   2.900+MM20                                                
 1.17E+03  33%   0.333 MM12                                                
 5.47E+03   7%   1.557 MM14                                                
    0.000 999%   0.000 MM17                                                
 6.01E+03  20%   1.712 Lip13a+Lip13b                                       
 1.26E+04   8%   3.602 MM14+Lip13a+Lip13b+MM12                             
 3.44E+03  14%   0.980 MM09+Lip09                                          
 1.23E+04   8%   3.508 MM20+Lip20                                          
   6 lines in following misc. output table
  FWHM = 0.084 ppm    S/N =  11                                            
  Data shift = 0.008 ppm                                                   
  Ph:   3 deg       5.9 deg/ppm                                            
  alphaB,S = 1.2E+00,   1.1E+02                                            
   14 spline knots.   Ns =10(1)                                            
  (18) 5 infls.   (17) 1 extrs.                                            
  498 points on ppm-axis = NY
      4.000000     3.992357     3.984714     3.977070     3.969427     3.961784     3.954141     3.946497     3.938854     3.931211
      3.923568     3.915925     3.908281     3.900638     3.892995     3.885352     3.877708     3.870065     3.862422     3.854779
      3.847136     3.839492     3.831849     3.824206     3.816563     3.808919     3.801276     3.793633     3.785990     3.778347
      3.770703     3.763060     3.755417     3.747774     3.740130     3.732487     3.724844     3.717201     3.709558     3.701914
      3.694271     3.686628     3.678985     3.671341     3.663698     3.656055     3.648412     3.640769     3.633125     3.625482
      3.617839     3.610196     3.602552     3.594909     3.587266     3.579623     3.571980     3.564336     3.556693     3.549050
      3.541407     3.533763     3.526120     3.518477     3.510834     3.503191     3.495547     3.487904     3.480261     3.472618
      3.464974     3.457331     3.449688     3.442045     3.434402     3.426758     3.419115     3.411472     3.403829     3.396185
      3.388542     3.380899     3.373256     3.365613     3.357969     3.350326     3.342683     3.335040     3.327396     3.319753
      3.312110     3.304467     3.296824     3.289180     3.281537     3.273894     3.266251     3.258607     3.250964     3.243321
      3.235678     3.228034     3.220391     3.212748     3.205105     3.197462     3.189818     3.182175     3.174532     3.166889
      3.159245     3.151602     3.143959     3.136316     3.128673     3.121029     3.113386     3.105743     3.098100     3.090456
      3.082813     3.075170     3.067527     3.059884     3.052240     3.044597     3.036954     3.029311     3.021667     3.014024
      3.006381     2.998738     2.991095     2.983451     2.975808     2.968165     2.960522     2.952878     2.945235     2.937592
      2.929949     2.922306     2.914662     2.907019     2.899376     2.891733     2.884089     2.876446     2.868803     2.861160
      2.853517     2.845873     2.838230     2.830587     2.822944     2.815300     2.807657     2.800014     2.792371     2.784728
      2.777084     2.769441     2.761798     2.754155     2.746511     2.738868     2.731225     2.723582     2.715939     2.708295
      2.700652     2.693009     2.685366     2.677722     2.670079     2.662436     2.654793     2.647150     2.639506     2.631863
      2.624220     2.616577     2.608933     2.601290     2.593647     2.586004     2.578361     2.570717     2.563074     2.555431
      2.547788     2.540144     2.532501     2.524858     2.517215     2.509572     2.501928     2.494285     2.486642     2.478999
      2.471355     2.463712     2.456069     2.448426     2.440783     2.433139     2.425496     2.417853     2.410210     2.402566
      2.394923     2.387280     2.379637     2.371994     2.364350     2.356707     2.349064     2.341421     2.333777     2.326134
      2.318491     2.310848     2.303205     2.295561     2.287918     2.280275     2.272632     2.264988     2.257345     2.249702
      2.242059     2.234416     2.226772     2.219129     2.211486     2.203843     2.196199     2.188556     2.180913     2.173270
      2.165627     2.157983     2.150340     2.142697     2.135054     2.127410     2.119767     2.112124     2.104481     2.096838
      2.089194     2.081551     2.073908     2.066265     2.058621     2.050978     2.043335     2.035692     2.028049     2.020405
      2.012762     2.005119     1.997476     1.989833     1.982190     1.974546     1.966903     1.959260     1.951617     1.943974
      1.936331     1.928688     1.921045     1.913402     1.905759     1.898115     1.890472     1.882829     1.875186     1.867543
      1.859900     1.852257     1.844614     1.836971     1.829327     1.821684     1.814041     1.806398     1.798755     1.791112
      1.783469     1.775826     1.768183     1.760540     1.752896     1.745253     1.737610     1.729967     1.722324     1.714681
      1.707038     1.699395     1.691752     1.684108     1.676465     1.668822     1.661179     1.653536     1.645893     1.638250
      1.630607     1.622964     1.615321     1.607677     1.600034     1.592391     1.584748     1.577105     1.569462     1.561819
      1.554176     1.546533     1.538890     1.531246     1.523603     1.515960     1.508317     1.500674     1.493031     1.485388
      1.477745     1.470102     1.462458     1.454815     1.447172     1.439529     1.431886     1.424243     1.416600     1.408957
      1.401314     1.393671     1.386027     1.378384     1.370741     1.363098     1.355455     1.347812     1.340169     1.332526
      1.324883     1.317240     1.309596     1.301953     1.294310     1.286667     1.279024     1.271381     1.263738     1.256095
      1.248452     1.240808     1.233165     1.225522     1.217879     1.210236     1.202593     1.194950     1.187307     1.179664
      1.172021     1.164377     1.156734     1.149091     1.141448     1.133805     1.126162     1.118519     1.110876     1.103233
      1.095590     1.087946     1.080303     1.072660     1.065017     1.057374     1.049731     1.042088     1.034445     1.026802
      1.019158     1.011515     1.003872     0.996229     0.988586     0.980943     0.973300     0.965657     0.958014     0.950371
      0.942727     0.935084     0.927441     0.919798     0.912155     0.904512     0.896869     0.889226     0.881583     0.873940
      0.866296     0.858653     0.851010     0.843367     0.835724     0.828081     0.820438     0.812795     0.805152     0.797508
      0.789865     0.782222     0.774579     0.766936     0.759293     0.751650     0.744007     0.736364     0.728721     0.721077
      0.713434     0.705791     0.698148     0.690505     0.682862     0.675219     0.667576     0.659933     0.652290     0.644646
      0.637003     0.629360     0.621717     0.614074     0.606431     0.598788     0.591145     0.583502     0.575858     0.568215
      0.560572     0.552929     0.545286     0.537643     0.530000     0.522357     0.514714     0.507071     0.499427     0.491784
      0.484141     0.476498     0.468855     0.461212     0.453569     0.445925     0.438282     0.430639     0.422996     0.415353
      0.407710     0.400067     0.392424     0.384780     0.377137     0.369494     0.361851     0.354208     0.346565     0.338922
      0.331278     0.323635     0.315992     0.308349     0.300706     0.293063     0.285420     0.277777     0.270133     0.262490
      0.254847     0.247204     0.239561     0.231918     0.224275     0.216631     0.208988     0.201345
 NY phased data points follow
  -9.72555E+00 -2.01728E+00  5.90846E-01  1.28972E+01  1.28259E+01  1.92558E+01  3.01029E+01  3.55989E+01  4.42248E+01  5.11836E+01
   6.07810E+01  5.63662E+01  5.69220E+01  6.85018E+01  5.17419E+01  4.68405E+01  3.71521E+01  2.61658E+01  2.32015E+01  1.95910E+01
   2.36232E+01  2.09350E+01  1.60112E+01  2.85835E+01  1.97193E+01  1.96553E+01  1.02229E+01  3.11475E+01  1.61125E+01  2.43569E+01
   3.00639E+01  2.49420E+01  2.27915E+01  1.98016E+01  2.46561E+01  1.70742E+01  1.77984E+01  1.93841E+01  9.75611E+00  1.50778E+01
   1.58770E+01  2.10122E+01  1.68814E+01  1.95004E+01  1.78411E+01  2.83540E+01  2.30386E+01  2.59262E+01  2.43273E+01  2.42328E+01
   2.16204E+01  2.18819E+01  1.20494E+01  5.58155E+00  3.21985E+00  1.17380E+01  4.22696E+00  8.67616E+00  1.17531E+01  3.69969E+00
   6.64836E+00  5.04999E+00 -2.90612E+00  1.60139E+00 -6.40309E-01 -8.38301E+00 -9.39810E+00 -9.48385E+00 -1.48624E+01 -1.24689E+01
  -1.23282E+01 -1.14017E+01 -1.56323E+01 -3.38219E+00 -1.49189E+01 -1.45158E+01 -1.62459E-01 -5.84561E+00 -1.36843E+01 -7.27361E+00
  -1.21708E+01 -6.70846E+00 -1.22834E+00 -5.48201E+00 -2.29038E+00 -7.01416E+00 -6.19037E+00 -6.91419E+00 -2.95742E+00 -6.66004E+00
  -2.20788E+00 -7.06808E+00  2.85732E+00 -6.39435E-01  2.06840E+00  1.04364E+01  2.09129E+01  2.73261E+01  2.48749E+01  4.31438E+01
   4.95211E+01  6.40715E+01  6.69429E+01  7.58670E+01  8.34371E+01  7.61742E+01  6.23219E+01  5.82095E+01  4.50214E+01  3.91269E+01
   1.86625E+01  1.05599E+01  5.49038E+00  3.48468E+00 -5.44684E-01  4.70256E+00 -8.35032E+00  4.47376E+00 -1.22557E+00  2.21114E+00
   1.09372E+01  1.43449E+01  2.34663E+01  2.97552E+01  3.35705E+01  4.68403E+01  6.83991E+01  6.77110E+01  6.85943E+01  6.74000E+01
   5.67965E+01  5.35709E+01  4.63470E+01  2.79806E+01  2.48987E+01  4.19120E+00  7.23817E+00  4.43014E-01 -1.87217E+00 -1.74584E+00
  -1.08778E+01 -9.13214E+00 -6.09344E+00 -5.63228E+00 -5.93836E+00 -4.09376E+00 -1.22899E+01 -1.31168E+01 -1.11738E+01 -4.05503E+00
  -1.27057E+01 -1.61794E+01 -1.28565E+01 -6.83244E+00 -1.32224E+01 -1.05190E+01 -1.78976E+01 -1.60969E+01 -1.66349E+01 -2.23951E+01
  -2.10599E+01 -1.54709E+01 -1.37783E+01 -1.95310E+01 -2.02317E+01 -1.65621E+01 -2.59959E+01 -2.41090E+01 -3.59450E+01 -2.79274E+01
  -3.47816E+01 -3.66626E+01 -3.86801E+01 -4.11721E+01 -3.59645E+01 -4.56643E+01 -3.64996E+01 -4.05864E+01 -4.79737E+01 -3.48342E+01
  -5.00443E+01 -4.03888E+01 -4.88891E+01 -3.25739E+01 -4.27188E+01 -3.76610E+01 -3.69308E+01 -3.30007E+01 -3.28809E+01 -3.72618E+01
  -2.78263E+01 -2.74682E+01 -1.50907E+01 -1.74701E+01 -1.70558E+01 -1.30538E+01 -1.87883E+01 -2.17987E+01 -2.02232E+01 -1.75439E+01
  -1.97279E+01 -2.31884E+01 -2.12794E+01 -2.01695E+01 -2.34352E+01 -3.49039E+01 -2.21027E+01 -2.29804E+01 -2.66909E+01 -2.42848E+01
  -1.79876E+01 -1.49674E+01 -1.91335E+01 -1.72392E+01 -2.15623E+01 -1.46816E+01 -7.17638E+00 -5.34370E+00 -1.28924E+01 -6.74380E+00
  -1.61186E+01 -1.33838E+01 -1.72862E+01 -1.81100E+01 -9.44426E+00 -7.70417E+00 -5.67311E+00  4.93633E-01  1.73668E+00  2.40493E+00
   1.01141E+00  3.77164E+00  9.47343E+00  3.02218E+00  1.42085E+01  4.93879E+00  9.31668E+00  7.28554E+00 -6.50796E-01 -1.70258E+00
   7.37384E+00  4.10496E+00  8.06495E+00  3.82041E+00  8.83091E+00  1.44664E+01  9.68873E+00  1.98434E+01  2.02212E+01  2.22350E+01
   3.50516E+01  5.20607E+01  4.89755E+01  6.63836E+01  8.58310E+01  9.82909E+01  1.04461E+02  1.20528E+02  1.21236E+02  1.40686E+02
   1.36967E+02  1.26219E+02  1.08029E+02  9.65137E+01  7.53078E+01  6.19558E+01  4.46536E+01  2.61548E+01  1.20283E+01  9.38176E+00
   5.00843E+00  1.05188E+01  3.78595E+00 -5.41937E+00  5.97764E-01 -6.38662E+00 -5.46656E+00 -3.16767E+00 -8.37923E+00 -8.61631E+00
  -1.25001E+01 -1.08860E+01 -1.22890E+01 -1.49307E+01 -1.99409E+01 -1.62844E+01 -2.35117E+01 -1.34055E+01 -1.35444E+01 -2.07433E+01
  -2.59994E+01 -2.03082E+01 -2.63723E+01 -2.67363E+01 -2.37868E+01 -3.26949E+01 -3.50158E+01 -3.75192E+01 -3.00811E+01 -3.42934E+01
  -3.93788E+01 -4.00545E+01 -4.33083E+01 -4.06015E+01 -4.54918E+01 -3.64449E+01 -3.95186E+01 -3.61578E+01 -3.40405E+01 -3.37786E+01
  -3.15442E+01 -1.92967E+01 -1.98410E+01 -1.39897E+01 -1.27020E+01 -5.28493E+00  2.94964E-01  1.24098E-01  6.33348E+00 -3.04186E+00
   1.21534E+01  1.48183E+01  8.80812E+00  2.19563E+01  1.75942E+01  1.91346E+01  2.41326E+01  1.13371E+01  2.07048E+01  2.56177E+01
   2.29543E+01  1.58988E+01  1.29985E+01  1.60434E+01  1.83477E+01  2.18049E+01  1.13029E+01  1.14341E+01  1.55926E+01  1.53258E+01
   9.27421E+00  1.13421E+01  8.63229E+00  1.72020E+01  6.35796E+00  1.39113E+01  1.23326E+01  2.11864E+01  1.37858E+01  1.43736E+01
   8.63928E+00  7.79728E+00  1.33057E+01  1.34262E+01 -1.43972E+00  5.56189E+00  8.31452E+00  8.05429E+00  4.20313E+00  8.79067E+00
   4.32484E+00 -7.34409E-01 -2.42338E+00  6.67281E+00 -3.20456E+00 -1.52516E+00  3.99046E-01  1.07958E-01  2.81870E+00  3.30770E+00
   5.19717E+00 -2.03815E+00 -3.25937E+00  1.06336E+00  2.58093E+00  2.63199E+00 -2.57083E-01  5.01852E+00 -2.74741E+00 -3.11339E-02
   3.92910E+00 -8.39730E-01 -3.77862E-01  2.67275E+00 -1.39972E+01 -5.73615E+00 -3.72695E+00  6.40651E+00 -3.15482E+00 -7.45764E+00
  -4.11727E+00 -1.86777E+00 -8.52952E+00 -5.05836E+00 -6.69522E+00 -9.02160E+00 -9.79751E+00  1.84068E+00 -1.48680E-01  2.60265E-01
  -6.60552E+00 -3.91016E+00 -5.91618E+00  6.70180E+00 -2.93999E+00 -4.29330E+00 -8.78356E+00 -3.97155E+00 -3.17222E+00  1.67134E+00
  -2.97310E+00 -1.26845E+01 -1.96841E+00  9.17649E-02 -7.33059E-01  2.48393E+00 -9.98090E+00 -5.79121E+00 -8.29406E+00 -3.15612E+00
  -7.27959E+00 -9.08158E+00 -8.62768E+00 -8.11977E-01 -5.04416E+00 -3.93167E+00 -1.18464E+00 -8.64327E+00 -1.08867E+01 -1.09116E+01
  -7.58138E+00 -8.02847E+00 -1.46303E+01 -6.86577E+00 -3.46579E+00 -8.54602E+00 -7.09957E+00 -4.07883E+00 -3.70333E+00 -1.03327E+01
  -8.89274E+00 -8.59673E+00  3.22029E-01 -4.16463E+00 -5.47062E+00 -3.55960E+00 -7.17615E+00 -2.09892E+00 -9.19576E+00 -6.09957E-01
  -8.99324E+00 -1.05463E+01 -8.00840E+00 -8.04463E+00 -1.89284E+01 -7.25822E+00 -6.09903E+00 -7.35174E+00 -9.97786E+00 -5.23958E+00
  -7.20382E+00 -3.03838E+00 -5.52947E+00 -6.77436E+00 -4.11729E+00 -7.31925E+00 -4.37692E+00 -1.78220E+01 -1.08917E+00 -5.60617E+00
  -1.94488E+01 -5.28389E+00 -7.95683E+00 -7.45387E+00 -5.53141E+00 -7.96985E+00 -1.07015E+01 -5.72598E+00 -1.07727E+01 -1.06537E+01
  -7.99603E+00 -6.86635E+00 -5.11218E+00 -1.84090E+01 -1.32121E+01 -1.03130E+01 -7.08449E+00 -5.88844E+00 -6.11849E+00 -6.34527E+00
  -6.14877E+00 -7.06336E+00 -7.08521E+00 -7.63695E+00 -9.50867E+00 -6.16195E+00 -9.57289E+00 -2.33607E+00
 NY points of the fit to the data follow
   5.57760E+00  5.42638E+00  8.39213E+00  1.30212E+01  1.75281E+01  2.23811E+01  2.76225E+01  3.32011E+01  3.91445E+01  4.53915E+01
   5.13716E+01  5.58911E+01  5.76548E+01  5.60513E+01  5.19367E+01  4.68655E+01  4.09877E+01  3.39740E+01  2.62218E+01  1.96950E+01
   1.69040E+01  1.69282E+01  1.72522E+01  1.61144E+01  1.58111E+01  1.71225E+01  1.88980E+01  2.13990E+01  2.45996E+01  2.78265E+01
   3.02760E+01  3.09679E+01  2.97211E+01  2.71699E+01  2.36765E+01  1.92085E+01  1.45899E+01  1.20219E+01  1.18789E+01  1.28936E+01
   1.37621E+01  1.43221E+01  1.56541E+01  1.75361E+01  1.96389E+01  2.13869E+01  2.24393E+01  2.20909E+01  2.00447E+01  1.72250E+01
   1.42867E+01  1.12406E+01  8.23302E+00  5.43948E+00  3.25218E+00  2.22412E+00  2.36583E+00  2.54031E+00  1.85862E+00  1.11279E+00
   6.79917E-01  1.74538E-01 -6.79241E-01 -1.68184E+00 -2.59970E+00 -3.31961E+00 -3.78227E+00 -3.90205E+00 -3.55374E+00 -3.03347E+00
  -2.72189E+00 -2.64926E+00 -2.92754E+00 -3.44220E+00 -4.02133E+00 -4.58488E+00 -4.99574E+00 -4.83948E+00 -4.79046E+00 -5.01903E+00
  -5.14630E+00 -5.05899E+00 -5.03427E+00 -4.94032E+00 -4.57059E+00 -4.21333E+00 -4.09752E+00 -4.60403E+00 -5.74157E+00 -7.05745E+00
  -8.16566E+00 -9.08862E+00 -9.62415E+00 -7.90824E+00 -6.08250E-01  8.57772E+00  1.65678E+01  2.42176E+01  3.22595E+01  4.13873E+01
   5.15201E+01  6.25214E+01  7.28797E+01  8.00842E+01  8.16372E+01  7.69105E+01  6.81016E+01  5.76385E+01  4.59886E+01  3.31110E+01
   2.01966E+01  9.79081E+00  3.70853E+00  7.27111E-01 -2.91840E+00 -8.61564E+00 -1.13976E+01 -1.02749E+01 -4.25790E+00  3.77845E+00
   1.09468E+01  1.81395E+01  2.61332E+01  3.48055E+01  4.40875E+01  5.37395E+01  6.25959E+01  6.88215E+01  7.04266E+01  6.68566E+01
   5.99171E+01  5.16746E+01  4.23449E+01  3.15499E+01  2.01546E+01  1.03543E+01  4.12620E+00  1.07332E+00 -1.75689E+00 -6.23576E+00
  -8.77817E+00 -8.99806E+00 -8.78420E+00 -8.78715E+00 -9.32059E+00 -1.02276E+01 -1.10962E+01 -1.19476E+01 -1.27648E+01 -1.34500E+01
  -1.42088E+01 -1.52021E+01 -1.62275E+01 -1.71812E+01 -1.78299E+01 -1.82219E+01 -1.86574E+01 -1.92180E+01 -1.98688E+01 -2.05860E+01
  -2.13158E+01 -2.19057E+01 -2.23383E+01 -2.28027E+01 -2.34530E+01 -2.43434E+01 -2.54801E+01 -2.65853E+01 -2.75292E+01 -2.85394E+01
  -2.96828E+01 -3.08077E+01 -3.16530E+01 -3.23852E+01 -3.30575E+01 -3.37705E+01 -3.44387E+01 -3.48848E+01 -3.51267E+01 -3.51979E+01
  -3.49584E+01 -3.42438E+01 -3.31738E+01 -3.21445E+01 -3.13724E+01 -3.04952E+01 -2.92784E+01 -2.78054E+01 -2.67347E+01 -2.59860E+01
  -2.53514E+01 -2.47449E+01 -2.42362E+01 -2.40453E+01 -2.39740E+01 -2.37400E+01 -2.31008E+01 -2.20066E+01 -2.03897E+01 -1.89228E+01
  -1.82195E+01 -1.76494E+01 -1.73949E+01 -1.81076E+01 -1.94853E+01 -2.12760E+01 -2.31669E+01 -2.52813E+01 -2.69863E+01 -2.72770E+01
  -2.61434E+01 -2.39346E+01 -2.15245E+01 -1.89221E+01 -1.58502E+01 -1.30847E+01 -1.18138E+01 -1.21836E+01 -1.36637E+01 -1.54918E+01
  -1.68216E+01 -1.76157E+01 -1.81909E+01 -1.71592E+01 -1.44739E+01 -1.17188E+01 -9.65603E+00 -7.74474E+00 -5.32326E+00 -3.38411E+00
  -2.34596E+00 -1.59428E+00 -8.31414E-01  5.50734E-02  1.04312E+00  1.98629E+00  3.16699E+00  4.52561E+00  5.48967E+00  5.68356E+00
   5.29558E+00  4.87896E+00  4.88125E+00  5.42385E+00  6.41920E+00  8.25157E+00  1.13986E+01  1.51899E+01  1.87284E+01  2.38719E+01
   3.52668E+01  4.89977E+01  6.05443E+01  7.17567E+01  8.36172E+01  9.50070E+01  1.05766E+02  1.16576E+02  1.26390E+02  1.32646E+02
   1.32561E+02  1.24920E+02  1.12120E+02  9.76052E+01  8.20395E+01  6.50794E+01  4.75662E+01  3.22418E+01  2.20839E+01  1.65002E+01
   1.09011E+01  2.27632E+00 -3.77695E+00 -6.28150E+00 -7.99759E+00 -9.52035E+00 -1.08334E+01 -1.20525E+01 -1.33090E+01 -1.45411E+01
  -1.57115E+01 -1.67790E+01 -1.77038E+01 -1.84854E+01 -1.91952E+01 -1.98492E+01 -2.04168E+01 -2.09087E+01 -2.13432E+01 -2.17332E+01
  -2.20830E+01 -2.23839E+01 -2.26400E+01 -2.28719E+01 -2.30776E+01 -2.32515E+01 -2.33965E+01 -2.35171E+01 -2.36013E+01 -2.36396E+01
  -2.36301E+01 -2.35655E+01 -2.34376E+01 -2.32454E+01 -2.29760E+01 -2.26116E+01 -2.21401E+01 -2.15464E+01 -2.08108E+01 -1.99099E+01
  -1.88206E+01 -1.75250E+01 -1.60027E+01 -1.42328E+01 -1.21944E+01 -9.85794E+00 -7.16395E+00 -3.96384E+00 -4.09644E-01  2.82614E+00
   5.81719E+00  8.74757E+00  1.15032E+01  1.39154E+01  1.58457E+01  1.72919E+01  1.85712E+01  1.93063E+01  1.92163E+01  1.86598E+01
   1.80883E+01  1.75991E+01  1.71786E+01  1.70629E+01  1.74420E+01  1.82629E+01  1.90338E+01  1.91025E+01  1.82949E+01  1.71842E+01
   1.62149E+01  1.49120E+01  1.32366E+01  1.15220E+01  1.01813E+01  9.36591E+00  8.71621E+00  7.85356E+00  7.26190E+00  7.01127E+00
   6.96709E+00  7.05400E+00  7.21884E+00  7.41782E+00  7.61320E+00  7.77260E+00  7.86916E+00  7.88192E+00  7.79594E+00  7.60197E+00
   7.29600E+00  6.87869E+00  6.35500E+00  5.73377E+00  5.02696E+00  4.24870E+00  3.41440E+00  2.54021E+00  1.64257E+00  7.37839E-01
  -1.58210E-01 -1.03098E+00 -1.86733E+00 -2.65562E+00 -3.38559E+00 -4.04834E+00 -4.63654E+00 -5.14450E+00 -5.56806E+00 -5.90434E+00
  -6.15151E+00 -6.30880E+00 -6.37660E+00 -6.35649E+00 -6.25114E+00 -6.06413E+00 -5.79989E+00 -5.46384E+00 -5.06262E+00 -4.60405E+00
  -4.09704E+00 -3.55134E+00 -2.97756E+00 -2.38719E+00 -1.79254E+00 -1.20644E+00 -6.41827E-01 -1.11309E-01  3.73023E-01  7.99816E-01
   1.15878E+00  1.44114E+00  1.64005E+00  1.75084E+00  1.77102E+00  1.70017E+00  1.54003E+00  1.29449E+00  9.69502E-01  5.72717E-01
   1.13015E-01 -3.99900E-01 -9.55771E-01 -1.54402E+00 -2.15406E+00 -2.77574E+00 -3.39975E+00 -4.01775E+00 -4.62242E+00 -5.20743E+00
  -5.76753E+00 -6.29865E+00 -6.79791E+00 -7.26351E+00 -7.69441E+00 -8.09020E+00 -8.45110E+00 -8.77793E+00 -9.07202E+00 -9.33497E+00
  -9.56846E+00 -9.77418E+00 -9.95394E+00 -1.01096E+01 -1.02432E+01 -1.03565E+01 -1.04511E+01 -1.05285E+01 -1.05900E+01 -1.06372E+01
  -1.06713E+01 -1.06936E+01 -1.07049E+01 -1.07061E+01 -1.06981E+01 -1.06818E+01 -1.06580E+01 -1.06272E+01 -1.05898E+01 -1.05465E+01
  -1.04978E+01 -1.04441E+01 -1.03860E+01 -1.03236E+01 -1.02572E+01 -1.01870E+01 -1.01135E+01 -1.00370E+01 -9.95760E+00 -9.87542E+00
  -9.79060E+00 -9.70336E+00 -9.61396E+00 -9.52258E+00 -9.42925E+00 -9.33398E+00 -9.23691E+00 -9.13822E+00 -9.03810E+00 -8.93661E+00
  -8.83371E+00 -8.72941E+00 -8.62385E+00 -8.51719E+00 -8.40951E+00 -8.30081E+00 -8.19104E+00 -8.08023E+00 -7.96852E+00 -7.85604E+00
  -7.74280E+00 -7.62875E+00 -7.51385E+00 -7.39817E+00 -7.28183E+00 -7.16492E+00 -7.04739E+00 -6.92916E+00 -6.81022E+00 -6.69068E+00
  -6.57064E+00 -6.45011E+00 -6.32901E+00 -6.20725E+00 -6.08487E+00 -5.96197E+00 -5.83860E+00 -5.71469E+00
 NY background values follow
    -1.004E+01   -1.013E+01   -1.023E+01   -1.033E+01   -1.043E+01   -1.052E+01   -1.062E+01   -1.072E+01   -1.081E+01   -1.091E+01
    -1.101E+01   -1.111E+01   -1.120E+01   -1.130E+01   -1.140E+01   -1.150E+01   -1.159E+01   -1.169E+01   -1.179E+01   -1.189E+01
    -1.198E+01   -1.208E+01   -1.218E+01   -1.228E+01   -1.238E+01   -1.247E+01   -1.257E+01   -1.267E+01   -1.277E+01   -1.287E+01
    -1.296E+01   -1.306E+01   -1.316E+01   -1.326E+01   -1.336E+01   -1.346E+01   -1.355E+01   -1.365E+01   -1.375E+01   -1.385E+01
    -1.395E+01   -1.405E+01   -1.415E+01   -1.424E+01   -1.434E+01   -1.444E+01   -1.454E+01   -1.464E+01   -1.474E+01   -1.484E+01
    -1.494E+01   -1.504E+01   -1.514E+01   -1.524E+01   -1.534E+01   -1.543E+01   -1.553E+01   -1.563E+01   -1.573E+01   -1.583E+01
    -1.593E+01   -1.603E+01   -1.613E+01   -1.623E+01   -1.633E+01   -1.643E+01   -1.653E+01   -1.663E+01   -1.673E+01   -1.682E+01
    -1.692E+01   -1.702E+01   -1.712E+01   -1.722E+01   -1.732E+01   -1.742E+01   -1.752E+01   -1.761E+01   -1.771E+01   -1.781E+01
    -1.791E+01   -1.801E+01   -1.811E+01   -1.820E+01   -1.830E+01   -1.840E+01   -1.850E+01   -1.859E+01   -1.869E+01   -1.879E+01
    -1.888E+01   -1.898E+01   -1.908E+01   -1.917E+01   -1.927E+01   -1.937E+01   -1.946E+01   -1.956E+01   -1.965E+01   -1.975E+01
    -1.984E+01   -1.994E+01   -2.003E+01   -2.013E+01   -2.022E+01   -2.032E+01   -2.041E+01   -2.050E+01   -2.060E+01   -2.069E+01
    -2.078E+01   -2.088E+01   -2.097E+01   -2.106E+01   -2.116E+01   -2.125E+01   -2.134E+01   -2.143E+01   -2.152E+01   -2.162E+01
    -2.171E+01   -2.180E+01   -2.189E+01   -2.198E+01   -2.207E+01   -2.216E+01   -2.225E+01   -2.234E+01   -2.243E+01   -2.252E+01
    -2.261E+01   -2.270E+01   -2.279E+01   -2.288E+01   -2.297E+01   -2.306E+01   -2.314E+01   -2.323E+01   -2.332E+01   -2.341E+01
    -2.349E+01   -2.358E+01   -2.367E+01   -2.375E+01   -2.384E+01   -2.393E+01   -2.401E+01   -2.410E+01   -2.418E+01   -2.427E+01
    -2.435E+01   -2.443E+01   -2.452E+01   -2.460E+01   -2.468E+01   -2.477E+01   -2.485E+01   -2.493E+01   -2.501E+01   -2.509E+01
    -2.517E+01   -2.525E+01   -2.533E+01   -2.541E+01   -2.549E+01   -2.556E+01   -2.564E+01   -2.572E+01   -2.579E+01   -2.587E+01
    -2.594E+01   -2.602E+01   -2.609E+01   -2.616E+01   -2.624E+01   -2.631E+01   -2.638E+01   -2.645E+01   -2.652E+01   -2.659E+01
    -2.666E+01   -2.673E+01   -2.679E+01   -2.686E+01   -2.693E+01   -2.699E+01   -2.706E+01   -2.712E+01   -2.718E+01   -2.725E+01
    -2.731E+01   -2.737E+01   -2.743E+01   -2.749E+01   -2.755E+01   -2.761E+01   -2.767E+01   -2.772E+01   -2.778E+01   -2.784E+01
    -2.789E+01   -2.795E+01   -2.800E+01   -2.805E+01   -2.811E+01   -2.816E+01   -2.821E+01   -2.826E+01   -2.831E+01   -2.836E+01
    -2.841E+01   -2.846E+01   -2.851E+01   -2.856E+01   -2.860E+01   -2.865E+01   -2.869E+01   -2.874E+01   -2.878E+01   -2.883E+01
    -2.887E+01   -2.892E+01   -2.896E+01   -2.900E+01   -2.904E+01   -2.908E+01   -2.912E+01   -2.916E+01   -2.920E+01   -2.924E+01
    -2.928E+01   -2.931E+01   -2.935E+01   -2.939E+01   -2.942E+01   -2.946E+01   -2.949E+01   -2.952E+01   -2.956E+01   -2.959E+01
    -2.962E+01   -2.965E+01   -2.968E+01   -2.971E+01   -2.974E+01   -2.977E+01   -2.979E+01   -2.982E+01   -2.984E+01   -2.987E+01
    -2.989E+01   -2.991E+01   -2.994E+01   -2.996E+01   -2.998E+01   -3.000E+01   -3.002E+01   -3.003E+01   -3.005E+01   -3.006E+01
    -3.008E+01   -3.009E+01   -3.010E+01   -3.012E+01   -3.013E+01   -3.014E+01   -3.014E+01   -3.015E+01   -3.016E+01   -3.016E+01
    -3.017E+01   -3.017E+01   -3.017E+01   -3.017E+01   -3.017E+01   -3.017E+01   -3.017E+01   -3.016E+01   -3.016E+01   -3.015E+01
    -3.014E+01   -3.014E+01   -3.013E+01   -3.012E+01   -3.010E+01   -3.009E+01   -3.007E+01   -3.006E+01   -3.004E+01   -3.002E+01
    -3.000E+01   -2.998E+01   -2.996E+01   -2.994E+01   -2.991E+01   -2.989E+01   -2.986E+01   -2.983E+01   -2.980E+01   -2.977E+01
    -2.974E+01   -2.970E+01   -2.967E+01   -2.963E+01   -2.959E+01   -2.955E+01   -2.951E+01   -2.947E+01   -2.943E+01   -2.938E+01
    -2.934E+01   -2.929E+01   -2.924E+01   -2.919E+01   -2.914E+01   -2.908E+01   -2.903E+01   -2.897E+01   -2.891E+01   -2.885E+01
    -2.879E+01   -2.873E+01   -2.867E+01   -2.860E+01   -2.854E+01   -2.847E+01   -2.840E+01   -2.833E+01   -2.826E+01   -2.818E+01
    -2.811E+01   -2.803E+01   -2.796E+01   -2.788E+01   -2.780E+01   -2.772E+01   -2.764E+01   -2.756E+01   -2.747E+01   -2.739E+01
    -2.730E+01   -2.721E+01   -2.713E+01   -2.704E+01   -2.695E+01   -2.686E+01   -2.676E+01   -2.667E+01   -2.657E+01   -2.648E+01
    -2.638E+01   -2.629E+01   -2.619E+01   -2.609E+01   -2.599E+01   -2.589E+01   -2.578E+01   -2.568E+01   -2.558E+01   -2.547E+01
    -2.537E+01   -2.526E+01   -2.515E+01   -2.505E+01   -2.494E+01   -2.483E+01   -2.472E+01   -2.461E+01   -2.450E+01   -2.438E+01
    -2.427E+01   -2.416E+01   -2.404E+01   -2.393E+01   -2.381E+01   -2.369E+01   -2.358E+01   -2.346E+01   -2.334E+01   -2.322E+01
    -2.310E+01   -2.298E+01   -2.286E+01   -2.274E+01   -2.261E+01   -2.249E+01   -2.237E+01   -2.224E+01   -2.212E+01   -2.199E+01
    -2.187E+01   -2.174E+01   -2.161E+01   -2.148E+01   -2.135E+01   -2.123E+01   -2.110E+01   -2.097E+01   -2.084E+01   -2.070E+01
    -2.057E+01   -2.044E+01   -2.031E+01   -2.017E+01   -2.004E+01   -1.991E+01   -1.977E+01   -1.964E+01   -1.950E+01   -1.937E+01
    -1.923E+01   -1.909E+01   -1.896E+01   -1.882E+01   -1.868E+01   -1.854E+01   -1.840E+01   -1.827E+01   -1.813E+01   -1.799E+01
    -1.785E+01   -1.771E+01   -1.757E+01   -1.743E+01   -1.729E+01   -1.714E+01   -1.700E+01   -1.686E+01   -1.672E+01   -1.658E+01
    -1.644E+01   -1.629E+01   -1.615E+01   -1.601E+01   -1.587E+01   -1.572E+01   -1.558E+01   -1.544E+01   -1.530E+01   -1.515E+01
    -1.501E+01   -1.487E+01   -1.472E+01   -1.458E+01   -1.444E+01   -1.429E+01   -1.415E+01   -1.401E+01   -1.387E+01   -1.372E+01
    -1.358E+01   -1.344E+01   -1.329E+01   -1.315E+01   -1.301E+01   -1.287E+01   -1.273E+01   -1.258E+01   -1.244E+01   -1.230E+01
    -1.216E+01   -1.202E+01   -1.188E+01   -1.173E+01   -1.159E+01   -1.145E+01   -1.131E+01   -1.117E+01   -1.103E+01   -1.089E+01
    -1.075E+01   -1.061E+01   -1.047E+01   -1.033E+01   -1.018E+01   -1.004E+01   -9.904E+00   -9.763E+00   -9.623E+00   -9.483E+00
    -9.342E+00   -9.202E+00   -9.062E+00   -8.922E+00   -8.781E+00   -8.641E+00   -8.501E+00   -8.361E+00   -8.220E+00   -8.080E+00
    -7.940E+00   -7.800E+00   -7.660E+00   -7.519E+00   -7.379E+00   -7.239E+00   -7.099E+00   -6.958E+00
 Ala      Conc. = 9.91E+02
