 LCModel (Version 6.3-1L) Copyright: S.W. Provencher.          Ref.: Magn. Reson. Med. 30:672-679 (1993).                
 Slice#1 Row#3 Col#6  PD_24_press_2_raw_act
 36 lines in following concentration table = NCONC+1
    Conc.  %SD /Cr+PCr  Metabolite                                         
    0.000 999%   0.000 Ala                                                 
  301.743  93%   0.287 Asp                                                 
    0.000 999%   0.000 Cr                                                  
 1.05E+03  19%   1.000 PCr                                                 
  151.450 114%   0.144 GABA                                                
  114.049 150%   0.109 Glc                                                 
 3.02E+03  57%   2.878 Gln                                                 
 3.58E+03  55%   3.409 Glu                                                 
  503.145  15%   0.479 GPC                                                 
    0.000 999%   0.000 PCh                                                 
  174.225 186%   0.166 GSH                                                 
 2.30E+03  37%   2.188 Ins                                                 
    0.000 999%   0.000 Lac                                                 
 1.62E+03  33%   1.544 NAA                                                 
  968.319  57%   0.922 NAAG                                                
   64.478  79% 6.1E-02 Scyllo                                              
  123.603 220%   0.118 Tau                                                 
   35.939 667% 3.4E-02 -CrCH2                                              
  503.145  15%   0.479 GPC+PCh                                             
 2.59E+03  11%   2.466 NAA+NAAG                                            
 1.05E+03  19%   1.000 Cr+PCr                                              
 6.60E+03  50%   6.287 Glu+Gln                                             
 5.45E+03  36%   5.187 Lip13a                                              
  388.124 190%   0.370 Lip13b                                              
 1.65E+03  40%   1.576 Lip09                                               
 1.91E+03  40%   1.818 MM09                                                
  872.849  48%   0.831 Lip20                                               
 3.29E+03  34%   3.138 MM20                                                
  553.436 102%   0.527 MM12                                                
 1.47E+03  72%   1.400 MM14                                                
 1.19E+03  47%   1.129 MM17                                                
 5.83E+03  27%   5.557 Lip13a+Lip13b                                       
 7.86E+03  13%   7.484 MM14+Lip13a+Lip13b+MM12                             
 3.56E+03  13%   3.395 MM09+Lip09                                          
 4.17E+03  26%   3.970 MM20+Lip20                                          
   6 lines in following misc. output table
  FWHM = 0.092 ppm    S/N =   3                                            
  Data shift = 0.038 ppm                                                   
  Ph: -16 deg       2.2 deg/ppm                                            
  alphaB,S = 8.5E+01,   2.0E+02                                            
   14 spline knots.   Ns =11(1)                                            
   2 inflections.     1 extrema                                            
  498 points on ppm-axis = NY
      4.000000     3.992357     3.984714     3.977070     3.969427     3.961784     3.954141     3.946497     3.938854     3.931211
      3.923568     3.915925     3.908281     3.900638     3.892995     3.885352     3.877708     3.870065     3.862422     3.854779
      3.847136     3.839492     3.831849     3.824206     3.816563     3.808919     3.801276     3.793633     3.785990     3.778347
      3.770703     3.763060     3.755417     3.747774     3.740130     3.732487     3.724844     3.717201     3.709558     3.701914
      3.694271     3.686628     3.678985     3.671341     3.663698     3.656055     3.648412     3.640769     3.633125     3.625482
      3.617839     3.610196     3.602552     3.594909     3.587266     3.579623     3.571980     3.564336     3.556693     3.549050
      3.541407     3.533763     3.526120     3.518477     3.510834     3.503191     3.495547     3.487904     3.480261     3.472618
      3.464974     3.457331     3.449688     3.442045     3.434402     3.426758     3.419115     3.411472     3.403829     3.396185
      3.388542     3.380899     3.373256     3.365613     3.357969     3.350326     3.342683     3.335040     3.327396     3.319753
      3.312110     3.304467     3.296824     3.289180     3.281537     3.273894     3.266251     3.258607     3.250964     3.243321
      3.235678     3.228034     3.220391     3.212748     3.205105     3.197462     3.189818     3.182175     3.174532     3.166889
      3.159245     3.151602     3.143959     3.136316     3.128673     3.121029     3.113386     3.105743     3.098100     3.090456
      3.082813     3.075170     3.067527     3.059884     3.052240     3.044597     3.036954     3.029311     3.021667     3.014024
      3.006381     2.998738     2.991095     2.983451     2.975808     2.968165     2.960522     2.952878     2.945235     2.937592
      2.929949     2.922306     2.914662     2.907019     2.899376     2.891733     2.884089     2.876446     2.868803     2.861160
      2.853517     2.845873     2.838230     2.830587     2.822944     2.815300     2.807657     2.800014     2.792371     2.784728
      2.777084     2.769441     2.761798     2.754155     2.746511     2.738868     2.731225     2.723582     2.715939     2.708295
      2.700652     2.693009     2.685366     2.677722     2.670079     2.662436     2.654793     2.647150     2.639506     2.631863
      2.624220     2.616577     2.608933     2.601290     2.593647     2.586004     2.578361     2.570717     2.563074     2.555431
      2.547788     2.540144     2.532501     2.524858     2.517215     2.509572     2.501928     2.494285     2.486642     2.478999
      2.471355     2.463712     2.456069     2.448426     2.440783     2.433139     2.425496     2.417853     2.410210     2.402566
      2.394923     2.387280     2.379637     2.371994     2.364350     2.356707     2.349064     2.341421     2.333777     2.326134
      2.318491     2.310848     2.303205     2.295561     2.287918     2.280275     2.272632     2.264988     2.257345     2.249702
      2.242059     2.234416     2.226772     2.219129     2.211486     2.203843     2.196199     2.188556     2.180913     2.173270
      2.165627     2.157983     2.150340     2.142697     2.135054     2.127410     2.119767     2.112124     2.104481     2.096838
      2.089194     2.081551     2.073908     2.066265     2.058621     2.050978     2.043335     2.035692     2.028049     2.020405
      2.012762     2.005119     1.997476     1.989833     1.982190     1.974546     1.966903     1.959260     1.951617     1.943974
      1.936331     1.928688     1.921045     1.913402     1.905759     1.898115     1.890472     1.882829     1.875186     1.867543
      1.859900     1.852257     1.844614     1.836971     1.829327     1.821684     1.814041     1.806398     1.798755     1.791112
      1.783469     1.775826     1.768183     1.760540     1.752896     1.745253     1.737610     1.729967     1.722324     1.714681
      1.707038     1.699395     1.691752     1.684108     1.676465     1.668822     1.661179     1.653536     1.645893     1.638250
      1.630607     1.622964     1.615321     1.607677     1.600034     1.592391     1.584748     1.577105     1.569462     1.561819
      1.554176     1.546533     1.538890     1.531246     1.523603     1.515960     1.508317     1.500674     1.493031     1.485388
      1.477745     1.470102     1.462458     1.454815     1.447172     1.439529     1.431886     1.424243     1.416600     1.408957
      1.401314     1.393671     1.386027     1.378384     1.370741     1.363098     1.355455     1.347812     1.340169     1.332526
      1.324883     1.317240     1.309596     1.301953     1.294310     1.286667     1.279024     1.271381     1.263738     1.256095
      1.248452     1.240808     1.233165     1.225522     1.217879     1.210236     1.202593     1.194950     1.187307     1.179664
      1.172021     1.164377     1.156734     1.149091     1.141448     1.133805     1.126162     1.118519     1.110876     1.103233
      1.095590     1.087946     1.080303     1.072660     1.065017     1.057374     1.049731     1.042088     1.034445     1.026802
      1.019158     1.011515     1.003872     0.996229     0.988586     0.980943     0.973300     0.965657     0.958014     0.950371
      0.942727     0.935084     0.927441     0.919798     0.912155     0.904512     0.896869     0.889226     0.881583     0.873940
      0.866296     0.858653     0.851010     0.843367     0.835724     0.828081     0.820438     0.812795     0.805152     0.797508
      0.789865     0.782222     0.774579     0.766936     0.759293     0.751650     0.744007     0.736364     0.728721     0.721077
      0.713434     0.705791     0.698148     0.690505     0.682862     0.675219     0.667576     0.659933     0.652290     0.644646
      0.637003     0.629360     0.621717     0.614074     0.606431     0.598788     0.591145     0.583502     0.575858     0.568215
      0.560572     0.552929     0.545286     0.537643     0.530000     0.522357     0.514714     0.507071     0.499427     0.491784
      0.484141     0.476498     0.468855     0.461212     0.453569     0.445925     0.438282     0.430639     0.422996     0.415353
      0.407710     0.400067     0.392424     0.384780     0.377137     0.369494     0.361851     0.354208     0.346565     0.338922
      0.331278     0.323635     0.315992     0.308349     0.300706     0.293063     0.285420     0.277777     0.270133     0.262490
      0.254847     0.247204     0.239561     0.231918     0.224275     0.216631     0.208988     0.201345
 NY phased data points follow
   2.97707E+01  3.71805E+01  1.27791E+01  5.04184E+00  5.54139E+00  2.85339E+01  7.34107E+00  1.74103E+01  6.47212E+00  3.91956E+01
   2.37930E+01  4.73153E+01  1.57015E+01  3.42445E+01  2.40525E+01  2.19923E+01 -1.08553E+01 -4.72881E+00  1.16917E+00  1.42979E+01
   3.59764E+00  3.15994E+01  1.20404E+00  3.89552E+01  1.95659E+01  1.71389E+01 -5.69266E+00  4.19960E+00  1.56820E+00  1.59336E+01
   1.01885E+01  2.91479E+01  9.29991E+00  2.23108E+01  7.80902E+00  7.70530E+00  4.49359E+00  2.14202E+01  2.96780E+00  1.70810E+01
  -3.37266E+00  1.85467E+01  2.78328E+01  1.40909E+01  4.00279E+00  2.46836E+01  2.56585E+01  2.52384E+01  2.14254E+01  2.36145E+01
   6.47406E+00  7.02485E+00  5.38102E+00  2.32613E+01  8.15065E+00  3.77434E+01  2.92775E+01  1.91960E+01  1.52506E+01  4.22438E+00
   1.55397E+01  1.51517E+01 -4.17822E+00  1.24597E+01  5.84435E+00  1.26242E+01 -1.04650E+01 -2.21609E+00 -1.20960E+01  1.61222E+00
   1.18989E+00  8.66945E+00 -4.26997E+00 -2.76706E+00  3.32060E+00  2.79728E+01  3.41374E-01 -2.71910E+00  2.56128E+00  1.14511E+01
   6.02401E+00  7.10739E-02  5.80398E+00 -1.29173E+01  1.69456E+01  1.07203E+00  8.31563E+00  6.47155E+00 -4.78462E+00  1.55419E+01
   6.69504E+00  9.45306E+00  1.37503E+01  5.82555E+00  5.12568E+00  1.67649E+01  4.44996E+00  1.68641E+01  1.11835E+01  3.27728E+01
   2.85559E+01  2.95133E+01  3.47795E+01  3.63738E+01  2.74453E+01  2.24804E+01  2.57320E+01  1.65531E+01  5.06779E+00  3.82874E+01
   5.64058E+00  1.76300E+01  5.20065E+00  3.28183E+01  1.46046E+00  1.71831E+01  1.21250E+01  5.67583E+00  1.62626E+01  2.35671E+01
   2.06071E+00  1.98109E+01  4.16416E+00  2.31384E+01  6.53990E+00  3.58758E+01  1.48507E+01  2.04701E+01  3.05917E+01  2.01274E+01
   2.11712E+01  2.59681E+01  1.88965E+01  2.39786E+01  2.49675E+00  2.58707E+01  1.44402E+01  9.25172E+00  5.81563E+00  5.98060E+00
   1.56285E+01  1.80351E+01 -4.41484E+00  2.03482E+01 -2.88374E+00  1.23959E+01 -3.63416E+00 -4.19821E+00 -1.00340E-01 -7.58630E+00
   1.03150E+01  2.06335E+01  5.90258E+00  5.12525E+00 -7.67110E+00  8.20537E+00  1.01083E+01  1.33748E+00  7.53315E+00 -7.62873E-01
  -6.04313E+00 -6.72666E+00 -6.90062E+00 -2.72042E+00 -4.53471E+00 -1.88710E+01  3.87298E+00 -6.27023E-01  1.57262E+01  8.61677E+00
  -1.60029E+01 -3.69837E+00 -9.11206E+00  1.55615E-02 -8.15510E+00 -3.58663E+00 -1.20217E+01  2.09614E+00 -6.39414E+00 -1.50931E+01
   2.20776E+00 -6.83222E+00  6.24393E+00  2.73172E+00 -1.35144E+00  3.02191E+00 -3.80125E+00 -1.16621E+01 -2.14690E+00  8.47422E+00
   5.92602E+00  5.66791E+00 -8.75401E+00 -7.90124E+00 -2.43950E+00 -1.07500E+01 -1.68624E+01 -1.71252E+00 -1.43920E+01 -1.09308E+01
  -5.50475E+00  1.89930E+00 -5.35622E+00 -7.04820E+00 -4.76801E+00 -4.02534E+00 -2.68969E+00  6.81186E+00 -3.67433E+00  2.86128E+00
   3.68090E+00  1.47353E+01  1.57879E+01  6.86553E+00  9.94903E+00  6.69057E+00  1.09037E+01 -8.85698E+00  1.84936E+00  7.67531E+00
   7.99426E-01  1.27548E+00  3.81800E+00  1.04836E+01 -2.30138E+00  1.60414E+01  6.20984E+00  1.01994E+01 -1.43418E+01  1.82304E+01
   1.18628E+01  1.67045E+01  1.10727E+01  4.81528E+00 -2.34222E+00  1.38402E+01  1.68703E+01  2.29322E+01  1.07292E+01  1.18861E+01
   1.81091E+01  3.34479E+01  1.85812E+01  1.25770E+01  1.10526E+01  2.20089E+01  1.91285E+01 -2.56702E+00  3.44965E+00  9.26263E+00
   2.08475E+01  1.56097E+01  2.92168E+01  4.26614E+01  4.48977E+01  7.50991E+01  5.41276E+01  5.35444E+01  7.22469E+01  6.97193E+01
   6.20076E+01  6.79489E+01  4.95549E+01  6.37014E+01  4.24941E+01  3.94697E+01  3.73464E+01  4.76557E+01  1.98349E+01  3.21014E+01
   8.64808E+00  1.39274E+01  5.79500E+00  1.31977E+01 -2.22385E+00  6.56038E+00  3.94107E+00  1.43063E+01 -1.25214E+01  1.51055E+01
   8.96317E+00  1.06155E+01  1.00791E+01  1.58987E+01 -1.89714E+00  1.51071E+01 -4.54103E+00  9.05813E+00 -4.32683E+00  8.42926E+00
   9.15312E+00  8.64975E+00  1.05114E+01  2.10476E+01 -3.55353E+00  4.31093E+00  1.33187E+01  4.25263E+00  9.97620E+00  2.14239E+01
   1.80638E+01  5.75328E+00  9.29207E+00  2.00779E+01 -7.08202E+00  1.23442E+01  9.26883E+00  1.03681E+01  8.90950E+00 -3.50287E-01
   4.34999E+00  2.06112E+01 -1.91003E+00  3.00865E+00 -4.78756E+00  1.48287E+01  2.25466E+01  1.93644E+01  2.60381E+01  5.63377E+00
   8.63531E+00  1.36875E+01 -5.39735E+00  7.02101E+00  9.48027E+00  1.81140E+01 -3.00008E+00  1.50969E+01  2.74861E+01  2.45106E+01
   8.07200E+00  4.97539E+00  2.27783E+01  1.20280E+01  1.72256E+01  8.69801E+00  1.80239E+01  8.14613E+00  1.36646E+01  3.35035E+00
   1.04179E+01  1.40028E+01  2.47636E+01  1.51547E+01  2.43051E+01  3.63704E+01  2.41846E+01  3.18209E+01  1.61914E+01  3.22591E+01
   2.95526E+01  3.21151E+01  3.21778E+01  3.35287E+01  1.80166E+01  3.44553E+01  2.40980E+01  3.89862E+01  2.73366E+01  3.65224E+01
   2.53241E+01  3.28890E+01  3.62126E+00  3.55573E+01  2.59752E+01  1.68664E+01  2.09754E+01  2.29343E+01 -4.11226E+00  1.55393E+01
   1.60797E+01  1.65175E+01  3.14527E+01  1.71837E+01  5.46399E+00  1.52173E+01  9.73369E+00  1.27847E+01  2.03243E+01  9.36019E+00
   6.67556E+00  1.23895E+01  9.60545E+00  2.96816E+01  1.49479E+01  6.32051E+00  2.95765E+01  1.33429E+01  1.86116E+01  4.74042E+01
   4.26672E+00  2.35846E+01  2.14896E+01  2.17826E+01  1.64899E+01  2.10163E+01  1.15769E+01  2.57208E+01 -3.04349E+00  8.05946E+00
   2.36523E+01  4.29802E+00  1.71673E+01  2.10150E+01  2.75205E+01  3.65964E+01  2.27214E+01  2.33681E+01  1.49354E+01  3.54958E+01
   1.54305E+01  1.50449E+01  1.76925E+01  1.91828E+01  2.99503E+01  1.33658E+01  1.99771E+01  2.51556E+01  1.38623E+01  2.25579E+01
   1.88396E+01  1.98764E+01  8.92947E+00  2.99979E+01  1.02659E+01  1.34552E+01  2.29536E+01  9.45703E+00  1.96621E+01  8.49288E+00
   1.80939E+01  5.29663E+00  2.71297E-01 -5.37152E+00 -3.17172E+00  8.19269E+00 -9.66062E+00 -1.35573E+01 -5.11678E+00 -1.57911E+00
  -9.24309E+00  7.47201E+00  7.65762E+00  6.85327E+00  1.62155E+01 -1.95668E+01 -1.55776E+00  9.28161E+00  1.50408E+01 -2.88666E+00
  -7.59167E+00 -8.18127E+00  1.29588E+00  1.81539E+00 -6.96362E+00 -3.09884E-01 -7.76968E+00  4.21729E+00 -1.62371E+01 -1.03308E+01
  -4.59626E+00  2.23791E+00 -8.40580E+00  9.27313E+00  2.58127E+00  1.42018E+00 -3.80938E+00 -5.09835E+00 -6.86344E+00  2.98286E+00
   1.65730E+00  8.61388E+00 -2.70929E+00  5.09710E+00  1.68967E+00 -7.41271E+00 -9.77169E+00 -1.35200E+01 -1.03052E+01 -2.46622E+00
  -1.61773E+01  6.95477E+00  9.35644E+00 -8.49202E+00  6.27040E+00 -1.08026E+01  4.51354E+00  6.37884E+00  5.63689E+00 -2.04060E+00
   4.72634E+00  2.74184E+01  5.99906E+00 -4.42273E+00  2.51702E+00 -4.45759E+00  1.60055E+00 -1.85144E+00
 NY points of the fit to the data follow
   1.37420E+01  1.40141E+01  1.45807E+01  1.54927E+01  1.67079E+01  1.81562E+01  1.96849E+01  2.09810E+01  2.18099E+01  2.21034E+01
   2.18961E+01  2.13210E+01  2.05334E+01  1.96548E+01  1.87561E+01  1.78099E+01  1.67113E+01  1.54227E+01  1.40325E+01  1.26709E+01
   1.14477E+01  1.05690E+01  1.01830E+01  1.00462E+01  9.96856E+00  1.00155E+01  1.03449E+01  1.10655E+01  1.21826E+01  1.35432E+01
   1.47982E+01  1.55734E+01  1.56565E+01  1.50851E+01  1.41361E+01  1.31916E+01  1.26006E+01  1.25542E+01  1.29712E+01  1.35488E+01
   1.39998E+01  1.42806E+01  1.45471E+01  1.49537E+01  1.55742E+01  1.64248E+01  1.72612E+01  1.77058E+01  1.75951E+01  1.69740E+01
   1.60028E+01  1.48821E+01  1.38222E+01  1.29317E+01  1.21549E+01  1.14430E+01  1.07826E+01  1.01475E+01  9.54242E+00  9.02616E+00
   8.67720E+00  8.51283E+00  8.42967E+00  8.35540E+00  8.30188E+00  8.30228E+00  8.34978E+00  8.41396E+00  8.46763E+00  8.49148E+00
   8.47232E+00  8.41470E+00  8.36412E+00  8.34573E+00  8.34102E+00  8.33931E+00  8.28457E+00  8.13293E+00  7.87584E+00  7.53648E+00
   7.15039E+00  6.72795E+00  6.25937E+00  5.73029E+00  5.14817E+00  4.56169E+00  4.00533E+00  3.52310E+00  3.17504E+00  2.98822E+00
   2.96734E+00  3.22415E+00  4.06411E+00  5.40207E+00  7.10112E+00  9.20036E+00  1.18205E+01  1.50574E+01  1.88326E+01  2.28624E+01
   2.66325E+01  2.95542E+01  3.11847E+01  3.14164E+01  3.04740E+01  2.87508E+01  2.66187E+01  2.43407E+01  2.20100E+01  1.95586E+01
   1.68822E+01  1.40076E+01  1.10764E+01  8.27802E+00  5.90324E+00  4.45724E+00  4.41710E+00  5.24436E+00  6.49034E+00  8.10524E+00
   1.01383E+01  1.26318E+01  1.55070E+01  1.85531E+01  2.14361E+01  2.37619E+01  2.51946E+01  2.56120E+01  2.51396E+01  2.40347E+01
   2.25481E+01  2.08590E+01  1.90376E+01  1.70556E+01  1.48789E+01  1.25707E+01  1.02513E+01  8.05870E+00  6.17549E+00  4.86441E+00
   4.28125E+00  4.05877E+00  3.91806E+00  3.80058E+00  3.68695E+00  3.57205E+00  3.45394E+00  3.32521E+00  3.17230E+00  2.98275E+00
   2.74693E+00  2.47775E+00  2.20487E+00  1.94871E+00  1.71551E+00  1.48498E+00  1.23579E+00  9.66110E-01  6.84967E-01  4.09064E-01
   1.58740E-01 -4.98335E-02 -2.21864E-01 -3.82547E-01 -5.63883E-01 -7.90946E-01 -1.05531E+00 -1.32461E+00 -1.57266E+00 -1.78561E+00
  -1.98169E+00 -2.17934E+00 -2.38893E+00 -2.61073E+00 -2.82849E+00 -3.01166E+00 -3.14306E+00 -3.20696E+00 -3.19154E+00 -3.10762E+00
  -2.94657E+00 -2.69314E+00 -2.35400E+00 -1.96130E+00 -1.52799E+00 -1.07474E+00 -6.50501E-01 -3.06630E-01 -9.66046E-02 -5.16235E-02
  -1.39399E-01 -2.82540E-01 -4.17255E-01 -4.76206E-01 -3.52868E-01  6.62026E-02  8.14702E-01  1.87827E+00  3.11223E+00  4.20330E+00
   4.95077E+00  5.30786E+00  5.16376E+00  4.44415E+00  3.20569E+00  1.70567E+00  1.61639E-01 -1.15886E+00 -1.90870E+00 -1.84230E+00
  -9.66840E-01  4.03855E-01  1.86013E+00  3.09778E+00  3.89537E+00  4.10401E+00  3.77019E+00  3.13311E+00  2.52912E+00  2.20215E+00
   2.24485E+00  2.67466E+00  3.30868E+00  3.86082E+00  4.33206E+00  4.76370E+00  5.11821E+00  5.52684E+00  6.19175E+00  7.23104E+00
   8.45922E+00  9.70433E+00  1.07850E+01  1.16395E+01  1.22182E+01  1.24822E+01  1.25507E+01  1.26004E+01  1.26183E+01  1.24749E+01
   1.21584E+01  1.17405E+01  1.13706E+01  1.11782E+01  1.12631E+01  1.18670E+01  1.30249E+01  1.46118E+01  1.66198E+01  1.93938E+01
   2.33174E+01  2.82159E+01  3.37863E+01  3.97555E+01  4.58429E+01  5.16384E+01  5.67168E+01  6.09104E+01  6.39459E+01  6.54201E+01
   6.50946E+01  6.30567E+01  5.95721E+01  5.50076E+01  4.98314E+01  4.44534E+01  3.90742E+01  3.37617E+01  2.87238E+01  2.42547E+01
   2.02129E+01  1.65127E+01  1.34706E+01  1.15452E+01  1.05627E+01  9.88022E+00  9.31641E+00  8.84259E+00  8.42584E+00  8.05999E+00
   7.75359E+00  7.48770E+00  7.24456E+00  7.01429E+00  6.79947E+00  6.61408E+00  6.48628E+00  6.43792E+00  6.46818E+00  6.56524E+00
   6.71361E+00  6.90140E+00  7.11730E+00  7.34772E+00  7.58453E+00  7.82942E+00  8.08468E+00  8.34887E+00  8.61580E+00  8.87949E+00
   9.12932E+00  9.35368E+00  9.54362E+00  9.69215E+00  9.79605E+00  9.85917E+00  9.88370E+00  9.87010E+00  9.82095E+00  9.74060E+00
   9.63441E+00  9.50802E+00  9.36787E+00  9.22462E+00  9.08941E+00  8.97187E+00  8.88101E+00  8.82418E+00  8.80729E+00  8.83507E+00
   8.91085E+00  9.03658E+00  9.21298E+00  9.43959E+00  9.71492E+00  1.00366E+01  1.04015E+01  1.08061E+01  1.12464E+01  1.17185E+01
   1.22187E+01  1.27435E+01  1.32896E+01  1.38544E+01  1.44360E+01  1.50328E+01  1.56440E+01  1.62696E+01  1.69101E+01  1.75671E+01
   1.82432E+01  1.89420E+01  1.96690E+01  2.04307E+01  2.12351E+01  2.20902E+01  2.30023E+01  2.39736E+01  2.49990E+01  2.60627E+01
   2.71365E+01  2.81787E+01  2.91367E+01  2.99518E+01  3.05663E+01  3.09320E+01  3.10173E+01  3.08125E+01  3.03309E+01  2.96062E+01
   2.86864E+01  2.76265E+01  2.64802E+01  2.52947E+01  2.41063E+01  2.29403E+01  2.18114E+01  2.07269E+01  1.96892E+01  1.86986E+01
   1.77549E+01  1.68588E+01  1.60120E+01  1.52176E+01  1.44791E+01  1.38007E+01  1.31866E+01  1.26411E+01  1.21679E+01  1.17707E+01
   1.14529E+01  1.12177E+01  1.10679E+01  1.10063E+01  1.10355E+01  1.11576E+01  1.13744E+01  1.16869E+01  1.20951E+01  1.25981E+01
   1.31932E+01  1.38758E+01  1.46392E+01  1.54743E+01  1.63693E+01  1.73098E+01  1.82788E+01  1.92571E+01  2.02234E+01  2.11552E+01
   2.20294E+01  2.28231E+01  2.35145E+01  2.40838E+01  2.45142E+01  2.47922E+01  2.49088E+01  2.48594E+01  2.46442E+01  2.42680E+01
   2.37401E+01  2.30733E+01  2.22838E+01  2.13901E+01  2.04122E+01  1.93707E+01  1.82859E+01  1.71776E+01  1.60636E+01  1.49602E+01
   1.38811E+01  1.28379E+01  1.18394E+01  1.08924E+01  1.00012E+01  9.16824E+00  8.39441E+00  7.67905E+00  7.02047E+00  6.41616E+00
   5.86302E+00  5.35757E+00  4.89617E+00  4.47514E+00  4.09085E+00  3.73986E+00  3.41890E+00  3.12493E+00  2.85518E+00  2.60715E+00
   2.37856E+00  2.16739E+00  1.97183E+00  1.79025E+00  1.62124E+00  1.46353E+00  1.31601E+00  1.17769E+00  1.04770E+00  9.25257E-01
   8.09676E-01  7.00350E-01  5.96741E-01  4.98357E-01  4.04763E-01  3.15568E-01  2.30430E-01  1.49035E-01  7.11014E-02 -3.63250E-03
  -7.53962E-02 -1.44401E-01 -2.10830E-01 -2.74859E-01 -3.36650E-01 -3.96357E-01 -4.54113E-01 -5.10041E-01 -5.64245E-01 -6.16834E-01
  -6.67902E-01 -7.17548E-01 -7.65847E-01 -8.12876E-01 -8.58702E-01 -9.03396E-01 -9.47027E-01 -9.89654E-01 -1.03133E+00 -1.07209E+00
  -1.11199E+00 -1.15108E+00 -1.18941E+00 -1.22701E+00 -1.26392E+00 -1.30017E+00 -1.33580E+00 -1.37086E+00 -1.40536E+00 -1.43934E+00
  -1.47282E+00 -1.50582E+00 -1.53839E+00 -1.57055E+00 -1.60233E+00 -1.63375E+00 -1.66483E+00 -1.69559E+00
 NY background values follow
     2.579E+00    2.567E+00    2.555E+00    2.544E+00    2.532E+00    2.521E+00    2.509E+00    2.497E+00    2.486E+00    2.474E+00
     2.463E+00    2.451E+00    2.440E+00    2.428E+00    2.416E+00    2.405E+00    2.393E+00    2.382E+00    2.370E+00    2.358E+00
     2.347E+00    2.335E+00    2.324E+00    2.312E+00    2.301E+00    2.289E+00    2.277E+00    2.266E+00    2.254E+00    2.243E+00
     2.231E+00    2.219E+00    2.208E+00    2.196E+00    2.185E+00    2.173E+00    2.162E+00    2.150E+00    2.138E+00    2.127E+00
     2.115E+00    2.104E+00    2.092E+00    2.080E+00    2.069E+00    2.057E+00    2.046E+00    2.034E+00    2.022E+00    2.011E+00
     1.999E+00    1.988E+00    1.976E+00    1.965E+00    1.953E+00    1.941E+00    1.930E+00    1.918E+00    1.907E+00    1.895E+00
     1.883E+00    1.872E+00    1.860E+00    1.849E+00    1.837E+00    1.826E+00    1.814E+00    1.802E+00    1.791E+00    1.779E+00
     1.768E+00    1.756E+00    1.744E+00    1.733E+00    1.721E+00    1.710E+00    1.698E+00    1.686E+00    1.675E+00    1.663E+00
     1.652E+00    1.640E+00    1.629E+00    1.617E+00    1.605E+00    1.594E+00    1.582E+00    1.571E+00    1.559E+00    1.547E+00
     1.536E+00    1.524E+00    1.513E+00    1.501E+00    1.489E+00    1.478E+00    1.466E+00    1.455E+00    1.443E+00    1.431E+00
     1.420E+00    1.408E+00    1.397E+00    1.385E+00    1.374E+00    1.362E+00    1.350E+00    1.339E+00    1.327E+00    1.316E+00
     1.304E+00    1.292E+00    1.281E+00    1.269E+00    1.258E+00    1.246E+00    1.234E+00    1.223E+00    1.211E+00    1.200E+00
     1.188E+00    1.177E+00    1.165E+00    1.153E+00    1.142E+00    1.130E+00    1.119E+00    1.107E+00    1.095E+00    1.084E+00
     1.072E+00    1.061E+00    1.049E+00    1.037E+00    1.026E+00    1.014E+00    1.003E+00    9.911E-01    9.795E-01    9.679E-01
     9.563E-01    9.448E-01    9.332E-01    9.216E-01    9.100E-01    8.984E-01    8.868E-01    8.752E-01    8.636E-01    8.521E-01
     8.405E-01    8.289E-01    8.173E-01    8.057E-01    7.941E-01    7.825E-01    7.709E-01    7.594E-01    7.478E-01    7.362E-01
     7.246E-01    7.130E-01    7.014E-01    6.898E-01    6.782E-01    6.667E-01    6.551E-01    6.435E-01    6.319E-01    6.203E-01
     6.087E-01    5.971E-01    5.856E-01    5.740E-01    5.624E-01    5.508E-01    5.392E-01    5.276E-01    5.160E-01    5.045E-01
     4.929E-01    4.813E-01    4.697E-01    4.581E-01    4.465E-01    4.349E-01    4.234E-01    4.118E-01    4.002E-01    3.886E-01
     3.770E-01    3.654E-01    3.539E-01    3.423E-01    3.307E-01    3.191E-01    3.075E-01    2.959E-01    2.844E-01    2.728E-01
     2.612E-01    2.496E-01    2.380E-01    2.265E-01    2.149E-01    2.033E-01    1.917E-01    1.801E-01    1.685E-01    1.570E-01
     1.454E-01    1.338E-01    1.222E-01    1.106E-01    9.907E-02    8.749E-02    7.591E-02    6.433E-02    5.275E-02    4.117E-02
     2.959E-02    1.801E-02    6.436E-03   -5.142E-03   -1.672E-02   -2.830E-02   -3.988E-02   -5.145E-02   -6.303E-02   -7.461E-02
    -8.618E-02   -9.776E-02   -1.093E-01   -1.209E-01   -1.325E-01   -1.441E-01   -1.556E-01   -1.672E-01   -1.788E-01   -1.904E-01
    -2.019E-01   -2.135E-01   -2.251E-01   -2.367E-01   -2.482E-01   -2.598E-01   -2.714E-01   -2.830E-01   -2.945E-01   -3.061E-01
    -3.177E-01   -3.292E-01   -3.408E-01   -3.524E-01   -3.640E-01   -3.755E-01   -3.871E-01   -3.987E-01   -4.102E-01   -4.218E-01
    -4.334E-01   -4.450E-01   -4.565E-01   -4.681E-01   -4.797E-01   -4.912E-01   -5.028E-01   -5.144E-01   -5.259E-01   -5.375E-01
    -5.491E-01   -5.606E-01   -5.722E-01   -5.838E-01   -5.953E-01   -6.069E-01   -6.185E-01   -6.300E-01   -6.416E-01   -6.532E-01
    -6.647E-01   -6.763E-01   -6.879E-01   -6.994E-01   -7.110E-01   -7.225E-01   -7.341E-01   -7.457E-01   -7.572E-01   -7.688E-01
    -7.804E-01   -7.919E-01   -8.035E-01   -8.150E-01   -8.266E-01   -8.382E-01   -8.497E-01   -8.613E-01   -8.728E-01   -8.844E-01
    -8.960E-01   -9.075E-01   -9.191E-01   -9.306E-01   -9.422E-01   -9.538E-01   -9.653E-01   -9.769E-01   -9.884E-01   -1.000E+00
    -1.012E+00   -1.023E+00   -1.035E+00   -1.046E+00   -1.058E+00   -1.069E+00   -1.081E+00   -1.092E+00   -1.104E+00   -1.116E+00
    -1.127E+00   -1.139E+00   -1.150E+00   -1.162E+00   -1.173E+00   -1.185E+00   -1.196E+00   -1.208E+00   -1.219E+00   -1.231E+00
    -1.243E+00   -1.254E+00   -1.266E+00   -1.277E+00   -1.289E+00   -1.300E+00   -1.312E+00   -1.323E+00   -1.335E+00   -1.347E+00
    -1.358E+00   -1.370E+00   -1.381E+00   -1.393E+00   -1.404E+00   -1.416E+00   -1.427E+00   -1.439E+00   -1.450E+00   -1.462E+00
    -1.473E+00   -1.485E+00   -1.497E+00   -1.508E+00   -1.520E+00   -1.531E+00   -1.543E+00   -1.554E+00   -1.566E+00   -1.577E+00
    -1.589E+00   -1.600E+00   -1.612E+00   -1.624E+00   -1.635E+00   -1.647E+00   -1.658E+00   -1.670E+00   -1.681E+00   -1.693E+00
    -1.704E+00   -1.716E+00   -1.727E+00   -1.739E+00   -1.750E+00   -1.762E+00   -1.773E+00   -1.785E+00   -1.797E+00   -1.808E+00
    -1.820E+00   -1.831E+00   -1.843E+00   -1.854E+00   -1.866E+00   -1.877E+00   -1.889E+00   -1.900E+00   -1.912E+00   -1.923E+00
    -1.935E+00   -1.946E+00   -1.958E+00   -1.969E+00   -1.981E+00   -1.992E+00   -2.004E+00   -2.016E+00   -2.027E+00   -2.039E+00
    -2.050E+00   -2.062E+00   -2.073E+00   -2.085E+00   -2.096E+00   -2.108E+00   -2.119E+00   -2.131E+00   -2.142E+00   -2.154E+00
    -2.165E+00   -2.177E+00   -2.188E+00   -2.200E+00   -2.211E+00   -2.223E+00   -2.234E+00   -2.246E+00   -2.257E+00   -2.269E+00
    -2.280E+00   -2.292E+00   -2.303E+00   -2.315E+00   -2.326E+00   -2.338E+00   -2.349E+00   -2.361E+00   -2.372E+00   -2.384E+00
    -2.396E+00   -2.407E+00   -2.419E+00   -2.430E+00   -2.442E+00   -2.453E+00   -2.465E+00   -2.476E+00   -2.488E+00   -2.499E+00
    -2.511E+00   -2.522E+00   -2.534E+00   -2.545E+00   -2.557E+00   -2.568E+00   -2.580E+00   -2.591E+00   -2.603E+00   -2.614E+00
    -2.626E+00   -2.637E+00   -2.649E+00   -2.660E+00   -2.672E+00   -2.683E+00   -2.695E+00   -2.706E+00   -2.717E+00   -2.729E+00
    -2.740E+00   -2.752E+00   -2.763E+00   -2.775E+00   -2.786E+00   -2.798E+00   -2.809E+00   -2.821E+00   -2.832E+00   -2.844E+00
    -2.855E+00   -2.867E+00   -2.878E+00   -2.890E+00   -2.901E+00   -2.913E+00   -2.924E+00   -2.936E+00   -2.947E+00   -2.959E+00
    -2.970E+00   -2.982E+00   -2.993E+00   -3.005E+00   -3.016E+00   -3.028E+00   -3.039E+00   -3.051E+00   -3.062E+00   -3.073E+00
    -3.085E+00   -3.096E+00   -3.108E+00   -3.119E+00   -3.131E+00   -3.142E+00   -3.154E+00   -3.165E+00
 Asp      Conc. = 3.02E+02
