 LCModel (Version 6.3-1L) Copyright: S.W. Provencher.          Ref.: Magn. Reson. Med. 30:672-679 (1993).                
 Slice#3 Row#5 Col#12  PD_24_press_2_raw_act
 36 lines in following concentration table = NCONC+1
    Conc.  %SD /Cr+PCr  Metabolite                                         
   68.060  72%   0.603 Ala                                                 
   13.424 185%   0.119 Asp                                                 
    4.846 999% 4.3E-02 Cr                                                  
  108.078  74%   0.957 PCr                                                 
    5.672 261% 5.0E-02 GABA                                                
    7.407 202% 6.6E-02 Glc                                                 
    0.000 999%   0.000 Gln                                                 
    8.250 999% 7.3E-02 Glu                                                 
   30.591  38%   0.271 GPC                                                 
    0.000 999%   0.000 PCh                                                 
    0.000 999%   0.000 GSH                                                 
    0.000 999%   0.000 Ins                                                 
   69.585  74%   0.616 Lac                                                 
   25.189 130%   0.223 NAA                                                 
   16.915 198%   0.150 NAAG                                                
    1.649 289% 1.5E-02 Scyllo                                              
   18.669 131%   0.165 Tau                                                 
   51.324  85%   0.454 -CrCH2                                              
   30.591  38%   0.271 GPC+PCh                                             
   42.104 114%   0.373 NAA+NAAG                                            
  112.925  32%   1.000 Cr+PCr                                              
    8.250 999% 7.3E-02 Glu+Gln                                             
 3.01E+03  26%  26.639 Lip13a                                              
    0.000 999%   0.000 Lip13b                                              
 1.27E+03  20%  11.233 Lip09                                               
 1.45E+03  17%  12.857 MM09                                                
  501.974  40%   4.445 Lip20                                               
  974.208  33%   8.627 MM20                                                
  318.240 114%   2.818 MM12                                                
 1.33E+03  28%  11.821 MM14                                                
  957.400  29%   8.478 MM17                                                
 3.01E+03  26%  26.639 Lip13a+Lip13b                                       
 4.66E+03  10%  41.278 MM14+Lip13a+Lip13b+MM12                             
 2.72E+03   9%  24.091 MM09+Lip09                                          
 1.48E+03  19%  13.072 MM20+Lip20                                          
   6 lines in following misc. output table
  FWHM = 0.031 ppm    S/N =   2                                            
  Data shift = 0.038 ppm                                                   
  Ph:  98 deg     -63.6 deg/ppm                                            
  alphaB,S = 7.4E+01,   8.3E+00                                            
   14 spline knots.   Ns = 5(1)                                            
   2 inflections.     1 extrema                                            
  498 points on ppm-axis = NY
      4.000000     3.992357     3.984714     3.977070     3.969427     3.961784     3.954141     3.946497     3.938854     3.931211
      3.923568     3.915925     3.908281     3.900638     3.892995     3.885352     3.877708     3.870065     3.862422     3.854779
      3.847136     3.839492     3.831849     3.824206     3.816563     3.808919     3.801276     3.793633     3.785990     3.778347
      3.770703     3.763060     3.755417     3.747774     3.740130     3.732487     3.724844     3.717201     3.709558     3.701914
      3.694271     3.686628     3.678985     3.671341     3.663698     3.656055     3.648412     3.640769     3.633125     3.625482
      3.617839     3.610196     3.602552     3.594909     3.587266     3.579623     3.571980     3.564336     3.556693     3.549050
      3.541407     3.533763     3.526120     3.518477     3.510834     3.503191     3.495547     3.487904     3.480261     3.472618
      3.464974     3.457331     3.449688     3.442045     3.434402     3.426758     3.419115     3.411472     3.403829     3.396185
      3.388542     3.380899     3.373256     3.365613     3.357969     3.350326     3.342683     3.335040     3.327396     3.319753
      3.312110     3.304467     3.296824     3.289180     3.281537     3.273894     3.266251     3.258607     3.250964     3.243321
      3.235678     3.228034     3.220391     3.212748     3.205105     3.197462     3.189818     3.182175     3.174532     3.166889
      3.159245     3.151602     3.143959     3.136316     3.128673     3.121029     3.113386     3.105743     3.098100     3.090456
      3.082813     3.075170     3.067527     3.059884     3.052240     3.044597     3.036954     3.029311     3.021667     3.014024
      3.006381     2.998738     2.991095     2.983451     2.975808     2.968165     2.960522     2.952878     2.945235     2.937592
      2.929949     2.922306     2.914662     2.907019     2.899376     2.891733     2.884089     2.876446     2.868803     2.861160
      2.853517     2.845873     2.838230     2.830587     2.822944     2.815300     2.807657     2.800014     2.792371     2.784728
      2.777084     2.769441     2.761798     2.754155     2.746511     2.738868     2.731225     2.723582     2.715939     2.708295
      2.700652     2.693009     2.685366     2.677722     2.670079     2.662436     2.654793     2.647150     2.639506     2.631863
      2.624220     2.616577     2.608933     2.601290     2.593647     2.586004     2.578361     2.570717     2.563074     2.555431
      2.547788     2.540144     2.532501     2.524858     2.517215     2.509572     2.501928     2.494285     2.486642     2.478999
      2.471355     2.463712     2.456069     2.448426     2.440783     2.433139     2.425496     2.417853     2.410210     2.402566
      2.394923     2.387280     2.379637     2.371994     2.364350     2.356707     2.349064     2.341421     2.333777     2.326134
      2.318491     2.310848     2.303205     2.295561     2.287918     2.280275     2.272632     2.264988     2.257345     2.249702
      2.242059     2.234416     2.226772     2.219129     2.211486     2.203843     2.196199     2.188556     2.180913     2.173270
      2.165627     2.157983     2.150340     2.142697     2.135054     2.127410     2.119767     2.112124     2.104481     2.096838
      2.089194     2.081551     2.073908     2.066265     2.058621     2.050978     2.043335     2.035692     2.028049     2.020405
      2.012762     2.005119     1.997476     1.989833     1.982190     1.974546     1.966903     1.959260     1.951617     1.943974
      1.936331     1.928688     1.921045     1.913402     1.905759     1.898115     1.890472     1.882829     1.875186     1.867543
      1.859900     1.852257     1.844614     1.836971     1.829327     1.821684     1.814041     1.806398     1.798755     1.791112
      1.783469     1.775826     1.768183     1.760540     1.752896     1.745253     1.737610     1.729967     1.722324     1.714681
      1.707038     1.699395     1.691752     1.684108     1.676465     1.668822     1.661179     1.653536     1.645893     1.638250
      1.630607     1.622964     1.615321     1.607677     1.600034     1.592391     1.584748     1.577105     1.569462     1.561819
      1.554176     1.546533     1.538890     1.531246     1.523603     1.515960     1.508317     1.500674     1.493031     1.485388
      1.477745     1.470102     1.462458     1.454815     1.447172     1.439529     1.431886     1.424243     1.416600     1.408957
      1.401314     1.393671     1.386027     1.378384     1.370741     1.363098     1.355455     1.347812     1.340169     1.332526
      1.324883     1.317240     1.309596     1.301953     1.294310     1.286667     1.279024     1.271381     1.263738     1.256095
      1.248452     1.240808     1.233165     1.225522     1.217879     1.210236     1.202593     1.194950     1.187307     1.179664
      1.172021     1.164377     1.156734     1.149091     1.141448     1.133805     1.126162     1.118519     1.110876     1.103233
      1.095590     1.087946     1.080303     1.072660     1.065017     1.057374     1.049731     1.042088     1.034445     1.026802
      1.019158     1.011515     1.003872     0.996229     0.988586     0.980943     0.973300     0.965657     0.958014     0.950371
      0.942727     0.935084     0.927441     0.919798     0.912155     0.904512     0.896869     0.889226     0.881583     0.873940
      0.866296     0.858653     0.851010     0.843367     0.835724     0.828081     0.820438     0.812795     0.805152     0.797508
      0.789865     0.782222     0.774579     0.766936     0.759293     0.751650     0.744007     0.736364     0.728721     0.721077
      0.713434     0.705791     0.698148     0.690505     0.682862     0.675219     0.667576     0.659933     0.652290     0.644646
      0.637003     0.629360     0.621717     0.614074     0.606431     0.598788     0.591145     0.583502     0.575858     0.568215
      0.560572     0.552929     0.545286     0.537643     0.530000     0.522357     0.514714     0.507071     0.499427     0.491784
      0.484141     0.476498     0.468855     0.461212     0.453569     0.445925     0.438282     0.430639     0.422996     0.415353
      0.407710     0.400067     0.392424     0.384780     0.377137     0.369494     0.361851     0.354208     0.346565     0.338922
      0.331278     0.323635     0.315992     0.308349     0.300706     0.293063     0.285420     0.277777     0.270133     0.262490
      0.254847     0.247204     0.239561     0.231918     0.224275     0.216631     0.208988     0.201345
 NY phased data points follow
   5.72603E-01  3.61869E+00  3.11638E+00 -4.75285E+00 -3.90742E+00  9.33755E-01 -2.32106E+00  4.97400E-01 -4.61752E-01 -8.15721E-01
   4.24729E+00  6.58053E+00 -3.43840E+00 -6.71406E-02 -1.87074E+00 -6.96157E-01  5.18336E-01 -2.92716E+00  4.04055E+00 -4.20997E-01
   6.40881E-01  2.42543E+00  5.27689E-01  5.40504E-01 -5.27497E+00  1.87458E+00  1.59085E+00  2.90473E+00  4.45328E+00 -7.28082E-01
  -2.44888E-01 -1.63633E-01 -2.50211E+00  2.72306E+00 -3.49384E+00  2.46711E+00 -2.59784E+00  3.70836E+00  5.85127E-01  7.57329E-01
  -3.04745E+00  3.09642E+00  3.93560E+00 -2.26923E+00  1.64630E+00  3.24911E+00 -1.68261E+00 -1.62319E+00  3.45480E+00  6.57084E-01
   5.93626E-01 -1.17669E+00  1.62396E+00  4.72843E+00  1.73031E+00  3.23068E+00  3.17283E+00  1.36954E+00  1.48817E+00  3.64328E+00
   5.57982E-01  1.06325E+00  4.02008E+00  2.04141E+00 -1.94387E+00 -1.38684E+00  1.10974E+00  1.40258E+00  4.19602E+00  3.66608E-01
   2.20502E+00  1.60794E+00  1.65896E+00 -2.36236E+00  4.18327E+00 -1.32022E+00  1.71282E+00 -1.26960E+00  2.44660E+00 -3.28740E+00
   4.47457E+00  5.52574E+00  6.02451E+00  7.27017E+00 -2.48803E+00 -4.61036E-01 -7.14382E-01  4.00669E+00  2.86284E+00  1.74638E+00
   5.68762E-01 -3.17382E+00  1.36382E+00 -1.89115E-01  1.18253E+00  5.63355E-01  3.59336E+00  5.41325E+00  6.07413E+00  8.98817E+00
   7.15647E+00  4.67663E+00  8.13148E+00  3.75711E+00  9.83722E+00  7.18486E+00  7.65147E-01  2.63253E+00  4.21590E+00  2.45734E+00
   3.57067E+00  6.33506E+00  1.01615E+00  5.35624E+00  4.39236E+00  2.58000E+00 -1.21294E-01  6.55969E+00  3.88246E+00  4.35820E+00
   1.97711E+00 -1.88904E+00  5.27203E+00  4.67407E+00  1.62938E+00  7.29601E+00  1.38198E+01  1.41100E+01  6.02315E+00  5.03582E+00
   7.29352E+00  8.78244E+00  4.38039E+00  2.07114E+00  5.76877E+00  4.87333E+00  5.73744E+00  5.29882E+00  9.42984E+00  6.00281E+00
   3.81742E+00  6.41307E+00  7.71011E+00  1.31699E+00  3.52478E+00  4.39853E+00  7.19529E+00  6.86482E+00  5.91707E+00  5.39585E+00
   1.07659E+01  4.06514E+00  6.91806E+00  3.38524E+00  4.03625E+00  1.35568E+00  1.95967E+00  5.77988E+00  5.44861E+00  5.50921E+00
   4.40195E+00  3.30035E+00  6.90189E+00  2.43778E+00  6.99293E+00  2.48044E+00  6.12542E+00  6.17936E+00  2.34570E+00  4.51245E+00
   3.22752E+00  7.18633E+00  7.71999E+00  4.79350E+00  1.07244E+01  7.54042E+00  5.22391E+00  1.18202E+01  5.67203E+00  6.08097E+00
   1.14346E+01  3.61894E+00  5.37181E+00  4.52857E+00  5.65453E+00  8.96163E+00  9.54254E+00  3.37788E+00  4.11185E+00  2.59008E+00
   3.57912E+00  5.14444E+00  7.12045E+00  4.76605E+00  2.65019E+00  7.55688E+00  4.60981E+00  2.47865E+00  5.55809E+00  9.82687E+00
   2.35350E+00  7.52804E+00  6.23804E+00  6.62891E+00  9.70227E+00  5.25876E+00  7.37259E+00  5.44803E+00  4.62730E+00  1.25303E+01
   8.65494E+00  6.46434E+00  1.07144E+01  3.75872E+00  6.47367E+00  5.61946E+00  1.08610E+01  3.46909E+00  1.03643E+01  2.69635E+00
   4.02611E+00  3.65521E+00  8.52613E+00  4.96770E+00  7.22815E+00  7.18571E+00  1.01389E+01  7.28738E+00  6.34747E+00  2.78133E+00
   8.17549E+00  5.88996E+00  8.28376E+00  8.43228E+00  5.30522E+00  4.39429E+00  9.38990E+00  4.96738E+00  5.98368E+00  8.34444E+00
   1.03990E+01  8.19865E+00  6.34557E+00  5.80704E+00  1.02637E+01  1.02708E+01  9.68847E+00  7.87411E+00  9.45852E+00  1.16878E+01
   1.44786E+01  1.23604E+01  1.27544E+01  9.02351E+00  1.14119E+01  1.37924E+01  1.14999E+01  1.21518E+01  1.28033E+01  1.45631E+01
   1.04325E+01  9.69197E+00  8.60410E+00  5.65422E+00  8.99735E+00  5.16438E+00  1.32760E+01  1.13551E+01  4.23388E+00  9.61335E+00
   1.05669E+01  2.88929E+00  7.51744E+00  8.91494E+00  8.45844E+00  3.90556E+00  1.11779E+01  5.44848E+00  9.58056E+00  8.76364E+00
   1.02030E+01  9.09903E+00  8.30439E+00  1.03974E+01  1.32354E+01  8.80082E+00  8.69007E+00  1.00750E+01  1.17914E+01  4.46585E+00
   9.48420E+00  8.33527E+00  1.22383E+01  7.03457E+00  7.07476E+00  9.33181E+00  7.85183E+00  7.10619E+00  8.80740E+00  1.14286E+01
   1.18543E+01  6.62526E+00  1.25151E+01  1.29634E+01  1.82479E+01  1.54507E+01  1.78096E+01  9.45125E+00  1.50264E+01  1.38077E+01
   1.00322E+01  8.23020E+00  1.40677E+01  1.40087E+01  1.45244E+01  1.16942E+01  1.38655E+01  1.44177E+01  9.50755E+00  1.25505E+01
   1.67681E+01  1.75703E+01  1.76555E+01  1.56415E+01  1.52072E+01  1.64169E+01  1.29711E+01  1.18121E+01  1.12102E+01  1.77089E+01
   1.65651E+01  1.96294E+01  1.71517E+01  1.87935E+01  1.89646E+01  1.89284E+01  1.87164E+01  1.69776E+01  2.02662E+01  1.73108E+01
   2.04071E+01  1.98760E+01  1.85870E+01  1.43956E+01  1.70127E+01  1.40550E+01  1.61934E+01  1.24462E+01  1.66705E+01  1.12817E+01
   1.52954E+01  9.32077E+00  1.79762E+01  1.46494E+01  1.80407E+01  1.63390E+01  1.47769E+01  1.71911E+01  1.34047E+01  1.95160E+01
   1.65953E+01  1.65104E+01  1.17748E+01  1.56418E+01  1.80952E+01  1.64379E+01  1.37813E+01  1.54666E+01  1.55458E+01  1.02169E+01
   1.60921E+01  9.63661E+00  1.26552E+01  1.14555E+01  2.07027E+01  1.80634E+01  1.44856E+01  1.67744E+01  1.77239E+01  1.56381E+01
   1.91948E+01  1.95904E+01  1.55841E+01  1.69001E+01  1.58043E+01  1.84520E+01  1.24121E+01  1.42861E+01  2.17165E+01  1.58081E+01
   1.47902E+01  1.59490E+01  1.26694E+01  1.19290E+01  1.44514E+01  1.78021E+01  1.33506E+01  1.57474E+01  1.87330E+01  1.15237E+01
   9.39472E+00  1.10901E+01  1.03844E+01  1.17285E+01  1.21817E+01  1.24775E+01  1.01201E+01  1.02123E+01  1.41308E+01  1.10898E+01
   1.25977E+01  6.22712E+00  8.00991E+00  6.19827E+00  3.29893E+00  9.59105E+00  5.60153E+00  4.91981E+00  1.07620E+01  4.02529E+00
   9.69251E+00  6.08159E+00  5.83191E+00  9.80658E+00  4.93645E+00  6.82955E+00  3.45628E+00  5.00356E+00  7.78089E-01  8.05520E+00
   5.50421E+00  4.47492E+00  6.20861E+00  4.73623E+00  1.63608E+00  1.09104E+00  6.79539E+00  1.40068E+00  2.03155E+00  5.68347E+00
  -7.17558E-01 -1.81415E+00 -7.28158E-02  2.19397E+00  9.75712E-01 -7.32312E-01  4.51533E-01  4.60488E-01  2.96109E+00  3.76962E+00
  -2.09052E+00 -3.87490E-01  2.78486E+00 -4.75759E-01 -7.70606E-01  7.45871E-01 -4.44781E+00  1.20726E-01 -4.93776E+00 -7.03964E+00
  -3.40976E+00 -2.23817E+00 -7.26072E+00 -1.14724E-03 -4.94117E+00 -4.76335E+00 -7.63867E+00 -4.36127E+00 -2.46429E+00 -7.36939E+00
  -3.73277E+00 -3.21378E+00 -2.52880E+00 -4.35204E+00 -7.56198E+00 -3.07619E+00 -6.79493E+00 -6.45007E-01 -1.69903E+00 -4.76542E+00
   1.41274E+00 -4.26504E+00  2.70214E+00 -5.86342E+00 -1.63223E+00  1.62935E+00 -3.49107E+00 -4.62650E+00 -4.43981E+00 -3.16162E+00
  -4.89554E+00 -7.25318E+00 -5.03310E+00 -2.14275E+00 -4.02168E+00  2.81324E-01 -2.94870E+00 -8.27024E+00
 NY points of the fit to the data follow
  -1.20266E+00 -1.20496E+00 -1.23476E+00 -1.32698E+00 -1.60153E+00 -1.40119E+00 -8.07274E-01 -1.28384E-02  9.28323E-01  1.68630E+00
   1.92085E+00  1.69632E+00  1.32893E+00  9.90049E-01  7.40993E-01  6.05542E-01  5.62778E-01  5.27832E-01  5.21036E-01  5.69217E-01
   7.22505E-01  9.26220E-01  1.08813E+00  1.17357E+00  1.14952E+00  1.01285E+00  8.19493E-01  6.05785E-01  4.40819E-01  4.06998E-01
   4.88842E-01  6.66817E-01  9.05268E-01  1.12777E+00  1.29631E+00  1.39813E+00  1.39915E+00  1.34593E+00  1.30089E+00  1.25363E+00
   1.21757E+00  1.25922E+00  1.34926E+00  1.39987E+00  1.41237E+00  1.43985E+00  1.46833E+00  1.50253E+00  1.57244E+00  1.66005E+00
   1.72803E+00  1.76401E+00  1.78387E+00  1.79191E+00  1.79201E+00  1.78986E+00  1.79172E+00  1.79568E+00  1.80457E+00  1.81773E+00
   1.83427E+00  1.85508E+00  1.88975E+00  1.92394E+00  1.96094E+00  1.99664E+00  2.00958E+00  2.00186E+00  1.98937E+00  1.96515E+00
   1.95248E+00  1.99986E+00  2.08736E+00  2.18028E+00  2.25847E+00  2.28523E+00  2.23730E+00  2.15254E+00  2.08398E+00  2.04843E+00
   2.04543E+00  2.08495E+00  2.16602E+00  2.23860E+00  2.29109E+00  2.31829E+00  2.30512E+00  2.26122E+00  2.21128E+00  2.15061E+00
   2.06907E+00  1.95771E+00  1.80839E+00  1.63419E+00  1.47675E+00  1.29913E+00  1.02663E+00  9.96423E-01  2.12053E+00  3.81033E+00
   5.55261E+00  7.03662E+00  7.59270E+00  6.94314E+00  5.68574E+00  4.53537E+00  3.78212E+00  3.39373E+00  3.30142E+00  3.35782E+00
   3.36893E+00  3.33570E+00  3.29231E+00  3.24570E+00  3.19744E+00  3.13963E+00  3.06722E+00  2.97622E+00  2.85228E+00  2.67248E+00
   2.40158E+00  2.06536E+00  2.56775E+00  4.47920E+00  6.73434E+00  8.87493E+00  1.03203E+01  1.03041E+01  8.97003E+00  7.31562E+00
   6.06685E+00  5.36511E+00  5.10437E+00  5.16505E+00  5.30617E+00  5.36129E+00  5.38389E+00  5.39594E+00  5.39777E+00  5.39450E+00
   5.38931E+00  5.39224E+00  5.41157E+00  5.43715E+00  5.46123E+00  5.47636E+00  5.47923E+00  5.47557E+00  5.47517E+00  5.47920E+00
   5.48297E+00  5.48761E+00  5.49428E+00  5.50455E+00  5.52447E+00  5.54385E+00  5.54874E+00  5.53744E+00  5.51532E+00  5.48877E+00
   5.47463E+00  5.47667E+00  5.48978E+00  5.50593E+00  5.51414E+00  5.50627E+00  5.48577E+00  5.46363E+00  5.44286E+00  5.42691E+00
   5.41557E+00  5.39257E+00  5.35139E+00  5.30777E+00  5.26935E+00  5.24076E+00  5.21990E+00  5.19508E+00  5.15663E+00  5.11450E+00
   5.08970E+00  5.08310E+00  5.08578E+00  5.09009E+00  5.09047E+00  5.07847E+00  5.06388E+00  5.05757E+00  5.04840E+00  5.02770E+00
   5.00167E+00  4.97511E+00  4.95813E+00  4.95158E+00  4.95157E+00  4.95682E+00  4.95718E+00  4.94954E+00  4.94268E+00  4.94808E+00
   4.96169E+00  4.98028E+00  5.00096E+00  5.01487E+00  5.01365E+00  5.00151E+00  4.99168E+00  4.99009E+00  4.99548E+00  5.01611E+00
   5.05971E+00  5.12854E+00  5.21267E+00  5.29790E+00  5.37564E+00  5.43398E+00  5.47115E+00  5.49661E+00  5.52892E+00  5.58891E+00
   5.68450E+00  5.80606E+00  5.94496E+00  6.08052E+00  6.19350E+00  6.27876E+00  6.33849E+00  6.39269E+00  6.46130E+00  6.55043E+00
   6.66968E+00  6.81567E+00  6.96930E+00  7.11320E+00  7.24700E+00  7.37249E+00  7.49471E+00  7.62041E+00  7.75773E+00  7.91779E+00
   8.10205E+00  8.30862E+00  8.53341E+00  8.76583E+00  8.98971E+00  9.19628E+00  9.38495E+00  9.56042E+00  9.72808E+00  9.89095E+00
   1.00901E+01  1.04611E+01  1.08928E+01  1.12319E+01  1.14581E+01  1.16637E+01  1.18886E+01  1.19782E+01  1.19889E+01  1.18696E+01
   1.14883E+01  1.09267E+01  1.04099E+01  1.00317E+01  9.77578E+00  9.60016E+00  9.47226E+00  9.34150E+00  9.18419E+00  9.02844E+00
   8.88398E+00  8.74729E+00  8.61215E+00  8.47591E+00  8.33990E+00  8.20799E+00  8.08471E+00  7.97641E+00  7.88805E+00  7.82003E+00
   7.77125E+00  7.74384E+00  7.73689E+00  7.74870E+00  7.78087E+00  7.83464E+00  7.91066E+00  8.01335E+00  8.14536E+00  8.30602E+00
   8.49477E+00  8.70969E+00  8.94775E+00  9.20612E+00  9.48236E+00  9.77485E+00  1.00804E+01  1.03944E+01  1.07121E+01  1.10275E+01
   1.13336E+01  1.16235E+01  1.18920E+01  1.21345E+01  1.23483E+01  1.25314E+01  1.26839E+01  1.28069E+01  1.29029E+01  1.29759E+01
   1.30314E+01  1.30759E+01  1.31166E+01  1.31614E+01  1.32182E+01  1.32950E+01  1.33994E+01  1.35394E+01  1.37240E+01  1.39659E+01
   1.42917E+01  1.47739E+01  1.54006E+01  1.57194E+01  1.56816E+01  1.53837E+01  1.48762E+01  1.43995E+01  1.42278E+01  1.44122E+01
   1.51334E+01  1.61769E+01  1.72421E+01  1.81785E+01  1.87484E+01  1.88106E+01  1.85114E+01  1.81321E+01  1.78466E+01  1.76911E+01
   1.76776E+01  1.78288E+01  1.81461E+01  1.82586E+01  1.79221E+01  1.72823E+01  1.63978E+01  1.54534E+01  1.47827E+01  1.45724E+01
   1.50175E+01  1.58432E+01  1.66968E+01  1.74219E+01  1.77696E+01  1.76083E+01  1.71277E+01  1.66106E+01  1.62111E+01  1.59390E+01
   1.57718E+01  1.56681E+01  1.55502E+01  1.53997E+01  1.52342E+01  1.50615E+01  1.48869E+01  1.47148E+01  1.45500E+01  1.43973E+01
   1.42616E+01  1.41477E+01  1.40603E+01  1.40032E+01  1.39800E+01  1.39932E+01  1.40443E+01  1.41336E+01  1.42599E+01  1.44208E+01
   1.46121E+01  1.48280E+01  1.50617E+01  1.53046E+01  1.55474E+01  1.57798E+01  1.59916E+01  1.61724E+01  1.63126E+01  1.64035E+01
   1.64380E+01  1.64111E+01  1.63197E+01  1.61632E+01  1.59434E+01  1.56643E+01  1.53319E+01  1.49539E+01  1.45393E+01  1.40976E+01
   1.36386E+01  1.31716E+01  1.27051E+01  1.22465E+01  1.18016E+01  1.13742E+01  1.09669E+01  1.05801E+01  1.02128E+01  9.86284E+00
   9.52685E+00  9.20084E+00  8.88047E+00  8.56137E+00  8.23947E+00  7.91124E+00  7.57387E+00  7.22540E+00  6.86480E+00  6.49201E+00
   6.10784E+00  5.71389E+00  5.31244E+00  4.90626E+00  4.49846E+00  4.09235E+00  3.69122E+00  3.29827E+00  2.91642E+00  2.54824E+00
   2.19591E+00  1.86117E+00  1.54528E+00  1.24906E+00  9.72884E-01  7.16774E-01  4.80390E-01  2.63156E-01  6.42403E-02 -1.17324E-01
  -2.82652E-01 -4.32890E-01 -5.69235E-01 -6.92842E-01 -8.04879E-01 -9.06430E-01 -9.98555E-01 -1.08219E+00 -1.15825E+00 -1.22750E+00
  -1.29071E+00 -1.34852E+00 -1.40154E+00 -1.45027E+00 -1.49520E+00 -1.53671E+00 -1.57521E+00 -1.61099E+00 -1.64436E+00 -1.67556E+00
  -1.70481E+00 -1.73230E+00 -1.75823E+00 -1.78273E+00 -1.80595E+00 -1.82800E+00 -1.84899E+00 -1.86901E+00 -1.88816E+00 -1.90649E+00
  -1.92411E+00 -1.94102E+00 -1.95732E+00 -1.97303E+00 -1.98822E+00 -2.00290E+00 -2.01713E+00 -2.03090E+00 -2.04429E+00 -2.05727E+00
  -2.06992E+00 -2.08222E+00 -2.09420E+00 -2.10585E+00 -2.11723E+00 -2.12831E+00 -2.13914E+00 -2.14969E+00 -2.16000E+00 -2.17004E+00
  -2.17986E+00 -2.18943E+00 -2.19878E+00 -2.20788E+00 -2.21676E+00 -2.22539E+00 -2.23381E+00 -2.24197E+00
 NY background values follow
     2.340E+00    2.390E+00    2.440E+00    2.490E+00    2.540E+00    2.589E+00    2.638E+00    2.687E+00    2.735E+00    2.784E+00
     2.832E+00    2.879E+00    2.927E+00    2.974E+00    3.021E+00    3.068E+00    3.114E+00    3.160E+00    3.206E+00    3.252E+00
     3.297E+00    3.342E+00    3.387E+00    3.431E+00    3.476E+00    3.520E+00    3.563E+00    3.607E+00    3.650E+00    3.693E+00
     3.735E+00    3.778E+00    3.820E+00    3.862E+00    3.903E+00    3.944E+00    3.985E+00    4.026E+00    4.066E+00    4.106E+00
     4.146E+00    4.186E+00    4.225E+00    4.264E+00    4.303E+00    4.341E+00    4.379E+00    4.417E+00    4.455E+00    4.492E+00
     4.529E+00    4.566E+00    4.602E+00    4.639E+00    4.674E+00    4.710E+00    4.745E+00    4.780E+00    4.815E+00    4.850E+00
     4.884E+00    4.918E+00    4.951E+00    4.984E+00    5.017E+00    5.050E+00    5.083E+00    5.115E+00    5.147E+00    5.178E+00
     5.209E+00    5.240E+00    5.271E+00    5.302E+00    5.332E+00    5.362E+00    5.391E+00    5.420E+00    5.449E+00    5.478E+00
     5.506E+00    5.535E+00    5.562E+00    5.590E+00    5.617E+00    5.644E+00    5.671E+00    5.697E+00    5.723E+00    5.749E+00
     5.774E+00    5.800E+00    5.824E+00    5.849E+00    5.873E+00    5.897E+00    5.921E+00    5.945E+00    5.968E+00    5.991E+00
     6.013E+00    6.035E+00    6.057E+00    6.079E+00    6.101E+00    6.122E+00    6.143E+00    6.163E+00    6.183E+00    6.203E+00
     6.223E+00    6.243E+00    6.262E+00    6.280E+00    6.299E+00    6.317E+00    6.335E+00    6.353E+00    6.370E+00    6.387E+00
     6.404E+00    6.421E+00    6.437E+00    6.453E+00    6.469E+00    6.484E+00    6.499E+00    6.514E+00    6.529E+00    6.543E+00
     6.557E+00    6.571E+00    6.584E+00    6.597E+00    6.610E+00    6.622E+00    6.635E+00    6.647E+00    6.659E+00    6.670E+00
     6.681E+00    6.692E+00    6.703E+00    6.713E+00    6.723E+00    6.733E+00    6.742E+00    6.752E+00    6.761E+00    6.769E+00
     6.778E+00    6.786E+00    6.794E+00    6.801E+00    6.809E+00    6.816E+00    6.823E+00    6.829E+00    6.835E+00    6.841E+00
     6.847E+00    6.852E+00    6.858E+00    6.863E+00    6.867E+00    6.872E+00    6.876E+00    6.880E+00    6.883E+00    6.886E+00
     6.890E+00    6.892E+00    6.895E+00    6.897E+00    6.899E+00    6.901E+00    6.902E+00    6.904E+00    6.905E+00    6.906E+00
     6.906E+00    6.906E+00    6.906E+00    6.906E+00    6.905E+00    6.905E+00    6.904E+00    6.902E+00    6.901E+00    6.899E+00
     6.897E+00    6.895E+00    6.892E+00    6.890E+00    6.887E+00    6.884E+00    6.880E+00    6.876E+00    6.872E+00    6.868E+00
     6.864E+00    6.859E+00    6.854E+00    6.849E+00    6.844E+00    6.838E+00    6.832E+00    6.826E+00    6.820E+00    6.814E+00
     6.807E+00    6.800E+00    6.793E+00    6.785E+00    6.778E+00    6.770E+00    6.762E+00    6.753E+00    6.745E+00    6.736E+00
     6.727E+00    6.718E+00    6.709E+00    6.699E+00    6.689E+00    6.679E+00    6.669E+00    6.658E+00    6.648E+00    6.637E+00
     6.626E+00    6.615E+00    6.603E+00    6.591E+00    6.579E+00    6.567E+00    6.555E+00    6.543E+00    6.530E+00    6.517E+00
     6.504E+00    6.491E+00    6.477E+00    6.463E+00    6.450E+00    6.435E+00    6.421E+00    6.407E+00    6.392E+00    6.377E+00
     6.362E+00    6.347E+00    6.332E+00    6.316E+00    6.301E+00    6.285E+00    6.269E+00    6.252E+00    6.236E+00    6.219E+00
     6.203E+00    6.186E+00    6.168E+00    6.151E+00    6.134E+00    6.116E+00    6.098E+00    6.080E+00    6.062E+00    6.044E+00
     6.026E+00    6.007E+00    5.988E+00    5.969E+00    5.950E+00    5.931E+00    5.912E+00    5.892E+00    5.873E+00    5.853E+00
     5.833E+00    5.813E+00    5.792E+00    5.772E+00    5.752E+00    5.731E+00    5.710E+00    5.689E+00    5.668E+00    5.647E+00
     5.625E+00    5.604E+00    5.582E+00    5.561E+00    5.539E+00    5.517E+00    5.495E+00    5.472E+00    5.450E+00    5.427E+00
     5.405E+00    5.382E+00    5.359E+00    5.336E+00    5.313E+00    5.290E+00    5.267E+00    5.243E+00    5.220E+00    5.196E+00
     5.172E+00    5.149E+00    5.125E+00    5.101E+00    5.076E+00    5.052E+00    5.028E+00    5.003E+00    4.979E+00    4.954E+00
     4.929E+00    4.905E+00    4.880E+00    4.855E+00    4.830E+00    4.805E+00    4.779E+00    4.754E+00    4.729E+00    4.703E+00
     4.677E+00    4.652E+00    4.626E+00    4.600E+00    4.574E+00    4.549E+00    4.523E+00    4.496E+00    4.470E+00    4.444E+00
     4.418E+00    4.392E+00    4.365E+00    4.339E+00    4.312E+00    4.286E+00    4.259E+00    4.232E+00    4.206E+00    4.179E+00
     4.152E+00    4.125E+00    4.098E+00    4.071E+00    4.044E+00    4.017E+00    3.990E+00    3.963E+00    3.936E+00    3.909E+00
     3.881E+00    3.854E+00    3.827E+00    3.800E+00    3.772E+00    3.745E+00    3.717E+00    3.690E+00    3.663E+00    3.635E+00
     3.608E+00    3.580E+00    3.553E+00    3.525E+00    3.497E+00    3.470E+00    3.442E+00    3.415E+00    3.387E+00    3.360E+00
     3.332E+00    3.304E+00    3.277E+00    3.249E+00    3.221E+00    3.194E+00    3.166E+00    3.139E+00    3.111E+00    3.083E+00
     3.056E+00    3.028E+00    3.001E+00    2.973E+00    2.946E+00    2.918E+00    2.890E+00    2.863E+00    2.836E+00    2.808E+00
     2.781E+00    2.753E+00    2.726E+00    2.699E+00    2.671E+00    2.644E+00    2.617E+00    2.589E+00    2.562E+00    2.535E+00
     2.508E+00    2.481E+00    2.454E+00    2.427E+00    2.400E+00    2.373E+00    2.346E+00    2.319E+00    2.293E+00    2.266E+00
     2.239E+00    2.213E+00    2.186E+00    2.159E+00    2.133E+00    2.107E+00    2.080E+00    2.054E+00    2.028E+00    2.002E+00
     1.975E+00    1.949E+00    1.923E+00    1.898E+00    1.872E+00    1.846E+00    1.820E+00    1.795E+00    1.769E+00    1.744E+00
     1.718E+00    1.693E+00    1.668E+00    1.643E+00    1.618E+00    1.593E+00    1.568E+00    1.543E+00    1.518E+00    1.494E+00
     1.469E+00    1.445E+00    1.420E+00    1.396E+00    1.372E+00    1.348E+00    1.324E+00    1.300E+00    1.276E+00    1.253E+00
     1.229E+00    1.206E+00    1.182E+00    1.159E+00    1.136E+00    1.113E+00    1.090E+00    1.067E+00    1.044E+00    1.022E+00
     9.993E-01    9.769E-01    9.546E-01    9.325E-01    9.105E-01    8.886E-01    8.669E-01    8.452E-01    8.237E-01    8.023E-01
     7.810E-01    7.599E-01    7.389E-01    7.180E-01    6.972E-01    6.766E-01    6.561E-01    6.358E-01    6.156E-01    5.955E-01
     5.755E-01    5.557E-01    5.360E-01    5.165E-01    4.971E-01    4.779E-01    4.587E-01    4.398E-01
 Ala      Conc. = 6.81E+01
