 LCModel (Version 6.3-1L) Copyright: S.W. Provencher.          Ref.: Magn. Reson. Med. 30:672-679 (1993).                
 Slice#2 Row#6 Col#3  PD_24_press_2_raw_act
 36 lines in following concentration table = NCONC+1
    Conc.  %SD /Cr+PCr  Metabolite                                         
    0.000 999%   0.000 Ala                                                 
    0.000 999%   0.000 Asp                                                 
 2.30E+03  22%   0.968 Cr                                                  
   76.663 676% 3.2E-02 PCr                                                 
  509.188  71%   0.214 GABA                                                
  228.943 153% 9.6E-02 Glc                                                 
 2.19E+03  35%   0.921 Gln                                                 
 3.74E+03  23%   1.573 Glu                                                 
 1.33E+03   5%   0.558 GPC                                                 
    0.000 999%   0.000 PCh                                                 
 1.36E+03  15%   0.573 GSH                                                 
 4.63E+03  14%   1.946 Ins                                                 
  348.718 127%   0.147 Lac                                                 
 4.09E+03   9%   1.722 NAA                                                 
  503.758  83%   0.212 NAAG                                                
  332.451  20%   0.140 Scyllo                                              
  185.703 254% 7.8E-02 Tau                                                 
    0.000 999%   0.000 -CrCH2                                              
 1.33E+03   5%   0.558 GPC+PCh                                             
 4.60E+03   4%   1.934 NAA+NAAG                                            
 2.38E+03   6%   1.000 Cr+PCr                                              
 5.93E+03  22%   2.493 Glu+Gln                                             
    0.000 999%   0.000 Lip13a                                              
 1.28E+03  43%   0.537 Lip13b                                              
    0.000 999%   0.000 Lip09                                               
 1.97E+03  17%   0.830 MM09                                                
  302.445  75%   0.127 Lip20                                               
 5.58E+03  12%   2.346 MM20                                                
  639.573  38%   0.269 MM12                                                
 1.37E+03  37%   0.578 MM14                                                
    0.000 999%   0.000 MM17                                                
 1.28E+03  43%   0.537 Lip13a+Lip13b                                       
 3.29E+03  17%   1.385 MM14+Lip13a+Lip13b+MM12                             
 1.97E+03  17%   0.830 MM09+Lip09                                          
 5.88E+03  12%   2.473 MM20+Lip20                                          
   6 lines in following misc. output table
  FWHM = 0.069 ppm    S/N =   8                                            
  Data shift = 0.008 ppm                                                   
  Ph:  -3 deg       5.7 deg/ppm                                            
  alphaB,S = 3.1E+00,   1.2E+02                                            
   14 spline knots.   Ns = 8(1)                                            
  (12) 2 infls.   ( 5) 1 extrs.                                            
  498 points on ppm-axis = NY
      4.000000     3.992357     3.984714     3.977070     3.969427     3.961784     3.954141     3.946497     3.938854     3.931211
      3.923568     3.915925     3.908281     3.900638     3.892995     3.885352     3.877708     3.870065     3.862422     3.854779
      3.847136     3.839492     3.831849     3.824206     3.816563     3.808919     3.801276     3.793633     3.785990     3.778347
      3.770703     3.763060     3.755417     3.747774     3.740130     3.732487     3.724844     3.717201     3.709558     3.701914
      3.694271     3.686628     3.678985     3.671341     3.663698     3.656055     3.648412     3.640769     3.633125     3.625482
      3.617839     3.610196     3.602552     3.594909     3.587266     3.579623     3.571980     3.564336     3.556693     3.549050
      3.541407     3.533763     3.526120     3.518477     3.510834     3.503191     3.495547     3.487904     3.480261     3.472618
      3.464974     3.457331     3.449688     3.442045     3.434402     3.426758     3.419115     3.411472     3.403829     3.396185
      3.388542     3.380899     3.373256     3.365613     3.357969     3.350326     3.342683     3.335040     3.327396     3.319753
      3.312110     3.304467     3.296824     3.289180     3.281537     3.273894     3.266251     3.258607     3.250964     3.243321
      3.235678     3.228034     3.220391     3.212748     3.205105     3.197462     3.189818     3.182175     3.174532     3.166889
      3.159245     3.151602     3.143959     3.136316     3.128673     3.121029     3.113386     3.105743     3.098100     3.090456
      3.082813     3.075170     3.067527     3.059884     3.052240     3.044597     3.036954     3.029311     3.021667     3.014024
      3.006381     2.998738     2.991095     2.983451     2.975808     2.968165     2.960522     2.952878     2.945235     2.937592
      2.929949     2.922306     2.914662     2.907019     2.899376     2.891733     2.884089     2.876446     2.868803     2.861160
      2.853517     2.845873     2.838230     2.830587     2.822944     2.815300     2.807657     2.800014     2.792371     2.784728
      2.777084     2.769441     2.761798     2.754155     2.746511     2.738868     2.731225     2.723582     2.715939     2.708295
      2.700652     2.693009     2.685366     2.677722     2.670079     2.662436     2.654793     2.647150     2.639506     2.631863
      2.624220     2.616577     2.608933     2.601290     2.593647     2.586004     2.578361     2.570717     2.563074     2.555431
      2.547788     2.540144     2.532501     2.524858     2.517215     2.509572     2.501928     2.494285     2.486642     2.478999
      2.471355     2.463712     2.456069     2.448426     2.440783     2.433139     2.425496     2.417853     2.410210     2.402566
      2.394923     2.387280     2.379637     2.371994     2.364350     2.356707     2.349064     2.341421     2.333777     2.326134
      2.318491     2.310848     2.303205     2.295561     2.287918     2.280275     2.272632     2.264988     2.257345     2.249702
      2.242059     2.234416     2.226772     2.219129     2.211486     2.203843     2.196199     2.188556     2.180913     2.173270
      2.165627     2.157983     2.150340     2.142697     2.135054     2.127410     2.119767     2.112124     2.104481     2.096838
      2.089194     2.081551     2.073908     2.066265     2.058621     2.050978     2.043335     2.035692     2.028049     2.020405
      2.012762     2.005119     1.997476     1.989833     1.982190     1.974546     1.966903     1.959260     1.951617     1.943974
      1.936331     1.928688     1.921045     1.913402     1.905759     1.898115     1.890472     1.882829     1.875186     1.867543
      1.859900     1.852257     1.844614     1.836971     1.829327     1.821684     1.814041     1.806398     1.798755     1.791112
      1.783469     1.775826     1.768183     1.760540     1.752896     1.745253     1.737610     1.729967     1.722324     1.714681
      1.707038     1.699395     1.691752     1.684108     1.676465     1.668822     1.661179     1.653536     1.645893     1.638250
      1.630607     1.622964     1.615321     1.607677     1.600034     1.592391     1.584748     1.577105     1.569462     1.561819
      1.554176     1.546533     1.538890     1.531246     1.523603     1.515960     1.508317     1.500674     1.493031     1.485388
      1.477745     1.470102     1.462458     1.454815     1.447172     1.439529     1.431886     1.424243     1.416600     1.408957
      1.401314     1.393671     1.386027     1.378384     1.370741     1.363098     1.355455     1.347812     1.340169     1.332526
      1.324883     1.317240     1.309596     1.301953     1.294310     1.286667     1.279024     1.271381     1.263738     1.256095
      1.248452     1.240808     1.233165     1.225522     1.217879     1.210236     1.202593     1.194950     1.187307     1.179664
      1.172021     1.164377     1.156734     1.149091     1.141448     1.133805     1.126162     1.118519     1.110876     1.103233
      1.095590     1.087946     1.080303     1.072660     1.065017     1.057374     1.049731     1.042088     1.034445     1.026802
      1.019158     1.011515     1.003872     0.996229     0.988586     0.980943     0.973300     0.965657     0.958014     0.950371
      0.942727     0.935084     0.927441     0.919798     0.912155     0.904512     0.896869     0.889226     0.881583     0.873940
      0.866296     0.858653     0.851010     0.843367     0.835724     0.828081     0.820438     0.812795     0.805152     0.797508
      0.789865     0.782222     0.774579     0.766936     0.759293     0.751650     0.744007     0.736364     0.728721     0.721077
      0.713434     0.705791     0.698148     0.690505     0.682862     0.675219     0.667576     0.659933     0.652290     0.644646
      0.637003     0.629360     0.621717     0.614074     0.606431     0.598788     0.591145     0.583502     0.575858     0.568215
      0.560572     0.552929     0.545286     0.537643     0.530000     0.522357     0.514714     0.507071     0.499427     0.491784
      0.484141     0.476498     0.468855     0.461212     0.453569     0.445925     0.438282     0.430639     0.422996     0.415353
      0.407710     0.400067     0.392424     0.384780     0.377137     0.369494     0.361851     0.354208     0.346565     0.338922
      0.331278     0.323635     0.315992     0.308349     0.300706     0.293063     0.285420     0.277777     0.270133     0.262490
      0.254847     0.247204     0.239561     0.231918     0.224275     0.216631     0.208988     0.201345
 NY phased data points follow
  -6.38576E+00  8.47646E-01 -1.48258E+00 -4.15897E-01  1.12865E+01  1.63627E+01  1.52254E+01  1.43840E+01  2.85427E+01  3.66943E+01
   4.23242E+01  4.31866E+01  5.26376E+01  5.22394E+01  4.48372E+01  4.10318E+01  2.70003E+01  2.18839E+01  2.29117E+01  2.13825E+01
   2.63559E+01  1.65414E+01  1.77048E+01  1.60557E+01  2.39681E+01  1.79951E+01  1.92405E+01  2.70584E+01  3.12611E+01  2.18331E+01
   4.18544E+01  2.84428E+01  2.80068E+01  2.25595E+01  2.33013E+01  2.18993E+01  1.13345E+01  1.62751E+01  1.74788E+01  1.41217E+01
   1.28828E+01  1.87400E+01  2.23595E+01  1.65112E+01  2.32635E+01  2.49392E+01  2.81721E+01  2.46614E+01  3.48002E+01  3.50345E+01
   2.87347E+01  2.88051E+01  1.74388E+01  2.07139E+01  2.12938E+01  1.53863E+01  2.12639E+00  2.03607E+01  2.20188E+01  1.72390E+01
   1.57505E+01  2.24780E+01  7.95796E+00  1.24847E+01  3.26755E+00  3.65605E+00  8.92959E+00  4.57739E-01 -3.16302E-01 -1.91790E+00
   2.25131E+00 -6.45775E-01 -4.82775E-01  4.52804E+00  5.04082E+00  4.54759E+00  7.75777E+00 -6.00871E-01 -2.08455E+00  4.08640E+00
  -1.07408E+00  8.07825E+00  6.41471E+00  7.24836E+00  1.67088E+01  3.17904E+00 -1.55600E+00  4.48763E+00  1.04671E+01  7.98311E+00
   4.30121E+00  1.82144E+01  2.61219E+00  7.09524E+00  3.77459E+00  5.84051E+00  1.40317E+01  1.87046E+01  2.38629E+01  3.62591E+01
   5.07575E+01  6.07416E+01  8.08542E+01  9.43357E+01  9.85462E+01  8.90843E+01  7.97887E+01  7.23891E+01  5.20815E+01  4.99261E+01
   3.03624E+01  1.18210E+01  2.45670E+01  6.80610E+00  1.37639E+01  2.05556E+00  7.34561E+00  7.42821E+00  2.55251E+00  8.21171E+00
   2.06918E+00 -1.84093E+00  1.06088E+01  1.43678E+01  1.30796E+01  3.97607E+01  6.50117E+01  6.06929E+01  7.13666E+01  7.32322E+01
   5.39822E+01  6.07656E+01  3.80518E+01  3.22606E+01  2.80923E+01  2.03846E+01  1.42170E+01  6.73356E+00  3.74830E+00  9.39710E+00
   3.57043E+00  4.47243E+00 -2.22140E+00 -4.33722E+00  1.06392E+01  6.47877E+00  1.51359E+00 -1.57882E+00  3.20972E+00  5.30066E+00
  -1.81793E+00 -2.11218E+00  8.89994E+00  2.38385E+00  1.78548E+00  2.99191E+00 -5.47844E+00 -3.09348E+00 -8.51049E+00  2.78094E+00
  -2.95346E+00  1.97347E+00 -4.77807E+00 -1.05791E+01 -6.63737E+00 -5.41974E+00 -1.99566E+01 -1.83219E+01 -2.70396E+01 -1.01295E+01
  -1.15351E+01 -2.60936E+01 -1.52859E+01 -2.11601E+01 -2.84229E+01 -2.74041E+01 -3.11246E+01 -2.47952E+01 -3.19798E+01 -8.18586E+00
  -2.38619E+01 -1.57917E+01 -3.26705E+01 -2.04855E+01 -1.46494E+01 -2.72271E+01 -3.10191E+01 -2.61568E+01 -1.78849E+01 -1.86065E+01
  -6.70241E+00 -1.04882E+01 -1.64812E+00  6.50664E-01 -2.06685E+00  6.50474E+00 -6.10870E+00 -5.93433E+00 -3.35322E+00  3.36111E+00
  -2.83832E+00  6.73285E+00 -4.01964E+00  4.06103E+00 -6.61247E+00 -1.90526E+01 -1.03504E+01 -6.29207E+00 -1.23729E+01 -1.35043E+01
  -1.66901E+01 -1.65161E+00  4.09646E+00 -6.09869E+00 -6.57991E+00 -2.57584E+00  9.78883E+00  8.74967E+00  1.07989E+01 -5.29922E+00
  -3.62095E+00 -1.04639E+00 -8.66086E+00 -1.06266E+01 -6.47502E+00 -8.87280E-01  1.14359E+00  8.16166E+00  4.66499E+00  8.02551E+00
   7.86114E+00  1.25772E+01  1.76719E+01  1.62832E+01  1.80234E+01  1.98489E+01  1.29432E+01  1.71384E+01  1.13895E+01  1.86750E+01
   1.30518E+01  1.27117E+01  1.27358E+01  1.46526E+01  1.53485E+01  1.32025E+01  1.45093E+01  2.36254E+01  1.61599E+01  2.20913E+01
   1.87673E+01  2.89285E+01  3.84631E+01  4.76787E+01  5.71692E+01  7.57450E+01  9.28227E+01  1.05707E+02  1.12505E+02  1.27267E+02
   1.40821E+02  1.27183E+02  1.15742E+02  9.03390E+01  7.69963E+01  5.84382E+01  3.76101E+01  1.45054E+01  1.73852E+01  1.01520E+01
   9.92682E+00  1.47851E+01  5.09566E+00  7.43152E-01  7.40960E+00  3.40052E-02  1.47368E+00  1.54120E+01  7.31578E+00  8.25429E+00
  -4.13490E+00 -7.53466E-01 -7.10790E+00  4.69256E+00 -5.87110E+00 -7.90065E+00  8.63943E+00  7.96905E+00  1.54394E+00  4.57154E+00
   2.01587E+00 -2.41784E-01  4.61818E+00 -1.55234E-01 -3.43613E+00 -1.87099E+00  3.65912E+00 -1.33662E+01  3.09607E+00 -4.19216E+00
  -8.93308E+00 -1.77582E+00 -1.74271E+01 -1.70612E+01 -1.86579E+01 -2.37343E+01 -1.51826E+01 -2.16095E+01 -2.50818E+01 -3.53098E+01
  -3.85678E+01 -3.39377E+01 -3.22459E+01 -2.50053E+01 -2.92426E+01 -3.11906E+01 -2.26358E+01 -1.92417E+01 -1.03949E+01 -1.83091E+01
  -1.54097E+01 -9.08640E+00 -7.23206E+00  7.41706E-01 -2.82076E+00 -5.07643E-01  6.15945E+00 -7.23545E+00  4.01659E+00 -3.28422E+00
   9.28361E-01  3.94579E+00 -3.27868E+00  6.49928E+00  6.97707E+00  1.55281E+00  1.60455E+00  9.36898E+00  6.60391E+00 -4.05535E+00
   2.66721E+00  1.07193E+01  2.42932E+00  5.36701E+00  8.13719E+00  1.22611E+01  1.72284E+01  1.50834E+01  5.07099E+00  2.25440E+00
   8.71534E+00  9.63793E+00  3.24329E+00  9.75408E+00  1.22904E+01  9.20265E+00  2.14810E+01  7.39875E+00  1.32627E+01  7.00173E+00
   3.84115E+00 -2.53223E+00  7.94363E+00  2.11252E+00  1.05489E+01 -3.05252E-01  5.84189E+00 -8.95964E-01  3.53424E+00  3.93127E+00
   2.69298E+00 -1.19318E+01 -2.66293E+00 -4.01476E+00  5.53515E+00 -6.45120E+00 -2.59288E+00 -1.66003E+00 -2.83570E+00 -7.24449E+00
  -5.11510E+00 -8.28913E-01 -1.71625E+00  5.11491E+00 -6.15727E+00  2.66397E+00 -2.12490E+00  3.54250E+00  4.86634E+00  5.17005E+00
  -2.42965E+00  1.27736E+00 -5.72733E+00 -1.01343E+01  3.21112E+00 -1.28312E+01 -3.83292E+00  8.56611E+00  3.06661E+00  1.18355E+00
  -1.82554E+00  7.96579E+00  3.80161E+00 -5.57720E-01  3.95739E+00  1.16950E-01 -1.23660E+01  8.36961E+00  7.15157E+00  7.04248E+00
  -1.98989E+00 -1.00587E+01  2.82983E-01  3.97076E+00  2.29885E+00  5.14939E+00  3.50977E+00  7.65523E+00  2.76078E-01 -7.65505E-01
   8.01568E+00  2.49652E-01 -5.48040E+00  1.15701E+00 -8.92919E+00 -1.60756E+00  5.12912E-01 -4.02524E-01 -1.41695E+01 -6.25958E+00
  -1.24648E+01 -9.60304E+00 -1.18473E+01 -8.63384E-01  1.78250E+00 -1.09228E+01  2.54988E+00 -5.15977E+00 -3.49827E-01 -1.40117E+01
  -4.17896E-01 -6.70886E+00 -5.16683E+00 -5.55695E+00 -1.33231E+01 -6.23741E+00 -1.36516E+00 -1.95864E+00 -1.66706E+00 -7.60605E+00
  -1.99863E+00 -7.40052E+00 -2.10950E-01 -5.31286E+00 -1.29368E+01 -5.13648E+00 -8.28892E+00 -5.95208E+00 -4.36374E+00 -9.08207E+00
  -3.08321E+00 -5.26876E+00  4.37879E+00 -5.05293E+00  6.41948E+00 -3.09526E+00  5.65250E+00 -1.16740E+01 -2.74618E+00 -1.56917E+01
  -1.17541E+01 -3.34798E+00 -5.89234E+00  1.17141E+00 -4.55117E+00  3.86878E+00  6.01551E-01 -6.76124E+00  2.23626E+00 -1.22070E+01
  -9.95105E-01  1.12611E+00  8.78436E-01 -1.09212E+01  5.49260E+00 -5.37151E+00 -1.18199E-02 -2.99313E+00 -1.31469E+00 -6.20539E+00
  -1.09089E+01  1.25965E-01 -8.96981E+00 -9.05747E+00 -1.15603E+01 -7.68258E-01 -5.90716E+00  2.38492E+00
 NY points of the fit to the data follow
   6.83637E+00  4.89182E+00  3.55916E+00  3.34508E+00  5.14937E+00  8.86761E+00  1.34654E+01  1.87141E+01  2.47394E+01  3.14314E+01
   3.82557E+01  4.42636E+01  4.82081E+01  4.89101E+01  4.63195E+01  4.16286E+01  3.62149E+01  3.09110E+01  2.57922E+01  2.09623E+01
   1.63242E+01  1.24579E+01  1.09007E+01  1.11018E+01  1.22355E+01  1.43048E+01  1.73703E+01  2.13434E+01  2.57932E+01  3.00993E+01
   3.32319E+01  3.42531E+01  3.33057E+01  3.08092E+01  2.71024E+01  2.28043E+01  1.84810E+01  1.45518E+01  1.11756E+01  9.58873E+00
   1.04652E+01  1.24431E+01  1.50700E+01  1.84789E+01  2.25382E+01  2.67378E+01  3.02225E+01  3.21709E+01  3.18437E+01  2.89592E+01
   2.44831E+01  1.98997E+01  1.59731E+01  1.29199E+01  1.08141E+01  9.37341E+00  8.48743E+00  8.53292E+00  9.50858E+00  1.06831E+01
   1.12344E+01  1.09308E+01  9.78877E+00  8.18917E+00  6.72235E+00  5.66662E+00  5.17185E+00  5.19639E+00  5.54941E+00  6.17849E+00
   6.98987E+00  7.81629E+00  8.47570E+00  8.71367E+00  8.51238E+00  7.96880E+00  7.19401E+00  6.35270E+00  5.67344E+00  5.60752E+00
   5.72810E+00  5.78187E+00  6.07211E+00  6.62275E+00  7.27001E+00  7.78305E+00  7.90746E+00  7.30346E+00  5.93762E+00  4.18435E+00
   2.52709E+00  1.25728E+00  3.46385E-01 -3.37876E-01 -5.93056E-01  1.33556E+00  7.69033E+00  1.63296E+01  2.60147E+01  3.74440E+01
   5.11691E+01  6.65021E+01  8.14480E+01  9.29681E+01  9.75952E+01  9.35935E+01  8.30239E+01  6.95807E+01  5.59396E+01  4.31635E+01
   3.14243E+01  2.09141E+01  1.14596E+01  4.13846E+00  1.02368E+00 -1.71512E-01 -8.48258E-01 -1.27667E+00 -1.39759E+00 -5.51361E-01
   3.08008E+00  8.88049E+00  1.54950E+01  2.32037E+01  3.24521E+01  4.30683E+01  5.38519E+01  6.28524E+01  6.79556E+01  6.74932E+01
   6.18170E+01  5.31894E+01  4.35792E+01  3.39876E+01  2.47005E+01  1.61597E+01  8.85995E+00  3.26591E+00  8.78236E-01  9.12068E-01
   1.59501E+00  2.25313E+00  2.58583E+00  2.66310E+00  2.51209E+00  2.04338E+00  1.34688E+00  4.52784E-01 -5.84469E-01 -1.58187E+00
  -2.50994E+00 -3.23604E+00 -3.82325E+00 -4.42953E+00 -4.97905E+00 -5.41379E+00 -5.73847E+00 -6.00555E+00 -6.39835E+00 -6.91367E+00
  -7.42975E+00 -7.80693E+00 -7.98810E+00 -8.05770E+00 -8.21117E+00 -8.62564E+00 -9.30680E+00 -1.01576E+01 -1.10954E+01 -1.19080E+01
  -1.25321E+01 -1.31770E+01 -1.38960E+01 -1.47239E+01 -1.54552E+01 -1.58586E+01 -1.59888E+01 -1.59616E+01 -1.59391E+01 -1.60989E+01
  -1.62812E+01 -1.62350E+01 -1.57929E+01 -1.49431E+01 -1.37502E+01 -1.23177E+01 -1.07067E+01 -8.77174E+00 -6.64173E+00 -4.79258E+00
  -3.67176E+00 -3.43968E+00 -4.00445E+00 -5.02949E+00 -6.10966E+00 -6.85264E+00 -6.91772E+00 -6.16685E+00 -4.49923E+00 -2.14815E+00
   3.91605E-01  2.49315E+00  3.48534E+00  3.43325E+00  2.24379E+00 -2.33769E-01 -3.60245E+00 -7.17922E+00 -9.92152E+00 -1.12249E+01
  -1.09448E+01 -8.84982E+00 -5.34054E+00 -1.26526E+00  2.34085E+00  4.67708E+00  5.44604E+00  4.45244E+00  1.80853E+00 -1.70604E+00
  -5.38850E+00 -8.10945E+00 -9.26602E+00 -8.86921E+00 -6.97519E+00 -4.14668E+00 -9.90104E-01  1.70390E+00  3.50420E+00  4.86976E+00
   5.99997E+00  7.02524E+00  8.05097E+00  9.06277E+00  1.00058E+01  1.07860E+01  1.14182E+01  1.19372E+01  1.20454E+01  1.15649E+01
   1.07323E+01  9.74599E+00  8.97002E+00  8.88018E+00  9.68559E+00  1.11615E+01  1.28626E+01  1.48844E+01  1.74625E+01  2.03220E+01
   2.33509E+01  2.78720E+01  3.72114E+01  4.96133E+01  6.23424E+01  7.57137E+01  9.01349E+01  1.04907E+02  1.18562E+02  1.28919E+02
   1.32757E+02  1.27388E+02  1.13766E+02  9.59947E+01  7.77146E+01  6.06660E+01  4.54699E+01  3.22068E+01  2.05050E+01  1.05138E+01
   5.11178E+00  3.22766E+00  2.34414E+00  1.84546E+00  1.55325E+00  1.28571E+00  8.54504E-01  2.84680E-01 -3.77776E-01 -1.10380E+00
  -1.86655E+00 -2.59475E+00 -3.25259E+00 -3.81078E+00 -4.23183E+00 -4.52813E+00 -4.73696E+00 -4.89187E+00 -5.02439E+00 -5.14319E+00
  -5.25080E+00 -5.37199E+00 -5.50422E+00 -5.64083E+00 -5.78395E+00 -5.92655E+00 -6.05239E+00 -6.15981E+00 -6.25279E+00 -6.32761E+00
  -6.37921E+00 -6.41353E+00 -6.43095E+00 -6.43253E+00 -6.42624E+00 -6.41431E+00 -6.39683E+00 -6.37301E+00 -6.34226E+00 -6.30648E+00
  -6.26321E+00 -6.20912E+00 -6.14242E+00 -6.06059E+00 -5.96110E+00 -5.84172E+00 -5.69979E+00 -5.53264E+00 -5.33778E+00 -5.11289E+00
  -4.85575E+00 -4.56430E+00 -4.23686E+00 -3.87256E+00 -3.47166E+00 -3.03539E+00 -2.56593E+00 -2.06650E+00 -1.54148E+00 -9.96499E-01
  -4.38157E-01  1.26397E-01  6.90013E-01  1.24605E+00  1.78908E+00  2.31620E+00  2.82924E+00  3.33920E+00  3.87911E+00  4.51462E+00
   5.15648E+00  5.66919E+00  6.10997E+00  6.51692E+00  6.85383E+00  7.04157E+00  7.01457E+00  6.88466E+00  6.73626E+00  6.64345E+00
   6.79406E+00  7.29821E+00  8.11857E+00  9.12481E+00  1.01538E+01  1.09920E+01  1.13961E+01  1.12938E+01  1.06762E+01  9.57090E+00
   8.16320E+00  6.59986E+00  4.99484E+00  3.42585E+00  1.92528E+00  6.47615E-01 -3.41495E-01 -1.11574E+00 -1.72222E+00 -2.19463E+00
  -2.56101E+00 -2.84439E+00 -3.06282E+00 -3.22981E+00 -3.35491E+00 -3.44437E+00 -3.50170E+00 -3.52836E+00 -3.52442E+00 -3.48923E+00
  -3.42171E+00 -3.32047E+00 -3.18389E+00 -3.01024E+00 -2.79804E+00 -2.54618E+00 -2.25405E+00 -1.92145E+00 -1.54875E+00 -1.13705E+00
  -6.88558E-01 -2.06668E-01  3.03970E-01  8.37519E-01  1.38690E+00  1.94370E+00  2.49818E+00  3.03948E+00  3.55606E+00  4.03611E+00
   4.46788E+00  4.84002E+00  5.14202E+00  5.36477E+00  5.50111E+00  5.54620E+00  5.49765E+00  5.35559E+00  5.12267E+00  4.80405E+00
   4.40726E+00  3.94179E+00  3.41851E+00  2.84917E+00  2.24593E+00  1.62097E+00  9.86150E-01  3.52431E-01 -2.70468E-01 -8.74312E-01
  -1.45235E+00 -1.99928E+00 -2.51122E+00 -2.98570E+00 -3.42164E+00 -3.81907E+00 -4.17884E+00 -4.50239E+00 -4.79162E+00 -5.04885E+00
  -5.27669E+00 -5.47782E+00 -5.65482E+00 -5.81008E+00 -5.94589E+00 -6.06445E+00 -6.16784E+00 -6.25790E+00 -6.33618E+00 -6.40402E+00
  -6.46262E+00 -6.51316E+00 -6.55667E+00 -6.59400E+00 -6.62578E+00 -6.65258E+00 -6.67497E+00 -6.69350E+00 -6.70866E+00 -6.72076E+00
  -6.73004E+00 -6.73672E+00 -6.74112E+00 -6.74353E+00 -6.74414E+00 -6.74306E+00 -6.74035E+00 -6.73616E+00 -6.73069E+00 -6.72410E+00
  -6.71645E+00 -6.70776E+00 -6.69804E+00 -6.68741E+00 -6.67601E+00 -6.66392E+00 -6.65113E+00 -6.63762E+00 -6.62340E+00 -6.60859E+00
  -6.59328E+00 -6.57749E+00 -6.56116E+00 -6.54426E+00 -6.52683E+00 -6.50897E+00 -6.49073E+00 -6.47209E+00 -6.45296E+00 -6.43334E+00
  -6.41330E+00 -6.39290E+00 -6.37214E+00 -6.35095E+00 -6.32926E+00 -6.30709E+00 -6.28448E+00 -6.26149E+00 -6.23804E+00 -6.21403E+00
  -6.18942E+00 -6.16420E+00 -6.13844E+00 -6.11207E+00 -6.08497E+00 -6.05701E+00 -6.02811E+00 -5.99827E+00
 NY background values follow
    -4.300E+00   -4.320E+00   -4.340E+00   -4.360E+00   -4.380E+00   -4.400E+00   -4.420E+00   -4.440E+00   -4.460E+00   -4.480E+00
    -4.500E+00   -4.519E+00   -4.539E+00   -4.559E+00   -4.579E+00   -4.599E+00   -4.619E+00   -4.639E+00   -4.659E+00   -4.679E+00
    -4.699E+00   -4.719E+00   -4.739E+00   -4.759E+00   -4.779E+00   -4.799E+00   -4.819E+00   -4.839E+00   -4.859E+00   -4.878E+00
    -4.898E+00   -4.918E+00   -4.938E+00   -4.958E+00   -4.978E+00   -4.998E+00   -5.018E+00   -5.038E+00   -5.058E+00   -5.078E+00
    -5.098E+00   -5.118E+00   -5.138E+00   -5.158E+00   -5.178E+00   -5.198E+00   -5.218E+00   -5.238E+00   -5.258E+00   -5.278E+00
    -5.298E+00   -5.317E+00   -5.337E+00   -5.357E+00   -5.377E+00   -5.397E+00   -5.417E+00   -5.437E+00   -5.457E+00   -5.477E+00
    -5.497E+00   -5.517E+00   -5.536E+00   -5.556E+00   -5.576E+00   -5.596E+00   -5.616E+00   -5.635E+00   -5.655E+00   -5.675E+00
    -5.695E+00   -5.714E+00   -5.734E+00   -5.754E+00   -5.773E+00   -5.793E+00   -5.813E+00   -5.832E+00   -5.852E+00   -5.871E+00
    -5.891E+00   -5.910E+00   -5.930E+00   -5.949E+00   -5.969E+00   -5.988E+00   -6.008E+00   -6.027E+00   -6.046E+00   -6.066E+00
    -6.085E+00   -6.104E+00   -6.123E+00   -6.142E+00   -6.162E+00   -6.181E+00   -6.200E+00   -6.219E+00   -6.238E+00   -6.257E+00
    -6.276E+00   -6.294E+00   -6.313E+00   -6.332E+00   -6.351E+00   -6.370E+00   -6.388E+00   -6.407E+00   -6.425E+00   -6.444E+00
    -6.463E+00   -6.481E+00   -6.499E+00   -6.518E+00   -6.536E+00   -6.554E+00   -6.573E+00   -6.591E+00   -6.609E+00   -6.627E+00
    -6.645E+00   -6.663E+00   -6.681E+00   -6.699E+00   -6.716E+00   -6.734E+00   -6.752E+00   -6.769E+00   -6.787E+00   -6.804E+00
    -6.822E+00   -6.839E+00   -6.857E+00   -6.874E+00   -6.891E+00   -6.908E+00   -6.925E+00   -6.942E+00   -6.959E+00   -6.976E+00
    -6.993E+00   -7.009E+00   -7.026E+00   -7.043E+00   -7.059E+00   -7.076E+00   -7.092E+00   -7.108E+00   -7.124E+00   -7.140E+00
    -7.156E+00   -7.172E+00   -7.188E+00   -7.204E+00   -7.220E+00   -7.235E+00   -7.251E+00   -7.266E+00   -7.281E+00   -7.296E+00
    -7.312E+00   -7.326E+00   -7.341E+00   -7.356E+00   -7.371E+00   -7.385E+00   -7.400E+00   -7.414E+00   -7.428E+00   -7.442E+00
    -7.456E+00   -7.470E+00   -7.484E+00   -7.498E+00   -7.511E+00   -7.524E+00   -7.538E+00   -7.551E+00   -7.564E+00   -7.577E+00
    -7.589E+00   -7.602E+00   -7.615E+00   -7.627E+00   -7.639E+00   -7.651E+00   -7.663E+00   -7.675E+00   -7.687E+00   -7.698E+00
    -7.710E+00   -7.721E+00   -7.732E+00   -7.743E+00   -7.754E+00   -7.765E+00   -7.775E+00   -7.786E+00   -7.796E+00   -7.806E+00
    -7.817E+00   -7.827E+00   -7.836E+00   -7.846E+00   -7.856E+00   -7.865E+00   -7.875E+00   -7.884E+00   -7.893E+00   -7.902E+00
    -7.911E+00   -7.919E+00   -7.928E+00   -7.936E+00   -7.945E+00   -7.953E+00   -7.961E+00   -7.969E+00   -7.977E+00   -7.984E+00
    -7.992E+00   -7.999E+00   -8.007E+00   -8.014E+00   -8.021E+00   -8.028E+00   -8.035E+00   -8.041E+00   -8.048E+00   -8.054E+00
    -8.061E+00   -8.067E+00   -8.073E+00   -8.079E+00   -8.085E+00   -8.090E+00   -8.096E+00   -8.101E+00   -8.107E+00   -8.112E+00
    -8.117E+00   -8.122E+00   -8.127E+00   -8.131E+00   -8.136E+00   -8.140E+00   -8.145E+00   -8.149E+00   -8.153E+00   -8.157E+00
    -8.160E+00   -8.164E+00   -8.167E+00   -8.171E+00   -8.174E+00   -8.177E+00   -8.180E+00   -8.183E+00   -8.185E+00   -8.188E+00
    -8.190E+00   -8.192E+00   -8.195E+00   -8.196E+00   -8.198E+00   -8.200E+00   -8.202E+00   -8.203E+00   -8.204E+00   -8.205E+00
    -8.206E+00   -8.207E+00   -8.208E+00   -8.208E+00   -8.209E+00   -8.209E+00   -8.209E+00   -8.209E+00   -8.209E+00   -8.209E+00
    -8.208E+00   -8.208E+00   -8.207E+00   -8.206E+00   -8.205E+00   -8.204E+00   -8.202E+00   -8.201E+00   -8.199E+00   -8.197E+00
    -8.195E+00   -8.193E+00   -8.191E+00   -8.188E+00   -8.186E+00   -8.183E+00   -8.180E+00   -8.177E+00   -8.173E+00   -8.170E+00
    -8.166E+00   -8.162E+00   -8.158E+00   -8.154E+00   -8.150E+00   -8.145E+00   -8.141E+00   -8.136E+00   -8.131E+00   -8.126E+00
    -8.120E+00   -8.115E+00   -8.109E+00   -8.103E+00   -8.097E+00   -8.090E+00   -8.084E+00   -8.077E+00   -8.070E+00   -8.063E+00
    -8.056E+00   -8.049E+00   -8.041E+00   -8.033E+00   -8.026E+00   -8.017E+00   -8.009E+00   -8.001E+00   -7.992E+00   -7.983E+00
    -7.974E+00   -7.965E+00   -7.956E+00   -7.946E+00   -7.937E+00   -7.927E+00   -7.917E+00   -7.907E+00   -7.897E+00   -7.886E+00
    -7.876E+00   -7.865E+00   -7.854E+00   -7.843E+00   -7.832E+00   -7.821E+00   -7.809E+00   -7.798E+00   -7.786E+00   -7.774E+00
    -7.762E+00   -7.750E+00   -7.737E+00   -7.725E+00   -7.712E+00   -7.700E+00   -7.687E+00   -7.674E+00   -7.661E+00   -7.648E+00
    -7.634E+00   -7.621E+00   -7.607E+00   -7.594E+00   -7.580E+00   -7.566E+00   -7.552E+00   -7.537E+00   -7.523E+00   -7.509E+00
    -7.494E+00   -7.480E+00   -7.465E+00   -7.450E+00   -7.435E+00   -7.420E+00   -7.405E+00   -7.389E+00   -7.374E+00   -7.358E+00
    -7.343E+00   -7.327E+00   -7.311E+00   -7.295E+00   -7.279E+00   -7.263E+00   -7.247E+00   -7.230E+00   -7.214E+00   -7.197E+00
    -7.181E+00   -7.164E+00   -7.147E+00   -7.130E+00   -7.113E+00   -7.096E+00   -7.079E+00   -7.062E+00   -7.044E+00   -7.027E+00
    -7.009E+00   -6.992E+00   -6.974E+00   -6.956E+00   -6.938E+00   -6.920E+00   -6.902E+00   -6.884E+00   -6.866E+00   -6.847E+00
    -6.829E+00   -6.810E+00   -6.792E+00   -6.773E+00   -6.755E+00   -6.736E+00   -6.717E+00   -6.698E+00   -6.679E+00   -6.660E+00
    -6.641E+00   -6.622E+00   -6.603E+00   -6.583E+00   -6.564E+00   -6.545E+00   -6.525E+00   -6.506E+00   -6.486E+00   -6.467E+00
    -6.447E+00   -6.427E+00   -6.407E+00   -6.388E+00   -6.368E+00   -6.348E+00   -6.328E+00   -6.308E+00   -6.288E+00   -6.268E+00
    -6.248E+00   -6.228E+00   -6.208E+00   -6.187E+00   -6.167E+00   -6.147E+00   -6.127E+00   -6.106E+00   -6.086E+00   -6.066E+00
    -6.045E+00   -6.025E+00   -6.005E+00   -5.984E+00   -5.964E+00   -5.943E+00   -5.923E+00   -5.902E+00   -5.882E+00   -5.861E+00
    -5.841E+00   -5.820E+00   -5.799E+00   -5.779E+00   -5.758E+00   -5.738E+00   -5.717E+00   -5.696E+00   -5.676E+00   -5.655E+00
    -5.634E+00   -5.614E+00   -5.593E+00   -5.572E+00   -5.552E+00   -5.531E+00   -5.510E+00   -5.489E+00   -5.469E+00   -5.448E+00
    -5.427E+00   -5.407E+00   -5.386E+00   -5.365E+00   -5.344E+00   -5.324E+00   -5.303E+00   -5.282E+00   -5.261E+00   -5.241E+00
    -5.220E+00   -5.199E+00   -5.179E+00   -5.158E+00   -5.137E+00   -5.116E+00   -5.096E+00   -5.075E+00
 Cr       Conc. = 2.30E+03
