 LCModel (Version 6.3-1L) Copyright: S.W. Provencher.          Ref.: Magn. Reson. Med. 30:672-679 (1993).                
 Slice#2 Row#5 Col#4  PD_24_press_2_raw_act
 36 lines in following concentration table = NCONC+1
    Conc.  %SD /Cr+PCr  Metabolite                                         
  166.762 161% 5.7E-02 Ala                                                 
    0.000 999%   0.000 Asp                                                 
  936.248  65%   0.318 Cr                                                  
 2.01E+03  31%   0.682 PCr                                                 
  186.734 181% 6.3E-02 GABA                                                
  395.667  84%   0.134 Glc                                                 
 1.11E+03  53%   0.376 Gln                                                 
 2.61E+03  26%   0.888 Glu                                                 
 1.37E+03   4%   0.465 GPC                                                 
    0.000 999%   0.000 PCh                                                 
  794.683  24%   0.270 GSH                                                 
 3.43E+03  19%   1.167 Ins                                                 
    0.000 999%   0.000 Lac                                                 
 4.30E+03   6%   1.461 NAA                                                 
   60.061 493% 2.0E-02 NAAG                                                
  389.880  17%   0.132 Scyllo                                              
  866.960  55%   0.295 Tau                                                 
  590.485  48%   0.201 -CrCH2                                              
 1.37E+03   4%   0.465 GPC+PCh                                             
 4.36E+03   4%   1.481 NAA+NAAG                                            
 2.94E+03   5%   1.000 Cr+PCr                                              
 3.72E+03  26%   1.264 Glu+Gln                                             
    0.000 999%   0.000 Lip13a                                              
   96.903 201% 3.3E-02 Lip13b                                              
    0.000 999%   0.000 Lip09                                               
 2.51E+03  15%   0.854 MM09                                                
   28.328 281% 9.6E-03 Lip20                                               
 5.98E+03  12%   2.033 MM20                                                
  822.303  32%   0.279 MM12                                                
    0.000 999%   0.000 MM14                                                
    0.000 999%   0.000 MM17                                                
   96.903 201% 3.3E-02 Lip13a+Lip13b                                       
  919.207  33%   0.312 MM14+Lip13a+Lip13b+MM12                             
 2.51E+03  15%   0.854 MM09+Lip09                                          
 6.01E+03  12%   2.043 MM20+Lip20                                          
   6 lines in following misc. output table
  FWHM = 0.061 ppm    S/N =   9                                            
  Data shift = 0.008 ppm                                                   
  Ph: -31 deg      -7.3 deg/ppm                                            
  alphaB,S = 7.9E-01,   1.5E+02                                            
   14 spline knots.   Ns = 7(1)                                            
  (13) 2 infls.   (11) 1 extrs.                                            
  498 points on ppm-axis = NY
      4.000000     3.992357     3.984714     3.977070     3.969427     3.961784     3.954141     3.946497     3.938854     3.931211
      3.923568     3.915925     3.908281     3.900638     3.892995     3.885352     3.877708     3.870065     3.862422     3.854779
      3.847136     3.839492     3.831849     3.824206     3.816563     3.808919     3.801276     3.793633     3.785990     3.778347
      3.770703     3.763060     3.755417     3.747774     3.740130     3.732487     3.724844     3.717201     3.709558     3.701914
      3.694271     3.686628     3.678985     3.671341     3.663698     3.656055     3.648412     3.640769     3.633125     3.625482
      3.617839     3.610196     3.602552     3.594909     3.587266     3.579623     3.571980     3.564336     3.556693     3.549050
      3.541407     3.533763     3.526120     3.518477     3.510834     3.503191     3.495547     3.487904     3.480261     3.472618
      3.464974     3.457331     3.449688     3.442045     3.434402     3.426758     3.419115     3.411472     3.403829     3.396185
      3.388542     3.380899     3.373256     3.365613     3.357969     3.350326     3.342683     3.335040     3.327396     3.319753
      3.312110     3.304467     3.296824     3.289180     3.281537     3.273894     3.266251     3.258607     3.250964     3.243321
      3.235678     3.228034     3.220391     3.212748     3.205105     3.197462     3.189818     3.182175     3.174532     3.166889
      3.159245     3.151602     3.143959     3.136316     3.128673     3.121029     3.113386     3.105743     3.098100     3.090456
      3.082813     3.075170     3.067527     3.059884     3.052240     3.044597     3.036954     3.029311     3.021667     3.014024
      3.006381     2.998738     2.991095     2.983451     2.975808     2.968165     2.960522     2.952878     2.945235     2.937592
      2.929949     2.922306     2.914662     2.907019     2.899376     2.891733     2.884089     2.876446     2.868803     2.861160
      2.853517     2.845873     2.838230     2.830587     2.822944     2.815300     2.807657     2.800014     2.792371     2.784728
      2.777084     2.769441     2.761798     2.754155     2.746511     2.738868     2.731225     2.723582     2.715939     2.708295
      2.700652     2.693009     2.685366     2.677722     2.670079     2.662436     2.654793     2.647150     2.639506     2.631863
      2.624220     2.616577     2.608933     2.601290     2.593647     2.586004     2.578361     2.570717     2.563074     2.555431
      2.547788     2.540144     2.532501     2.524858     2.517215     2.509572     2.501928     2.494285     2.486642     2.478999
      2.471355     2.463712     2.456069     2.448426     2.440783     2.433139     2.425496     2.417853     2.410210     2.402566
      2.394923     2.387280     2.379637     2.371994     2.364350     2.356707     2.349064     2.341421     2.333777     2.326134
      2.318491     2.310848     2.303205     2.295561     2.287918     2.280275     2.272632     2.264988     2.257345     2.249702
      2.242059     2.234416     2.226772     2.219129     2.211486     2.203843     2.196199     2.188556     2.180913     2.173270
      2.165627     2.157983     2.150340     2.142697     2.135054     2.127410     2.119767     2.112124     2.104481     2.096838
      2.089194     2.081551     2.073908     2.066265     2.058621     2.050978     2.043335     2.035692     2.028049     2.020405
      2.012762     2.005119     1.997476     1.989833     1.982190     1.974546     1.966903     1.959260     1.951617     1.943974
      1.936331     1.928688     1.921045     1.913402     1.905759     1.898115     1.890472     1.882829     1.875186     1.867543
      1.859900     1.852257     1.844614     1.836971     1.829327     1.821684     1.814041     1.806398     1.798755     1.791112
      1.783469     1.775826     1.768183     1.760540     1.752896     1.745253     1.737610     1.729967     1.722324     1.714681
      1.707038     1.699395     1.691752     1.684108     1.676465     1.668822     1.661179     1.653536     1.645893     1.638250
      1.630607     1.622964     1.615321     1.607677     1.600034     1.592391     1.584748     1.577105     1.569462     1.561819
      1.554176     1.546533     1.538890     1.531246     1.523603     1.515960     1.508317     1.500674     1.493031     1.485388
      1.477745     1.470102     1.462458     1.454815     1.447172     1.439529     1.431886     1.424243     1.416600     1.408957
      1.401314     1.393671     1.386027     1.378384     1.370741     1.363098     1.355455     1.347812     1.340169     1.332526
      1.324883     1.317240     1.309596     1.301953     1.294310     1.286667     1.279024     1.271381     1.263738     1.256095
      1.248452     1.240808     1.233165     1.225522     1.217879     1.210236     1.202593     1.194950     1.187307     1.179664
      1.172021     1.164377     1.156734     1.149091     1.141448     1.133805     1.126162     1.118519     1.110876     1.103233
      1.095590     1.087946     1.080303     1.072660     1.065017     1.057374     1.049731     1.042088     1.034445     1.026802
      1.019158     1.011515     1.003872     0.996229     0.988586     0.980943     0.973300     0.965657     0.958014     0.950371
      0.942727     0.935084     0.927441     0.919798     0.912155     0.904512     0.896869     0.889226     0.881583     0.873940
      0.866296     0.858653     0.851010     0.843367     0.835724     0.828081     0.820438     0.812795     0.805152     0.797508
      0.789865     0.782222     0.774579     0.766936     0.759293     0.751650     0.744007     0.736364     0.728721     0.721077
      0.713434     0.705791     0.698148     0.690505     0.682862     0.675219     0.667576     0.659933     0.652290     0.644646
      0.637003     0.629360     0.621717     0.614074     0.606431     0.598788     0.591145     0.583502     0.575858     0.568215
      0.560572     0.552929     0.545286     0.537643     0.530000     0.522357     0.514714     0.507071     0.499427     0.491784
      0.484141     0.476498     0.468855     0.461212     0.453569     0.445925     0.438282     0.430639     0.422996     0.415353
      0.407710     0.400067     0.392424     0.384780     0.377137     0.369494     0.361851     0.354208     0.346565     0.338922
      0.331278     0.323635     0.315992     0.308349     0.300706     0.293063     0.285420     0.277777     0.270133     0.262490
      0.254847     0.247204     0.239561     0.231918     0.224275     0.216631     0.208988     0.201345
 NY phased data points follow
  -8.74621E+01 -8.84368E+01 -8.15001E+01 -7.82128E+01 -7.41291E+01 -4.89373E+01 -5.63616E+01 -1.92303E+01 -2.76838E+01 -1.66344E+01
  -2.23994E+01 -1.32943E+01 -1.22899E+01 -2.29182E+01 -2.47680E+01 -3.98163E+01 -3.86325E+01 -5.42403E+01 -4.12776E+01 -4.70496E+01
  -4.96018E+01 -6.16049E+01 -6.58784E+01 -5.60285E+01 -6.29982E+01 -5.26313E+01 -4.35302E+01 -3.72628E+01 -4.22536E+01 -2.94451E+01
  -4.70996E+01 -4.97228E+01 -4.02590E+01 -4.45051E+01 -4.79453E+01 -2.66138E+01 -4.28429E+01 -4.31536E+01 -4.47074E+01 -3.84564E+01
  -3.59542E+01 -4.36473E+01 -5.40754E+01 -3.22375E+01 -3.21071E+01 -2.77604E+01 -3.66622E+01 -2.81497E+01 -2.45724E+01 -2.30164E+01
  -2.46570E+01 -3.30418E+01 -3.60420E+01 -2.76887E+01 -4.40646E+01 -3.65746E+01 -3.16198E+01 -3.48218E+01 -3.79262E+01 -3.78288E+01
  -4.37360E+01 -3.76213E+01 -5.48057E+01 -3.80965E+01 -4.71792E+01 -4.62268E+01 -5.13025E+01 -3.95217E+01 -5.02126E+01 -4.12999E+01
  -4.42492E+01 -4.04680E+01 -4.36593E+01 -2.65930E+01 -2.90060E+01 -3.54580E+01 -4.08160E+01 -4.05251E+01 -3.35199E+01 -3.46103E+01
  -3.49817E+01 -2.58629E+01 -2.89135E+01 -2.88408E+01 -3.49853E+01 -2.91885E+01 -3.06137E+01 -2.16347E+01 -2.49946E+01 -2.27992E+01
  -3.64278E+01 -1.21295E+01 -2.77029E+01 -2.05067E+01 -3.39043E+01 -2.63743E+01 -2.72123E+01 -2.31824E+01 -1.32888E+01  1.03790E+01
   2.48144E+01  3.68347E+01  6.76058E+01  6.78532E+01  8.05463E+01  7.02318E+01  6.87879E+01  3.59581E+01  1.20148E+01  1.18722E+01
  -1.53761E+01 -1.12194E+01 -2.34595E+01 -2.04260E+01 -3.59400E+01 -3.08833E+01 -3.36773E+01 -3.98207E+01 -3.80227E+01 -4.13148E+01
  -3.91808E+01 -2.64258E+01 -1.97010E+01 -6.53031E+00  1.14670E+01  3.85757E+01  4.40321E+01  5.68551E+01  7.37563E+01  5.11042E+01
   3.69072E+01  2.28261E+01  1.12668E+01  3.97102E+00 -1.46973E+01 -2.47945E+01 -3.20273E+01 -2.45282E+01 -2.40855E+01 -4.16238E+01
  -2.31326E+01 -3.86227E+01 -3.83132E+01 -3.54848E+01 -3.19300E+01 -3.33809E+01 -4.28928E+01 -3.52889E+01 -2.65885E+01 -2.20229E+01
  -3.48968E+01 -3.67925E+01 -3.23487E+01 -3.62175E+01 -3.32710E+01 -3.21497E+01 -2.65425E+01 -2.48703E+01 -2.96265E+01 -3.20002E+01
  -3.04918E+01 -2.65026E+01 -3.00188E+01 -3.70680E+01 -3.32782E+01 -3.10278E+01 -3.25624E+01 -3.07847E+01 -3.46010E+01 -3.37129E+01
  -3.75835E+01 -3.23235E+01 -3.90369E+01 -4.66955E+01 -4.44999E+01 -4.55162E+01 -3.91459E+01 -4.30999E+01 -4.65468E+01 -4.02741E+01
  -4.74143E+01 -3.92488E+01 -4.09783E+01 -3.78616E+01 -3.78577E+01 -3.51636E+01 -4.01190E+01 -2.72302E+01 -2.29624E+01 -2.22517E+01
  -1.60286E+01 -1.73712E+01 -1.92769E+01 -1.94635E+01 -1.32189E+01 -2.13639E+01 -1.95667E+01 -1.73674E+01 -2.76534E+01 -2.09626E+01
  -1.81396E+01 -2.98198E+01 -1.92834E+01 -1.34226E+01 -1.59999E+01 -2.26960E+01 -3.61955E+01 -2.99715E+01 -2.27828E+01 -2.84271E+01
  -2.28628E+01 -1.95233E+01 -1.90131E+01 -1.45770E+01 -4.39938E+00 -2.78409E+00  1.62734E+00 -4.01980E+00 -9.34364E+00 -9.88039E+00
  -1.51141E+01 -2.02041E+01 -2.44511E+01 -1.14606E+01 -9.35906E+00 -7.46064E+00 -9.00605E+00 -1.82511E+00 -1.18947E+01 -2.17421E+00
  -7.84382E+00  3.38829E+00  3.88954E+00  2.43703E+00  1.49241E+01  2.79934E+00 -7.92791E-01  3.76827E+00 -9.07196E+00 -6.11686E+00
   2.94555E+00 -4.30073E+00 -8.82124E+00 -7.48738E+00 -7.50022E+00 -7.50356E-01  1.34869E+01  3.12800E+00  6.48927E+00  1.70081E+01
  -7.93087E+00  5.25953E+00  8.74015E+00  1.26529E+01  2.48329E+01  3.34829E+01  4.90103E+01  7.76780E+01  1.01141E+02  1.19270E+02
   1.19418E+02  1.37437E+02  1.17359E+02  1.07454E+02  8.60324E+01  5.10482E+01  3.96150E+01  3.53203E+01  2.43899E+01  1.10900E+01
   9.38261E+00 -4.64842E+00 -4.68075E+00 -1.06976E+01 -7.37626E-01 -1.25226E+01 -5.87702E+00  5.35889E+00 -4.72912E+00 -1.20017E+01
  -2.35525E+00  5.81385E-01 -1.27088E+01 -3.01694E+00 -4.53751E+00 -8.58462E+00 -6.59545E+00  6.31080E+00 -3.85880E+00 -5.13016E+00
  -1.53895E+01 -7.66177E+00 -1.23138E+01 -1.27943E+01 -2.52820E+01 -1.55500E+01 -1.58420E+01 -1.80096E+01 -1.88699E+01 -2.33848E+01
  -2.44393E+01 -2.51906E+01 -4.42515E+01 -3.40030E+01 -2.05447E+01 -2.78927E+01 -2.81459E+01 -1.90266E+01 -2.72320E+01 -3.10566E+01
  -2.70602E+01 -2.30931E+01 -1.77532E+01 -1.98821E+01 -6.68105E+00 -3.11116E+00 -1.39437E+01 -9.10222E+00 -9.90979E+00 -1.49466E+01
  -2.19220E+01 -1.16886E+00 -8.13001E+00 -1.58817E+01 -1.27536E+01 -7.28507E+00 -2.11375E+01 -2.11765E+01 -1.84982E+01 -1.66455E+01
  -2.35682E+01 -8.20314E+00 -2.36150E+01 -2.16701E+01 -2.90671E+01 -2.75989E+01 -2.55463E+01 -2.85169E+01 -2.32486E+01 -1.87623E+01
  -1.94582E+01 -1.75507E+01 -1.91539E+01 -1.94499E+01 -2.00250E+01 -2.49122E+01 -1.65913E+01 -1.71095E+01 -2.06530E+01 -2.13118E+01
  -2.13241E+01 -2.08701E+01 -1.80271E+01 -1.17670E+01 -1.46749E+01  4.52153E+00 -1.72160E+01 -4.84172E+00 -2.27169E+01 -1.19264E+01
  -1.10072E+01 -6.94442E+00 -8.51588E+00 -1.00099E+01 -2.15390E+00 -9.42947E+00 -1.86490E+01 -1.43974E+01 -1.81303E+01 -4.70407E+00
  -6.62187E+00 -1.29326E+01 -8.64323E+00 -2.32980E+00  1.42414E+00 -6.71369E+00 -8.74867E-01 -1.50079E+01 -2.13472E+01  2.13745E+00
  -4.37991E+00 -1.62383E+01 -1.76220E+01 -1.39136E+01 -1.07619E+01 -8.54995E+00 -2.41400E+01 -1.67810E+01 -6.53238E+00  4.84492E+00
  -1.05735E+00  3.13492E+00 -2.08923E+01 -9.54424E+00 -1.63080E+00 -8.13154E+00 -7.95134E+00 -1.97786E+01 -1.88163E+00 -1.09101E+01
   8.29832E+00  6.40836E+00 -2.87477E+00  1.71024E+00  1.67970E+00 -5.46823E-01 -4.64934E+00  4.21743E+00  2.53131E+01  3.59590E+00
   6.65913E-01  2.33162E+00 -5.25880E+00  5.45796E+00  5.05944E+00  7.21506E+00  8.66991E+00 -8.55063E-01 -2.70604E+00  7.55175E+00
   2.00252E+00  4.09732E+00 -7.09166E+00  3.01284E+00  1.58329E+00 -8.69069E+00  1.68822E+00 -2.86782E+00 -6.31163E+00 -3.61581E+00
  -4.60316E+00 -6.38599E+00 -8.10397E+00 -8.27659E+00 -2.24083E+00 -3.09447E-01 -8.59331E+00  2.77169E-01 -2.32545E+00 -7.57125E+00
  -7.65778E+00 -1.28518E+01 -1.02523E+01 -1.64978E+00  2.87138E+00 -8.67304E+00 -1.37253E+00 -5.52478E+00 -9.25891E+00 -2.48237E+00
  -8.95781E+00  2.79751E+00 -6.82440E+00 -1.28403E+00 -4.08752E+00 -1.07220E+01 -8.08928E+00  3.81308E+00 -9.73566E+00 -1.23475E+01
  -2.70271E+00 -1.65119E+00 -8.15353E+00  2.20910E+00  1.88165E+00  3.72645E-01 -2.10804E+00  2.03353E+00 -8.12207E+00 -1.36847E+01
  -3.23419E-01 -1.04879E+01 -7.38460E+00  5.31029E-01 -3.55379E+00  1.46904E+00 -2.55739E+00  2.35592E+00  4.26808E+00 -1.35308E+01
  -1.14344E+01  1.07728E+00  1.22164E+01  4.07999E+00  3.54718E+00 -1.90858E+00  3.88574E+00 -8.22242E+00 -8.88753E+00  5.72475E-01
   6.68615E+00  4.66499E+00 -1.15070E+01  1.32671E+01  1.11793E+00  3.84574E+00 -5.36514E+00  4.41023E+00
 NY points of the fit to the data follow
  -6.68038E+01 -6.75786E+01 -6.72891E+01 -6.54193E+01 -6.13744E+01 -5.47665E+01 -4.61465E+01 -3.65786E+01 -2.74101E+01 -1.98750E+01
  -1.50114E+01 -1.36612E+01 -1.59577E+01 -2.11980E+01 -2.78546E+01 -3.44420E+01 -4.04023E+01 -4.60153E+01 -5.08792E+01 -5.37756E+01
  -5.54014E+01 -5.61055E+01 -5.63910E+01 -5.61516E+01 -5.52604E+01 -5.35168E+01 -5.08670E+01 -4.75279E+01 -4.39589E+01 -4.06134E+01
  -3.79730E+01 -3.65334E+01 -3.65896E+01 -3.79443E+01 -4.00279E+01 -4.24533E+01 -4.50370E+01 -4.76535E+01 -4.96089E+01 -5.02616E+01
  -4.96934E+01 -4.76511E+01 -4.41838E+01 -3.97026E+01 -3.49554E+01 -3.08376E+01 -2.79201E+01 -2.66548E+01 -2.73723E+01 -2.97801E+01
  -3.33902E+01 -3.73891E+01 -4.07078E+01 -4.29225E+01 -4.43847E+01 -4.50201E+01 -4.42914E+01 -4.25605E+01 -4.08574E+01 -3.97622E+01
  -3.92991E+01 -3.94924E+01 -4.02213E+01 -4.12474E+01 -4.21594E+01 -4.25829E+01 -4.25210E+01 -4.21028E+01 -4.12741E+01 -4.00514E+01
  -3.85788E+01 -3.70484E+01 -3.57258E+01 -3.48476E+01 -3.45672E+01 -3.48274E+01 -3.54370E+01 -3.62861E+01 -3.71398E+01 -3.77840E+01
  -3.75927E+01 -3.62217E+01 -3.39753E+01 -3.13799E+01 -2.88375E+01 -2.67046E+01 -2.53999E+01 -2.51517E+01 -2.61008E+01 -2.80905E+01
  -3.06113E+01 -3.29465E+01 -3.46591E+01 -3.59054E+01 -3.68967E+01 -3.70444E+01 -3.41734E+01 -2.62560E+01 -1.29223E+01  5.20146E+00
   2.61073E+01  4.67797E+01  6.39553E+01  7.50340E+01  7.80187E+01  7.19292E+01  5.80675E+01  4.00546E+01  2.21889E+01  6.57932E+00
  -7.40826E+00 -2.03256E+01 -2.95480E+01 -3.29091E+01 -3.39378E+01 -3.43928E+01 -3.46335E+01 -3.46538E+01 -3.44254E+01 -3.36930E+01
  -3.10820E+01 -2.45619E+01 -1.36709E+01  9.78031E-01  1.76570E+01  3.38780E+01  4.71942E+01  5.57322E+01  5.78884E+01  5.28605E+01
   4.18281E+01  2.76034E+01  1.33993E+01  7.82625E-01 -1.07859E+01 -2.14798E+01 -2.86039E+01 -3.06589E+01 -3.07889E+01 -3.02745E+01
  -2.95807E+01 -2.89381E+01 -2.84012E+01 -2.80900E+01 -2.81111E+01 -2.83699E+01 -2.87924E+01 -2.93363E+01 -2.98837E+01 -3.03907E+01
  -3.07607E+01 -3.09842E+01 -3.11005E+01 -3.11265E+01 -3.11455E+01 -3.12588E+01 -3.15116E+01 -3.18777E+01 -3.22426E+01 -3.25058E+01
  -3.26194E+01 -3.25718E+01 -3.23861E+01 -3.21332E+01 -3.19179E+01 -3.18539E+01 -3.20587E+01 -3.25158E+01 -3.30724E+01 -3.36430E+01
  -3.43444E+01 -3.51711E+01 -3.59889E+01 -3.66323E+01 -3.69379E+01 -3.69813E+01 -3.68841E+01 -3.66364E+01 -3.62544E+01 -3.58370E+01
  -3.55468E+01 -3.54461E+01 -3.53439E+01 -3.49476E+01 -3.40893E+01 -3.28120E+01 -3.11925E+01 -2.91440E+01 -2.67784E+01 -2.44355E+01
  -2.26004E+01 -2.15718E+01 -2.12884E+01 -2.15511E+01 -2.20416E+01 -2.24568E+01 -2.26659E+01 -2.24202E+01 -2.14536E+01 -1.98104E+01
  -1.77296E+01 -1.56041E+01 -1.39506E+01 -1.32644E+01 -1.37038E+01 -1.52475E+01 -1.76803E+01 -2.05780E+01 -2.32256E+01 -2.48161E+01
  -2.48046E+01 -2.31431E+01 -2.02018E+01 -1.65589E+01 -1.30548E+01 -1.05767E+01 -9.75976E+00 -1.08273E+01 -1.35527E+01 -1.73044E+01
  -2.07177E+01 -2.28446E+01 -2.35267E+01 -2.27933E+01 -2.07166E+01 -1.75144E+01 -1.40633E+01 -1.12601E+01 -9.30284E+00 -7.96861E+00
  -6.95848E+00 -6.27627E+00 -5.81712E+00 -5.13568E+00 -4.03612E+00 -2.86979E+00 -1.98607E+00 -1.52189E+00 -1.46189E+00 -1.74576E+00
  -2.31791E+00 -2.84644E+00 -2.90045E+00 -2.36638E+00 -1.40762E+00 -2.01517E-01  1.23892E+00  2.66161E+00  3.86672E+00  4.97199E+00
   6.18770E+00  7.52463E+00  9.12856E+00  1.28122E+01  2.14784E+01  3.59059E+01  5.52893E+01  7.74554E+01  9.90891E+01  1.16692E+02
   1.27540E+02  1.29482E+02  1.21469E+02  1.05065E+02  8.42145E+01  6.35137E+01  4.52992E+01  2.87815E+01  1.34095E+01  2.33507E+00
  -2.16982E+00 -4.09051E+00 -5.23001E+00 -5.93474E+00 -6.42752E+00 -6.91480E+00 -7.43826E+00 -8.03534E+00 -8.71232E+00 -9.43755E+00
  -1.01686E+01 -1.08895E+01 -1.15571E+01 -1.21227E+01 -1.25849E+01 -1.29627E+01 -1.32770E+01 -1.35507E+01 -1.37979E+01 -1.40310E+01
  -1.42653E+01 -1.44949E+01 -1.47159E+01 -1.49303E+01 -1.51345E+01 -1.53212E+01 -1.54903E+01 -1.56443E+01 -1.57835E+01 -1.59070E+01
  -1.60183E+01 -1.61186E+01 -1.62080E+01 -1.62897E+01 -1.63655E+01 -1.64364E+01 -1.65030E+01 -1.65652E+01 -1.66231E+01 -1.66758E+01
  -1.67233E+01 -1.67655E+01 -1.68014E+01 -1.68299E+01 -1.68501E+01 -1.68605E+01 -1.68594E+01 -1.68431E+01 -1.68052E+01 -1.67310E+01
  -1.65914E+01 -1.63882E+01 -1.61716E+01 -1.60036E+01 -1.59501E+01 -1.60630E+01 -1.63658E+01 -1.68564E+01 -1.74837E+01 -1.81198E+01
  -1.86161E+01 -1.88493E+01 -1.87752E+01 -1.84500E+01 -1.79700E+01 -1.73885E+01 -1.67390E+01 -1.61654E+01 -1.57996E+01 -1.56222E+01
  -1.55563E+01 -1.55345E+01 -1.55492E+01 -1.56180E+01 -1.56723E+01 -1.56211E+01 -1.54904E+01 -1.53004E+01 -1.50581E+01 -1.47685E+01
  -1.44384E+01 -1.40781E+01 -1.37013E+01 -1.33250E+01 -1.29675E+01 -1.26457E+01 -1.23729E+01 -1.21568E+01 -1.19979E+01 -1.18909E+01
  -1.18258E+01 -1.17903E+01 -1.17723E+01 -1.17614E+01 -1.17509E+01 -1.17372E+01 -1.17202E+01 -1.17016E+01 -1.16837E+01 -1.16690E+01
  -1.16588E+01 -1.16533E+01 -1.16518E+01 -1.16520E+01 -1.16508E+01 -1.16445E+01 -1.16290E+01 -1.15999E+01 -1.15529E+01 -1.14838E+01
  -1.13883E+01 -1.12621E+01 -1.11013E+01 -1.09019E+01 -1.06602E+01 -1.03724E+01 -1.00347E+01 -9.64383E+00 -9.19653E+00 -8.69021E+00
  -8.12284E+00 -7.49317E+00 -6.80112E+00 -6.04809E+00 -5.23729E+00 -4.37388E+00 -3.46521E+00 -2.52087E+00 -1.55285E+00 -5.75450E-01
   3.94992E-01  1.34064E+00  2.24265E+00  3.08194E+00  3.83977E+00  4.49863E+00  5.04310E+00  5.46067E+00  5.74236E+00  5.88312E+00
   5.88205E+00  5.74249E+00  5.47185E+00  5.08129E+00  4.58506E+00  3.99972E+00  3.34331E+00  2.63460E+00  1.89228E+00  1.13429E+00
   3.77147E-01 -3.64605E-01 -1.07868E+00 -1.75514E+00 -2.38640E+00 -2.96717E+00 -3.49429E+00 -3.96651E+00 -4.38418E+00 -4.74883E+00
  -5.06290E+00 -5.32949E+00 -5.55216E+00 -5.73470E+00 -5.88096E+00 -5.99461E+00 -6.07912E+00 -6.13773E+00 -6.17346E+00 -6.18906E+00
  -6.18695E+00 -6.16921E+00 -6.13769E+00 -6.09401E+00 -6.03963E+00 -5.97584E+00 -5.90370E+00 -5.82412E+00 -5.73785E+00 -5.64564E+00
  -5.54814E+00 -5.44592E+00 -5.33941E+00 -5.22897E+00 -5.11496E+00 -4.99773E+00 -4.87758E+00 -4.75477E+00 -4.62948E+00 -4.50187E+00
  -4.37213E+00 -4.24046E+00 -4.10703E+00 -3.97194E+00 -3.83527E+00 -3.69712E+00 -3.55760E+00 -3.41685E+00 -3.27496E+00 -3.13196E+00
  -2.98789E+00 -2.84281E+00 -2.69682E+00 -2.54999E+00 -2.40237E+00 -2.25396E+00 -2.10478E+00 -1.95490E+00 -1.80439E+00 -1.65331E+00
  -1.50165E+00 -1.34941E+00 -1.19661E+00 -1.04332E+00 -8.89583E-01 -7.35427E-01 -5.80822E-01 -4.25773E-01 -2.70307E-01 -1.14487E-01
   4.16652E-02  1.98153E-01  3.55014E-01  5.12234E-01  6.69789E-01  8.27630E-01  9.85774E-01  1.14425E+00
 NY background values follow
    -7.719E+01   -7.679E+01   -7.639E+01   -7.599E+01   -7.559E+01   -7.519E+01   -7.479E+01   -7.439E+01   -7.399E+01   -7.359E+01
    -7.319E+01   -7.279E+01   -7.239E+01   -7.200E+01   -7.160E+01   -7.120E+01   -7.081E+01   -7.041E+01   -7.002E+01   -6.963E+01
    -6.924E+01   -6.885E+01   -6.846E+01   -6.807E+01   -6.768E+01   -6.730E+01   -6.691E+01   -6.653E+01   -6.615E+01   -6.577E+01
    -6.539E+01   -6.501E+01   -6.464E+01   -6.426E+01   -6.389E+01   -6.352E+01   -6.315E+01   -6.279E+01   -6.242E+01   -6.206E+01
    -6.170E+01   -6.134E+01   -6.098E+01   -6.063E+01   -6.028E+01   -5.993E+01   -5.958E+01   -5.924E+01   -5.889E+01   -5.855E+01
    -5.822E+01   -5.788E+01   -5.755E+01   -5.722E+01   -5.689E+01   -5.656E+01   -5.624E+01   -5.592E+01   -5.560E+01   -5.528E+01
    -5.497E+01   -5.465E+01   -5.435E+01   -5.404E+01   -5.373E+01   -5.343E+01   -5.313E+01   -5.283E+01   -5.254E+01   -5.224E+01
    -5.195E+01   -5.166E+01   -5.138E+01   -5.109E+01   -5.081E+01   -5.053E+01   -5.025E+01   -4.998E+01   -4.970E+01   -4.943E+01
    -4.917E+01   -4.890E+01   -4.864E+01   -4.837E+01   -4.812E+01   -4.786E+01   -4.760E+01   -4.735E+01   -4.710E+01   -4.685E+01
    -4.661E+01   -4.637E+01   -4.612E+01   -4.589E+01   -4.565E+01   -4.541E+01   -4.518E+01   -4.495E+01   -4.472E+01   -4.450E+01
    -4.427E+01   -4.405E+01   -4.383E+01   -4.361E+01   -4.339E+01   -4.317E+01   -4.296E+01   -4.274E+01   -4.253E+01   -4.232E+01
    -4.211E+01   -4.190E+01   -4.170E+01   -4.149E+01   -4.128E+01   -4.108E+01   -4.088E+01   -4.068E+01   -4.048E+01   -4.028E+01
    -4.008E+01   -3.988E+01   -3.968E+01   -3.948E+01   -3.929E+01   -3.909E+01   -3.890E+01   -3.870E+01   -3.851E+01   -3.831E+01
    -3.812E+01   -3.793E+01   -3.773E+01   -3.754E+01   -3.735E+01   -3.716E+01   -3.696E+01   -3.677E+01   -3.658E+01   -3.638E+01
    -3.619E+01   -3.600E+01   -3.581E+01   -3.561E+01   -3.542E+01   -3.523E+01   -3.503E+01   -3.484E+01   -3.465E+01   -3.446E+01
    -3.426E+01   -3.407E+01   -3.388E+01   -3.369E+01   -3.349E+01   -3.330E+01   -3.311E+01   -3.291E+01   -3.272E+01   -3.253E+01
    -3.234E+01   -3.214E+01   -3.195E+01   -3.176E+01   -3.157E+01   -3.137E+01   -3.118E+01   -3.099E+01   -3.080E+01   -3.060E+01
    -3.041E+01   -3.022E+01   -3.003E+01   -2.984E+01   -2.964E+01   -2.945E+01   -2.926E+01   -2.907E+01   -2.888E+01   -2.869E+01
    -2.849E+01   -2.830E+01   -2.811E+01   -2.792E+01   -2.773E+01   -2.754E+01   -2.735E+01   -2.716E+01   -2.697E+01   -2.678E+01
    -2.659E+01   -2.640E+01   -2.622E+01   -2.603E+01   -2.584E+01   -2.566E+01   -2.548E+01   -2.530E+01   -2.511E+01   -2.493E+01
    -2.476E+01   -2.458E+01   -2.440E+01   -2.423E+01   -2.406E+01   -2.389E+01   -2.372E+01   -2.355E+01   -2.338E+01   -2.322E+01
    -2.306E+01   -2.290E+01   -2.274E+01   -2.259E+01   -2.243E+01   -2.228E+01   -2.213E+01   -2.199E+01   -2.184E+01   -2.170E+01
    -2.157E+01   -2.143E+01   -2.130E+01   -2.117E+01   -2.104E+01   -2.092E+01   -2.080E+01   -2.068E+01   -2.056E+01   -2.045E+01
    -2.034E+01   -2.024E+01   -2.013E+01   -2.003E+01   -1.994E+01   -1.984E+01   -1.975E+01   -1.966E+01   -1.958E+01   -1.950E+01
    -1.942E+01   -1.934E+01   -1.927E+01   -1.920E+01   -1.913E+01   -1.906E+01   -1.900E+01   -1.894E+01   -1.888E+01   -1.882E+01
    -1.877E+01   -1.872E+01   -1.867E+01   -1.863E+01   -1.859E+01   -1.855E+01   -1.851E+01   -1.847E+01   -1.844E+01   -1.841E+01
    -1.838E+01   -1.835E+01   -1.833E+01   -1.831E+01   -1.829E+01   -1.827E+01   -1.826E+01   -1.825E+01   -1.824E+01   -1.823E+01
    -1.822E+01   -1.822E+01   -1.822E+01   -1.822E+01   -1.822E+01   -1.822E+01   -1.823E+01   -1.823E+01   -1.824E+01   -1.825E+01
    -1.827E+01   -1.828E+01   -1.829E+01   -1.831E+01   -1.832E+01   -1.834E+01   -1.836E+01   -1.838E+01   -1.840E+01   -1.842E+01
    -1.844E+01   -1.847E+01   -1.849E+01   -1.851E+01   -1.853E+01   -1.856E+01   -1.858E+01   -1.861E+01   -1.863E+01   -1.865E+01
    -1.868E+01   -1.870E+01   -1.872E+01   -1.874E+01   -1.877E+01   -1.879E+01   -1.881E+01   -1.883E+01   -1.885E+01   -1.887E+01
    -1.888E+01   -1.890E+01   -1.892E+01   -1.893E+01   -1.894E+01   -1.895E+01   -1.896E+01   -1.897E+01   -1.898E+01   -1.898E+01
    -1.899E+01   -1.899E+01   -1.899E+01   -1.899E+01   -1.899E+01   -1.898E+01   -1.898E+01   -1.897E+01   -1.896E+01   -1.895E+01
    -1.894E+01   -1.892E+01   -1.891E+01   -1.889E+01   -1.887E+01   -1.885E+01   -1.883E+01   -1.881E+01   -1.878E+01   -1.876E+01
    -1.873E+01   -1.870E+01   -1.867E+01   -1.863E+01   -1.860E+01   -1.856E+01   -1.853E+01   -1.849E+01   -1.844E+01   -1.840E+01
    -1.836E+01   -1.831E+01   -1.826E+01   -1.821E+01   -1.816E+01   -1.811E+01   -1.806E+01   -1.800E+01   -1.794E+01   -1.788E+01
    -1.782E+01   -1.776E+01   -1.770E+01   -1.763E+01   -1.756E+01   -1.749E+01   -1.742E+01   -1.735E+01   -1.727E+01   -1.720E+01
    -1.712E+01   -1.704E+01   -1.696E+01   -1.688E+01   -1.680E+01   -1.671E+01   -1.663E+01   -1.654E+01   -1.645E+01   -1.636E+01
    -1.626E+01   -1.617E+01   -1.607E+01   -1.598E+01   -1.588E+01   -1.578E+01   -1.568E+01   -1.558E+01   -1.547E+01   -1.537E+01
    -1.526E+01   -1.515E+01   -1.504E+01   -1.493E+01   -1.482E+01   -1.471E+01   -1.459E+01   -1.448E+01   -1.436E+01   -1.424E+01
    -1.412E+01   -1.400E+01   -1.388E+01   -1.376E+01   -1.363E+01   -1.351E+01   -1.338E+01   -1.326E+01   -1.313E+01   -1.300E+01
    -1.287E+01   -1.273E+01   -1.260E+01   -1.247E+01   -1.233E+01   -1.220E+01   -1.206E+01   -1.192E+01   -1.178E+01   -1.164E+01
    -1.150E+01   -1.136E+01   -1.122E+01   -1.107E+01   -1.093E+01   -1.078E+01   -1.064E+01   -1.049E+01   -1.035E+01   -1.020E+01
    -1.005E+01   -9.900E+00   -9.750E+00   -9.599E+00   -9.448E+00   -9.296E+00   -9.144E+00   -8.991E+00   -8.838E+00   -8.684E+00
    -8.529E+00   -8.374E+00   -8.219E+00   -8.063E+00   -7.906E+00   -7.750E+00   -7.593E+00   -7.435E+00   -7.277E+00   -7.119E+00
    -6.961E+00   -6.802E+00   -6.643E+00   -6.483E+00   -6.324E+00   -6.164E+00   -6.004E+00   -5.844E+00   -5.683E+00   -5.523E+00
    -5.362E+00   -5.201E+00   -5.039E+00   -4.878E+00   -4.716E+00   -4.554E+00   -4.392E+00   -4.230E+00   -4.067E+00   -3.905E+00
    -3.742E+00   -3.579E+00   -3.416E+00   -3.253E+00   -3.090E+00   -2.926E+00   -2.763E+00   -2.599E+00   -2.435E+00   -2.272E+00
    -2.108E+00   -1.944E+00   -1.779E+00   -1.615E+00   -1.451E+00   -1.287E+00   -1.122E+00   -9.576E-01   -7.931E-01   -6.286E-01
    -4.639E-01   -2.993E-01   -1.346E-01    3.004E-02    1.947E-01    3.595E-01    5.242E-01    6.889E-01
 Ala      Conc. = 1.67E+02
