 LCModel (Version 6.3-1L) Copyright: S.W. Provencher.          Ref.: Magn. Reson. Med. 30:672-679 (1993).                
 Slice#1 Row#2 Col#12  PD_24_press_2_raw_act
 36 lines in following concentration table = NCONC+1
    Conc.  %SD /Cr+PCr  Metabolite                                         
    0.000 999%   0.000 Ala                                                 
   36.213 156%   0.000 Asp                                                 
    0.000 999%   0.000 Cr                                                  
    0.000 999%   0.000 PCr                                                 
   15.890 214%   0.000 GABA                                                
   15.358 221%   0.000 Glc                                                 
  572.342 133%   0.000 Gln                                                 
  949.547  84%   0.000 Glu                                                 
    0.000 999%   0.000 GPC                                                 
   10.737 322%   0.000 PCh                                                 
    0.000 999%   0.000 GSH                                                 
  634.845  66%   0.000 Ins                                                 
    0.000 999%   0.000 Lac                                                 
  349.433  63%   0.000 NAA                                                 
  217.001 105%   0.000 NAAG                                                
    5.383 207%   0.000 Scyllo                                              
   18.995 294%   0.000 Tau                                                 
    0.000 999%   0.000 -CrCH2                                              
   10.737 322%   0.000 GPC+PCh                                             
  566.434  26%   0.000 NAA+NAAG                                            
    0.000 999%   0.000 Cr+PCr                                              
 1.52E+03  89%   0.000 Glu+Gln                                             
 3.91E+03  29%   0.000 Lip13a                                              
    0.000 999%   0.000 Lip13b                                              
 1.32E+03  26%   0.000 Lip09                                               
 3.32E+03  13%   0.000 MM09                                                
  716.931  36%   0.000 Lip20                                               
 6.83E+03  10%   0.000 MM20                                                
 1.04E+03  21%   0.000 MM12                                                
 1.22E+03  38%   0.000 MM14                                                
    0.000 999%   0.000 MM17                                                
 3.91E+03  29%   0.000 Lip13a+Lip13b                                       
 6.17E+03  16%   0.000 MM14+Lip13a+Lip13b+MM12                             
 4.64E+03  10%   0.000 MM09+Lip09                                          
 7.55E+03   8%   0.000 MM20+Lip20                                          
   6 lines in following misc. output table
  FWHM = 0.099 ppm    S/N =   3                                            
  Data shift = 0.161 ppm                                                   
  Ph:-147 deg      83.4 deg/ppm                                            
  alphaB,S = 3.9E-01,   1.2E+02                                            
   14 spline knots.   Ns = 9(1)                                            
  (12) 2 infls.   (13) 1 extrs.                                            
  498 points on ppm-axis = NY
      4.000000     3.992357     3.984714     3.977070     3.969427     3.961784     3.954141     3.946497     3.938854     3.931211
      3.923568     3.915925     3.908281     3.900638     3.892995     3.885352     3.877708     3.870065     3.862422     3.854779
      3.847136     3.839492     3.831849     3.824206     3.816563     3.808919     3.801276     3.793633     3.785990     3.778347
      3.770703     3.763060     3.755417     3.747774     3.740130     3.732487     3.724844     3.717201     3.709558     3.701914
      3.694271     3.686628     3.678985     3.671341     3.663698     3.656055     3.648412     3.640769     3.633125     3.625482
      3.617839     3.610196     3.602552     3.594909     3.587266     3.579623     3.571980     3.564336     3.556693     3.549050
      3.541407     3.533763     3.526120     3.518477     3.510834     3.503191     3.495547     3.487904     3.480261     3.472618
      3.464974     3.457331     3.449688     3.442045     3.434402     3.426758     3.419115     3.411472     3.403829     3.396185
      3.388542     3.380899     3.373256     3.365613     3.357969     3.350326     3.342683     3.335040     3.327396     3.319753
      3.312110     3.304467     3.296824     3.289180     3.281537     3.273894     3.266251     3.258607     3.250964     3.243321
      3.235678     3.228034     3.220391     3.212748     3.205105     3.197462     3.189818     3.182175     3.174532     3.166889
      3.159245     3.151602     3.143959     3.136316     3.128673     3.121029     3.113386     3.105743     3.098100     3.090456
      3.082813     3.075170     3.067527     3.059884     3.052240     3.044597     3.036954     3.029311     3.021667     3.014024
      3.006381     2.998738     2.991095     2.983451     2.975808     2.968165     2.960522     2.952878     2.945235     2.937592
      2.929949     2.922306     2.914662     2.907019     2.899376     2.891733     2.884089     2.876446     2.868803     2.861160
      2.853517     2.845873     2.838230     2.830587     2.822944     2.815300     2.807657     2.800014     2.792371     2.784728
      2.777084     2.769441     2.761798     2.754155     2.746511     2.738868     2.731225     2.723582     2.715939     2.708295
      2.700652     2.693009     2.685366     2.677722     2.670079     2.662436     2.654793     2.647150     2.639506     2.631863
      2.624220     2.616577     2.608933     2.601290     2.593647     2.586004     2.578361     2.570717     2.563074     2.555431
      2.547788     2.540144     2.532501     2.524858     2.517215     2.509572     2.501928     2.494285     2.486642     2.478999
      2.471355     2.463712     2.456069     2.448426     2.440783     2.433139     2.425496     2.417853     2.410210     2.402566
      2.394923     2.387280     2.379637     2.371994     2.364350     2.356707     2.349064     2.341421     2.333777     2.326134
      2.318491     2.310848     2.303205     2.295561     2.287918     2.280275     2.272632     2.264988     2.257345     2.249702
      2.242059     2.234416     2.226772     2.219129     2.211486     2.203843     2.196199     2.188556     2.180913     2.173270
      2.165627     2.157983     2.150340     2.142697     2.135054     2.127410     2.119767     2.112124     2.104481     2.096838
      2.089194     2.081551     2.073908     2.066265     2.058621     2.050978     2.043335     2.035692     2.028049     2.020405
      2.012762     2.005119     1.997476     1.989833     1.982190     1.974546     1.966903     1.959260     1.951617     1.943974
      1.936331     1.928688     1.921045     1.913402     1.905759     1.898115     1.890472     1.882829     1.875186     1.867543
      1.859900     1.852257     1.844614     1.836971     1.829327     1.821684     1.814041     1.806398     1.798755     1.791112
      1.783469     1.775826     1.768183     1.760540     1.752896     1.745253     1.737610     1.729967     1.722324     1.714681
      1.707038     1.699395     1.691752     1.684108     1.676465     1.668822     1.661179     1.653536     1.645893     1.638250
      1.630607     1.622964     1.615321     1.607677     1.600034     1.592391     1.584748     1.577105     1.569462     1.561819
      1.554176     1.546533     1.538890     1.531246     1.523603     1.515960     1.508317     1.500674     1.493031     1.485388
      1.477745     1.470102     1.462458     1.454815     1.447172     1.439529     1.431886     1.424243     1.416600     1.408957
      1.401314     1.393671     1.386027     1.378384     1.370741     1.363098     1.355455     1.347812     1.340169     1.332526
      1.324883     1.317240     1.309596     1.301953     1.294310     1.286667     1.279024     1.271381     1.263738     1.256095
      1.248452     1.240808     1.233165     1.225522     1.217879     1.210236     1.202593     1.194950     1.187307     1.179664
      1.172021     1.164377     1.156734     1.149091     1.141448     1.133805     1.126162     1.118519     1.110876     1.103233
      1.095590     1.087946     1.080303     1.072660     1.065017     1.057374     1.049731     1.042088     1.034445     1.026802
      1.019158     1.011515     1.003872     0.996229     0.988586     0.980943     0.973300     0.965657     0.958014     0.950371
      0.942727     0.935084     0.927441     0.919798     0.912155     0.904512     0.896869     0.889226     0.881583     0.873940
      0.866296     0.858653     0.851010     0.843367     0.835724     0.828081     0.820438     0.812795     0.805152     0.797508
      0.789865     0.782222     0.774579     0.766936     0.759293     0.751650     0.744007     0.736364     0.728721     0.721077
      0.713434     0.705791     0.698148     0.690505     0.682862     0.675219     0.667576     0.659933     0.652290     0.644646
      0.637003     0.629360     0.621717     0.614074     0.606431     0.598788     0.591145     0.583502     0.575858     0.568215
      0.560572     0.552929     0.545286     0.537643     0.530000     0.522357     0.514714     0.507071     0.499427     0.491784
      0.484141     0.476498     0.468855     0.461212     0.453569     0.445925     0.438282     0.430639     0.422996     0.415353
      0.407710     0.400067     0.392424     0.384780     0.377137     0.369494     0.361851     0.354208     0.346565     0.338922
      0.331278     0.323635     0.315992     0.308349     0.300706     0.293063     0.285420     0.277777     0.270133     0.262490
      0.254847     0.247204     0.239561     0.231918     0.224275     0.216631     0.208988     0.201345
 NY phased data points follow
   8.79623E+00  1.76225E+00 -5.53931E+00  7.43683E+00  9.61089E+00  8.41715E+00  1.29251E+00  1.04290E+00 -1.61355E+00  1.90175E+00
   2.17609E+00  5.90207E+00  7.48500E+00  3.80436E+00  8.24699E-01  2.47068E+00  2.75675E+00  7.05373E+00  9.97032E+00  1.58906E+01
   9.23380E-02  6.05052E+00 -2.14670E+00  5.16455E+00 -3.29073E-01  7.71805E+00  5.63107E+00  5.54318E+00  1.76519E+00  4.44120E+00
   1.07612E+00  1.00003E+01  3.56722E+00  7.05888E+00  2.95452E+00  5.94415E+00  3.65657E+00  9.06501E+00  1.54070E+00  6.52334E+00
   6.47440E+00 -1.41158E+00  9.28652E+00  4.49579E+00 -6.42545E-01  8.04778E+00  3.87511E+00  5.42432E+00  5.85330E+00  3.37739E+00
   8.70142E+00 -1.13793E+00  3.79181E+00  7.94967E+00 -7.08886E-02 -1.30148E+00  7.30386E+00  7.64070E+00  5.13516E+00  1.84779E+00
   8.43814E+00  7.38151E+00  1.81172E+00  9.87741E+00  1.84478E+00  3.15080E+00 -2.67043E+00  3.63192E-01  8.75379E+00 -3.83222E-01
   1.77382E+00  5.32837E+00  5.34986E+00  2.59088E+00  7.67819E-01  4.98119E+00  7.58036E+00  2.98983E+00  1.64858E+00  3.87534E+00
   1.35401E+00  5.14283E+00  9.60928E+00  8.41742E-01  1.08268E+01  2.66644E+00 -7.72357E-01  6.32730E+00  9.99042E+00  6.80048E-01
   6.63324E+00  1.13401E+00  2.40345E+00 -1.22656E-01  4.19834E+00  1.91192E+00  3.58709E+00  1.53269E+01  4.47478E+00  7.52755E+00
   8.98337E+00  1.30703E+01  2.88756E+00  8.60279E+00  8.67927E+00  7.13783E+00  2.10582E+00  4.87941E+00  3.71859E+00  8.04741E+00
   7.83477E+00  1.01137E+01  5.80303E+00  5.92144E+00  9.99446E+00  6.37459E+00  1.19136E+01  4.36017E+00  7.02939E+00  9.84502E+00
   1.30825E+00  1.00761E+01  6.91886E+00  8.17382E+00  7.25054E+00  1.33535E+01  1.12099E+01  9.20727E+00  2.17893E+00  8.24784E+00
   1.08666E+01  6.26872E+00  2.46989E-01  1.01239E+01  6.43777E+00  6.41584E+00  2.48580E+00  8.53136E+00  4.65244E+00  5.94752E+00
   7.43298E+00  2.70167E+00  5.26390E+00  5.65378E+00  6.67878E+00  4.54294E+00  1.61823E+00  1.64326E+00  2.47864E+00  6.58082E+00
   5.04293E+00  9.32305E+00  2.65453E+00  5.95896E+00  5.60507E+00  8.71141E-01  5.63153E+00 -9.35009E-01  1.16308E+01  1.11416E+01
   3.18117E+00  5.89647E+00  6.97417E+00  5.96731E+00  6.85093E+00  1.10544E+01  8.72636E+00  5.17074E+00  3.36104E+00  5.93865E-01
  -1.91011E+00  7.36663E+00  7.81228E+00 -8.13438E-02  7.43720E+00  5.64016E+00  7.48812E+00  7.67101E+00  2.23719E+00  2.49911E+00
   4.12689E+00  8.13063E+00  1.07991E+01  1.57757E-01  7.17358E+00  8.52919E+00  7.02336E+00  9.64281E+00  9.60071E+00  1.07919E+01
   1.07596E+01  9.01770E+00 -1.25257E+00  7.35235E+00  1.32588E+01  8.39953E+00  7.42010E+00  6.38665E+00  6.02004E+00  6.75231E+00
   6.52260E+00  1.21212E+00  7.36866E+00  5.39222E+00  1.71578E+01  6.18175E+00  1.17394E+01  9.81087E+00  1.19478E+01  5.60741E+00
   7.56351E+00  1.35503E+01  9.34234E+00  1.28956E+01  8.62574E+00  1.17387E+01  6.50226E+00  2.76073E+00  1.42399E+01  1.37064E+01
   9.48308E+00  1.40468E+01  1.23342E+01  1.18889E+01  1.53255E+01  7.98910E+00  1.27390E+01  1.44946E+01  1.36545E+01  1.43893E+01
   1.82099E+01  1.98808E+01  1.65881E+01  1.72072E+01  1.34167E+01  1.75502E+01  2.31799E+01  1.80605E+01  1.87285E+01  1.72805E+01
   2.16050E+01  1.12474E+01  1.01080E+01  1.95416E+01  2.44144E+01  2.61051E+01  2.16542E+01  2.48937E+01  1.90267E+01  1.96744E+01
   2.70054E+01  2.55578E+01  2.55618E+01  2.71368E+01  2.30832E+01  2.85664E+01  2.84506E+01  2.60553E+01  2.85465E+01  2.29129E+01
   3.06027E+01  3.33088E+01  2.20252E+01  2.27813E+01  2.12173E+01  2.42154E+01  1.54466E+01  1.17982E+01  9.37335E+00  9.11039E+00
   1.56018E+01  7.36257E+00  1.12661E+01  1.53008E+00  1.00873E+01  5.26379E+00  6.76902E+00  5.57631E+00  7.89169E+00  7.78314E+00
   7.40835E+00  5.75698E+00  8.60520E+00  2.51340E+00  3.25192E+00  6.35154E+00  4.49730E+00  4.89502E+00 -6.60771E-01  4.40024E+00
  -6.27708E+00 -7.45094E+00 -7.87169E+00 -1.15795E+01 -1.33440E+01 -1.20894E+01 -1.30479E+01 -2.16425E+01 -2.88204E+01 -2.29763E+01
  -2.78384E+01 -2.68920E+01 -2.46915E+01 -3.03872E+01 -2.60714E+01 -3.21743E+01 -2.37652E+01 -2.23294E+01 -2.72737E+01 -2.66169E+01
  -2.53781E+01 -1.96823E+01 -2.03571E+01 -2.45587E+01 -1.86413E+01 -2.70129E+01 -2.15524E+01 -1.92160E+01 -2.09914E+01 -1.81886E+01
  -2.05643E+01 -2.26685E+01 -1.94001E+01 -1.67310E+01 -1.87853E+01 -1.39385E+01 -1.84749E+01 -1.37483E+01 -1.89111E+01 -1.50922E+01
  -1.31500E+01 -8.18416E+00 -1.45433E+01 -1.70658E+01 -2.14455E+01 -1.07891E+01 -1.54164E+01 -1.61642E+01 -1.29326E+01 -1.96122E+01
  -1.88004E+01 -1.06582E+01 -1.76266E+01 -1.57715E+01 -1.38384E+01 -9.21091E+00 -1.37645E+01 -1.04383E+01 -1.59323E+01 -1.34648E+01
  -1.51352E+01 -1.74551E+01 -7.10347E+00 -1.27754E+01 -9.18686E+00 -7.44498E+00 -7.35814E+00 -1.03747E+01 -8.91465E+00 -1.44199E+01
  -1.31685E+01 -1.75413E+01 -1.40057E+01 -4.81838E+00 -4.02286E+00 -1.05214E+01 -1.41386E+00 -7.71310E+00 -4.68350E+00 -4.58187E+00
  -5.77270E-01 -1.14195E+00 -2.83944E-01 -6.20378E+00 -1.62084E-02  1.70183E-01 -8.41318E+00 -6.46281E+00 -3.04485E+00  3.93920E-01
  -1.31009E+00  2.01459E+00 -4.41337E+00 -5.67485E+00 -5.81294E+00  6.71611E+00 -4.44538E+00 -5.86031E-01 -3.69842E+00  2.43750E+00
  -2.77735E+00 -5.76657E+00  1.88153E+00 -4.04685E+00 -3.89849E+00 -5.61493E+00 -1.82942E+00 -6.41927E+00 -2.14879E+00  6.53650E-01
  -1.76826E+00 -6.40879E+00 -3.64917E+00 -4.70016E+00  9.96110E-01 -6.15968E+00 -3.57266E+00 -8.80073E+00 -3.47234E-01 -5.55382E+00
  -2.48887E+00 -5.77670E+00 -4.52933E+00 -6.16364E+00 -2.19615E+00 -7.58633E+00 -4.23579E+00 -1.07230E+01 -1.33993E+00 -8.42100E+00
  -9.32522E+00 -1.49089E+00 -5.04843E+00 -8.33746E-01 -2.62737E+00 -9.76204E+00 -4.74284E+00 -3.73226E+00 -3.35501E+00 -9.93919E-01
  -3.49835E+00 -7.17149E+00 -1.72257E+00  7.93813E-01 -3.27849E-01 -3.55981E-01 -5.81183E+00 -7.35371E+00  1.02073E+00  3.13534E+00
  -6.08292E+00 -4.39739E+00 -1.74510E+00  2.28881E+00 -2.46528E+00 -4.55503E+00  2.64513E+00 -1.27704E+01 -5.11443E-02 -6.39020E+00
   2.24046E+00 -3.39889E+00  1.08046E+00 -3.13259E+00 -7.20076E+00 -1.75593E+00 -5.83301E+00  7.40909E+00 -5.98972E-01 -5.13202E+00
  -2.46702E+00 -3.77661E+00 -1.14329E+00 -2.74794E+00 -2.01232E+00  2.02502E+00 -3.06990E+00 -3.65979E+00 -3.24445E+00 -2.26594E+00
  -2.16539E+00 -7.37046E+00  1.52500E+00 -1.67069E+00 -6.92118E-01  8.14788E-01 -7.12071E+00  2.80324E+00 -3.83471E+00  8.14212E-01
   4.33090E-01 -4.86167E+00 -3.37315E+00 -9.44667E+00  1.25828E+00 -8.37977E+00 -1.83995E+00 -8.67812E+00 -3.75172E+00 -3.36009E+00
  -3.62235E+00 -7.98538E+00 -1.29150E+00 -1.27014E+00 -3.55320E+00 -7.80953E+00 -6.96557E+00 -5.38567E+00
 NY points of the fit to the data follow
   4.56978E+00  4.43804E+00  4.39940E+00  4.46273E+00  4.57953E+00  4.71181E+00  4.87006E+00  5.03234E+00  5.17214E+00  5.29199E+00
   5.39814E+00  5.49634E+00  5.59256E+00  5.68955E+00  5.78746E+00  5.88407E+00  5.96805E+00  6.00721E+00  5.97280E+00  5.88116E+00
   5.78050E+00  5.71841E+00  5.74777E+00  5.89917E+00  6.10762E+00  6.29377E+00  6.38966E+00  6.37052E+00  6.24913E+00  6.07316E+00
   5.92351E+00  5.86170E+00  5.89844E+00  6.01157E+00  6.15104E+00  6.24738E+00  6.23401E+00  6.08549E+00  5.86485E+00  5.67422E+00
   5.58014E+00  5.61513E+00  5.80069E+00  6.08620E+00  6.31907E+00  6.41090E+00  6.32930E+00  6.10536E+00  5.78709E+00  5.43962E+00
   5.12940E+00  4.84511E+00  4.54471E+00  4.23294E+00  3.95362E+00  3.77215E+00  3.74567E+00  3.90577E+00  4.22011E+00  4.55768E+00
   4.80425E+00  4.93961E+00  5.00101E+00  5.01364E+00  4.98005E+00  4.90976E+00  4.82532E+00  4.75286E+00  4.71343E+00  4.73146E+00
   4.81487E+00  4.92626E+00  5.02168E+00  5.06886E+00  5.05370E+00  4.98568E+00  4.88073E+00  4.75331E+00  4.61020E+00  4.45974E+00
   4.32199E+00  4.21540E+00  4.16235E+00  4.16479E+00  4.20380E+00  4.27202E+00  4.36402E+00  4.47702E+00  4.59965E+00  4.72464E+00
   4.85502E+00  5.00084E+00  5.17657E+00  5.39230E+00  5.64983E+00  5.92527E+00  6.18193E+00  6.38609E+00  6.51713E+00  6.59244E+00
   6.64556E+00  6.70700E+00  6.79427E+00  6.91661E+00  7.07660E+00  7.26820E+00  7.47437E+00  7.67712E+00  7.85089E+00  7.98880E+00
   8.10314E+00  8.21104E+00  8.32936E+00  8.47082E+00  8.63946E+00  8.81366E+00  8.97618E+00  9.12583E+00  9.26101E+00  9.38169E+00
   9.48670E+00  9.57621E+00  9.64970E+00  9.70585E+00  9.74290E+00  9.75888E+00  9.75207E+00  9.72201E+00  9.66800E+00  9.58995E+00
   9.48887E+00  9.36614E+00  9.22392E+00  9.06338E+00  8.88720E+00  8.70028E+00  8.50754E+00  8.31362E+00  8.12067E+00  7.92959E+00
   7.74154E+00  7.55805E+00  7.37965E+00  7.20640E+00  7.03789E+00  6.87222E+00  6.71119E+00  6.55944E+00  6.41933E+00  6.29331E+00
   6.18048E+00  6.07165E+00  5.95812E+00  5.84127E+00  5.72890E+00  5.62875E+00  5.54607E+00  5.47562E+00  5.40995E+00  5.34509E+00
   5.27889E+00  5.20950E+00  5.14000E+00  5.07276E+00  5.00722E+00  4.94344E+00  4.88434E+00  4.83093E+00  4.78554E+00  4.75177E+00
   4.72339E+00  4.68830E+00  4.64257E+00  4.59880E+00  4.57091E+00  4.57086E+00  4.59862E+00  4.63716E+00  4.67602E+00  4.71953E+00
   4.77547E+00  4.85020E+00  4.95106E+00  5.07217E+00  5.19298E+00  5.29236E+00  5.36354E+00  5.40719E+00  5.43612E+00  5.45955E+00
   5.47492E+00  5.48542E+00  5.50624E+00  5.56478E+00  5.67572E+00  5.83494E+00  6.03101E+00  6.24084E+00  6.42793E+00  6.58257E+00
   6.67521E+00  6.64669E+00  6.52577E+00  6.38991E+00  6.27452E+00  6.20935E+00  6.23042E+00  6.36240E+00  6.53314E+00  6.67782E+00
   6.77597E+00  6.83349E+00  6.87312E+00  6.91922E+00  7.02580E+00  7.28255E+00  7.73180E+00  8.30145E+00  8.86284E+00  9.28498E+00
   9.43478E+00  9.26247E+00  8.91682E+00  8.58673E+00  8.39238E+00  8.46117E+00  8.89336E+00  9.68314E+00  1.06565E+01  1.16850E+01
   1.26728E+01  1.35253E+01  1.41724E+01  1.45812E+01  1.48111E+01  1.50269E+01  1.53173E+01  1.56845E+01  1.61396E+01  1.66831E+01
   1.72933E+01  1.79292E+01  1.85529E+01  1.91538E+01  1.97276E+01  2.02608E+01  2.07662E+01  2.13271E+01  2.19760E+01  2.26730E+01
   2.33848E+01  2.41911E+01  2.51767E+01  2.62042E+01  2.71219E+01  2.78915E+01  2.84351E+01  2.86887E+01  2.86587E+01  2.83472E+01
   2.76896E+01  2.66220E+01  2.51692E+01  2.34134E+01  2.14263E+01  1.92494E+01  1.69540E+01  1.46477E+01  1.22911E+01  9.90551E+00
   7.69327E+00  5.92613E+00  4.62599E+00  3.51752E+00  2.50365E+00  1.56580E+00  6.79620E-01 -1.67219E-01 -9.73771E-01 -1.75535E+00
  -2.52451E+00 -3.28658E+00 -4.04047E+00 -4.77780E+00 -5.48216E+00 -6.14096E+00 -6.75408E+00 -7.32869E+00 -7.87365E+00 -8.39436E+00
  -8.89570E+00 -9.38289E+00 -9.85845E+00 -1.03199E+01 -1.07644E+01 -1.11910E+01 -1.16019E+01 -1.19987E+01 -1.23844E+01 -1.27623E+01
  -1.31342E+01 -1.35012E+01 -1.38630E+01 -1.42167E+01 -1.45604E+01 -1.48937E+01 -1.52163E+01 -1.55280E+01 -1.58285E+01 -1.61179E+01
  -1.63959E+01 -1.66604E+01 -1.69083E+01 -1.71366E+01 -1.73419E+01 -1.75209E+01 -1.76706E+01 -1.77878E+01 -1.78698E+01 -1.79140E+01
  -1.79185E+01 -1.78821E+01 -1.78044E+01 -1.76862E+01 -1.75291E+01 -1.73362E+01 -1.71118E+01 -1.68611E+01 -1.65903E+01 -1.63065E+01
  -1.60170E+01 -1.57293E+01 -1.54508E+01 -1.51878E+01 -1.49461E+01 -1.47295E+01 -1.45406E+01 -1.43799E+01 -1.42458E+01 -1.41349E+01
  -1.40418E+01 -1.39593E+01 -1.38793E+01 -1.37924E+01 -1.36891E+01 -1.35599E+01 -1.33958E+01 -1.31893E+01 -1.29342E+01 -1.26264E+01
  -1.22642E+01 -1.18481E+01 -1.13813E+01 -1.08693E+01 -1.03199E+01 -9.74289E+00 -9.14948E+00 -8.55199E+00 -7.96330E+00 -7.39624E+00
  -6.86310E+00 -6.37501E+00 -5.94154E+00 -5.57018E+00 -5.26611E+00 -5.03189E+00 -4.86738E+00 -4.76972E+00 -4.73343E+00 -4.75066E+00
  -4.81149E+00 -4.90437E+00 -5.01656E+00 -5.13472E+00 -5.24542E+00 -5.33574E+00 -5.39385E+00 -5.40946E+00 -5.37434E+00 -5.28265E+00
  -5.13122E+00 -4.91974E+00 -4.65074E+00 -4.32951E+00 -3.96392E+00 -3.56403E+00 -3.14165E+00 -2.70986E+00 -2.28238E+00 -1.87295E+00
  -1.49474E+00 -1.15978E+00 -8.78420E-01 -6.58906E-01 -5.07076E-01 -4.26129E-01 -4.16568E-01 -4.76237E-01 -6.00477E-01 -7.82393E-01
  -1.01318E+00 -1.28255E+00 -1.57911E+00 -1.89092E+00 -2.20589E+00 -2.51227E+00 -2.79906E+00 -3.05639E+00 -3.27589E+00 -3.45095E+00
  -3.57693E+00 -3.65130E+00 -3.67369E+00 -3.64586E+00 -3.57163E+00 -3.45660E+00 -3.30796E+00 -3.13409E+00 -2.94420E+00 -2.74786E+00
  -2.55463E+00 -2.37359E+00 -2.21296E+00 -2.07980E+00 -1.97974E+00 -1.91679E+00 -1.89335E+00 -1.91015E+00 -1.96637E+00 -2.05983E+00
  -2.18722E+00 -2.34432E+00 -2.52631E+00 -2.72802E+00 -2.94417E+00 -3.16961E+00 -3.39948E+00 -3.62936E+00 -3.85534E+00 -4.07411E+00
  -4.28291E+00 -4.47959E+00 -4.66252E+00 -4.83055E+00 -4.98296E+00 -5.11939E+00 -5.23974E+00 -5.34417E+00 -5.43300E+00 -5.50666E+00
  -5.56570E+00 -5.61070E+00 -5.64224E+00 -5.66094E+00 -5.66741E+00 -5.66222E+00 -5.64592E+00 -5.61904E+00 -5.58205E+00 -5.53542E+00
  -5.47958E+00 -5.41491E+00 -5.34179E+00 -5.26055E+00 -5.17150E+00 -5.07493E+00 -4.97111E+00 -4.86030E+00 -4.74271E+00 -4.61856E+00
  -4.48805E+00 -4.35138E+00 -4.20871E+00 -4.06020E+00 -3.90602E+00 -3.74629E+00 -3.58117E+00 -3.41077E+00 -3.23522E+00 -3.05463E+00
  -2.86911E+00 -2.67877E+00 -2.48370E+00 -2.28400E+00 -2.07977E+00 -1.87109E+00 -1.65805E+00 -1.44073E+00 -1.21922E+00 -9.93603E-01
  -7.63949E-01 -5.30343E-01 -2.92861E-01 -5.15894E-02  1.93387E-01  4.41982E-01  6.94109E-01  9.49676E-01
 NY background values follow
    -3.785E-01   -4.232E-01   -4.672E-01   -5.104E-01   -5.528E-01   -5.945E-01   -6.355E-01   -6.757E-01   -7.151E-01   -7.538E-01
    -7.918E-01   -8.290E-01   -8.654E-01   -9.011E-01   -9.360E-01   -9.702E-01   -1.004E+00   -1.036E+00   -1.068E+00   -1.099E+00
    -1.130E+00   -1.159E+00   -1.188E+00   -1.216E+00   -1.244E+00   -1.270E+00   -1.296E+00   -1.321E+00   -1.345E+00   -1.369E+00
    -1.392E+00   -1.414E+00   -1.435E+00   -1.456E+00   -1.475E+00   -1.494E+00   -1.513E+00   -1.530E+00   -1.547E+00   -1.563E+00
    -1.578E+00   -1.593E+00   -1.607E+00   -1.620E+00   -1.632E+00   -1.644E+00   -1.655E+00   -1.665E+00   -1.674E+00   -1.683E+00
    -1.691E+00   -1.698E+00   -1.704E+00   -1.710E+00   -1.715E+00   -1.720E+00   -1.724E+00   -1.727E+00   -1.729E+00   -1.731E+00
    -1.732E+00   -1.732E+00   -1.731E+00   -1.730E+00   -1.729E+00   -1.726E+00   -1.723E+00   -1.720E+00   -1.716E+00   -1.711E+00
    -1.705E+00   -1.699E+00   -1.692E+00   -1.685E+00   -1.677E+00   -1.669E+00   -1.660E+00   -1.650E+00   -1.640E+00   -1.629E+00
    -1.618E+00   -1.606E+00   -1.594E+00   -1.581E+00   -1.567E+00   -1.553E+00   -1.539E+00   -1.524E+00   -1.509E+00   -1.493E+00
    -1.476E+00   -1.459E+00   -1.442E+00   -1.425E+00   -1.406E+00   -1.388E+00   -1.369E+00   -1.350E+00   -1.330E+00   -1.310E+00
    -1.290E+00   -1.269E+00   -1.248E+00   -1.227E+00   -1.205E+00   -1.183E+00   -1.161E+00   -1.138E+00   -1.116E+00   -1.093E+00
    -1.070E+00   -1.046E+00   -1.023E+00   -9.993E-01   -9.756E-01   -9.516E-01   -9.276E-01   -9.035E-01   -8.792E-01   -8.549E-01
    -8.306E-01   -8.062E-01   -7.817E-01   -7.573E-01   -7.329E-01   -7.085E-01   -6.841E-01   -6.599E-01   -6.356E-01   -6.115E-01
    -5.875E-01   -5.636E-01   -5.398E-01   -5.162E-01   -4.928E-01   -4.696E-01   -4.466E-01   -4.238E-01   -4.013E-01   -3.790E-01
    -3.571E-01   -3.356E-01   -3.144E-01   -2.936E-01   -2.733E-01   -2.535E-01   -2.342E-01   -2.154E-01   -1.972E-01   -1.796E-01
    -1.627E-01   -1.464E-01   -1.308E-01   -1.160E-01   -1.020E-01   -8.871E-02   -7.630E-02   -6.476E-02   -5.413E-02   -4.445E-02
    -3.574E-02   -2.804E-02   -2.139E-02   -1.582E-02   -1.137E-02   -8.059E-03   -5.937E-03   -5.033E-03   -5.383E-03   -7.022E-03
    -9.984E-03   -1.430E-02   -2.002E-02   -2.716E-02   -3.576E-02   -4.587E-02   -5.750E-02   -7.070E-02   -8.551E-02   -1.019E-01
    -1.201E-01   -1.399E-01   -1.614E-01   -1.847E-01   -2.098E-01   -2.367E-01   -2.654E-01   -2.960E-01   -3.284E-01   -3.626E-01
    -3.988E-01   -4.369E-01   -4.769E-01   -5.189E-01   -5.629E-01   -6.088E-01   -6.568E-01   -7.067E-01   -7.587E-01   -8.128E-01
    -8.689E-01   -9.271E-01   -9.875E-01   -1.050E+00   -1.114E+00   -1.181E+00   -1.250E+00   -1.321E+00   -1.394E+00   -1.470E+00
    -1.547E+00   -1.627E+00   -1.709E+00   -1.794E+00   -1.880E+00   -1.969E+00   -2.060E+00   -2.154E+00   -2.250E+00   -2.348E+00
    -2.448E+00   -2.551E+00   -2.656E+00   -2.763E+00   -2.873E+00   -2.985E+00   -3.099E+00   -3.216E+00   -3.335E+00   -3.456E+00
    -3.580E+00   -3.706E+00   -3.834E+00   -3.964E+00   -4.097E+00   -4.232E+00   -4.369E+00   -4.508E+00   -4.649E+00   -4.792E+00
    -4.937E+00   -5.085E+00   -5.234E+00   -5.385E+00   -5.538E+00   -5.693E+00   -5.850E+00   -6.009E+00   -6.169E+00   -6.331E+00
    -6.495E+00   -6.661E+00   -6.828E+00   -6.997E+00   -7.168E+00   -7.340E+00   -7.514E+00   -7.689E+00   -7.866E+00   -8.044E+00
    -8.223E+00   -8.404E+00   -8.586E+00   -8.770E+00   -8.954E+00   -9.140E+00   -9.327E+00   -9.515E+00   -9.705E+00   -9.895E+00
    -1.009E+01   -1.028E+01   -1.047E+01   -1.067E+01   -1.086E+01   -1.106E+01   -1.125E+01   -1.145E+01   -1.165E+01   -1.185E+01
    -1.204E+01   -1.224E+01   -1.244E+01   -1.264E+01   -1.284E+01   -1.304E+01   -1.324E+01   -1.344E+01   -1.364E+01   -1.384E+01
    -1.404E+01   -1.424E+01   -1.444E+01   -1.463E+01   -1.483E+01   -1.503E+01   -1.523E+01   -1.542E+01   -1.562E+01   -1.581E+01
    -1.601E+01   -1.620E+01   -1.639E+01   -1.658E+01   -1.677E+01   -1.696E+01   -1.715E+01   -1.733E+01   -1.752E+01   -1.770E+01
    -1.788E+01   -1.806E+01   -1.824E+01   -1.842E+01   -1.860E+01   -1.877E+01   -1.894E+01   -1.911E+01   -1.928E+01   -1.945E+01
    -1.961E+01   -1.977E+01   -1.993E+01   -2.009E+01   -2.025E+01   -2.040E+01   -2.056E+01   -2.071E+01   -2.086E+01   -2.100E+01
    -2.115E+01   -2.129E+01   -2.143E+01   -2.157E+01   -2.170E+01   -2.183E+01   -2.196E+01   -2.209E+01   -2.222E+01   -2.234E+01
    -2.247E+01   -2.258E+01   -2.270E+01   -2.282E+01   -2.293E+01   -2.304E+01   -2.315E+01   -2.325E+01   -2.335E+01   -2.345E+01
    -2.355E+01   -2.365E+01   -2.374E+01   -2.383E+01   -2.392E+01   -2.400E+01   -2.408E+01   -2.416E+01   -2.424E+01   -2.431E+01
    -2.439E+01   -2.445E+01   -2.452E+01   -2.458E+01   -2.465E+01   -2.470E+01   -2.476E+01   -2.481E+01   -2.486E+01   -2.491E+01
    -2.495E+01   -2.500E+01   -2.503E+01   -2.507E+01   -2.510E+01   -2.513E+01   -2.516E+01   -2.519E+01   -2.521E+01   -2.523E+01
    -2.524E+01   -2.525E+01   -2.526E+01   -2.527E+01   -2.528E+01   -2.528E+01   -2.528E+01   -2.527E+01   -2.526E+01   -2.525E+01
    -2.524E+01   -2.522E+01   -2.520E+01   -2.518E+01   -2.515E+01   -2.513E+01   -2.509E+01   -2.506E+01   -2.502E+01   -2.498E+01
    -2.494E+01   -2.489E+01   -2.484E+01   -2.479E+01   -2.473E+01   -2.467E+01   -2.461E+01   -2.454E+01   -2.448E+01   -2.440E+01
    -2.433E+01   -2.425E+01   -2.417E+01   -2.409E+01   -2.400E+01   -2.391E+01   -2.382E+01   -2.372E+01   -2.362E+01   -2.352E+01
    -2.341E+01   -2.330E+01   -2.319E+01   -2.308E+01   -2.296E+01   -2.284E+01   -2.271E+01   -2.259E+01   -2.246E+01   -2.232E+01
    -2.219E+01   -2.205E+01   -2.190E+01   -2.176E+01   -2.161E+01   -2.146E+01   -2.130E+01   -2.115E+01   -2.099E+01   -2.082E+01
    -2.065E+01   -2.048E+01   -2.031E+01   -2.014E+01   -1.996E+01   -1.978E+01   -1.959E+01   -1.940E+01   -1.921E+01   -1.902E+01
    -1.882E+01   -1.862E+01   -1.842E+01   -1.821E+01   -1.800E+01   -1.779E+01   -1.758E+01   -1.736E+01   -1.714E+01   -1.691E+01
    -1.669E+01   -1.646E+01   -1.622E+01   -1.599E+01   -1.575E+01   -1.551E+01   -1.526E+01   -1.501E+01   -1.476E+01   -1.451E+01
    -1.425E+01   -1.399E+01   -1.373E+01   -1.347E+01   -1.320E+01   -1.293E+01   -1.265E+01   -1.238E+01   -1.210E+01   -1.181E+01
    -1.153E+01   -1.124E+01   -1.095E+01   -1.065E+01   -1.036E+01   -1.006E+01   -9.755E+00   -9.449E+00   -9.141E+00   -8.829E+00
    -8.515E+00   -8.199E+00   -7.879E+00   -7.557E+00   -7.231E+00   -6.903E+00   -6.573E+00   -6.239E+00
 Asp      Conc. = 3.62E+01
