 LCModel (Version 6.3-1L) Copyright: S.W. Provencher.          Ref.: Magn. Reson. Med. 30:672-679 (1993).                
 Slice#2 Row#7 Col#8  PD_24_press_2_raw_act
 36 lines in following concentration table = NCONC+1
    Conc.  %SD /Cr+PCr  Metabolite                                         
   76.801 237% 4.2E-02 Ala                                                 
   20.286 999% 1.1E-02 Asp                                                 
   15.776 999% 8.7E-03 Cr                                                  
 1.81E+03  24%   0.991 PCr                                                 
   32.292 630% 1.8E-02 GABA                                                
   28.938 713% 1.6E-02 Glc                                                 
  984.305  38%   0.540 Gln                                                 
 1.44E+03  30%   0.789 Glu                                                 
    0.000 999%   0.000 GPC                                                 
  637.920   6%   0.350 PCh                                                 
   23.356 550% 1.3E-02 GSH                                                 
  753.595  58%   0.414 Ins                                                 
  137.415 144% 7.5E-02 Lac                                                 
 3.06E+03   6%   1.682 NAA                                                 
  359.916  54%   0.198 NAAG                                                
  154.144  29% 8.5E-02 Scyllo                                              
  567.738  53%   0.312 Tau                                                 
  880.731  23%   0.483 -CrCH2                                              
  637.920   6%   0.350 GPC+PCh                                             
 3.42E+03   5%   1.879 NAA+NAAG                                            
 1.82E+03   6%   1.000 Cr+PCr                                              
 2.42E+03  24%   1.330 Glu+Gln                                             
  233.573 533%   0.128 Lip13a                                              
   27.622 999% 1.5E-02 Lip13b                                              
    2.198 999% 1.2E-03 Lip09                                               
 2.79E+03  17%   1.531 MM09                                                
   40.994 481% 2.3E-02 Lip20                                               
 5.38E+03  14%   2.956 MM20                                                
  972.309  37%   0.534 MM12                                                
 3.47E+03  19%   1.906 MM14                                                
    0.000 999%   0.000 MM17                                                
  261.195 360%   0.143 Lip13a+Lip13b                                       
 4.71E+03  16%   2.583 MM14+Lip13a+Lip13b+MM12                             
 2.79E+03  13%   1.532 MM09+Lip09                                          
 5.43E+03  13%   2.978 MM20+Lip20                                          
   6 lines in following misc. output table
  FWHM = 0.046 ppm    S/N =   9                                            
  Data shift = 0.015 ppm                                                   
  Ph: -65 deg     -16.7 deg/ppm                                            
  alphaB,S = 2.0E+00,   2.6E+01                                            
   14 spline knots.   Ns = 6(1)                                            
  ( 7) 2 infls.   ( 3) 1 extrs.                                            
  498 points on ppm-axis = NY
      4.000000     3.992357     3.984714     3.977070     3.969427     3.961784     3.954141     3.946497     3.938854     3.931211
      3.923568     3.915925     3.908281     3.900638     3.892995     3.885352     3.877708     3.870065     3.862422     3.854779
      3.847136     3.839492     3.831849     3.824206     3.816563     3.808919     3.801276     3.793633     3.785990     3.778347
      3.770703     3.763060     3.755417     3.747774     3.740130     3.732487     3.724844     3.717201     3.709558     3.701914
      3.694271     3.686628     3.678985     3.671341     3.663698     3.656055     3.648412     3.640769     3.633125     3.625482
      3.617839     3.610196     3.602552     3.594909     3.587266     3.579623     3.571980     3.564336     3.556693     3.549050
      3.541407     3.533763     3.526120     3.518477     3.510834     3.503191     3.495547     3.487904     3.480261     3.472618
      3.464974     3.457331     3.449688     3.442045     3.434402     3.426758     3.419115     3.411472     3.403829     3.396185
      3.388542     3.380899     3.373256     3.365613     3.357969     3.350326     3.342683     3.335040     3.327396     3.319753
      3.312110     3.304467     3.296824     3.289180     3.281537     3.273894     3.266251     3.258607     3.250964     3.243321
      3.235678     3.228034     3.220391     3.212748     3.205105     3.197462     3.189818     3.182175     3.174532     3.166889
      3.159245     3.151602     3.143959     3.136316     3.128673     3.121029     3.113386     3.105743     3.098100     3.090456
      3.082813     3.075170     3.067527     3.059884     3.052240     3.044597     3.036954     3.029311     3.021667     3.014024
      3.006381     2.998738     2.991095     2.983451     2.975808     2.968165     2.960522     2.952878     2.945235     2.937592
      2.929949     2.922306     2.914662     2.907019     2.899376     2.891733     2.884089     2.876446     2.868803     2.861160
      2.853517     2.845873     2.838230     2.830587     2.822944     2.815300     2.807657     2.800014     2.792371     2.784728
      2.777084     2.769441     2.761798     2.754155     2.746511     2.738868     2.731225     2.723582     2.715939     2.708295
      2.700652     2.693009     2.685366     2.677722     2.670079     2.662436     2.654793     2.647150     2.639506     2.631863
      2.624220     2.616577     2.608933     2.601290     2.593647     2.586004     2.578361     2.570717     2.563074     2.555431
      2.547788     2.540144     2.532501     2.524858     2.517215     2.509572     2.501928     2.494285     2.486642     2.478999
      2.471355     2.463712     2.456069     2.448426     2.440783     2.433139     2.425496     2.417853     2.410210     2.402566
      2.394923     2.387280     2.379637     2.371994     2.364350     2.356707     2.349064     2.341421     2.333777     2.326134
      2.318491     2.310848     2.303205     2.295561     2.287918     2.280275     2.272632     2.264988     2.257345     2.249702
      2.242059     2.234416     2.226772     2.219129     2.211486     2.203843     2.196199     2.188556     2.180913     2.173270
      2.165627     2.157983     2.150340     2.142697     2.135054     2.127410     2.119767     2.112124     2.104481     2.096838
      2.089194     2.081551     2.073908     2.066265     2.058621     2.050978     2.043335     2.035692     2.028049     2.020405
      2.012762     2.005119     1.997476     1.989833     1.982190     1.974546     1.966903     1.959260     1.951617     1.943974
      1.936331     1.928688     1.921045     1.913402     1.905759     1.898115     1.890472     1.882829     1.875186     1.867543
      1.859900     1.852257     1.844614     1.836971     1.829327     1.821684     1.814041     1.806398     1.798755     1.791112
      1.783469     1.775826     1.768183     1.760540     1.752896     1.745253     1.737610     1.729967     1.722324     1.714681
      1.707038     1.699395     1.691752     1.684108     1.676465     1.668822     1.661179     1.653536     1.645893     1.638250
      1.630607     1.622964     1.615321     1.607677     1.600034     1.592391     1.584748     1.577105     1.569462     1.561819
      1.554176     1.546533     1.538890     1.531246     1.523603     1.515960     1.508317     1.500674     1.493031     1.485388
      1.477745     1.470102     1.462458     1.454815     1.447172     1.439529     1.431886     1.424243     1.416600     1.408957
      1.401314     1.393671     1.386027     1.378384     1.370741     1.363098     1.355455     1.347812     1.340169     1.332526
      1.324883     1.317240     1.309596     1.301953     1.294310     1.286667     1.279024     1.271381     1.263738     1.256095
      1.248452     1.240808     1.233165     1.225522     1.217879     1.210236     1.202593     1.194950     1.187307     1.179664
      1.172021     1.164377     1.156734     1.149091     1.141448     1.133805     1.126162     1.118519     1.110876     1.103233
      1.095590     1.087946     1.080303     1.072660     1.065017     1.057374     1.049731     1.042088     1.034445     1.026802
      1.019158     1.011515     1.003872     0.996229     0.988586     0.980943     0.973300     0.965657     0.958014     0.950371
      0.942727     0.935084     0.927441     0.919798     0.912155     0.904512     0.896869     0.889226     0.881583     0.873940
      0.866296     0.858653     0.851010     0.843367     0.835724     0.828081     0.820438     0.812795     0.805152     0.797508
      0.789865     0.782222     0.774579     0.766936     0.759293     0.751650     0.744007     0.736364     0.728721     0.721077
      0.713434     0.705791     0.698148     0.690505     0.682862     0.675219     0.667576     0.659933     0.652290     0.644646
      0.637003     0.629360     0.621717     0.614074     0.606431     0.598788     0.591145     0.583502     0.575858     0.568215
      0.560572     0.552929     0.545286     0.537643     0.530000     0.522357     0.514714     0.507071     0.499427     0.491784
      0.484141     0.476498     0.468855     0.461212     0.453569     0.445925     0.438282     0.430639     0.422996     0.415353
      0.407710     0.400067     0.392424     0.384780     0.377137     0.369494     0.361851     0.354208     0.346565     0.338922
      0.331278     0.323635     0.315992     0.308349     0.300706     0.293063     0.285420     0.277777     0.270133     0.262490
      0.254847     0.247204     0.239561     0.231918     0.224275     0.216631     0.208988     0.201345
 NY phased data points follow
  -8.09365E+01 -7.84399E+01 -7.34406E+01 -5.54662E+01 -6.24561E+01 -6.12132E+01 -4.46742E+01 -3.54950E+01 -4.47153E+01 -2.87754E+01
  -2.80877E+01 -3.03664E+01 -4.47742E+01 -3.90791E+01 -4.91687E+01 -5.82458E+01 -6.60257E+01 -5.39926E+01 -5.57860E+01 -5.48017E+01
  -7.20324E+01 -5.42098E+01 -6.10398E+01 -5.51181E+01 -5.41650E+01 -4.82748E+01 -5.78440E+01 -4.87468E+01 -5.21124E+01 -4.76340E+01
  -5.77634E+01 -4.31521E+01 -4.81841E+01 -4.45480E+01 -4.62212E+01 -4.18496E+01 -4.83948E+01 -4.87232E+01 -4.80395E+01 -4.14114E+01
  -3.58051E+01 -3.62628E+01 -4.27710E+01 -3.73336E+01 -3.41382E+01 -2.96976E+01 -3.45981E+01 -3.89005E+01 -3.97798E+01 -3.33513E+01
  -5.29937E+01 -2.45068E+01 -4.29128E+01 -3.34580E+01 -2.85269E+01 -2.85004E+01 -3.26783E+01 -3.57722E+01 -3.39932E+01 -3.77214E+01
  -4.46573E+01 -4.15632E+01 -3.75056E+01 -4.15277E+01 -4.57075E+01 -4.43233E+01 -4.04041E+01 -2.71513E+01 -3.94418E+01 -2.66577E+01
  -3.00388E+01 -2.00462E+01 -3.78213E+01 -2.64502E+01 -2.75631E+01 -2.72806E+01 -3.92525E+01 -3.35502E+01 -3.61526E+01 -2.70893E+01
  -3.98412E+01 -2.11979E+01 -2.70687E+01 -2.02238E+01 -2.78966E+01 -1.78902E+01 -2.78275E+01 -1.01433E+01 -2.46557E+01 -1.14322E+01
  -2.66656E+01 -1.29775E+01 -1.80323E+01 -1.43237E+01 -1.36976E+01 -1.22135E+01 -1.43326E+01 -8.64994E+00 -9.53756E+00  1.77079E+01
   2.46104E+01  3.30134E+01  5.33584E+01  4.54398E+01  2.01443E+01  9.20259E+00  1.71232E+00 -1.01615E+00 -1.29048E+01 -1.79397E+01
  -1.86257E+01 -1.29404E+01 -2.06952E+01 -1.28060E+01 -2.11497E+01 -8.00645E+00 -1.43587E+01 -1.93646E+01 -1.85294E+01 -1.60144E+01
  -1.07900E+01 -3.89446E+00  5.48795E+00  4.20461E+00  2.97862E+01  3.91282E+01  4.46609E+01  5.09695E+01  3.83386E+01  2.88153E+01
   2.36533E+01  9.13889E+00  1.62487E-01 -1.08797E+01 -1.28540E+01 -1.30523E+01 -8.55258E+00 -1.38165E+01 -1.63810E+01 -8.34197E+00
  -1.40809E+01 -1.40804E+01 -1.32383E+01 -7.85268E+00 -6.80972E+00 -1.07066E+01 -1.66428E+01 -1.27762E+01 -1.47576E+01 -5.77266E+00
  -1.47899E+01 -1.82038E+01 -1.25999E+01 -1.35614E+01 -1.43569E+01 -1.60515E+01 -1.18561E+01 -9.45038E+00 -1.60603E+01 -1.11321E+01
  -1.25490E+01 -1.23268E+01 -1.95063E+01 -1.80137E+01 -1.97023E+01 -9.35418E+00 -5.16140E+00 -2.29229E+01 -1.96479E+01 -2.22878E+01
  -1.51615E+01 -1.49356E+01 -1.98145E+01 -1.11540E+01 -2.93608E+01 -2.33358E+01 -1.64960E+01 -2.29105E+01 -2.06351E+01 -1.49238E+01
  -2.28069E+01 -1.13970E+01 -1.81848E+01 -1.44134E+01 -1.47575E+01 -1.45302E+01 -1.48383E+01 -1.14172E+01 -6.31663E+00  1.94024E+00
   9.09982E+00  5.22567E+00  3.04208E+00  6.10460E+00  3.50556E+00 -6.90957E-01 -3.47220E+00 -3.29728E+00  5.76789E+00 -9.66366E+00
   1.96575E-01  1.16459E+00  7.48461E+00  1.70760E+01  6.83512E+00  5.83248E+00 -3.61808E+00 -3.61747E+00 -1.12768E+01 -2.79453E+00
  -1.59915E+01 -1.08266E+00  8.43818E+00  4.26685E+00  4.42208E+00  1.60215E+01  1.41845E+01  1.09195E+01  1.02029E+01 -1.13914E+00
   8.50490E+00 -5.08900E+00 -2.77849E+00 -1.01095E+00  1.19280E+01  1.07620E+01  1.47709E+01  1.15247E+01  1.53397E+01  1.68172E+01
   2.13175E+01  1.58678E+01  1.04504E+01  1.21476E+01  1.50613E+01  1.09418E+01  2.22712E+01  1.32202E+01  1.80110E+01  1.51978E+01
   1.84695E+01  1.20872E+01  4.78652E-01  3.36262E+00  9.04255E+00  1.74689E+01  1.83053E+01  2.28762E+01  3.26533E+01  2.45741E+01
   2.18692E+01  3.30172E+01  3.69382E+01  3.91201E+01  4.72159E+01  5.18899E+01  7.53096E+01  9.36261E+01  1.21210E+02  1.28786E+02
   1.27387E+02  1.40163E+02  1.17498E+02  9.03849E+01  6.50240E+01  3.71522E+01  3.93678E+01  3.17457E+01  2.64593E+01  1.84304E+01
   2.52928E+01  2.38930E+01  1.35490E+01  2.65921E+01  1.37464E+01  1.62392E+01  2.32971E+01  2.84726E+01  2.81720E+01  2.34904E+01
   1.76122E+01  2.17980E+01  1.58576E+01  1.78354E+01  6.34424E+00  1.70065E+01  1.18209E+01  9.73006E+00  3.56845E+00  7.74598E+00
   1.12105E+01  5.46068E+00  1.65555E+01  6.64693E+00  1.20243E+01  1.04425E+01  9.55148E+00 -3.41490E+00  1.58844E+01  1.89043E+01
   1.16453E+01  2.24782E+01  2.00783E+01  1.43962E+01  4.77168E+00 -8.71994E+00  1.83724E+01  9.25903E+00  4.05828E+00  1.01448E+01
  -3.74695E-01  1.86294E+01  9.88151E+00  1.93076E+01  7.47761E+00  2.37091E+01  1.18302E+01  3.06655E+01  1.62994E+01  2.79293E+01
   2.01676E+01  2.03985E+01  2.44722E+01  2.58685E+01  2.70085E+01  3.61261E+01  2.38075E+01  3.61578E+01  2.92474E+01  2.35880E+01
   2.87654E+01  3.46699E+01  2.69136E+01  4.15237E+01  3.42605E+01  3.00611E+01  3.96844E+01  2.90376E+01  3.74400E+01  3.22664E+01
   3.55652E+01  2.14659E+01  3.28015E+01  2.98883E+01  3.25046E+01  3.86916E+01  1.91343E+01  2.91455E+01  1.38432E+01  2.11658E+01
   1.91785E+01  2.04840E+01  2.69737E+01  3.70357E+01  3.28923E+01  1.51342E+01  2.57730E+01  1.47538E+01  2.69052E+01  2.21769E+01
   2.31379E+01  2.82939E+01  2.31873E+01  2.48622E+01  1.96014E+01  1.98391E+01  2.11887E+01  2.99207E+01  2.82358E+01  2.89819E+01
   2.15429E+01  1.49790E+01  1.73894E+01  2.46573E+01  2.44153E+01  2.16866E+01  3.23583E+01  2.65385E+01  1.57717E+01  1.92611E+01
   1.94484E+01  3.60702E+01  2.95806E+01  1.95663E+01  2.58143E+01  1.88401E+01  2.15201E+01  1.71619E+01  2.70417E+01  2.55868E+01
   2.97769E+01  3.31846E+01  2.76854E+01  1.59238E+01  3.09981E+01  4.61441E+01  3.10454E+01  3.40927E+01  2.49019E+01  4.43317E+01
   2.96679E+01  3.95811E+01  2.63833E+01  4.51043E+01  2.96927E+01  4.10614E+01  2.70903E+01  4.01384E+01  4.34209E+01  3.99269E+01
   3.57330E+01  3.76192E+01  1.91509E+01  3.28633E+01  2.61983E+01  2.94212E+01  1.80079E+01  2.55730E+01  2.37887E+01  3.06049E+01
   2.47590E+01  2.24563E+01  1.70368E+01  2.77170E+01  2.53885E+01  2.55281E+01  1.79842E+01  2.48006E+01  1.89232E+01  1.89400E+01
   2.28826E+01  1.67785E+01  3.05989E+01  2.52482E+01  2.74900E+01  3.20697E+01  1.90142E+01  1.61089E+01  2.01646E+01  1.48590E+01
   1.53851E+01  1.65675E+01  2.62819E+01  1.32949E+01  1.95377E+01  8.88247E+00  2.10184E+01  1.43863E+01  2.47560E+01  1.88301E+01
   1.93288E+01  1.62959E+01  1.27808E+01  1.58448E+01  2.57663E+01  8.71632E+00  2.00738E+01  2.41718E+01  1.49440E+01  2.02809E+01
   2.18745E+01  1.48046E+01  1.40291E+01  1.09876E+01  2.04856E+01  1.50298E+01  1.94067E+01  2.22172E+01  2.55545E+01  1.71646E+01
   2.32374E+01  2.30364E+01  1.95747E+01  1.70031E+01  2.15484E+01  2.13670E+01  3.24021E+01  1.77734E+01  1.67376E+01  2.25418E+01
   2.03731E+01  1.60706E+01  1.13998E+01  1.93839E+01  2.14495E+01  1.30412E+01  1.52544E+01  1.25872E+01  5.70584E+00  2.11561E+01
   1.40056E+01  1.97095E+01  1.47830E+01  1.38591E+01  4.97947E+00  7.56932E+00  4.96491E+00  2.32711E+01
 NY points of the fit to the data follow
  -5.91785E+01 -5.91285E+01 -5.96788E+01 -5.89630E+01 -5.71250E+01 -5.42872E+01 -4.76120E+01 -4.11406E+01 -3.69066E+01 -3.19190E+01
  -2.97580E+01 -3.38609E+01 -3.99186E+01 -4.51688E+01 -4.90381E+01 -5.09320E+01 -5.21341E+01 -5.28968E+01 -5.25842E+01 -5.18830E+01
  -5.11179E+01 -5.03808E+01 -5.00347E+01 -5.01430E+01 -5.06220E+01 -5.13911E+01 -5.18322E+01 -5.15855E+01 -5.03168E+01 -4.79955E+01
  -4.53277E+01 -4.29554E+01 -4.15578E+01 -4.17586E+01 -4.31232E+01 -4.49201E+01 -4.65540E+01 -4.73033E+01 -4.72540E+01 -4.66492E+01
  -4.53797E+01 -4.39473E+01 -4.26249E+01 -4.10476E+01 -3.94701E+01 -3.82944E+01 -3.75345E+01 -3.74778E+01 -3.82494E+01 -3.95162E+01
  -4.07363E+01 -4.13914E+01 -4.13596E+01 -4.09729E+01 -4.04382E+01 -3.96468E+01 -3.86866E+01 -3.77692E+01 -3.69634E+01 -3.63759E+01
  -3.60681E+01 -3.59820E+01 -3.60181E+01 -3.59213E+01 -3.57151E+01 -3.53247E+01 -3.47692E+01 -3.43136E+01 -3.39070E+01 -3.33191E+01
  -3.27313E+01 -3.20494E+01 -3.10679E+01 -3.03710E+01 -3.01549E+01 -3.00865E+01 -3.03690E+01 -3.10698E+01 -3.15865E+01 -3.15652E+01
  -3.07811E+01 -2.90277E+01 -2.68103E+01 -2.41410E+01 -2.18712E+01 -2.05978E+01 -1.97732E+01 -1.98572E+01 -2.14076E+01 -2.33210E+01
  -2.48086E+01 -2.58336E+01 -2.61978E+01 -2.61498E+01 -2.57260E+01 -2.39991E+01 -1.95364E+01 -1.13046E+01 -5.27084E-01  1.45637E+01
   2.86021E+01  3.71736E+01  4.25810E+01  4.14195E+01  2.98706E+01  1.46838E+01  1.74954E+00 -7.75463E+00 -1.34891E+01 -1.71778E+01
  -1.98558E+01 -2.07407E+01 -2.08448E+01 -2.07106E+01 -2.04459E+01 -2.01087E+01 -1.96734E+01 -1.91338E+01 -1.84397E+01 -1.74573E+01
  -1.54785E+01 -9.95284E+00 -1.37096E+00  1.07244E+01  2.63240E+01  3.86043E+01  4.61354E+01  5.00676E+01  4.48565E+01  3.08129E+01
   1.61340E+01  4.49400E+00 -3.54163E+00 -8.28188E+00 -1.16425E+01 -1.36376E+01 -1.41106E+01 -1.41719E+01 -1.41123E+01 -1.39957E+01
  -1.38674E+01 -1.37555E+01 -1.36611E+01 -1.35887E+01 -1.35256E+01 -1.34634E+01 -1.33982E+01 -1.33351E+01 -1.32807E+01 -1.32311E+01
  -1.31812E+01 -1.31383E+01 -1.30503E+01 -1.28952E+01 -1.27209E+01 -1.26356E+01 -1.26624E+01 -1.29131E+01 -1.34197E+01 -1.37523E+01
  -1.38773E+01 -1.38289E+01 -1.33045E+01 -1.26045E+01 -1.21053E+01 -1.19105E+01 -1.23332E+01 -1.31898E+01 -1.38280E+01 -1.42129E+01
  -1.45522E+01 -1.48820E+01 -1.51910E+01 -1.55708E+01 -1.56431E+01 -1.53830E+01 -1.50495E+01 -1.44633E+01 -1.36474E+01 -1.29528E+01
  -1.25348E+01 -1.24362E+01 -1.22600E+01 -1.16402E+01 -1.09064E+01 -9.98348E+00 -8.80799E+00 -7.58403E+00 -6.03617E+00 -4.30825E+00
  -3.20859E+00 -2.64408E+00 -2.47556E+00 -2.57422E+00 -2.58943E+00 -2.53760E+00 -2.34464E+00 -1.71007E+00 -7.31330E-01  4.39377E-01
   2.03358E+00  3.84162E+00  5.06375E+00  5.21726E+00  4.02130E+00  1.75162E+00 -1.62402E+00 -5.21819E+00 -7.62400E+00 -8.71747E+00
  -8.06292E+00 -5.04796E+00 -6.99676E-01  3.58932E+00  7.03189E+00  9.27739E+00  9.83879E+00  8.15652E+00  4.67034E+00  9.25148E-01
  -1.81513E+00 -2.83861E+00 -2.34064E+00 -4.34968E-01  2.96092E+00  6.72301E+00  9.60091E+00  1.14189E+01  1.22774E+01  1.24679E+01
   1.22759E+01  1.18795E+01  1.14291E+01  1.15127E+01  1.22739E+01  1.34087E+01  1.48349E+01  1.65131E+01  1.79984E+01  1.86471E+01
   1.86448E+01  1.83431E+01  1.78326E+01  1.75417E+01  1.80210E+01  1.90588E+01  2.02067E+01  2.14445E+01  2.27730E+01  2.44132E+01
   2.68902E+01  2.98293E+01  3.36319E+01  3.83802E+01  4.57561E+01  5.85639E+01  7.45738E+01  9.67079E+01  1.17361E+02  1.29626E+02
   1.37475E+02  1.35394E+02  1.15505E+02  8.87097E+01  6.56560E+01  4.81096E+01  3.67151E+01  2.90587E+01  2.32421E+01  2.05385E+01
   1.93176E+01  1.85597E+01  1.80264E+01  1.76287E+01  1.72563E+01  1.68212E+01  1.62938E+01  1.57060E+01  1.51385E+01  1.46513E+01
   1.42425E+01  1.38899E+01  1.36123E+01  1.33986E+01  1.32026E+01  1.29983E+01  1.28035E+01  1.26210E+01  1.24685E+01  1.23580E+01
   1.22824E+01  1.22411E+01  1.22363E+01  1.22363E+01  1.22308E+01  1.22199E+01  1.22115E+01  1.22199E+01  1.22493E+01  1.22989E+01
   1.23844E+01  1.25024E+01  1.26441E+01  1.28060E+01  1.29869E+01  1.31863E+01  1.34113E+01  1.36634E+01  1.39490E+01  1.42727E+01
   1.46401E+01  1.50542E+01  1.55212E+01  1.60442E+01  1.66283E+01  1.72758E+01  1.79908E+01  1.87741E+01  1.96289E+01  2.05570E+01
   2.15696E+01  2.26825E+01  2.38382E+01  2.50130E+01  2.61434E+01  2.70939E+01  2.78943E+01  2.85572E+01  2.90012E+01  2.93773E+01
   2.98656E+01  3.04655E+01  3.12076E+01  3.19625E+01  3.26047E+01  3.31734E+01  3.35523E+01  3.35812E+01  3.33384E+01  3.29400E+01
   3.24836E+01  3.20738E+01  3.16263E+01  3.11446E+01  3.05652E+01  2.96745E+01  2.85707E+01  2.73097E+01  2.58043E+01  2.44129E+01
   2.34336E+01  2.29828E+01  2.30411E+01  2.33161E+01  2.36985E+01  2.41990E+01  2.44933E+01  2.44301E+01  2.41820E+01  2.38661E+01
   2.35691E+01  2.33247E+01  2.30939E+01  2.29012E+01  2.27547E+01  2.26304E+01  2.25180E+01  2.24107E+01  2.23067E+01  2.22039E+01
   2.21039E+01  2.20074E+01  2.19184E+01  2.18397E+01  2.17772E+01  2.17351E+01  2.17201E+01  2.17371E+01  2.17932E+01  2.18935E+01
   2.20452E+01  2.22529E+01  2.25232E+01  2.28598E+01  2.32679E+01  2.37496E+01  2.43079E+01  2.49419E+01  2.56510E+01  2.64301E+01
   2.72742E+01  2.81730E+01  2.91160E+01  3.00872E+01  3.10707E+01  3.20458E+01  3.29927E+01  3.38881E+01  3.47110E+01  3.54386E+01
   3.60522E+01  3.65336E+01  3.68700E+01  3.70510E+01  3.70726E+01  3.69336E+01  3.66398E+01  3.61995E+01  3.56270E+01  3.49380E+01
   3.41524E+01  3.32896E+01  3.23719E+01  3.14190E+01  3.04517E+01  2.94867E+01  2.85407E+01  2.76259E+01  2.67535E+01  2.59306E+01
   2.51633E+01  2.44536E+01  2.38035E+01  2.32112E+01  2.26760E+01  2.21939E+01  2.17625E+01  2.13767E+01  2.10335E+01  2.07277E+01
   2.04565E+01  2.02151E+01  2.00010E+01  1.98102E+01  1.96406E+01  1.94888E+01  1.93537E+01  1.92322E+01  1.91237E+01  1.90256E+01
   1.89377E+01  1.88578E+01  1.87861E+01  1.87206E+01  1.86617E+01  1.86076E+01  1.85587E+01  1.85138E+01  1.84733E+01  1.84358E+01
   1.84019E+01  1.83705E+01  1.83421E+01  1.83157E+01  1.82920E+01  1.82699E+01  1.82500E+01  1.82313E+01  1.82146E+01  1.81990E+01
   1.81851E+01  1.81720E+01  1.81604E+01  1.81494E+01  1.81399E+01  1.81309E+01  1.81232E+01  1.81157E+01  1.81094E+01  1.81034E+01
   1.80985E+01  1.80937E+01  1.80900E+01  1.80862E+01  1.80835E+01  1.80808E+01  1.80790E+01  1.80771E+01  1.80761E+01  1.80749E+01
   1.80746E+01  1.80742E+01  1.80746E+01  1.80748E+01  1.80756E+01  1.80763E+01  1.80778E+01  1.80790E+01  1.80810E+01  1.80826E+01
   1.80849E+01  1.80870E+01  1.80897E+01  1.80922E+01  1.80953E+01  1.80980E+01  1.81014E+01  1.81044E+01
 NY background values follow
    -6.167E+01   -6.132E+01   -6.097E+01   -6.062E+01   -6.028E+01   -5.993E+01   -5.958E+01   -5.923E+01   -5.888E+01   -5.853E+01
    -5.818E+01   -5.784E+01   -5.749E+01   -5.714E+01   -5.679E+01   -5.644E+01   -5.609E+01   -5.575E+01   -5.540E+01   -5.505E+01
    -5.470E+01   -5.436E+01   -5.401E+01   -5.366E+01   -5.331E+01   -5.297E+01   -5.262E+01   -5.227E+01   -5.193E+01   -5.158E+01
    -5.124E+01   -5.089E+01   -5.055E+01   -5.020E+01   -4.986E+01   -4.952E+01   -4.917E+01   -4.883E+01   -4.849E+01   -4.814E+01
    -4.780E+01   -4.746E+01   -4.712E+01   -4.678E+01   -4.644E+01   -4.610E+01   -4.576E+01   -4.542E+01   -4.508E+01   -4.475E+01
    -4.441E+01   -4.407E+01   -4.374E+01   -4.340E+01   -4.307E+01   -4.273E+01   -4.240E+01   -4.207E+01   -4.173E+01   -4.140E+01
    -4.107E+01   -4.074E+01   -4.041E+01   -4.008E+01   -3.976E+01   -3.943E+01   -3.910E+01   -3.878E+01   -3.845E+01   -3.813E+01
    -3.780E+01   -3.748E+01   -3.716E+01   -3.684E+01   -3.652E+01   -3.620E+01   -3.588E+01   -3.556E+01   -3.525E+01   -3.493E+01
    -3.462E+01   -3.430E+01   -3.399E+01   -3.368E+01   -3.337E+01   -3.306E+01   -3.275E+01   -3.244E+01   -3.213E+01   -3.183E+01
    -3.152E+01   -3.122E+01   -3.092E+01   -3.062E+01   -3.032E+01   -3.002E+01   -2.972E+01   -2.942E+01   -2.913E+01   -2.883E+01
    -2.854E+01   -2.824E+01   -2.795E+01   -2.766E+01   -2.737E+01   -2.708E+01   -2.680E+01   -2.651E+01   -2.623E+01   -2.594E+01
    -2.566E+01   -2.538E+01   -2.510E+01   -2.482E+01   -2.454E+01   -2.426E+01   -2.398E+01   -2.371E+01   -2.343E+01   -2.316E+01
    -2.289E+01   -2.262E+01   -2.235E+01   -2.208E+01   -2.181E+01   -2.155E+01   -2.128E+01   -2.102E+01   -2.075E+01   -2.049E+01
    -2.023E+01   -1.997E+01   -1.971E+01   -1.945E+01   -1.920E+01   -1.894E+01   -1.869E+01   -1.844E+01   -1.818E+01   -1.793E+01
    -1.768E+01   -1.743E+01   -1.719E+01   -1.694E+01   -1.670E+01   -1.645E+01   -1.621E+01   -1.597E+01   -1.573E+01   -1.549E+01
    -1.525E+01   -1.501E+01   -1.477E+01   -1.454E+01   -1.430E+01   -1.407E+01   -1.384E+01   -1.361E+01   -1.338E+01   -1.315E+01
    -1.292E+01   -1.269E+01   -1.247E+01   -1.224E+01   -1.202E+01   -1.179E+01   -1.157E+01   -1.135E+01   -1.113E+01   -1.091E+01
    -1.070E+01   -1.048E+01   -1.026E+01   -1.005E+01   -9.835E+00   -9.622E+00   -9.410E+00   -9.200E+00   -8.990E+00   -8.781E+00
    -8.574E+00   -8.367E+00   -8.161E+00   -7.956E+00   -7.753E+00   -7.550E+00   -7.348E+00   -7.148E+00   -6.948E+00   -6.749E+00
    -6.551E+00   -6.355E+00   -6.159E+00   -5.964E+00   -5.770E+00   -5.578E+00   -5.386E+00   -5.195E+00   -5.006E+00   -4.817E+00
    -4.630E+00   -4.443E+00   -4.258E+00   -4.073E+00   -3.890E+00   -3.707E+00   -3.526E+00   -3.346E+00   -3.166E+00   -2.988E+00
    -2.811E+00   -2.635E+00   -2.460E+00   -2.286E+00   -2.113E+00   -1.941E+00   -1.770E+00   -1.600E+00   -1.432E+00   -1.264E+00
    -1.098E+00   -9.323E-01   -7.679E-01   -6.046E-01   -4.425E-01   -2.814E-01   -1.214E-01    3.755E-02    1.954E-01    3.521E-01
     5.078E-01    6.624E-01    8.159E-01    9.683E-01    1.120E+00    1.270E+00    1.419E+00    1.568E+00    1.715E+00    1.861E+00
     2.006E+00    2.150E+00    2.293E+00    2.435E+00    2.577E+00    2.717E+00    2.856E+00    2.994E+00    3.131E+00    3.267E+00
     3.402E+00    3.536E+00    3.669E+00    3.802E+00    3.933E+00    4.063E+00    4.192E+00    4.321E+00    4.448E+00    4.575E+00
     4.700E+00    4.825E+00    4.949E+00    5.071E+00    5.193E+00    5.314E+00    5.434E+00    5.553E+00    5.672E+00    5.789E+00
     5.906E+00    6.021E+00    6.136E+00    6.250E+00    6.363E+00    6.475E+00    6.586E+00    6.697E+00    6.806E+00    6.915E+00
     7.023E+00    7.130E+00    7.236E+00    7.341E+00    7.446E+00    7.550E+00    7.653E+00    7.755E+00    7.856E+00    7.957E+00
     8.057E+00    8.156E+00    8.254E+00    8.352E+00    8.448E+00    8.544E+00    8.640E+00    8.734E+00    8.828E+00    8.921E+00
     9.013E+00    9.104E+00    9.195E+00    9.285E+00    9.375E+00    9.463E+00    9.551E+00    9.639E+00    9.725E+00    9.811E+00
     9.896E+00    9.981E+00    1.006E+01    1.015E+01    1.023E+01    1.031E+01    1.039E+01    1.047E+01    1.055E+01    1.063E+01
     1.071E+01    1.079E+01    1.087E+01    1.094E+01    1.102E+01    1.109E+01    1.117E+01    1.124E+01    1.132E+01    1.139E+01
     1.146E+01    1.153E+01    1.161E+01    1.168E+01    1.175E+01    1.181E+01    1.188E+01    1.195E+01    1.202E+01    1.209E+01
     1.215E+01    1.222E+01    1.228E+01    1.235E+01    1.241E+01    1.247E+01    1.254E+01    1.260E+01    1.266E+01    1.272E+01
     1.278E+01    1.284E+01    1.290E+01    1.296E+01    1.301E+01    1.307E+01    1.313E+01    1.318E+01    1.324E+01    1.330E+01
     1.335E+01    1.340E+01    1.346E+01    1.351E+01    1.356E+01    1.361E+01    1.366E+01    1.372E+01    1.377E+01    1.381E+01
     1.386E+01    1.391E+01    1.396E+01    1.401E+01    1.405E+01    1.410E+01    1.415E+01    1.419E+01    1.424E+01    1.428E+01
     1.432E+01    1.437E+01    1.441E+01    1.445E+01    1.450E+01    1.454E+01    1.458E+01    1.462E+01    1.466E+01    1.470E+01
     1.474E+01    1.478E+01    1.481E+01    1.485E+01    1.489E+01    1.493E+01    1.496E+01    1.500E+01    1.504E+01    1.507E+01
     1.511E+01    1.514E+01    1.518E+01    1.521E+01    1.524E+01    1.528E+01    1.531E+01    1.534E+01    1.537E+01    1.540E+01
     1.543E+01    1.547E+01    1.550E+01    1.553E+01    1.556E+01    1.559E+01    1.561E+01    1.564E+01    1.567E+01    1.570E+01
     1.573E+01    1.576E+01    1.578E+01    1.581E+01    1.584E+01    1.586E+01    1.589E+01    1.591E+01    1.594E+01    1.596E+01
     1.599E+01    1.601E+01    1.604E+01    1.606E+01    1.608E+01    1.611E+01    1.613E+01    1.615E+01    1.617E+01    1.620E+01
     1.622E+01    1.624E+01    1.626E+01    1.628E+01    1.630E+01    1.632E+01    1.634E+01    1.636E+01    1.638E+01    1.640E+01
     1.642E+01    1.644E+01    1.646E+01    1.648E+01    1.650E+01    1.652E+01    1.653E+01    1.655E+01    1.657E+01    1.659E+01
     1.660E+01    1.662E+01    1.664E+01    1.665E+01    1.667E+01    1.669E+01    1.670E+01    1.672E+01    1.673E+01    1.675E+01
     1.677E+01    1.678E+01    1.680E+01    1.681E+01    1.683E+01    1.684E+01    1.686E+01    1.687E+01    1.689E+01    1.690E+01
     1.692E+01    1.693E+01    1.694E+01    1.696E+01    1.697E+01    1.699E+01    1.700E+01    1.701E+01    1.703E+01    1.704E+01
     1.706E+01    1.707E+01    1.708E+01    1.710E+01    1.711E+01    1.712E+01    1.714E+01    1.715E+01
 Ala      Conc. = 7.68E+01
