 LCModel (Version 6.3-1L) Copyright: S.W. Provencher.          Ref.: Magn. Reson. Med. 30:672-679 (1993).                
 Slice#2 Row#9 Col#9  PD_24_press_2_raw_act
 36 lines in following concentration table = NCONC+1
    Conc.  %SD /Cr+PCr  Metabolite                                         
  206.046  88% 7.2E-02 Ala                                                 
    0.000 999%   0.000 Asp                                                 
  334.694 104%   0.116 Cr                                                  
 2.54E+03  14%   0.884 PCr                                                 
    0.000 999%   0.000 GABA                                                
    0.000 999%   0.000 Glc                                                 
 2.17E+03  17%   0.754 Gln                                                 
 2.52E+03  16%   0.876 Glu                                                 
 1.01E+03   3%   0.351 GPC                                                 
    0.000 999%   0.000 PCh                                                 
  761.125  14%   0.265 GSH                                                 
 2.21E+03  19%   0.767 Ins                                                 
  338.316  58%   0.118 Lac                                                 
 4.55E+03   3%   1.584 NAA                                                 
    0.000 999%   0.000 NAAG                                                
  291.879  15%   0.101 Scyllo                                              
    0.000 999%   0.000 Tau                                                 
  169.545  94% 5.9E-02 -CrCH2                                              
 1.01E+03   3%   0.351 GPC+PCh                                             
 4.55E+03   3%   1.584 NAA+NAAG                                            
 2.88E+03   3%   1.000 Cr+PCr                                              
 4.69E+03  14%   1.630 Glu+Gln                                             
 1.64E+03  51%   0.569 Lip13a                                              
    0.000 999%   0.000 Lip13b                                              
    0.273 999% 9.5E-05 Lip09                                               
 2.89E+03  18%   1.005 MM09                                                
  270.930  92% 9.4E-02 Lip20                                               
 7.15E+03  10%   2.484 MM20                                                
 1.09E+03  33%   0.378 MM12                                                
 3.53E+03  21%   1.229 MM14                                                
  852.208  45%   0.296 MM17                                                
 1.64E+03  51%   0.569 Lip13a+Lip13b                                       
 6.26E+03  13%   2.176 MM14+Lip13a+Lip13b+MM12                             
 2.89E+03  14%   1.005 MM09+Lip09                                          
 7.42E+03   9%   2.578 MM20+Lip20                                          
   6 lines in following misc. output table
  FWHM = 0.061 ppm    S/N =  18                                            
  Data shift = 0.008 ppm                                                   
  Ph: -43 deg     -13.1 deg/ppm                                            
  alphaB,S = 3.6E-01,   1.0E+02                                            
   14 spline knots.   Ns = 8(1)                                            
  ( 9) 5 infls.   ( 5) 1 extrs.                                            
  498 points on ppm-axis = NY
      4.000000     3.992357     3.984714     3.977070     3.969427     3.961784     3.954141     3.946497     3.938854     3.931211
      3.923568     3.915925     3.908281     3.900638     3.892995     3.885352     3.877708     3.870065     3.862422     3.854779
      3.847136     3.839492     3.831849     3.824206     3.816563     3.808919     3.801276     3.793633     3.785990     3.778347
      3.770703     3.763060     3.755417     3.747774     3.740130     3.732487     3.724844     3.717201     3.709558     3.701914
      3.694271     3.686628     3.678985     3.671341     3.663698     3.656055     3.648412     3.640769     3.633125     3.625482
      3.617839     3.610196     3.602552     3.594909     3.587266     3.579623     3.571980     3.564336     3.556693     3.549050
      3.541407     3.533763     3.526120     3.518477     3.510834     3.503191     3.495547     3.487904     3.480261     3.472618
      3.464974     3.457331     3.449688     3.442045     3.434402     3.426758     3.419115     3.411472     3.403829     3.396185
      3.388542     3.380899     3.373256     3.365613     3.357969     3.350326     3.342683     3.335040     3.327396     3.319753
      3.312110     3.304467     3.296824     3.289180     3.281537     3.273894     3.266251     3.258607     3.250964     3.243321
      3.235678     3.228034     3.220391     3.212748     3.205105     3.197462     3.189818     3.182175     3.174532     3.166889
      3.159245     3.151602     3.143959     3.136316     3.128673     3.121029     3.113386     3.105743     3.098100     3.090456
      3.082813     3.075170     3.067527     3.059884     3.052240     3.044597     3.036954     3.029311     3.021667     3.014024
      3.006381     2.998738     2.991095     2.983451     2.975808     2.968165     2.960522     2.952878     2.945235     2.937592
      2.929949     2.922306     2.914662     2.907019     2.899376     2.891733     2.884089     2.876446     2.868803     2.861160
      2.853517     2.845873     2.838230     2.830587     2.822944     2.815300     2.807657     2.800014     2.792371     2.784728
      2.777084     2.769441     2.761798     2.754155     2.746511     2.738868     2.731225     2.723582     2.715939     2.708295
      2.700652     2.693009     2.685366     2.677722     2.670079     2.662436     2.654793     2.647150     2.639506     2.631863
      2.624220     2.616577     2.608933     2.601290     2.593647     2.586004     2.578361     2.570717     2.563074     2.555431
      2.547788     2.540144     2.532501     2.524858     2.517215     2.509572     2.501928     2.494285     2.486642     2.478999
      2.471355     2.463712     2.456069     2.448426     2.440783     2.433139     2.425496     2.417853     2.410210     2.402566
      2.394923     2.387280     2.379637     2.371994     2.364350     2.356707     2.349064     2.341421     2.333777     2.326134
      2.318491     2.310848     2.303205     2.295561     2.287918     2.280275     2.272632     2.264988     2.257345     2.249702
      2.242059     2.234416     2.226772     2.219129     2.211486     2.203843     2.196199     2.188556     2.180913     2.173270
      2.165627     2.157983     2.150340     2.142697     2.135054     2.127410     2.119767     2.112124     2.104481     2.096838
      2.089194     2.081551     2.073908     2.066265     2.058621     2.050978     2.043335     2.035692     2.028049     2.020405
      2.012762     2.005119     1.997476     1.989833     1.982190     1.974546     1.966903     1.959260     1.951617     1.943974
      1.936331     1.928688     1.921045     1.913402     1.905759     1.898115     1.890472     1.882829     1.875186     1.867543
      1.859900     1.852257     1.844614     1.836971     1.829327     1.821684     1.814041     1.806398     1.798755     1.791112
      1.783469     1.775826     1.768183     1.760540     1.752896     1.745253     1.737610     1.729967     1.722324     1.714681
      1.707038     1.699395     1.691752     1.684108     1.676465     1.668822     1.661179     1.653536     1.645893     1.638250
      1.630607     1.622964     1.615321     1.607677     1.600034     1.592391     1.584748     1.577105     1.569462     1.561819
      1.554176     1.546533     1.538890     1.531246     1.523603     1.515960     1.508317     1.500674     1.493031     1.485388
      1.477745     1.470102     1.462458     1.454815     1.447172     1.439529     1.431886     1.424243     1.416600     1.408957
      1.401314     1.393671     1.386027     1.378384     1.370741     1.363098     1.355455     1.347812     1.340169     1.332526
      1.324883     1.317240     1.309596     1.301953     1.294310     1.286667     1.279024     1.271381     1.263738     1.256095
      1.248452     1.240808     1.233165     1.225522     1.217879     1.210236     1.202593     1.194950     1.187307     1.179664
      1.172021     1.164377     1.156734     1.149091     1.141448     1.133805     1.126162     1.118519     1.110876     1.103233
      1.095590     1.087946     1.080303     1.072660     1.065017     1.057374     1.049731     1.042088     1.034445     1.026802
      1.019158     1.011515     1.003872     0.996229     0.988586     0.980943     0.973300     0.965657     0.958014     0.950371
      0.942727     0.935084     0.927441     0.919798     0.912155     0.904512     0.896869     0.889226     0.881583     0.873940
      0.866296     0.858653     0.851010     0.843367     0.835724     0.828081     0.820438     0.812795     0.805152     0.797508
      0.789865     0.782222     0.774579     0.766936     0.759293     0.751650     0.744007     0.736364     0.728721     0.721077
      0.713434     0.705791     0.698148     0.690505     0.682862     0.675219     0.667576     0.659933     0.652290     0.644646
      0.637003     0.629360     0.621717     0.614074     0.606431     0.598788     0.591145     0.583502     0.575858     0.568215
      0.560572     0.552929     0.545286     0.537643     0.530000     0.522357     0.514714     0.507071     0.499427     0.491784
      0.484141     0.476498     0.468855     0.461212     0.453569     0.445925     0.438282     0.430639     0.422996     0.415353
      0.407710     0.400067     0.392424     0.384780     0.377137     0.369494     0.361851     0.354208     0.346565     0.338922
      0.331278     0.323635     0.315992     0.308349     0.300706     0.293063     0.285420     0.277777     0.270133     0.262490
      0.254847     0.247204     0.239561     0.231918     0.224275     0.216631     0.208988     0.201345
 NY phased data points follow
  -1.16872E+01 -7.94748E+00 -2.36857E+00 -1.96749E+00  9.09917E+00  1.23344E+01  1.47834E+01  2.15252E+01  3.23444E+01  3.90151E+01
   3.90470E+01  3.84403E+01  3.58905E+01  2.32026E+01  1.27612E+01  1.00118E+01 -2.48394E+00 -3.95534E+00 -8.77300E+00 -7.77443E+00
  -1.09045E+01 -3.94586E+00 -9.24652E+00 -5.45285E+00 -4.76979E+00 -4.12248E+00 -6.49806E+00 -2.57086E+00 -9.68767E-01 -1.99133E+00
  -1.15659E+00  2.41898E+00  1.08139E+00  3.49785E+00 -1.60007E+00 -2.99983E-01 -5.72576E+00 -6.03311E+00 -9.51843E+00 -7.68804E+00
  -3.41469E+00 -2.35571E+00  1.09528E+00  6.44412E-02  3.72926E+00  3.00740E+00  5.13524E+00  6.39264E+00  4.74343E+00  3.84818E+00
   1.12159E+00  6.02247E-01 -4.20153E+00 -3.74762E+00 -6.96168E+00 -4.56984E+00 -4.32522E+00 -4.30727E+00 -8.24031E+00 -1.26803E+01
  -1.23128E+01 -9.24001E+00 -1.72007E+01 -1.72763E+01 -1.55294E+01 -1.82502E+01 -1.80523E+01 -1.99004E+01 -2.03276E+01 -1.61308E+01
  -1.95484E+01 -1.62259E+01 -1.75256E+01 -1.35162E+01 -1.76369E+01 -1.35172E+01 -1.28601E+01 -1.18864E+01 -8.26159E+00 -6.89179E+00
  -1.23895E+01 -9.86375E+00 -1.05936E+01 -7.92475E+00 -6.70094E+00 -4.42712E+00 -6.53646E+00 -1.94874E+00 -5.40340E+00 -6.72349E+00
  -2.67467E+00 -1.89526E+00 -2.94142E+00 -1.52319E+00  2.48764E+00  4.02051E+00  6.97178E+00  1.64043E+01  1.96449E+01  3.29161E+01
   3.98735E+01  5.32100E+01  5.43625E+01  6.06483E+01  5.84065E+01  4.98734E+01  4.15886E+01  1.98527E+01  1.43299E+01  7.13020E+00
   5.64390E+00  1.14938E+00 -5.05209E+00 -1.70004E+00 -6.33424E+00 -4.00717E+00 -6.16467E+00 -9.41663E+00 -7.67143E+00 -1.73549E-01
   3.72200E+00  9.14484E+00  1.54617E+01  3.01515E+01  3.80162E+01  5.06643E+01  6.20743E+01  7.28404E+01  7.11976E+01  6.40572E+01
   4.93398E+01  2.92870E+01  2.29269E+01  1.22359E+01  7.36319E+00  4.50524E+00 -8.41626E-01 -9.17302E+00 -8.16845E+00 -8.44483E+00
  -8.22649E+00 -4.53145E+00 -1.10871E+01 -1.03304E+01 -1.28542E+01 -7.69619E+00 -1.11017E+01 -1.23581E+01 -1.09470E+01 -8.69928E+00
  -1.15612E+01 -1.37688E+01 -1.33951E+01 -9.44191E+00 -1.45387E+01 -1.16778E+01 -1.18039E+01 -1.77608E+01 -1.35997E+01 -1.49962E+01
  -1.12643E+01 -1.51821E+01 -1.86692E+01 -1.62099E+01 -2.21210E+01 -2.14456E+01 -2.23319E+01 -2.02794E+01 -1.93604E+01 -2.05688E+01
  -2.43589E+01 -3.21201E+01 -3.34421E+01 -2.67647E+01 -3.06070E+01 -2.86926E+01 -3.30439E+01 -3.23274E+01 -3.04854E+01 -2.83460E+01
  -2.65599E+01 -2.52665E+01 -2.77271E+01 -2.27500E+01 -2.59570E+01 -2.56759E+01 -1.88190E+01 -1.96087E+01 -2.39114E+01 -1.48144E+01
  -1.36762E+01 -8.18782E+00 -5.82197E+00 -6.99086E+00 -4.73247E+00 -5.02257E+00 -7.43744E+00 -5.53369E+00 -5.84948E+00 -2.23806E+00
  -1.04328E+01 -5.64932E+00 -4.75718E+00 -3.30857E+00 -5.45033E+00 -3.95658E-01 -4.42437E-01 -2.13510E+00 -6.78717E+00 -8.33741E+00
  -5.07288E+00 -2.25644E+00  3.76503E-02  1.58581E+00  7.36168E+00  1.79111E+01  1.20828E+01  1.44820E+01  1.11175E+01  8.65674E+00
   6.70674E+00  3.73880E-01 -1.58311E+00  2.49341E+00  5.37420E+00  5.38859E+00  5.04591E+00  1.73395E+01  1.43460E+01  1.69157E+01
   1.41015E+01  1.40203E+01  1.68419E+01  1.51543E+01  1.42180E+01  1.51976E+01  1.41564E+01  1.09933E+01  1.73847E+01  1.41560E+01
   1.09423E+01  1.53859E+01  8.99631E+00  1.26896E+01  1.26501E+01  1.48702E+01  1.78650E+01  1.96867E+01  1.69861E+01  2.75513E+01
   2.49194E+01  2.81831E+01  3.05163E+01  4.34880E+01  5.06093E+01  6.54642E+01  8.37031E+01  9.22628E+01  1.11527E+02  1.22615E+02
   1.35143E+02  1.48105E+02  1.43448E+02  1.24327E+02  1.03177E+02  8.20463E+01  6.17089E+01  4.97816E+01  4.10226E+01  2.96681E+01
   2.56517E+01  2.36132E+01  2.12453E+01  2.23865E+01  1.13808E+01  1.38792E+01  7.89467E+00  8.88552E+00  1.10105E+01  1.05901E+01
   7.82072E+00  8.90123E+00  1.03099E+01  3.80132E+00  1.07915E+01  4.75476E+00  9.82967E+00  7.25667E+00  9.39469E+00  8.78682E+00
   7.37977E+00  5.46433E+00  6.26722E+00  8.20107E+00  5.12871E+00  5.26528E+00  4.23233E+00  4.12014E+00  1.69397E+00  9.21458E+00
   5.34484E+00  5.32284E+00  5.18585E+00  7.04526E+00  6.77541E+00  1.01744E+01  6.84736E+00  1.02432E+01  1.21600E+01  9.31991E+00
   9.50052E+00  1.70830E+01  1.74525E+01  1.69862E+01  1.42187E+01  1.63897E+01  1.70914E+01  2.02560E+01  1.60105E+01  1.84923E+01
   1.61322E+01  1.91461E+01  1.62541E+01  2.03608E+01  1.32709E+01  2.15628E+01  1.82697E+01  2.03102E+01  1.81306E+01  2.13873E+01
   2.13671E+01  2.22748E+01  1.98859E+01  2.34822E+01  2.60329E+01  2.89725E+01  2.74289E+01  2.83748E+01  2.76357E+01  2.68553E+01
   2.47281E+01  3.10396E+01  3.27443E+01  2.78287E+01  2.91674E+01  2.61598E+01  2.63633E+01  2.83523E+01  2.26774E+01  2.33312E+01
   2.13856E+01  2.09134E+01  2.13697E+01  2.35234E+01  2.49490E+01  2.03108E+01  2.23083E+01  2.14934E+01  2.29398E+01  2.34313E+01
   2.13397E+01  2.30621E+01  2.41979E+01  2.08587E+01  2.29202E+01  2.16275E+01  1.94748E+01  2.07913E+01  1.82556E+01  1.86490E+01
   1.78791E+01  1.91098E+01  1.69190E+01  1.86302E+01  1.68506E+01  1.36607E+01  1.41735E+01  1.50999E+01  1.34415E+01  1.78656E+01
   1.72343E+01  1.43975E+01  1.07153E+01  1.26386E+01  8.89110E+00  1.56082E+01  1.21044E+01  1.50436E+01  1.60839E+01  1.86008E+01
   1.70149E+01  1.46062E+01  1.82923E+01  1.89604E+01  1.77925E+01  1.76559E+01  1.62264E+01  2.26508E+01  1.99880E+01  2.10288E+01
   2.10154E+01  2.09754E+01  2.25395E+01  2.65312E+01  2.38199E+01  2.61514E+01  2.70598E+01  2.37623E+01  2.55313E+01  2.80042E+01
   2.49722E+01  2.61872E+01  2.13203E+01  2.66499E+01  2.12726E+01  2.23083E+01  2.38886E+01  1.52618E+01  2.04174E+01  2.16251E+01
   1.72549E+01  1.93278E+01  1.73482E+01  1.36997E+01  1.95879E+01  1.63764E+01  1.48474E+01  1.49196E+01  1.50033E+01  1.18128E+01
   8.89900E+00  1.44994E+01  9.69550E+00  1.20596E+01  9.12216E+00  1.26402E+01  1.19372E+01  1.27406E+01  1.36391E+01  1.18513E+01
   5.15802E+00  1.19866E+01  9.49263E+00  1.15523E+01  8.94261E+00  1.00319E+01  9.52759E+00  6.16422E+00  9.30236E+00  1.04172E+01
   1.10656E+01  8.21876E+00  6.99907E+00  9.21947E+00  7.42585E+00  1.13395E+01  1.05499E+01  1.00456E+01  5.27295E+00  8.15982E+00
   7.59865E+00  9.99642E+00  9.52769E+00  7.13648E+00  7.29810E+00  9.25966E+00  6.32850E+00  1.12295E+01  4.57168E+00  1.13041E+01
   8.83877E+00  9.67248E+00  6.36524E+00  9.34305E+00  8.80508E+00  8.35440E+00  7.93675E+00  9.19242E+00  8.71636E+00  1.13196E+01
   7.37332E+00  1.06061E+01  6.92954E+00  1.06013E+01  7.87090E+00  1.14396E+01  1.01580E+01  9.70749E+00  1.14760E+01  8.97989E+00
   1.03756E+01  7.85712E+00  1.05982E+01  8.03606E+00  7.18770E+00  8.48895E+00  7.37661E+00  1.10283E+01
 NY points of the fit to the data follow
  -1.04093E+01 -8.17088E+00 -4.04681E+00  7.88138E-01  6.26793E+00  1.21564E+01  1.85011E+01  2.52607E+01  3.19092E+01  3.72587E+01
   3.93900E+01  3.70156E+01  3.06505E+01  2.21997E+01  1.41117E+01  8.07583E+00  4.14293E+00  7.95155E-01 -3.44216E+00 -6.86201E+00
  -8.69444E+00 -9.60440E+00 -9.34195E+00 -8.70988E+00 -7.90189E+00 -6.89635E+00 -5.53784E+00 -3.64913E+00 -1.30424E+00  1.51665E+00
   4.33406E+00  5.99461E+00  5.89788E+00  4.05246E+00  1.10503E+00 -2.04326E+00 -4.82849E+00 -6.68788E+00 -7.86922E+00 -8.30161E+00
  -7.50422E+00 -6.06810E+00 -4.41417E+00 -2.78630E+00 -1.13417E+00  5.50476E-01  1.89722E+00  2.58490E+00  2.33910E+00  7.58444E-01
  -1.94136E+00 -4.97008E+00 -7.48050E+00 -8.90675E+00 -9.51246E+00 -9.92367E+00 -1.03299E+01 -1.04662E+01 -1.02122E+01 -9.79544E+00
  -9.55395E+00 -9.68443E+00 -1.02686E+01 -1.11548E+01 -1.20202E+01 -1.26147E+01 -1.27290E+01 -1.24702E+01 -1.21049E+01 -1.16916E+01
  -1.13057E+01 -1.09820E+01 -1.07583E+01 -1.07389E+01 -1.09194E+01 -1.12510E+01 -1.16384E+01 -1.19191E+01 -1.19752E+01 -1.13590E+01
  -1.04312E+01 -9.65247E+00 -8.70954E+00 -7.63405E+00 -6.47751E+00 -5.20019E+00 -3.89897E+00 -2.90945E+00 -2.68762E+00 -3.56005E+00
  -5.24512E+00 -7.06710E+00 -8.28815E+00 -8.17772E+00 -5.17393E+00  1.08111E+00  7.32096E+00  1.41340E+01  2.22224E+01  3.09311E+01
   4.03841E+01  5.02095E+01  5.87716E+01  6.31528E+01  6.06082E+01  5.11693E+01  3.77512E+01  2.42585E+01  1.38287E+01  7.12437E+00
   2.24818E+00 -3.47628E+00 -9.05213E+00 -1.12570E+01 -1.17619E+01 -1.17932E+01 -1.15445E+01 -1.09287E+01 -9.03824E+00 -3.15749E+00
   4.59102E+00  1.23197E+01  2.09132E+01  3.01798E+01  4.00796E+01  5.07178E+01  6.10319E+01  6.84737E+01  6.96590E+01  6.29944E+01
   5.02898E+01  3.55113E+01  2.27122E+01  1.39391E+01  8.20720E+00  2.30104E+00 -5.25784E+00 -9.98095E+00 -1.11265E+01 -1.10437E+01
  -1.04856E+01 -9.94896E+00 -9.77674E+00 -9.91900E+00 -1.02171E+01 -1.06673E+01 -1.11578E+01 -1.16114E+01 -1.20634E+01 -1.25006E+01
  -1.29566E+01 -1.33566E+01 -1.36515E+01 -1.40155E+01 -1.44480E+01 -1.48037E+01 -1.50851E+01 -1.52432E+01 -1.54008E+01 -1.57326E+01
  -1.61750E+01 -1.66442E+01 -1.69691E+01 -1.69829E+01 -1.67458E+01 -1.65188E+01 -1.66240E+01 -1.72591E+01 -1.83519E+01 -1.95593E+01
  -2.02999E+01 -2.06983E+01 -2.10873E+01 -2.16273E+01 -2.23489E+01 -2.28365E+01 -2.29648E+01 -2.28453E+01 -2.24381E+01 -2.19882E+01
  -2.16688E+01 -2.13550E+01 -2.10137E+01 -2.04165E+01 -1.94070E+01 -1.81081E+01 -1.67376E+01 -1.55312E+01 -1.41989E+01 -1.24965E+01
  -1.07330E+01 -9.41847E+00 -8.87811E+00 -8.89711E+00 -9.12247E+00 -9.14539E+00 -8.34836E+00 -6.93088E+00 -5.26987E+00 -3.35752E+00
  -1.55906E+00 -3.55145E-01  1.37135E-01  8.16434E-02 -7.77512E-01 -2.64279E+00 -5.25294E+00 -7.97306E+00 -1.00868E+01 -1.11281E+01
  -1.06888E+01 -8.37013E+00 -4.86916E+00 -1.32239E+00  1.73039E+00  3.93589E+00  5.28615E+00  5.70225E+00  4.82658E+00  2.61562E+00
  -3.66831E-01 -2.70481E+00 -3.58713E+00 -3.10333E+00 -1.47952E+00  1.05982E+00  4.20193E+00  7.07475E+00  9.01193E+00  1.01873E+01
   1.09188E+01  1.16853E+01  1.26191E+01  1.33553E+01  1.38762E+01  1.46278E+01  1.56647E+01  1.68509E+01  1.78757E+01  1.83459E+01
   1.81469E+01  1.72195E+01  1.59260E+01  1.51456E+01  1.54319E+01  1.65632E+01  1.81865E+01  2.01205E+01  2.19673E+01  2.35186E+01
   2.49586E+01  2.70722E+01  3.26446E+01  4.39359E+01  5.56026E+01  6.75698E+01  8.07225E+01  9.44413E+01  1.09020E+02  1.24350E+02
   1.38240E+02  1.45956E+02  1.42420E+02  1.27219E+02  1.04748E+02  8.14856E+01  6.30789E+01  5.11511E+01  4.25525E+01  3.22954E+01
   2.15421E+01  1.67353E+01  1.49068E+01  1.37823E+01  1.30310E+01  1.24999E+01  1.19512E+01  1.13734E+01  1.07677E+01  1.01570E+01
   9.58538E+00  9.08270E+00  8.62158E+00  8.19387E+00  7.82935E+00  7.53473E+00  7.28768E+00  7.07233E+00  6.88894E+00  6.75005E+00
   6.65848E+00  6.59730E+00  6.57145E+00  6.58663E+00  6.64347E+00  6.74231E+00  6.88416E+00  7.07068E+00  7.30101E+00  7.57221E+00
   7.88380E+00  8.23440E+00  8.62021E+00  9.03740E+00  9.48112E+00  9.94487E+00  1.04216E+01  1.09052E+01  1.13902E+01  1.18724E+01
   1.23482E+01  1.28146E+01  1.32697E+01  1.37151E+01  1.41551E+01  1.45965E+01  1.50493E+01  1.55304E+01  1.60746E+01  1.67198E+01
   1.73446E+01  1.79192E+01  1.84929E+01  1.90471E+01  1.95675E+01  2.00250E+01  2.03616E+01  2.06241E+01  2.08090E+01  2.09080E+01
   2.10838E+01  2.14743E+01  2.21373E+01  2.30503E+01  2.41166E+01  2.52088E+01  2.62343E+01  2.71872E+01  2.79442E+01  2.84891E+01
   2.87748E+01  2.88138E+01  2.87887E+01  2.86503E+01  2.82491E+01  2.76270E+01  2.68429E+01  2.59702E+01  2.49126E+01  2.36463E+01
   2.24563E+01  2.16091E+01  2.12662E+01  2.14480E+01  2.20060E+01  2.26891E+01  2.32597E+01  2.36995E+01  2.38728E+01  2.36099E+01
   2.30901E+01  2.25388E+01  2.20677E+01  2.15820E+01  2.08974E+01  2.01861E+01  1.95827E+01  1.90272E+01  1.84934E+01  1.79738E+01
   1.74676E+01  1.69769E+01  1.65050E+01  1.60564E+01  1.56359E+01  1.52484E+01  1.48984E+01  1.45903E+01  1.43281E+01  1.41156E+01
   1.39562E+01  1.38531E+01  1.38089E+01  1.38261E+01  1.39066E+01  1.40525E+01  1.42652E+01  1.45457E+01  1.48944E+01  1.53108E+01
   1.57938E+01  1.63411E+01  1.69489E+01  1.76121E+01  1.83236E+01  1.90747E+01  1.98546E+01  2.06510E+01  2.14498E+01  2.22354E+01
   2.29912E+01  2.37004E+01  2.43459E+01  2.49116E+01  2.53827E+01  2.57464E+01  2.59922E+01  2.61133E+01  2.61056E+01  2.59692E+01
   2.57071E+01  2.53262E+01  2.48360E+01  2.42489E+01  2.35791E+01  2.28422E+01  2.20543E+01  2.12316E+01  2.03897E+01  1.95433E+01
   1.87053E+01  1.78871E+01  1.70979E+01  1.63454E+01  1.56348E+01  1.49701E+01  1.43531E+01  1.37847E+01  1.32642E+01  1.27902E+01
   1.23606E+01  1.19729E+01  1.16241E+01  1.13111E+01  1.10307E+01  1.07801E+01  1.05563E+01  1.03565E+01  1.01783E+01  1.00194E+01
   9.87752E+00  9.75101E+00  9.63814E+00  9.53749E+00  9.44765E+00  9.36751E+00  9.29600E+00  9.23232E+00  9.17563E+00  9.12527E+00
   9.08054E+00  9.04094E+00  9.00596E+00  8.97526E+00  8.94840E+00  8.92509E+00  8.90494E+00  8.88775E+00  8.87326E+00  8.86133E+00
   8.85169E+00  8.84419E+00  8.83859E+00  8.83487E+00  8.83284E+00  8.83245E+00  8.83350E+00  8.83593E+00  8.83960E+00  8.84452E+00
   8.85056E+00  8.85771E+00  8.86582E+00  8.87489E+00  8.88480E+00  8.89561E+00  8.90722E+00  8.91962E+00  8.93268E+00  8.94644E+00
   8.96081E+00  8.97586E+00  8.99150E+00  9.00772E+00  9.02443E+00  9.04168E+00  9.05942E+00  9.07771E+00  9.09644E+00  9.11564E+00
   9.13523E+00  9.15528E+00  9.17575E+00  9.19670E+00  9.21802E+00  9.23977E+00  9.26188E+00  9.28445E+00
 NY background values follow
    -2.037E+01   -2.033E+01   -2.029E+01   -2.025E+01   -2.021E+01   -2.017E+01   -2.013E+01   -2.009E+01   -2.005E+01   -2.002E+01
    -1.998E+01   -1.994E+01   -1.990E+01   -1.986E+01   -1.982E+01   -1.979E+01   -1.975E+01   -1.971E+01   -1.968E+01   -1.964E+01
    -1.960E+01   -1.956E+01   -1.953E+01   -1.949E+01   -1.946E+01   -1.942E+01   -1.938E+01   -1.935E+01   -1.931E+01   -1.928E+01
    -1.924E+01   -1.921E+01   -1.918E+01   -1.914E+01   -1.911E+01   -1.908E+01   -1.904E+01   -1.901E+01   -1.898E+01   -1.894E+01
    -1.891E+01   -1.888E+01   -1.885E+01   -1.882E+01   -1.879E+01   -1.876E+01   -1.873E+01   -1.870E+01   -1.867E+01   -1.864E+01
    -1.861E+01   -1.858E+01   -1.855E+01   -1.852E+01   -1.849E+01   -1.847E+01   -1.844E+01   -1.841E+01   -1.839E+01   -1.836E+01
    -1.834E+01   -1.831E+01   -1.829E+01   -1.826E+01   -1.824E+01   -1.821E+01   -1.819E+01   -1.817E+01   -1.814E+01   -1.812E+01
    -1.810E+01   -1.808E+01   -1.805E+01   -1.803E+01   -1.801E+01   -1.799E+01   -1.797E+01   -1.795E+01   -1.793E+01   -1.791E+01
    -1.790E+01   -1.788E+01   -1.786E+01   -1.784E+01   -1.783E+01   -1.781E+01   -1.779E+01   -1.778E+01   -1.776E+01   -1.775E+01
    -1.773E+01   -1.772E+01   -1.770E+01   -1.769E+01   -1.768E+01   -1.766E+01   -1.765E+01   -1.764E+01   -1.763E+01   -1.762E+01
    -1.761E+01   -1.759E+01   -1.758E+01   -1.757E+01   -1.756E+01   -1.755E+01   -1.754E+01   -1.753E+01   -1.752E+01   -1.751E+01
    -1.751E+01   -1.750E+01   -1.749E+01   -1.748E+01   -1.747E+01   -1.746E+01   -1.745E+01   -1.744E+01   -1.744E+01   -1.743E+01
    -1.742E+01   -1.741E+01   -1.740E+01   -1.739E+01   -1.739E+01   -1.738E+01   -1.737E+01   -1.736E+01   -1.735E+01   -1.734E+01
    -1.733E+01   -1.732E+01   -1.732E+01   -1.731E+01   -1.730E+01   -1.729E+01   -1.728E+01   -1.727E+01   -1.726E+01   -1.725E+01
    -1.723E+01   -1.722E+01   -1.721E+01   -1.720E+01   -1.718E+01   -1.716E+01   -1.715E+01   -1.713E+01   -1.711E+01   -1.708E+01
    -1.706E+01   -1.703E+01   -1.701E+01   -1.697E+01   -1.694E+01   -1.691E+01   -1.687E+01   -1.683E+01   -1.679E+01   -1.674E+01
    -1.669E+01   -1.664E+01   -1.658E+01   -1.653E+01   -1.646E+01   -1.640E+01   -1.633E+01   -1.626E+01   -1.618E+01   -1.610E+01
    -1.601E+01   -1.592E+01   -1.583E+01   -1.573E+01   -1.563E+01   -1.552E+01   -1.540E+01   -1.529E+01   -1.516E+01   -1.503E+01
    -1.490E+01   -1.476E+01   -1.462E+01   -1.447E+01   -1.431E+01   -1.415E+01   -1.398E+01   -1.382E+01   -1.364E+01   -1.346E+01
    -1.328E+01   -1.310E+01   -1.291E+01   -1.272E+01   -1.252E+01   -1.232E+01   -1.212E+01   -1.192E+01   -1.172E+01   -1.151E+01
    -1.130E+01   -1.109E+01   -1.088E+01   -1.067E+01   -1.046E+01   -1.025E+01   -1.003E+01   -9.821E+00   -9.608E+00   -9.395E+00
    -9.182E+00   -8.970E+00   -8.760E+00   -8.550E+00   -8.341E+00   -8.135E+00   -7.930E+00   -7.727E+00   -7.526E+00   -7.328E+00
    -7.132E+00   -6.939E+00   -6.750E+00   -6.563E+00   -6.380E+00   -6.201E+00   -6.026E+00   -5.855E+00   -5.688E+00   -5.525E+00
    -5.366E+00   -5.211E+00   -5.059E+00   -4.911E+00   -4.767E+00   -4.626E+00   -4.489E+00   -4.354E+00   -4.223E+00   -4.095E+00
    -3.971E+00   -3.849E+00   -3.730E+00   -3.614E+00   -3.500E+00   -3.389E+00   -3.281E+00   -3.175E+00   -3.072E+00   -2.970E+00
    -2.871E+00   -2.774E+00   -2.680E+00   -2.587E+00   -2.496E+00   -2.406E+00   -2.319E+00   -2.233E+00   -2.148E+00   -2.065E+00
    -1.984E+00   -1.903E+00   -1.824E+00   -1.746E+00   -1.669E+00   -1.593E+00   -1.518E+00   -1.443E+00   -1.370E+00   -1.296E+00
    -1.224E+00   -1.151E+00   -1.080E+00   -1.008E+00   -9.367E-01   -8.658E-01   -7.952E-01   -7.250E-01   -6.551E-01   -5.855E-01
    -5.162E-01   -4.473E-01   -3.786E-01   -3.103E-01   -2.423E-01   -1.747E-01   -1.073E-01   -4.026E-02    2.647E-02    9.290E-02
     1.590E-01    2.248E-01    2.903E-01    3.555E-01    4.204E-01    4.850E-01    5.493E-01    6.133E-01    6.770E-01    7.404E-01
     8.035E-01    8.664E-01    9.289E-01    9.911E-01    1.053E+00    1.115E+00    1.176E+00    1.237E+00    1.298E+00    1.359E+00
     1.419E+00    1.479E+00    1.539E+00    1.598E+00    1.657E+00    1.716E+00    1.775E+00    1.833E+00    1.891E+00    1.949E+00
     2.007E+00    2.064E+00    2.121E+00    2.178E+00    2.234E+00    2.290E+00    2.346E+00    2.401E+00    2.456E+00    2.511E+00
     2.565E+00    2.619E+00    2.673E+00    2.726E+00    2.779E+00    2.831E+00    2.883E+00    2.935E+00    2.987E+00    3.037E+00
     3.088E+00    3.138E+00    3.188E+00    3.237E+00    3.286E+00    3.334E+00    3.382E+00    3.429E+00    3.476E+00    3.522E+00
     3.568E+00    3.614E+00    3.659E+00    3.703E+00    3.747E+00    3.791E+00    3.834E+00    3.876E+00    3.918E+00    3.959E+00
     4.000E+00    4.040E+00    4.080E+00    4.119E+00    4.158E+00    4.196E+00    4.233E+00    4.270E+00    4.307E+00    4.343E+00
     4.379E+00    4.414E+00    4.449E+00    4.483E+00    4.517E+00    4.551E+00    4.584E+00    4.618E+00    4.650E+00    4.683E+00
     4.715E+00    4.747E+00    4.779E+00    4.810E+00    4.841E+00    4.872E+00    4.903E+00    4.934E+00    4.964E+00    4.995E+00
     5.025E+00    5.055E+00    5.085E+00    5.116E+00    5.146E+00    5.176E+00    5.206E+00    5.236E+00    5.266E+00    5.296E+00
     5.326E+00    5.356E+00    5.386E+00    5.416E+00    5.447E+00    5.478E+00    5.508E+00    5.539E+00    5.570E+00    5.602E+00
     5.633E+00    5.665E+00    5.696E+00    5.728E+00    5.760E+00    5.792E+00    5.825E+00    5.857E+00    5.890E+00    5.922E+00
     5.955E+00    5.988E+00    6.021E+00    6.054E+00    6.087E+00    6.120E+00    6.154E+00    6.187E+00    6.220E+00    6.254E+00
     6.287E+00    6.321E+00    6.355E+00    6.388E+00    6.422E+00    6.456E+00    6.490E+00    6.523E+00    6.557E+00    6.591E+00
     6.625E+00    6.658E+00    6.692E+00    6.726E+00    6.760E+00    6.793E+00    6.827E+00    6.861E+00    6.894E+00    6.928E+00
     6.961E+00    6.995E+00    7.028E+00    7.061E+00    7.095E+00    7.128E+00    7.161E+00    7.194E+00    7.227E+00    7.260E+00
     7.293E+00    7.325E+00    7.358E+00    7.391E+00    7.424E+00    7.456E+00    7.489E+00    7.521E+00    7.554E+00    7.586E+00
     7.619E+00    7.651E+00    7.684E+00    7.716E+00    7.749E+00    7.781E+00    7.814E+00    7.846E+00    7.878E+00    7.911E+00
     7.943E+00    7.976E+00    8.008E+00    8.040E+00    8.073E+00    8.105E+00    8.138E+00    8.170E+00    8.203E+00    8.235E+00
     8.268E+00    8.300E+00    8.333E+00    8.365E+00    8.398E+00    8.431E+00    8.464E+00    8.496E+00
 Ala      Conc. = 2.06E+02
