 LCModel (Version 6.3-1L) Copyright: S.W. Provencher.          Ref.: Magn. Reson. Med. 30:672-679 (1993).                
 Slice#2 Row#6 Col#6  PD_24_press_2_raw_act
 36 lines in following concentration table = NCONC+1
    Conc.  %SD /Cr+PCr  Metabolite                                         
    0.000 999%   0.000 Ala                                                 
  177.499 200%   0.122 Asp                                                 
    0.000 999%   0.000 Cr                                                  
 1.45E+03  11%   1.000 PCr                                                 
  198.830 110%   0.137 GABA                                                
  267.481  82%   0.184 Glc                                                 
  494.798 124%   0.340 Gln                                                 
 1.59E+03  44%   1.097 Glu                                                 
    0.000 999%   0.000 GPC                                                 
  743.150   8%   0.511 PCh                                                 
  366.109  57%   0.252 GSH                                                 
 3.54E+03  21%   2.439 Ins                                                 
    0.000 999%   0.000 Lac                                                 
 3.15E+03   6%   2.171 NAA                                                 
    0.000 999%   0.000 NAAG                                                
  204.706  28%   0.141 Scyllo                                              
  867.520  40%   0.597 Tau                                                 
 1.03E+03  25%   0.706 -CrCH2                                              
  743.150   8%   0.511 GPC+PCh                                             
 3.15E+03   6%   2.171 NAA+NAAG                                            
 1.45E+03  11%   1.000 Cr+PCr                                              
 2.09E+03  46%   1.438 Glu+Gln                                             
 4.72E+03  40%   3.245 Lip13a                                              
  137.908 460% 9.5E-02 Lip13b                                              
 1.33E+03  41%   0.914 Lip09                                               
 1.51E+03  39%   1.039 MM09                                                
  729.354  46%   0.502 Lip20                                               
 2.11E+03  45%   1.450 MM20                                                
  383.333 119%   0.264 MM12                                                
 4.72E+03  18%   3.248 MM14                                                
    0.000 999%   0.000 MM17                                                
 4.85E+03  30%   3.340 Lip13a+Lip13b                                       
 9.96E+03  12%   6.852 MM14+Lip13a+Lip13b+MM12                             
 2.84E+03  18%   1.953 MM09+Lip09                                          
 2.84E+03  32%   1.952 MM20+Lip20                                          
   6 lines in following misc. output table
  FWHM = 0.054 ppm    S/N =   5                                            
  Data shift = 0.008 ppm                                                   
  Ph: -53 deg      -4.1 deg/ppm                                            
  alphaB,S = 1.0E+00,   2.6E+01                                            
   14 spline knots.   Ns = 6(1)                                            
  ( 9) 2 infls.   ( 7) 1 extrs.                                            
  498 points on ppm-axis = NY
      4.000000     3.992357     3.984714     3.977070     3.969427     3.961784     3.954141     3.946497     3.938854     3.931211
      3.923568     3.915925     3.908281     3.900638     3.892995     3.885352     3.877708     3.870065     3.862422     3.854779
      3.847136     3.839492     3.831849     3.824206     3.816563     3.808919     3.801276     3.793633     3.785990     3.778347
      3.770703     3.763060     3.755417     3.747774     3.740130     3.732487     3.724844     3.717201     3.709558     3.701914
      3.694271     3.686628     3.678985     3.671341     3.663698     3.656055     3.648412     3.640769     3.633125     3.625482
      3.617839     3.610196     3.602552     3.594909     3.587266     3.579623     3.571980     3.564336     3.556693     3.549050
      3.541407     3.533763     3.526120     3.518477     3.510834     3.503191     3.495547     3.487904     3.480261     3.472618
      3.464974     3.457331     3.449688     3.442045     3.434402     3.426758     3.419115     3.411472     3.403829     3.396185
      3.388542     3.380899     3.373256     3.365613     3.357969     3.350326     3.342683     3.335040     3.327396     3.319753
      3.312110     3.304467     3.296824     3.289180     3.281537     3.273894     3.266251     3.258607     3.250964     3.243321
      3.235678     3.228034     3.220391     3.212748     3.205105     3.197462     3.189818     3.182175     3.174532     3.166889
      3.159245     3.151602     3.143959     3.136316     3.128673     3.121029     3.113386     3.105743     3.098100     3.090456
      3.082813     3.075170     3.067527     3.059884     3.052240     3.044597     3.036954     3.029311     3.021667     3.014024
      3.006381     2.998738     2.991095     2.983451     2.975808     2.968165     2.960522     2.952878     2.945235     2.937592
      2.929949     2.922306     2.914662     2.907019     2.899376     2.891733     2.884089     2.876446     2.868803     2.861160
      2.853517     2.845873     2.838230     2.830587     2.822944     2.815300     2.807657     2.800014     2.792371     2.784728
      2.777084     2.769441     2.761798     2.754155     2.746511     2.738868     2.731225     2.723582     2.715939     2.708295
      2.700652     2.693009     2.685366     2.677722     2.670079     2.662436     2.654793     2.647150     2.639506     2.631863
      2.624220     2.616577     2.608933     2.601290     2.593647     2.586004     2.578361     2.570717     2.563074     2.555431
      2.547788     2.540144     2.532501     2.524858     2.517215     2.509572     2.501928     2.494285     2.486642     2.478999
      2.471355     2.463712     2.456069     2.448426     2.440783     2.433139     2.425496     2.417853     2.410210     2.402566
      2.394923     2.387280     2.379637     2.371994     2.364350     2.356707     2.349064     2.341421     2.333777     2.326134
      2.318491     2.310848     2.303205     2.295561     2.287918     2.280275     2.272632     2.264988     2.257345     2.249702
      2.242059     2.234416     2.226772     2.219129     2.211486     2.203843     2.196199     2.188556     2.180913     2.173270
      2.165627     2.157983     2.150340     2.142697     2.135054     2.127410     2.119767     2.112124     2.104481     2.096838
      2.089194     2.081551     2.073908     2.066265     2.058621     2.050978     2.043335     2.035692     2.028049     2.020405
      2.012762     2.005119     1.997476     1.989833     1.982190     1.974546     1.966903     1.959260     1.951617     1.943974
      1.936331     1.928688     1.921045     1.913402     1.905759     1.898115     1.890472     1.882829     1.875186     1.867543
      1.859900     1.852257     1.844614     1.836971     1.829327     1.821684     1.814041     1.806398     1.798755     1.791112
      1.783469     1.775826     1.768183     1.760540     1.752896     1.745253     1.737610     1.729967     1.722324     1.714681
      1.707038     1.699395     1.691752     1.684108     1.676465     1.668822     1.661179     1.653536     1.645893     1.638250
      1.630607     1.622964     1.615321     1.607677     1.600034     1.592391     1.584748     1.577105     1.569462     1.561819
      1.554176     1.546533     1.538890     1.531246     1.523603     1.515960     1.508317     1.500674     1.493031     1.485388
      1.477745     1.470102     1.462458     1.454815     1.447172     1.439529     1.431886     1.424243     1.416600     1.408957
      1.401314     1.393671     1.386027     1.378384     1.370741     1.363098     1.355455     1.347812     1.340169     1.332526
      1.324883     1.317240     1.309596     1.301953     1.294310     1.286667     1.279024     1.271381     1.263738     1.256095
      1.248452     1.240808     1.233165     1.225522     1.217879     1.210236     1.202593     1.194950     1.187307     1.179664
      1.172021     1.164377     1.156734     1.149091     1.141448     1.133805     1.126162     1.118519     1.110876     1.103233
      1.095590     1.087946     1.080303     1.072660     1.065017     1.057374     1.049731     1.042088     1.034445     1.026802
      1.019158     1.011515     1.003872     0.996229     0.988586     0.980943     0.973300     0.965657     0.958014     0.950371
      0.942727     0.935084     0.927441     0.919798     0.912155     0.904512     0.896869     0.889226     0.881583     0.873940
      0.866296     0.858653     0.851010     0.843367     0.835724     0.828081     0.820438     0.812795     0.805152     0.797508
      0.789865     0.782222     0.774579     0.766936     0.759293     0.751650     0.744007     0.736364     0.728721     0.721077
      0.713434     0.705791     0.698148     0.690505     0.682862     0.675219     0.667576     0.659933     0.652290     0.644646
      0.637003     0.629360     0.621717     0.614074     0.606431     0.598788     0.591145     0.583502     0.575858     0.568215
      0.560572     0.552929     0.545286     0.537643     0.530000     0.522357     0.514714     0.507071     0.499427     0.491784
      0.484141     0.476498     0.468855     0.461212     0.453569     0.445925     0.438282     0.430639     0.422996     0.415353
      0.407710     0.400067     0.392424     0.384780     0.377137     0.369494     0.361851     0.354208     0.346565     0.338922
      0.331278     0.323635     0.315992     0.308349     0.300706     0.293063     0.285420     0.277777     0.270133     0.262490
      0.254847     0.247204     0.239561     0.231918     0.224275     0.216631     0.208988     0.201345
 NY phased data points follow
  -2.41712E+02 -2.48182E+02 -2.48391E+02 -2.51391E+02 -2.20558E+02 -2.28264E+02 -2.17362E+02 -1.97454E+02 -1.82784E+02 -2.01441E+02
  -1.90939E+02 -1.92092E+02 -1.79055E+02 -1.88590E+02 -2.03661E+02 -2.13812E+02 -2.11938E+02 -2.12793E+02 -2.05320E+02 -1.88379E+02
  -1.98068E+02 -2.02286E+02 -1.93463E+02 -1.69091E+02 -1.69983E+02 -1.97276E+02 -1.72346E+02 -1.62737E+02 -1.84209E+02 -1.70035E+02
  -1.69574E+02 -1.70681E+02 -1.56336E+02 -1.51503E+02 -1.66761E+02 -1.81325E+02 -1.71214E+02 -1.61441E+02 -1.47934E+02 -1.47231E+02
  -1.60581E+02 -1.66930E+02 -1.41976E+02 -1.63393E+02 -1.31686E+02 -1.45378E+02 -1.30698E+02 -1.50747E+02 -1.30869E+02 -1.34380E+02
  -1.26712E+02 -1.47619E+02 -1.40505E+02 -1.54855E+02 -1.53249E+02 -1.39030E+02 -1.40807E+02 -1.29588E+02 -1.29856E+02 -1.38228E+02
  -1.45480E+02 -1.34953E+02 -1.22619E+02 -1.42047E+02 -1.30027E+02 -1.44009E+02 -1.37780E+02 -1.24743E+02 -1.29518E+02 -1.23785E+02
  -1.21119E+02 -1.24815E+02 -1.28834E+02 -1.21425E+02 -1.23483E+02 -1.12075E+02 -1.03006E+02 -1.20752E+02 -1.17685E+02 -1.19980E+02
  -1.20597E+02 -1.06345E+02 -1.28807E+02 -1.10991E+02 -1.12655E+02 -9.20608E+01 -1.11549E+02 -1.09575E+02 -1.16833E+02 -9.35033E+01
  -1.05521E+02 -1.05748E+02 -9.02777E+01 -1.18587E+02 -9.32146E+01 -1.03721E+02 -1.08305E+02 -9.09400E+01 -8.93452E+01 -7.85212E+01
  -5.46250E+01 -5.43475E+01 -2.91716E+01 -4.46725E+01 -3.55386E+01 -5.23430E+01 -8.21924E+01 -7.01157E+01 -7.73631E+01 -8.14772E+01
  -9.19339E+01 -7.78244E+01 -9.59125E+01 -1.02435E+02 -8.52827E+01 -1.07848E+02 -8.61758E+01 -9.06917E+01 -1.08518E+02 -9.30082E+01
  -9.74869E+01 -9.80632E+01 -8.02979E+01 -7.11499E+01 -7.96731E+01 -5.95881E+01 -4.48818E+01 -3.55177E+01 -2.58511E+01 -5.51498E+01
  -5.18855E+01 -5.62726E+01 -7.89390E+01 -8.91077E+01 -6.98003E+01 -7.76327E+01 -7.88440E+01 -7.99562E+01 -6.39413E+01 -7.49547E+01
  -9.66828E+01 -1.02664E+02 -8.26370E+01 -8.10122E+01 -8.45486E+01 -7.92502E+01 -8.60187E+01 -8.25052E+01 -6.92214E+01 -7.39362E+01
  -7.76975E+01 -6.89611E+01 -9.84047E+01 -7.40515E+01 -7.88444E+01 -7.88329E+01 -7.41534E+01 -8.11905E+01 -6.54600E+01 -9.16117E+01
  -5.61191E+01 -7.49320E+01 -7.45458E+01 -7.32565E+01 -8.03012E+01 -6.15897E+01 -5.72618E+01 -7.15006E+01 -7.19609E+01 -7.35318E+01
  -8.95707E+01 -6.88300E+01 -7.00904E+01 -7.58435E+01 -7.37383E+01 -7.34782E+01 -9.01197E+01 -9.67321E+01 -7.26340E+01 -9.42537E+01
  -8.01154E+01 -7.07070E+01 -8.33052E+01 -7.23588E+01 -7.13140E+01 -6.67912E+01 -8.89978E+01 -6.81345E+01 -6.76568E+01 -4.74267E+01
  -5.95786E+01 -6.86509E+01 -5.95339E+01 -5.37578E+01 -5.64154E+01 -4.99402E+01 -6.89920E+01 -6.67082E+01 -6.79767E+01 -5.42846E+01
  -6.80062E+01 -5.49225E+01 -5.68536E+01 -4.89029E+01 -4.61384E+01 -4.39407E+01 -6.36317E+01 -5.97107E+01 -6.83120E+01 -5.47091E+01
  -6.39765E+01 -5.13260E+01 -3.75957E+01 -4.31692E+01 -4.24500E+01 -5.21723E+01 -3.69774E+01 -4.15673E+01 -4.06138E+01 -4.90145E+01
  -5.73141E+01 -5.40742E+01 -5.29714E+01 -6.09519E+01 -6.83646E+01 -2.22465E+01 -4.86275E+01 -3.76533E+01 -5.18974E+01 -4.24075E+01
  -5.09184E+01 -5.18761E+01 -4.32122E+01 -3.37184E+01 -3.68362E+01 -3.99929E+01 -5.26539E+01 -3.90837E+01 -3.49606E+01 -3.39216E+01
  -4.76494E+01 -5.71028E+01 -3.17996E+01 -2.88776E+01 -5.04307E+01 -5.62021E+01 -2.45911E+01 -3.07253E+01 -2.70292E+01 -4.44054E+01
  -3.89320E+01 -2.92570E+01 -2.76572E+01 -3.57439E+01 -2.22673E+01 -1.27620E+01  1.35644E+00  1.87515E+01  5.85746E+01  7.20650E+01
   6.39746E+01  6.04604E+01  6.01968E+01  3.74854E+01  1.96447E+01 -1.01295E+01 -1.05083E+01 -3.91888E+01 -3.56627E+01 -3.95575E+01
  -3.92786E+01 -4.03783E+01 -3.86975E+01 -3.77511E+01 -3.13317E+01 -3.78843E+01 -3.50900E+01 -4.38024E+01 -3.89251E+01 -5.23896E+01
  -3.42842E+01 -3.50043E+01 -6.81260E+01 -3.63038E+01 -6.33395E+01 -3.81836E+01 -5.24078E+01 -3.82108E+01 -2.85849E+01 -3.22236E+01
  -4.50312E+01 -3.67550E+01 -4.76814E+01 -5.31801E+01 -2.75695E+01 -4.15703E+01 -4.27929E+01 -4.45694E+01 -2.21643E+01 -3.95067E+01
  -3.35626E+01 -2.84064E+01 -2.33024E+01 -3.06579E+01 -3.67186E+01 -2.14747E+01 -2.59966E+01 -4.74044E+01 -2.17811E+01 -3.33600E+01
  -3.31038E+01 -3.80474E+01 -3.53989E+01 -3.44736E+01 -2.42178E+01 -3.53972E+01 -3.59789E+01 -2.42477E+01 -3.00293E+01 -1.62991E+01
  -1.25583E+01 -1.55121E+01 -7.92894E+00 -7.94097E+00 -1.73640E+01  1.05208E+00 -1.29414E+01 -1.12715E+00  1.12813E+00 -2.97449E+00
  -5.51114E+00  6.88139E+00  8.14781E+00  8.18856E+00  3.34102E+00  1.71775E+00  7.41983E-01  1.26934E+01 -7.70612E+00  2.39858E+00
  -1.27744E+01  4.36463E+00 -1.47269E+01  1.10082E+01  6.03317E+00  1.26871E+01 -2.84594E+00  2.48247E+01  2.30982E+01 -5.33741E+00
  -7.16545E+00  1.35280E+01  5.71138E-01  7.56196E+00  1.40944E+01 -5.67139E+00  2.29556E+00  5.69840E+00 -3.11572E+00 -1.30816E+01
  -8.26864E+00  1.17000E+01 -1.15432E+01 -1.01032E+01 -9.29338E+00 -1.69795E+01 -1.52625E+01  1.58319E+00 -1.96439E+01 -2.19732E+01
   3.99789E+00 -9.20227E+00 -5.57768E+00  9.24257E-01 -9.73066E+00 -1.12002E+01 -2.46123E+01 -1.92217E+01 -1.25877E+01 -2.06489E+01
  -5.83479E+00 -7.92034E+00 -2.52012E+01 -4.50247E+00  4.09094E+00 -1.87166E+01 -1.48559E+01 -1.64409E+01 -9.90694E+00 -2.25417E+01
  -1.60408E+01 -7.71425E+00  7.74784E+00 -5.22285E+00 -1.79595E+01 -3.91941E+00 -8.47176E+00  3.71170E+00 -1.46474E+00 -8.70122E+00
  -1.87628E+01 -8.70430E+00  9.76734E+00 -1.58982E+01 -1.17854E+00 -4.48059E+00 -2.64880E-01  9.95286E+00  6.94428E+00 -1.49657E+01
  -9.43938E+00 -7.51331E+00 -7.96219E+00  1.39320E+01  7.43414E+00  3.62997E+00 -8.57891E+00  1.80418E+00  3.77592E+00 -1.37619E+01
  -3.20383E+00  4.50097E+00 -1.58495E+01 -2.42805E+01 -6.97802E+00  5.36516E-01 -2.19346E+01 -1.22732E+01 -1.04499E+01 -1.01028E+01
  -2.70375E+00 -1.21799E+01  2.48229E+00 -5.72183E+00 -5.78338E+00 -5.76499E+00  3.46743E+00 -2.76895E+01 -5.87860E+00 -1.08352E+01
  -8.87485E+00 -1.68936E+01 -2.95228E+01 -3.09605E-01 -2.47472E+01 -2.54974E+01 -1.61054E+01 -1.52069E+01 -2.02787E+01 -1.83453E+01
  -1.15543E+00 -9.32652E+00 -2.29920E+01 -1.13286E+01 -1.63094E+01 -1.27500E+01 -1.95485E+01 -2.72023E+01 -2.98227E+01 -7.26034E+00
  -3.49510E+01 -5.48156E+00 -1.15513E+01 -1.24445E+01 -2.65755E+01 -1.08879E+01  3.89653E+00 -1.55398E+00 -1.20079E+01 -1.85100E+01
  -1.14544E+01 -1.17821E+01 -1.90117E+01 -9.00770E+00 -2.01165E+01 -2.82827E+00  1.79995E+00 -9.70706E+00 -1.61105E+01 -2.14202E+01
  -3.31765E+01 -1.24984E+01 -7.72511E+00 -3.01599E+01 -1.15591E+01 -1.20024E+01 -3.23073E+01 -1.28466E+01 -3.02964E+01 -1.61432E+01
  -3.73137E+01 -1.98436E+01 -3.98658E+01 -7.99060E+00 -2.83415E+01 -1.66779E+01 -2.01862E+01 -2.59835E+01
 NY points of the fit to the data follow
  -2.13488E+02 -2.14215E+02 -2.15726E+02 -2.16687E+02 -2.15885E+02 -2.15430E+02 -2.12705E+02 -2.05561E+02 -1.98523E+02 -1.94558E+02
  -1.91294E+02 -1.88175E+02 -1.87322E+02 -1.89415E+02 -1.92393E+02 -1.94019E+02 -1.94838E+02 -1.95113E+02 -1.94146E+02 -1.92522E+02
  -1.90742E+02 -1.89023E+02 -1.87468E+02 -1.85846E+02 -1.83940E+02 -1.82127E+02 -1.79725E+02 -1.76148E+02 -1.72369E+02 -1.69203E+02
  -1.66385E+02 -1.63956E+02 -1.62713E+02 -1.63043E+02 -1.64037E+02 -1.65126E+02 -1.66661E+02 -1.68140E+02 -1.68646E+02 -1.68490E+02
  -1.67556E+02 -1.64765E+02 -1.60072E+02 -1.54042E+02 -1.46956E+02 -1.40283E+02 -1.36430E+02 -1.36004E+02 -1.37739E+02 -1.40907E+02
  -1.45349E+02 -1.50116E+02 -1.53312E+02 -1.53808E+02 -1.52308E+02 -1.49455E+02 -1.45400E+02 -1.41041E+02 -1.37492E+02 -1.35248E+02
  -1.34227E+02 -1.34085E+02 -1.34667E+02 -1.35386E+02 -1.35717E+02 -1.35357E+02 -1.34082E+02 -1.32154E+02 -1.29939E+02 -1.27342E+02
  -1.24723E+02 -1.22799E+02 -1.21151E+02 -1.19577E+02 -1.18792E+02 -1.19015E+02 -1.19604E+02 -1.20115E+02 -1.20617E+02 -1.20786E+02
  -1.19944E+02 -1.18195E+02 -1.16329E+02 -1.14116E+02 -1.12048E+02 -1.11523E+02 -1.12224E+02 -1.12894E+02 -1.13453E+02 -1.14172E+02
  -1.14573E+02 -1.14358E+02 -1.13445E+02 -1.12026E+02 -1.10622E+02 -1.09063E+02 -1.06109E+02 -9.89939E+01 -8.91467E+01 -7.69939E+01
  -6.05450E+01 -4.53573E+01 -3.83531E+01 -3.80426E+01 -4.11616E+01 -4.89504E+01 -6.15962E+01 -7.54316E+01 -8.60525E+01 -9.27390E+01
  -9.71612E+01 -9.91607E+01 -9.93755E+01 -9.91197E+01 -9.87206E+01 -9.82840E+01 -9.77931E+01 -9.72784E+01 -9.66423E+01 -9.57510E+01
  -9.43637E+01 -9.09189E+01 -8.40316E+01 -7.58633E+01 -6.50747E+01 -5.23857E+01 -4.37682E+01 -4.13062E+01 -4.19752E+01 -4.54486E+01
  -5.28746E+01 -6.28381E+01 -7.22128E+01 -7.87212E+01 -8.30907E+01 -8.58855E+01 -8.65980E+01 -8.62861E+01 -8.54553E+01 -8.43024E+01
  -8.30864E+01 -8.19830E+01 -8.10568E+01 -8.03959E+01 -8.00013E+01 -7.97762E+01 -7.96035E+01 -7.94056E+01 -7.91940E+01 -7.89630E+01
  -7.86649E+01 -7.83159E+01 -7.79263E+01 -7.74878E+01 -7.70348E+01 -7.67598E+01 -7.66464E+01 -7.66538E+01 -7.68587E+01 -7.69367E+01
  -7.66616E+01 -7.60821E+01 -7.52725E+01 -7.44867E+01 -7.39153E+01 -7.34817E+01 -7.32415E+01 -7.33306E+01 -7.36410E+01 -7.40165E+01
  -7.43817E+01 -7.47278E+01 -7.49398E+01 -7.51058E+01 -7.51178E+01 -7.47544E+01 -7.41179E+01 -7.35265E+01 -7.30685E+01 -7.25256E+01
  -7.18163E+01 -7.13130E+01 -7.10883E+01 -7.07385E+01 -7.01502E+01 -6.91121E+01 -6.74431E+01 -6.55207E+01 -6.36342E+01 -6.18296E+01
  -6.02850E+01 -5.91881E+01 -5.87514E+01 -5.87634E+01 -5.89583E+01 -5.93264E+01 -5.96133E+01 -5.94038E+01 -5.86072E+01 -5.74628E+01
  -5.59947E+01 -5.43023E+01 -5.27767E+01 -5.19823E+01 -5.22685E+01 -5.32469E+01 -5.48275E+01 -5.71077E+01 -5.91590E+01 -6.00376E+01
  -5.96299E+01 -5.82316E+01 -5.55757E+01 -5.20513E+01 -4.91631E+01 -4.79602E+01 -4.82393E+01 -4.96433E+01 -5.22011E+01 -5.54254E+01
  -5.80449E+01 -5.86902E+01 -5.74863E+01 -5.53803E+01 -5.26115E+01 -4.95282E+01 -4.68653E+01 -4.52237E+01 -4.47062E+01 -4.47719E+01
  -4.48843E+01 -4.48013E+01 -4.44680E+01 -4.38459E+01 -4.28425E+01 -4.16169E+01 -4.07685E+01 -4.06379E+01 -4.07474E+01 -4.09718E+01
  -4.14687E+01 -4.18683E+01 -4.15964E+01 -4.08121E+01 -3.99219E+01 -3.88923E+01 -3.77604E+01 -3.68162E+01 -3.62133E+01 -3.56767E+01
  -3.49628E+01 -3.40910E+01 -3.29969E+01 -3.08278E+01 -2.37721E+01 -1.03666E+01  5.49925E+00  2.74303E+01  5.23151E+01  6.73093E+01
   6.96863E+01  6.59783E+01  5.60802E+01  3.76948E+01  1.48336E+01 -5.20432E+00 -1.87896E+01 -2.82307E+01 -3.42578E+01 -3.64234E+01
  -3.71948E+01 -3.74713E+01 -3.74481E+01 -3.72733E+01 -3.70563E+01 -3.68922E+01 -3.68519E+01 -3.69591E+01 -3.71910E+01 -3.74671E+01
  -3.77251E+01 -3.79282E+01 -3.80319E+01 -3.80202E+01 -3.79179E+01 -3.77654E+01 -3.75842E+01 -3.73829E+01 -3.71878E+01 -3.70170E+01
  -3.68556E+01 -3.66943E+01 -3.65330E+01 -3.63649E+01 -3.61797E+01 -3.59751E+01 -3.57519E+01 -3.55097E+01 -3.52458E+01 -3.49634E+01
  -3.46621E+01 -3.43405E+01 -3.39989E+01 -3.36356E+01 -3.32464E+01 -3.28281E+01 -3.23758E+01 -3.18854E+01 -3.13504E+01 -3.07654E+01
  -3.01234E+01 -2.94183E+01 -2.86430E+01 -2.77923E+01 -2.68597E+01 -2.58408E+01 -2.47311E+01 -2.35287E+01 -2.22328E+01 -2.08461E+01
  -1.93726E+01 -1.78203E+01 -1.61988E+01 -1.45223E+01 -1.28067E+01 -1.10718E+01 -9.33813E+00 -7.62879E+00 -5.96656E+00 -4.37533E+00
  -2.87685E+00 -1.49201E+00 -2.37537E-01  8.72451E-01  1.82914E+00  2.62700E+00  3.26657E+00  3.75204E+00  4.09337E+00  4.30327E+00
   4.39878E+00  4.39812E+00  4.32223E+00  4.19159E+00  4.02743E+00  3.84814E+00  3.67015E+00  3.50445E+00  3.35772E+00  3.22904E+00
   3.11153E+00  2.99027E+00  2.84589E+00  2.65462E+00  2.39381E+00  2.04294E+00  1.58874E+00  1.02487E+00  3.54907E-01 -4.10603E-01
  -1.25377E+00 -2.15435E+00 -3.09030E+00 -4.04229E+00 -4.99272E+00 -5.92843E+00 -6.83829E+00 -7.71494E+00 -8.55186E+00 -9.34491E+00
  -1.00894E+01 -1.07822E+01 -1.14190E+01 -1.19972E+01 -1.25136E+01 -1.29663E+01 -1.33529E+01 -1.36723E+01 -1.39225E+01 -1.41032E+01
  -1.42130E+01 -1.42517E+01 -1.42178E+01 -1.41109E+01 -1.39295E+01 -1.36731E+01 -1.33406E+01 -1.29319E+01 -1.24466E+01 -1.18859E+01
  -1.12511E+01 -1.05462E+01 -9.77570E+00 -8.94709E+00 -8.06885E+00 -7.15283E+00 -6.21215E+00 -5.26316E+00 -4.32290E+00 -3.41074E+00
  -2.54572E+00 -1.74812E+00 -1.03652E+00 -4.29052E-01  5.95962E-02  4.16721E-01  6.34254E-01  7.06978E-01  6.34859E-01  4.21060E-01
   7.38127E-02 -3.96139E-01 -9.74100E-01 -1.64431E+00 -2.38851E+00 -3.18875E+00 -4.02609E+00 -4.88342E+00 -5.74404E+00 -6.59411E+00
  -7.42083E+00 -8.21461E+00 -8.96704E+00 -9.67300E+00 -1.03284E+01 -1.09321E+01 -1.14833E+01 -1.19835E+01 -1.24340E+01 -1.28380E+01
  -1.31983E+01 -1.35188E+01 -1.38026E+01 -1.40536E+01 -1.42746E+01 -1.44694E+01 -1.46406E+01 -1.47914E+01 -1.49239E+01 -1.50406E+01
  -1.51431E+01 -1.52336E+01 -1.53133E+01 -1.53841E+01 -1.54465E+01 -1.55022E+01 -1.55515E+01 -1.55959E+01 -1.56355E+01 -1.56715E+01
  -1.57038E+01 -1.57335E+01 -1.57605E+01 -1.57857E+01 -1.58089E+01 -1.58308E+01 -1.58512E+01 -1.58706E+01 -1.58890E+01 -1.59068E+01
  -1.59238E+01 -1.59405E+01 -1.59565E+01 -1.59724E+01 -1.59878E+01 -1.60033E+01 -1.60185E+01 -1.60337E+01 -1.60487E+01 -1.60638E+01
  -1.60788E+01 -1.60941E+01 -1.61092E+01 -1.61246E+01 -1.61397E+01 -1.61552E+01 -1.61706E+01 -1.61863E+01 -1.62017E+01 -1.62175E+01
  -1.62330E+01 -1.62489E+01 -1.62647E+01 -1.62806E+01 -1.62962E+01 -1.63121E+01 -1.63276E+01 -1.63434E+01 -1.63588E+01 -1.63744E+01
  -1.63895E+01 -1.64046E+01 -1.64193E+01 -1.64341E+01 -1.64483E+01 -1.64624E+01 -1.64759E+01 -1.64892E+01
 NY background values follow
    -2.203E+02   -2.190E+02   -2.178E+02   -2.166E+02   -2.153E+02   -2.141E+02   -2.129E+02   -2.117E+02   -2.104E+02   -2.092E+02
    -2.080E+02   -2.067E+02   -2.055E+02   -2.043E+02   -2.030E+02   -2.018E+02   -2.006E+02   -1.994E+02   -1.982E+02   -1.969E+02
    -1.957E+02   -1.945E+02   -1.933E+02   -1.921E+02   -1.909E+02   -1.897E+02   -1.884E+02   -1.872E+02   -1.860E+02   -1.848E+02
    -1.837E+02   -1.825E+02   -1.813E+02   -1.801E+02   -1.789E+02   -1.777E+02   -1.765E+02   -1.754E+02   -1.742E+02   -1.730E+02
    -1.719E+02   -1.707E+02   -1.696E+02   -1.684E+02   -1.673E+02   -1.662E+02   -1.650E+02   -1.639E+02   -1.628E+02   -1.616E+02
    -1.605E+02   -1.594E+02   -1.583E+02   -1.572E+02   -1.561E+02   -1.550E+02   -1.540E+02   -1.529E+02   -1.518E+02   -1.507E+02
    -1.497E+02   -1.486E+02   -1.476E+02   -1.465E+02   -1.455E+02   -1.445E+02   -1.434E+02   -1.424E+02   -1.414E+02   -1.404E+02
    -1.394E+02   -1.384E+02   -1.374E+02   -1.364E+02   -1.354E+02   -1.345E+02   -1.335E+02   -1.326E+02   -1.316E+02   -1.307E+02
    -1.297E+02   -1.288E+02   -1.279E+02   -1.269E+02   -1.260E+02   -1.251E+02   -1.242E+02   -1.233E+02   -1.225E+02   -1.216E+02
    -1.207E+02   -1.198E+02   -1.190E+02   -1.181E+02   -1.173E+02   -1.165E+02   -1.156E+02   -1.148E+02   -1.140E+02   -1.132E+02
    -1.124E+02   -1.116E+02   -1.108E+02   -1.101E+02   -1.093E+02   -1.085E+02   -1.078E+02   -1.070E+02   -1.063E+02   -1.055E+02
    -1.048E+02   -1.041E+02   -1.034E+02   -1.027E+02   -1.020E+02   -1.013E+02   -1.006E+02   -9.989E+01   -9.921E+01   -9.854E+01
    -9.787E+01   -9.721E+01   -9.656E+01   -9.591E+01   -9.527E+01   -9.464E+01   -9.401E+01   -9.339E+01   -9.277E+01   -9.216E+01
    -9.156E+01   -9.096E+01   -9.036E+01   -8.978E+01   -8.920E+01   -8.862E+01   -8.805E+01   -8.749E+01   -8.693E+01   -8.638E+01
    -8.583E+01   -8.529E+01   -8.475E+01   -8.422E+01   -8.369E+01   -8.317E+01   -8.266E+01   -8.215E+01   -8.164E+01   -8.114E+01
    -8.065E+01   -8.015E+01   -7.967E+01   -7.919E+01   -7.871E+01   -7.824E+01   -7.777E+01   -7.731E+01   -7.685E+01   -7.640E+01
    -7.595E+01   -7.550E+01   -7.506E+01   -7.462E+01   -7.419E+01   -7.376E+01   -7.334E+01   -7.291E+01   -7.250E+01   -7.208E+01
    -7.167E+01   -7.127E+01   -7.086E+01   -7.047E+01   -7.007E+01   -6.968E+01   -6.929E+01   -6.890E+01   -6.852E+01   -6.814E+01
    -6.777E+01   -6.739E+01   -6.702E+01   -6.666E+01   -6.629E+01   -6.593E+01   -6.557E+01   -6.522E+01   -6.487E+01   -6.452E+01
    -6.417E+01   -6.383E+01   -6.349E+01   -6.315E+01   -6.282E+01   -6.248E+01   -6.216E+01   -6.183E+01   -6.151E+01   -6.119E+01
    -6.087E+01   -6.055E+01   -6.024E+01   -5.993E+01   -5.962E+01   -5.932E+01   -5.902E+01   -5.872E+01   -5.842E+01   -5.813E+01
    -5.784E+01   -5.755E+01   -5.727E+01   -5.699E+01   -5.671E+01   -5.643E+01   -5.615E+01   -5.588E+01   -5.561E+01   -5.534E+01
    -5.508E+01   -5.482E+01   -5.456E+01   -5.430E+01   -5.405E+01   -5.380E+01   -5.355E+01   -5.330E+01   -5.305E+01   -5.281E+01
    -5.257E+01   -5.233E+01   -5.210E+01   -5.186E+01   -5.163E+01   -5.140E+01   -5.117E+01   -5.095E+01   -5.072E+01   -5.050E+01
    -5.028E+01   -5.006E+01   -4.985E+01   -4.963E+01   -4.941E+01   -4.920E+01   -4.899E+01   -4.878E+01   -4.857E+01   -4.836E+01
    -4.816E+01   -4.795E+01   -4.775E+01   -4.754E+01   -4.734E+01   -4.714E+01   -4.694E+01   -4.673E+01   -4.653E+01   -4.634E+01
    -4.614E+01   -4.594E+01   -4.574E+01   -4.554E+01   -4.535E+01   -4.515E+01   -4.495E+01   -4.476E+01   -4.456E+01   -4.436E+01
    -4.417E+01   -4.397E+01   -4.377E+01   -4.358E+01   -4.338E+01   -4.318E+01   -4.298E+01   -4.279E+01   -4.259E+01   -4.239E+01
    -4.219E+01   -4.200E+01   -4.180E+01   -4.160E+01   -4.140E+01   -4.121E+01   -4.101E+01   -4.081E+01   -4.061E+01   -4.041E+01
    -4.022E+01   -4.002E+01   -3.982E+01   -3.962E+01   -3.943E+01   -3.923E+01   -3.903E+01   -3.883E+01   -3.864E+01   -3.844E+01
    -3.824E+01   -3.804E+01   -3.785E+01   -3.765E+01   -3.745E+01   -3.726E+01   -3.706E+01   -3.687E+01   -3.667E+01   -3.647E+01
    -3.628E+01   -3.608E+01   -3.589E+01   -3.569E+01   -3.550E+01   -3.530E+01   -3.511E+01   -3.492E+01   -3.472E+01   -3.453E+01
    -3.434E+01   -3.414E+01   -3.395E+01   -3.376E+01   -3.357E+01   -3.338E+01   -3.319E+01   -3.299E+01   -3.280E+01   -3.262E+01
    -3.243E+01   -3.224E+01   -3.205E+01   -3.186E+01   -3.168E+01   -3.149E+01   -3.130E+01   -3.112E+01   -3.093E+01   -3.075E+01
    -3.057E+01   -3.038E+01   -3.020E+01   -3.002E+01   -2.984E+01   -2.966E+01   -2.948E+01   -2.930E+01   -2.912E+01   -2.895E+01
    -2.877E+01   -2.859E+01   -2.842E+01   -2.825E+01   -2.807E+01   -2.790E+01   -2.773E+01   -2.756E+01   -2.739E+01   -2.722E+01
    -2.705E+01   -2.689E+01   -2.672E+01   -2.656E+01   -2.639E+01   -2.623E+01   -2.607E+01   -2.591E+01   -2.575E+01   -2.559E+01
    -2.543E+01   -2.528E+01   -2.512E+01   -2.497E+01   -2.482E+01   -2.466E+01   -2.451E+01   -2.436E+01   -2.422E+01   -2.407E+01
    -2.392E+01   -2.378E+01   -2.364E+01   -2.349E+01   -2.335E+01   -2.321E+01   -2.308E+01   -2.294E+01   -2.280E+01   -2.267E+01
    -2.254E+01   -2.241E+01   -2.228E+01   -2.215E+01   -2.202E+01   -2.190E+01   -2.177E+01   -2.165E+01   -2.153E+01   -2.141E+01
    -2.129E+01   -2.117E+01   -2.106E+01   -2.094E+01   -2.083E+01   -2.072E+01   -2.061E+01   -2.050E+01   -2.040E+01   -2.029E+01
    -2.019E+01   -2.009E+01   -1.999E+01   -1.989E+01   -1.980E+01   -1.970E+01   -1.961E+01   -1.952E+01   -1.943E+01   -1.934E+01
    -1.925E+01   -1.917E+01   -1.908E+01   -1.900E+01   -1.892E+01   -1.884E+01   -1.877E+01   -1.869E+01   -1.862E+01   -1.855E+01
    -1.848E+01   -1.841E+01   -1.834E+01   -1.828E+01   -1.822E+01   -1.815E+01   -1.809E+01   -1.804E+01   -1.798E+01   -1.792E+01
    -1.787E+01   -1.782E+01   -1.777E+01   -1.772E+01   -1.768E+01   -1.763E+01   -1.759E+01   -1.755E+01   -1.751E+01   -1.747E+01
    -1.744E+01   -1.740E+01   -1.737E+01   -1.734E+01   -1.731E+01   -1.728E+01   -1.726E+01   -1.723E+01   -1.721E+01   -1.719E+01
    -1.717E+01   -1.715E+01   -1.714E+01   -1.712E+01   -1.711E+01   -1.709E+01   -1.708E+01   -1.707E+01   -1.706E+01   -1.705E+01
    -1.705E+01   -1.704E+01   -1.703E+01   -1.703E+01   -1.703E+01   -1.702E+01   -1.702E+01   -1.702E+01   -1.702E+01   -1.702E+01
    -1.702E+01   -1.702E+01   -1.702E+01   -1.703E+01   -1.703E+01   -1.703E+01   -1.704E+01   -1.704E+01   -1.704E+01   -1.705E+01
    -1.705E+01   -1.706E+01   -1.706E+01   -1.707E+01   -1.707E+01   -1.708E+01   -1.708E+01   -1.709E+01
 Asp      Conc. = 1.77E+02
