 LCModel (Version 6.3-1L) Copyright: S.W. Provencher.          Ref.: Magn. Reson. Med. 30:672-679 (1993).                
 Slice#3 Row#4 Col#1  PD_24_press_2_raw_act
 36 lines in following concentration table = NCONC+1
    Conc.  %SD /Cr+PCr  Metabolite                                         
  109.760 316%   0.563 Ala                                                 
   19.776 109%   0.101 Asp                                                 
  194.926  48%   1.000 Cr                                                  
    0.000 999%   0.000 PCr                                                 
   11.974 108% 6.1E-02 GABA                                                
   11.643 111% 6.0E-02 Glc                                                 
 5.30E+03  18%  27.167 Gln                                                 
 3.69E+03  30%  18.939 Glu                                                 
   70.830  51%   0.363 GPC                                                 
    0.000 999%   0.000 PCh                                                 
  297.943  56%   1.528 GSH                                                 
  955.673  56%   4.903 Ins                                                 
    0.000 999%   0.000 Lac                                                 
    0.000 999%   0.000 NAA                                                 
    0.000 999%   0.000 NAAG                                                
    4.256 103% 2.2E-02 Scyllo                                              
   20.691 104%   0.106 Tau                                                 
   22.679 186%   0.116 -CrCH2                                              
   70.830  51%   0.363 GPC+PCh                                             
    0.000 999%   0.000 NAA+NAAG                                            
  194.926  48%   1.000 Cr+PCr                                              
 8.99E+03  21%  46.106 Glu+Gln                                             
    0.000 999%   0.000 Lip13a                                              
   46.214 330%   0.237 Lip13b                                              
    7.723 577% 4.0E-02 Lip09                                               
 1.52E+03  12%   7.806 MM09                                                
    6.507 403% 3.3E-02 Lip20                                               
 2.28E+03  12%  11.709 MM20                                                
  456.491  12%   2.342 MM12                                                
 1.14E+03  12%   5.855 MM14                                                
  570.680  12%   2.928 MM17                                                
   46.214 330%   0.237 Lip13a+Lip13b                                       
 1.64E+03  16%   8.434 MM14+Lip13a+Lip13b+MM12                             
 1.53E+03  13%   7.846 MM09+Lip09                                          
 2.29E+03  12%  11.743 MM20+Lip20                                          
   6 lines in following misc. output table
  FWHM = 0.099 ppm    S/N =   1                                            
  Data shift =-0.069 ppm                                                   
  Ph:-119 deg       0.5 deg/ppm                                            
  alphaB,S = 5.2E-01,   5.6E+02                                            
   14 spline knots.   Ns =11(1)                                            
  (11) 2 infls.   ( 7) 1 extrs.                                            
  498 points on ppm-axis = NY
      4.000000     3.992357     3.984714     3.977070     3.969427     3.961784     3.954141     3.946497     3.938854     3.931211
      3.923568     3.915925     3.908281     3.900638     3.892995     3.885352     3.877708     3.870065     3.862422     3.854779
      3.847136     3.839492     3.831849     3.824206     3.816563     3.808919     3.801276     3.793633     3.785990     3.778347
      3.770703     3.763060     3.755417     3.747774     3.740130     3.732487     3.724844     3.717201     3.709558     3.701914
      3.694271     3.686628     3.678985     3.671341     3.663698     3.656055     3.648412     3.640769     3.633125     3.625482
      3.617839     3.610196     3.602552     3.594909     3.587266     3.579623     3.571980     3.564336     3.556693     3.549050
      3.541407     3.533763     3.526120     3.518477     3.510834     3.503191     3.495547     3.487904     3.480261     3.472618
      3.464974     3.457331     3.449688     3.442045     3.434402     3.426758     3.419115     3.411472     3.403829     3.396185
      3.388542     3.380899     3.373256     3.365613     3.357969     3.350326     3.342683     3.335040     3.327396     3.319753
      3.312110     3.304467     3.296824     3.289180     3.281537     3.273894     3.266251     3.258607     3.250964     3.243321
      3.235678     3.228034     3.220391     3.212748     3.205105     3.197462     3.189818     3.182175     3.174532     3.166889
      3.159245     3.151602     3.143959     3.136316     3.128673     3.121029     3.113386     3.105743     3.098100     3.090456
      3.082813     3.075170     3.067527     3.059884     3.052240     3.044597     3.036954     3.029311     3.021667     3.014024
      3.006381     2.998738     2.991095     2.983451     2.975808     2.968165     2.960522     2.952878     2.945235     2.937592
      2.929949     2.922306     2.914662     2.907019     2.899376     2.891733     2.884089     2.876446     2.868803     2.861160
      2.853517     2.845873     2.838230     2.830587     2.822944     2.815300     2.807657     2.800014     2.792371     2.784728
      2.777084     2.769441     2.761798     2.754155     2.746511     2.738868     2.731225     2.723582     2.715939     2.708295
      2.700652     2.693009     2.685366     2.677722     2.670079     2.662436     2.654793     2.647150     2.639506     2.631863
      2.624220     2.616577     2.608933     2.601290     2.593647     2.586004     2.578361     2.570717     2.563074     2.555431
      2.547788     2.540144     2.532501     2.524858     2.517215     2.509572     2.501928     2.494285     2.486642     2.478999
      2.471355     2.463712     2.456069     2.448426     2.440783     2.433139     2.425496     2.417853     2.410210     2.402566
      2.394923     2.387280     2.379637     2.371994     2.364350     2.356707     2.349064     2.341421     2.333777     2.326134
      2.318491     2.310848     2.303205     2.295561     2.287918     2.280275     2.272632     2.264988     2.257345     2.249702
      2.242059     2.234416     2.226772     2.219129     2.211486     2.203843     2.196199     2.188556     2.180913     2.173270
      2.165627     2.157983     2.150340     2.142697     2.135054     2.127410     2.119767     2.112124     2.104481     2.096838
      2.089194     2.081551     2.073908     2.066265     2.058621     2.050978     2.043335     2.035692     2.028049     2.020405
      2.012762     2.005119     1.997476     1.989833     1.982190     1.974546     1.966903     1.959260     1.951617     1.943974
      1.936331     1.928688     1.921045     1.913402     1.905759     1.898115     1.890472     1.882829     1.875186     1.867543
      1.859900     1.852257     1.844614     1.836971     1.829327     1.821684     1.814041     1.806398     1.798755     1.791112
      1.783469     1.775826     1.768183     1.760540     1.752896     1.745253     1.737610     1.729967     1.722324     1.714681
      1.707038     1.699395     1.691752     1.684108     1.676465     1.668822     1.661179     1.653536     1.645893     1.638250
      1.630607     1.622964     1.615321     1.607677     1.600034     1.592391     1.584748     1.577105     1.569462     1.561819
      1.554176     1.546533     1.538890     1.531246     1.523603     1.515960     1.508317     1.500674     1.493031     1.485388
      1.477745     1.470102     1.462458     1.454815     1.447172     1.439529     1.431886     1.424243     1.416600     1.408957
      1.401314     1.393671     1.386027     1.378384     1.370741     1.363098     1.355455     1.347812     1.340169     1.332526
      1.324883     1.317240     1.309596     1.301953     1.294310     1.286667     1.279024     1.271381     1.263738     1.256095
      1.248452     1.240808     1.233165     1.225522     1.217879     1.210236     1.202593     1.194950     1.187307     1.179664
      1.172021     1.164377     1.156734     1.149091     1.141448     1.133805     1.126162     1.118519     1.110876     1.103233
      1.095590     1.087946     1.080303     1.072660     1.065017     1.057374     1.049731     1.042088     1.034445     1.026802
      1.019158     1.011515     1.003872     0.996229     0.988586     0.980943     0.973300     0.965657     0.958014     0.950371
      0.942727     0.935084     0.927441     0.919798     0.912155     0.904512     0.896869     0.889226     0.881583     0.873940
      0.866296     0.858653     0.851010     0.843367     0.835724     0.828081     0.820438     0.812795     0.805152     0.797508
      0.789865     0.782222     0.774579     0.766936     0.759293     0.751650     0.744007     0.736364     0.728721     0.721077
      0.713434     0.705791     0.698148     0.690505     0.682862     0.675219     0.667576     0.659933     0.652290     0.644646
      0.637003     0.629360     0.621717     0.614074     0.606431     0.598788     0.591145     0.583502     0.575858     0.568215
      0.560572     0.552929     0.545286     0.537643     0.530000     0.522357     0.514714     0.507071     0.499427     0.491784
      0.484141     0.476498     0.468855     0.461212     0.453569     0.445925     0.438282     0.430639     0.422996     0.415353
      0.407710     0.400067     0.392424     0.384780     0.377137     0.369494     0.361851     0.354208     0.346565     0.338922
      0.331278     0.323635     0.315992     0.308349     0.300706     0.293063     0.285420     0.277777     0.270133     0.262490
      0.254847     0.247204     0.239561     0.231918     0.224275     0.216631     0.208988     0.201345
 NY phased data points follow
  -1.75293E+02 -1.72704E+02 -1.68094E+02 -1.63338E+02 -1.69330E+02 -1.60749E+02 -1.62139E+02 -1.61163E+02 -1.51810E+02 -1.42639E+02
  -1.47574E+02 -1.43962E+02 -1.37598E+02 -1.37534E+02 -1.40701E+02 -1.40513E+02 -1.35398E+02 -1.31246E+02 -1.27799E+02 -1.28380E+02
  -1.28419E+02 -1.24940E+02 -1.22712E+02 -1.33216E+02 -1.34944E+02 -1.25833E+02 -1.26601E+02 -1.26879E+02 -1.16788E+02 -1.07763E+02
  -1.12269E+02 -1.10502E+02 -1.11167E+02 -1.05295E+02 -1.09802E+02 -1.13796E+02 -1.18055E+02 -1.11824E+02 -1.00839E+02 -1.08452E+02
  -9.87042E+01 -1.02190E+02 -1.00411E+02 -1.03643E+02 -1.02304E+02 -1.03272E+02 -1.03144E+02 -9.87260E+01 -9.28233E+01 -9.43854E+01
  -9.68865E+01 -9.62337E+01 -9.22517E+01 -9.24278E+01 -9.30804E+01 -9.19007E+01 -8.64039E+01 -8.55098E+01 -9.24749E+01 -9.62805E+01
  -8.64962E+01 -8.37442E+01 -8.94013E+01 -9.07250E+01 -9.01505E+01 -8.28001E+01 -8.37632E+01 -8.20550E+01 -8.86090E+01 -8.88229E+01
  -8.36554E+01 -8.37685E+01 -8.30517E+01 -8.29945E+01 -7.90130E+01 -8.09634E+01 -8.51150E+01 -8.09875E+01 -7.94242E+01 -8.40938E+01
  -8.45734E+01 -7.77682E+01 -7.49783E+01 -7.55070E+01 -7.84073E+01 -7.54930E+01 -7.57670E+01 -7.47017E+01 -8.16759E+01 -7.88104E+01
  -7.16566E+01 -7.18080E+01 -7.40184E+01 -7.37108E+01 -6.13187E+01 -6.90538E+01 -6.74635E+01 -6.75421E+01 -7.27395E+01 -7.36329E+01
  -7.14429E+01 -6.56467E+01 -7.01985E+01 -7.12392E+01 -6.89780E+01 -6.38707E+01 -6.80031E+01 -6.07054E+01 -5.86411E+01 -6.10715E+01
  -5.56536E+01 -5.87560E+01 -5.60511E+01 -6.37124E+01 -6.17411E+01 -6.78575E+01 -6.82689E+01 -6.66796E+01 -6.46358E+01 -6.63730E+01
  -6.75706E+01 -6.26952E+01 -5.63279E+01 -5.59484E+01 -5.46975E+01 -5.26682E+01 -6.21301E+01 -5.29879E+01 -5.98656E+01 -5.40216E+01
  -5.57884E+01 -5.59537E+01 -5.47549E+01 -5.55804E+01 -4.89199E+01 -5.29507E+01 -5.32782E+01 -4.97088E+01 -5.52467E+01 -5.66452E+01
  -5.53538E+01 -6.01422E+01 -5.62352E+01 -5.55441E+01 -5.55104E+01 -5.04042E+01 -5.03632E+01 -5.19589E+01 -5.05029E+01 -4.97804E+01
  -5.32561E+01 -5.70218E+01 -5.10673E+01 -5.32901E+01 -4.43140E+01 -5.05274E+01 -4.78783E+01 -5.67622E+01 -4.49731E+01 -4.83354E+01
  -5.03130E+01 -4.86356E+01 -5.13662E+01 -4.76223E+01 -4.87263E+01 -4.85863E+01 -4.34404E+01 -4.70623E+01 -4.32915E+01 -5.10229E+01
  -5.27125E+01 -5.09996E+01 -4.86549E+01 -4.23915E+01 -4.95039E+01 -4.27922E+01 -4.99676E+01 -4.06181E+01 -4.97482E+01 -4.16153E+01
  -4.76363E+01 -4.89312E+01 -4.55591E+01 -3.96967E+01 -3.94587E+01 -4.28989E+01 -4.42345E+01 -4.33869E+01 -4.79145E+01 -4.17958E+01
  -3.58043E+01 -4.19800E+01 -4.06134E+01 -3.87151E+01 -4.35774E+01 -4.49039E+01 -4.29897E+01 -4.35522E+01 -3.35830E+01 -4.08388E+01
  -3.77326E+01 -4.67894E+01 -4.09449E+01 -4.19287E+01 -3.91684E+01 -4.18084E+01 -3.92030E+01 -3.84474E+01 -4.02194E+01 -4.26496E+01
  -3.57586E+01 -4.08424E+01 -3.66853E+01 -3.20861E+01 -3.52983E+01 -2.90880E+01 -2.47030E+01 -3.62966E+01 -3.54893E+01 -2.48322E+01
  -3.31590E+01 -3.52118E+01 -2.95271E+01 -2.72432E+01 -2.77296E+01 -2.77773E+01 -2.59309E+01 -2.63032E+01 -2.46156E+01 -2.61784E+01
  -3.32360E+01 -3.35839E+01 -2.40680E+01 -2.95925E+01 -2.73652E+01 -1.89335E+01 -3.12858E+01 -1.97450E+01 -3.59518E+01 -2.70613E+01
  -2.77817E+01 -2.86397E+01 -2.64761E+01 -3.19506E+01 -2.94634E+01 -3.33908E+01 -3.11267E+01 -3.02991E+01 -3.22116E+01 -2.82576E+01
  -2.45915E+01 -3.11209E+01 -2.78756E+01 -3.46054E+01 -2.37346E+01 -2.93380E+01 -2.57474E+01 -2.59150E+01 -3.21464E+01 -3.13595E+01
  -3.14563E+01 -2.65441E+01 -2.20403E+01 -1.95723E+01 -2.32838E+01 -2.36122E+01 -2.20362E+01 -1.29716E+01 -1.00925E+01 -2.29823E+01
  -2.14289E+01 -2.96869E+01 -3.09255E+01 -3.47668E+01 -3.13173E+01 -3.22504E+01 -2.89959E+01 -2.45950E+01 -2.62026E+01 -2.03237E+01
  -2.85075E+01 -2.68788E+01 -2.60076E+01 -2.50745E+01 -2.16206E+01 -2.99882E+01 -2.66383E+01 -2.28735E+01 -2.51691E+01 -2.59794E+01
  -2.86409E+01 -2.93676E+01 -2.78177E+01 -2.64615E+01 -2.59584E+01 -2.18649E+01 -2.63156E+01 -3.07925E+01 -2.65434E+01 -2.83293E+01
  -2.68485E+01 -2.19008E+01 -1.32043E+01 -2.64910E+01 -2.63107E+01 -1.75644E+01 -2.70335E+01 -2.32105E+01 -1.89228E+01 -2.29406E+01
  -2.02766E+01 -1.84361E+01 -1.20683E+01 -1.30813E+01 -1.01140E+01 -1.38648E+01 -8.71256E+00 -7.38872E+00 -4.20086E+00 -4.90854E+00
  -9.17265E+00 -1.02442E+01 -3.79134E+00 -3.48022E+00 -1.13175E+01 -9.92629E+00 -1.77584E+01 -1.06320E+01 -8.55982E+00 -8.32971E+00
  -1.37734E+01 -1.72804E+01 -1.08261E+01 -1.50460E+01 -1.04734E+01 -1.90887E+01 -1.49968E+01 -2.20266E+01 -1.78044E+01 -2.13510E+01
  -2.57418E+01 -2.70863E+01 -2.45377E+01 -3.00917E+01 -2.88865E+01 -2.13976E+01 -2.41518E+01 -2.83380E+01 -2.27634E+01 -2.26286E+01
  -2.42994E+01 -2.05987E+01 -1.91999E+01 -2.04288E+01 -2.02994E+01 -2.21079E+01 -2.28695E+01 -1.84333E+01 -3.24641E+01 -2.55643E+01
  -2.28174E+01 -1.56250E+01 -1.55502E+01 -2.31295E+01 -2.22508E+01 -1.93607E+01 -1.65222E+01 -2.40758E+01 -2.54193E+01 -2.43972E+01
  -3.18429E+01 -2.27618E+01 -2.13902E+01 -2.28556E+01 -2.15693E+01 -2.33621E+01 -2.29984E+01 -2.60648E+01 -1.92996E+01 -2.53226E+01
  -2.12925E+01 -2.64942E+01 -1.58529E+01 -2.81697E+01 -2.67920E+01 -2.35108E+01 -2.60223E+01 -2.43859E+01 -1.88523E+01 -2.19616E+01
  -2.14137E+01 -1.69646E+01 -1.88261E+01 -2.73762E+01 -2.00717E+01 -1.67127E+01 -2.53893E+01 -1.49086E+01 -2.02960E+01 -1.72483E+01
  -2.18906E+01 -1.98218E+01 -2.47004E+01 -2.02819E+01 -1.75241E+01 -2.13621E+01 -1.81929E+01 -1.97850E+01 -1.89666E+01 -2.31083E+01
  -2.46197E+01 -1.76837E+01 -1.46653E+01 -2.38508E+01 -2.19538E+01 -2.57043E+01 -2.43332E+01 -2.14344E+01 -2.04123E+01 -2.21094E+01
  -1.76967E+01 -1.90641E+01 -1.48393E+01 -1.50011E+01 -1.49404E+01 -2.01377E+01 -1.31253E+01 -1.99169E+01 -1.53677E+01 -1.99683E+01
  -1.90255E+01 -1.78287E+01 -1.57870E+01 -1.53463E+01 -2.22413E+01 -1.91457E+01 -1.67169E+01 -1.38844E+01 -9.72674E+00 -2.15107E+01
  -1.33571E+01 -1.88677E+01 -2.00983E+01 -1.97630E+01 -1.22572E+01 -1.70385E+01 -2.49902E+01 -2.08403E+01 -1.84369E+01 -1.54869E+01
  -1.70966E+01 -2.02142E+01 -9.83976E+00 -1.69780E+01 -1.10354E+01 -1.53329E+01 -1.78130E+01 -1.55794E+01 -1.52780E+01 -1.52999E+01
  -2.24479E+01 -1.46352E+01 -1.35804E+01 -1.72211E+01 -1.12708E+01 -1.45195E+01 -1.65146E+01 -1.53907E+01 -1.44618E+01 -1.85307E+01
  -1.21343E+01 -9.54605E+00 -1.96567E+01 -1.02343E+01 -1.10520E+01 -1.04612E+01 -2.20495E+01 -1.19376E+01 -2.24197E+01 -2.00287E+01
  -1.30152E+01 -9.66457E+00 -1.76393E+01 -1.28078E+01 -1.50124E+01 -2.08834E+01 -1.53986E+01 -2.22764E+01 -1.77624E+01 -1.52404E+01
  -1.39028E+01 -2.06496E+01 -8.60713E+00 -1.84961E+01 -1.04063E+01 -1.64357E+01 -1.45166E+01 -1.63143E+01
 NY points of the fit to the data follow
  -1.63417E+02 -1.62217E+02 -1.60941E+02 -1.59592E+02 -1.58168E+02 -1.56645E+02 -1.55026E+02 -1.53350E+02 -1.51630E+02 -1.49883E+02
  -1.48140E+02 -1.46414E+02 -1.44695E+02 -1.42953E+02 -1.41144E+02 -1.39313E+02 -1.37566E+02 -1.36016E+02 -1.34720E+02 -1.33641E+02
  -1.32690E+02 -1.31637E+02 -1.30315E+02 -1.28691E+02 -1.26750E+02 -1.24557E+02 -1.22241E+02 -1.19925E+02 -1.17669E+02 -1.15520E+02
  -1.13597E+02 -1.12054E+02 -1.10984E+02 -1.10365E+02 -1.10053E+02 -1.09797E+02 -1.09309E+02 -1.08412E+02 -1.07169E+02 -1.05889E+02
  -1.04857E+02 -1.04197E+02 -1.03800E+02 -1.03404E+02 -1.02730E+02 -1.01570E+02 -1.00084E+02 -9.85912E+01 -9.73098E+01 -9.64005E+01
  -9.58849E+01 -9.56453E+01 -9.54458E+01 -9.51367E+01 -9.47275E+01 -9.42717E+01 -9.38031E+01 -9.33338E+01 -9.28416E+01 -9.22752E+01
  -9.15879E+01 -9.08028E+01 -8.99930E+01 -8.91998E+01 -8.84246E+01 -8.76603E+01 -8.69070E+01 -8.61707E+01 -8.54584E+01 -8.47756E+01
  -8.41253E+01 -8.34942E+01 -8.28574E+01 -8.22107E+01 -8.15649E+01 -8.09417E+01 -8.03717E+01 -7.98726E+01 -7.94482E+01 -7.90885E+01
  -7.87773E+01 -7.85021E+01 -7.82458E+01 -7.79904E+01 -7.77118E+01 -7.73877E+01 -7.70193E+01 -7.66109E+01 -7.61643E+01 -7.56829E+01
  -7.51746E+01 -7.46381E+01 -7.40274E+01 -7.33227E+01 -7.25469E+01 -7.17147E+01 -7.08327E+01 -6.99092E+01 -6.89667E+01 -6.80454E+01
  -6.71924E+01 -6.64423E+01 -6.58132E+01 -6.53082E+01 -6.49207E+01 -6.46313E+01 -6.44097E+01 -6.42243E+01 -6.40526E+01 -6.38864E+01
  -6.37415E+01 -6.36361E+01 -6.35721E+01 -6.35292E+01 -6.34613E+01 -6.32946E+01 -6.29262E+01 -6.23626E+01 -6.16855E+01 -6.09297E+01
  -6.01125E+01 -5.92462E+01 -5.83443E+01 -5.74249E+01 -5.65292E+01 -5.57098E+01 -5.50098E+01 -5.44577E+01 -5.40625E+01 -5.38102E+01
  -5.36776E+01 -5.36299E+01 -5.36412E+01 -5.36952E+01 -5.37805E+01 -5.38901E+01 -5.40140E+01 -5.41290E+01 -5.41967E+01 -5.41712E+01
  -5.40138E+01 -5.37684E+01 -5.35196E+01 -5.32875E+01 -5.30662E+01 -5.28395E+01 -5.25923E+01 -5.23294E+01 -5.20832E+01 -5.18755E+01
  -5.17059E+01 -5.15648E+01 -5.14310E+01 -5.12808E+01 -5.11048E+01 -5.08973E+01 -5.06702E+01 -5.04313E+01 -5.01839E+01 -4.99299E+01
  -4.96705E+01 -4.94053E+01 -4.91322E+01 -4.88522E+01 -4.85678E+01 -4.82815E+01 -4.79961E+01 -4.77142E+01 -4.74376E+01 -4.71648E+01
  -4.68953E+01 -4.66308E+01 -4.63722E+01 -4.61181E+01 -4.58687E+01 -4.56261E+01 -4.53877E+01 -4.51495E+01 -4.49097E+01 -4.46612E+01
  -4.43933E+01 -4.40979E+01 -4.37850E+01 -4.35043E+01 -4.32854E+01 -4.31853E+01 -4.32585E+01 -4.35199E+01 -4.39547E+01 -4.45175E+01
  -4.50843E+01 -4.54842E+01 -4.55933E+01 -4.53498E+01 -4.46427E+01 -4.34201E+01 -4.17688E+01 -3.98720E+01 -3.80341E+01 -3.67539E+01
  -3.62154E+01 -3.63308E+01 -3.70341E+01 -3.82115E+01 -3.96349E+01 -4.09213E+01 -4.18092E+01 -4.21947E+01 -4.19806E+01 -4.11937E+01
  -3.99583E+01 -3.85261E+01 -3.71773E+01 -3.60303E+01 -3.50617E+01 -3.42908E+01 -3.37206E+01 -3.32257E+01 -3.25648E+01 -3.16872E+01
  -3.07453E+01 -2.99662E+01 -2.95982E+01 -2.97558E+01 -3.00917E+01 -3.04768E+01 -3.09057E+01 -3.11980E+01 -3.11392E+01 -3.05729E+01
  -2.95761E+01 -2.83173E+01 -2.70491E+01 -2.59462E+01 -2.51728E+01 -2.48834E+01 -2.50428E+01 -2.54451E+01 -2.60115E+01 -2.67941E+01
  -2.77409E+01 -2.87491E+01 -2.96766E+01 -3.03703E+01 -3.07272E+01 -3.07146E+01 -3.03709E+01 -2.98714E+01 -2.94904E+01 -2.93338E+01
  -2.91506E+01 -2.87479E+01 -2.80860E+01 -2.71668E+01 -2.60774E+01 -2.50861E+01 -2.44042E+01 -2.39217E+01 -2.35916E+01 -2.34222E+01
  -2.33991E+01 -2.35014E+01 -2.37396E+01 -2.40728E+01 -2.44084E+01 -2.46798E+01 -2.48361E+01 -2.48668E+01 -2.48120E+01 -2.47470E+01
  -2.47410E+01 -2.48374E+01 -2.50217E+01 -2.52074E+01 -2.53510E+01 -2.54556E+01 -2.55269E+01 -2.55667E+01 -2.56005E+01 -2.56424E+01
  -2.56686E+01 -2.56852E+01 -2.57041E+01 -2.57352E+01 -2.57836E+01 -2.58451E+01 -2.58963E+01 -2.59173E+01 -2.59074E+01 -2.58709E+01
  -2.58108E+01 -2.57300E+01 -2.56329E+01 -2.55243E+01 -2.54051E+01 -2.52683E+01 -2.51082E+01 -2.49200E+01 -2.46990E+01 -2.44406E+01
  -2.41404E+01 -2.37946E+01 -2.33992E+01 -2.29500E+01 -2.24453E+01 -2.18843E+01 -2.12678E+01 -2.05984E+01 -1.98812E+01 -1.91232E+01
  -1.83335E+01 -1.75235E+01 -1.67060E+01 -1.58944E+01 -1.51022E+01 -1.43402E+01 -1.36149E+01 -1.29460E+01 -1.23617E+01 -1.18813E+01
  -1.15185E+01 -1.12854E+01 -1.11933E+01 -1.12514E+01 -1.14525E+01 -1.17753E+01 -1.22040E+01 -1.27219E+01 -1.33082E+01 -1.39394E+01
  -1.45932E+01 -1.52517E+01 -1.59033E+01 -1.65432E+01 -1.71711E+01 -1.77869E+01 -1.83865E+01 -1.89598E+01 -1.94938E+01 -1.99759E+01
  -2.04030E+01 -2.07929E+01 -2.11569E+01 -2.14919E+01 -2.17989E+01 -2.20797E+01 -2.23324E+01 -2.25466E+01 -2.27007E+01 -2.27866E+01
  -2.28213E+01 -2.28191E+01 -2.27919E+01 -2.27510E+01 -2.27073E+01 -2.26702E+01 -2.26470E+01 -2.26420E+01 -2.26569E+01 -2.26901E+01
  -2.27385E+01 -2.27976E+01 -2.28629E+01 -2.29306E+01 -2.29981E+01 -2.30639E+01 -2.31274E+01 -2.31887E+01 -2.32482E+01 -2.33061E+01
  -2.33620E+01 -2.34151E+01 -2.34640E+01 -2.35070E+01 -2.35417E+01 -2.35658E+01 -2.35766E+01 -2.35715E+01 -2.35480E+01 -2.35036E+01
  -2.34362E+01 -2.33438E+01 -2.32248E+01 -2.30778E+01 -2.29020E+01 -2.26970E+01 -2.24629E+01 -2.22003E+01 -2.19106E+01 -2.15958E+01
  -2.12585E+01 -2.09023E+01 -2.05314E+01 -2.01508E+01 -1.97659E+01 -1.93829E+01 -1.90083E+01 -1.86487E+01 -1.83107E+01 -1.80007E+01
  -1.77245E+01 -1.74872E+01 -1.72931E+01 -1.71452E+01 -1.70450E+01 -1.69932E+01 -1.69886E+01 -1.70288E+01 -1.71106E+01 -1.72296E+01
  -1.73808E+01 -1.75584E+01 -1.77562E+01 -1.79679E+01 -1.81874E+01 -1.84086E+01 -1.86261E+01 -1.88349E+01 -1.90309E+01 -1.92106E+01
  -1.93714E+01 -1.95111E+01 -1.96287E+01 -1.97235E+01 -1.97954E+01 -1.98448E+01 -1.98724E+01 -1.98794E+01 -1.98669E+01 -1.98364E+01
  -1.97893E+01 -1.97273E+01 -1.96517E+01 -1.95642E+01 -1.94660E+01 -1.93586E+01 -1.92433E+01 -1.91212E+01 -1.89934E+01 -1.88610E+01
  -1.87250E+01 -1.85863E+01 -1.84456E+01 -1.83038E+01 -1.81616E+01 -1.80197E+01 -1.78786E+01 -1.77391E+01 -1.76016E+01 -1.74668E+01
  -1.73350E+01 -1.72069E+01 -1.70828E+01 -1.69632E+01 -1.68479E+01 -1.67371E+01 -1.66306E+01 -1.65283E+01 -1.64302E+01 -1.63363E+01
  -1.62464E+01 -1.61604E+01 -1.60783E+01 -1.59999E+01 -1.59251E+01 -1.58538E+01 -1.57859E+01 -1.57213E+01 -1.56598E+01 -1.56013E+01
  -1.55458E+01 -1.54929E+01 -1.54427E+01 -1.53950E+01 -1.53495E+01 -1.53063E+01 -1.52652E+01 -1.52259E+01 -1.51884E+01 -1.51525E+01
  -1.51181E+01 -1.50850E+01 -1.50531E+01 -1.50221E+01 -1.49920E+01 -1.49626E+01 -1.49338E+01 -1.49053E+01 -1.48771E+01 -1.48489E+01
  -1.48207E+01 -1.47921E+01 -1.47632E+01 -1.47336E+01 -1.47033E+01 -1.46721E+01 -1.46397E+01 -1.46060E+01
 NY background values follow
    -1.664E+02   -1.650E+02   -1.636E+02   -1.622E+02   -1.608E+02   -1.593E+02   -1.579E+02   -1.565E+02   -1.551E+02   -1.537E+02
    -1.523E+02   -1.510E+02   -1.496E+02   -1.482E+02   -1.468E+02   -1.455E+02   -1.441E+02   -1.427E+02   -1.414E+02   -1.400E+02
    -1.387E+02   -1.374E+02   -1.360E+02   -1.347E+02   -1.334E+02   -1.321E+02   -1.308E+02   -1.296E+02   -1.283E+02   -1.270E+02
    -1.258E+02   -1.246E+02   -1.233E+02   -1.221E+02   -1.209E+02   -1.197E+02   -1.185E+02   -1.174E+02   -1.162E+02   -1.151E+02
    -1.139E+02   -1.128E+02   -1.117E+02   -1.106E+02   -1.096E+02   -1.085E+02   -1.075E+02   -1.064E+02   -1.054E+02   -1.044E+02
    -1.034E+02   -1.025E+02   -1.015E+02   -1.006E+02   -9.966E+01   -9.875E+01   -9.786E+01   -9.698E+01   -9.611E+01   -9.525E+01
    -9.441E+01   -9.358E+01   -9.277E+01   -9.196E+01   -9.117E+01   -9.040E+01   -8.963E+01   -8.888E+01   -8.814E+01   -8.741E+01
    -8.669E+01   -8.599E+01   -8.529E+01   -8.461E+01   -8.394E+01   -8.328E+01   -8.262E+01   -8.199E+01   -8.136E+01   -8.074E+01
    -8.013E+01   -7.953E+01   -7.894E+01   -7.836E+01   -7.779E+01   -7.723E+01   -7.668E+01   -7.614E+01   -7.561E+01   -7.508E+01
    -7.457E+01   -7.406E+01   -7.356E+01   -7.307E+01   -7.259E+01   -7.211E+01   -7.164E+01   -7.118E+01   -7.073E+01   -7.028E+01
    -6.984E+01   -6.941E+01   -6.898E+01   -6.856E+01   -6.815E+01   -6.774E+01   -6.734E+01   -6.694E+01   -6.654E+01   -6.615E+01
    -6.577E+01   -6.539E+01   -6.502E+01   -6.465E+01   -6.428E+01   -6.391E+01   -6.355E+01   -6.320E+01   -6.284E+01   -6.249E+01
    -6.215E+01   -6.180E+01   -6.146E+01   -6.112E+01   -6.078E+01   -6.044E+01   -6.010E+01   -5.977E+01   -5.944E+01   -5.910E+01
    -5.877E+01   -5.844E+01   -5.811E+01   -5.778E+01   -5.745E+01   -5.711E+01   -5.678E+01   -5.645E+01   -5.612E+01   -5.578E+01
    -5.545E+01   -5.512E+01   -5.478E+01   -5.445E+01   -5.412E+01   -5.378E+01   -5.345E+01   -5.312E+01   -5.278E+01   -5.245E+01
    -5.212E+01   -5.179E+01   -5.146E+01   -5.113E+01   -5.081E+01   -5.048E+01   -5.016E+01   -4.983E+01   -4.951E+01   -4.919E+01
    -4.887E+01   -4.856E+01   -4.824E+01   -4.793E+01   -4.762E+01   -4.731E+01   -4.700E+01   -4.670E+01   -4.640E+01   -4.610E+01
    -4.580E+01   -4.551E+01   -4.522E+01   -4.493E+01   -4.464E+01   -4.436E+01   -4.408E+01   -4.381E+01   -4.354E+01   -4.327E+01
    -4.301E+01   -4.274E+01   -4.249E+01   -4.223E+01   -4.198E+01   -4.174E+01   -4.150E+01   -4.126E+01   -4.102E+01   -4.079E+01
    -4.057E+01   -4.034E+01   -4.012E+01   -3.991E+01   -3.970E+01   -3.949E+01   -3.928E+01   -3.908E+01   -3.888E+01   -3.869E+01
    -3.850E+01   -3.831E+01   -3.813E+01   -3.795E+01   -3.777E+01   -3.760E+01   -3.743E+01   -3.727E+01   -3.711E+01   -3.695E+01
    -3.679E+01   -3.664E+01   -3.650E+01   -3.635E+01   -3.621E+01   -3.608E+01   -3.594E+01   -3.581E+01   -3.569E+01   -3.556E+01
    -3.544E+01   -3.533E+01   -3.521E+01   -3.511E+01   -3.500E+01   -3.490E+01   -3.480E+01   -3.470E+01   -3.461E+01   -3.452E+01
    -3.444E+01   -3.435E+01   -3.427E+01   -3.419E+01   -3.411E+01   -3.404E+01   -3.397E+01   -3.390E+01   -3.383E+01   -3.376E+01
    -3.369E+01   -3.362E+01   -3.356E+01   -3.349E+01   -3.343E+01   -3.336E+01   -3.330E+01   -3.323E+01   -3.317E+01   -3.311E+01
    -3.304E+01   -3.297E+01   -3.291E+01   -3.284E+01   -3.277E+01   -3.269E+01   -3.262E+01   -3.255E+01   -3.247E+01   -3.239E+01
    -3.231E+01   -3.222E+01   -3.214E+01   -3.205E+01   -3.196E+01   -3.186E+01   -3.176E+01   -3.166E+01   -3.155E+01   -3.144E+01
    -3.132E+01   -3.121E+01   -3.108E+01   -3.095E+01   -3.082E+01   -3.069E+01   -3.055E+01   -3.041E+01   -3.026E+01   -3.011E+01
    -2.996E+01   -2.981E+01   -2.966E+01   -2.950E+01   -2.934E+01   -2.918E+01   -2.902E+01   -2.886E+01   -2.870E+01   -2.854E+01
    -2.838E+01   -2.822E+01   -2.806E+01   -2.790E+01   -2.774E+01   -2.759E+01   -2.743E+01   -2.728E+01   -2.713E+01   -2.698E+01
    -2.683E+01   -2.669E+01   -2.655E+01   -2.641E+01   -2.628E+01   -2.615E+01   -2.602E+01   -2.590E+01   -2.579E+01   -2.568E+01
    -2.557E+01   -2.547E+01   -2.538E+01   -2.529E+01   -2.520E+01   -2.513E+01   -2.506E+01   -2.499E+01   -2.494E+01   -2.489E+01
    -2.485E+01   -2.481E+01   -2.478E+01   -2.476E+01   -2.474E+01   -2.473E+01   -2.472E+01   -2.472E+01   -2.472E+01   -2.473E+01
    -2.474E+01   -2.476E+01   -2.478E+01   -2.480E+01   -2.483E+01   -2.487E+01   -2.491E+01   -2.495E+01   -2.499E+01   -2.504E+01
    -2.509E+01   -2.514E+01   -2.519E+01   -2.525E+01   -2.531E+01   -2.537E+01   -2.544E+01   -2.550E+01   -2.557E+01   -2.564E+01
    -2.570E+01   -2.577E+01   -2.584E+01   -2.592E+01   -2.599E+01   -2.606E+01   -2.613E+01   -2.620E+01   -2.627E+01   -2.634E+01
    -2.641E+01   -2.648E+01   -2.655E+01   -2.662E+01   -2.668E+01   -2.675E+01   -2.681E+01   -2.687E+01   -2.693E+01   -2.698E+01
    -2.704E+01   -2.709E+01   -2.714E+01   -2.719E+01   -2.723E+01   -2.727E+01   -2.731E+01   -2.734E+01   -2.738E+01   -2.740E+01
    -2.743E+01   -2.745E+01   -2.747E+01   -2.748E+01   -2.749E+01   -2.749E+01   -2.750E+01   -2.749E+01   -2.748E+01   -2.747E+01
    -2.745E+01   -2.743E+01   -2.740E+01   -2.736E+01   -2.733E+01   -2.728E+01   -2.723E+01   -2.717E+01   -2.711E+01   -2.704E+01
    -2.697E+01   -2.688E+01   -2.680E+01   -2.670E+01   -2.660E+01   -2.649E+01   -2.637E+01   -2.625E+01   -2.612E+01   -2.598E+01
    -2.584E+01   -2.569E+01   -2.553E+01   -2.537E+01   -2.520E+01   -2.503E+01   -2.485E+01   -2.467E+01   -2.448E+01   -2.429E+01
    -2.410E+01   -2.390E+01   -2.370E+01   -2.350E+01   -2.330E+01   -2.309E+01   -2.288E+01   -2.267E+01   -2.246E+01   -2.224E+01
    -2.203E+01   -2.181E+01   -2.160E+01   -2.139E+01   -2.117E+01   -2.096E+01   -2.075E+01   -2.054E+01   -2.033E+01   -2.012E+01
    -1.992E+01   -1.972E+01   -1.952E+01   -1.933E+01   -1.913E+01   -1.895E+01   -1.876E+01   -1.858E+01   -1.841E+01   -1.824E+01
    -1.808E+01   -1.792E+01   -1.777E+01   -1.762E+01   -1.748E+01   -1.735E+01   -1.722E+01   -1.709E+01   -1.698E+01   -1.686E+01
    -1.676E+01   -1.665E+01   -1.655E+01   -1.646E+01   -1.637E+01   -1.629E+01   -1.621E+01   -1.613E+01   -1.606E+01   -1.599E+01
    -1.592E+01   -1.586E+01   -1.580E+01   -1.574E+01   -1.568E+01   -1.563E+01   -1.558E+01   -1.553E+01   -1.549E+01   -1.545E+01
    -1.541E+01   -1.537E+01   -1.533E+01   -1.529E+01   -1.525E+01   -1.522E+01   -1.518E+01   -1.515E+01   -1.512E+01   -1.509E+01
    -1.505E+01   -1.502E+01   -1.499E+01   -1.495E+01   -1.492E+01   -1.489E+01   -1.485E+01   -1.482E+01
 Ala      Conc. = 1.10E+02
