 LCModel (Version 6.3-1L) Copyright: S.W. Provencher.          Ref.: Magn. Reson. Med. 30:672-679 (1993).                
 Slice#3 Row#2 Col#11  PD_24_press_2_raw_act
 36 lines in following concentration table = NCONC+1
    Conc.  %SD /Cr+PCr  Metabolite                                         
   40.596 335%   0.000 Ala                                                 
    0.000 999%   0.000 Asp                                                 
    0.000 999%   0.000 Cr                                                  
    0.000 999%   0.000 PCr                                                 
    0.000 999%   0.000 GABA                                                
    0.000 999%   0.000 Glc                                                 
    0.000 999%   0.000 Gln                                                 
  335.782  87%   0.000 Glu                                                 
    0.000 999%   0.000 GPC                                                 
    0.000 999%   0.000 PCh                                                 
   88.221 102%   0.000 GSH                                                 
  207.119 126%   0.000 Ins                                                 
   72.897 203%   0.000 Lac                                                 
    0.000 999%   0.000 NAA                                                 
    0.000 999%   0.000 NAAG                                                
    0.000 999%   0.000 Scyllo                                              
    0.000 999%   0.000 Tau                                                 
 2.98E-02 999%   0.000 -CrCH2                                              
    0.000 999%   0.000 GPC+PCh                                             
    0.000 999%   0.000 NAA+NAAG                                            
    0.000 999%   0.000 Cr+PCr                                              
  335.782  87%   0.000 Glu+Gln                                             
 1.46E+03  41%   0.000 Lip13a                                              
    0.000 999%   0.000 Lip13b                                              
   41.089 690%   0.000 Lip09                                               
  929.817  28%   0.000 MM09                                                
   72.981 261%   0.000 Lip20                                               
    0.000 999%   0.000 MM20                                                
  341.143  58%   0.000 MM12                                                
 3.91E+03  14%   0.000+MM14                                                
 1.09E+03  34%   0.000 MM17                                                
 1.46E+03  41%   0.000 Lip13a+Lip13b                                       
 5.71E+03   9%   0.000 MM14+Lip13a+Lip13b+MM12                             
  970.905  22%   0.000 MM09+Lip09                                          
   72.981 261%   0.000 MM20+Lip20                                          
   6 lines in following misc. output table
  FWHM = 0.054 ppm    S/N =   2                                            
  Data shift = 0.008 ppm                                                   
  Ph: 103 deg      -5.5 deg/ppm                                            
  alphaB,S = 8.5E+01,   4.1E+01                                            
   14 spline knots.   Ns = 5(1)                                            
   2 inflections.     1 extrema                                            
  498 points on ppm-axis = NY
      4.000000     3.992357     3.984714     3.977070     3.969427     3.961784     3.954141     3.946497     3.938854     3.931211
      3.923568     3.915925     3.908281     3.900638     3.892995     3.885352     3.877708     3.870065     3.862422     3.854779
      3.847136     3.839492     3.831849     3.824206     3.816563     3.808919     3.801276     3.793633     3.785990     3.778347
      3.770703     3.763060     3.755417     3.747774     3.740130     3.732487     3.724844     3.717201     3.709558     3.701914
      3.694271     3.686628     3.678985     3.671341     3.663698     3.656055     3.648412     3.640769     3.633125     3.625482
      3.617839     3.610196     3.602552     3.594909     3.587266     3.579623     3.571980     3.564336     3.556693     3.549050
      3.541407     3.533763     3.526120     3.518477     3.510834     3.503191     3.495547     3.487904     3.480261     3.472618
      3.464974     3.457331     3.449688     3.442045     3.434402     3.426758     3.419115     3.411472     3.403829     3.396185
      3.388542     3.380899     3.373256     3.365613     3.357969     3.350326     3.342683     3.335040     3.327396     3.319753
      3.312110     3.304467     3.296824     3.289180     3.281537     3.273894     3.266251     3.258607     3.250964     3.243321
      3.235678     3.228034     3.220391     3.212748     3.205105     3.197462     3.189818     3.182175     3.174532     3.166889
      3.159245     3.151602     3.143959     3.136316     3.128673     3.121029     3.113386     3.105743     3.098100     3.090456
      3.082813     3.075170     3.067527     3.059884     3.052240     3.044597     3.036954     3.029311     3.021667     3.014024
      3.006381     2.998738     2.991095     2.983451     2.975808     2.968165     2.960522     2.952878     2.945235     2.937592
      2.929949     2.922306     2.914662     2.907019     2.899376     2.891733     2.884089     2.876446     2.868803     2.861160
      2.853517     2.845873     2.838230     2.830587     2.822944     2.815300     2.807657     2.800014     2.792371     2.784728
      2.777084     2.769441     2.761798     2.754155     2.746511     2.738868     2.731225     2.723582     2.715939     2.708295
      2.700652     2.693009     2.685366     2.677722     2.670079     2.662436     2.654793     2.647150     2.639506     2.631863
      2.624220     2.616577     2.608933     2.601290     2.593647     2.586004     2.578361     2.570717     2.563074     2.555431
      2.547788     2.540144     2.532501     2.524858     2.517215     2.509572     2.501928     2.494285     2.486642     2.478999
      2.471355     2.463712     2.456069     2.448426     2.440783     2.433139     2.425496     2.417853     2.410210     2.402566
      2.394923     2.387280     2.379637     2.371994     2.364350     2.356707     2.349064     2.341421     2.333777     2.326134
      2.318491     2.310848     2.303205     2.295561     2.287918     2.280275     2.272632     2.264988     2.257345     2.249702
      2.242059     2.234416     2.226772     2.219129     2.211486     2.203843     2.196199     2.188556     2.180913     2.173270
      2.165627     2.157983     2.150340     2.142697     2.135054     2.127410     2.119767     2.112124     2.104481     2.096838
      2.089194     2.081551     2.073908     2.066265     2.058621     2.050978     2.043335     2.035692     2.028049     2.020405
      2.012762     2.005119     1.997476     1.989833     1.982190     1.974546     1.966903     1.959260     1.951617     1.943974
      1.936331     1.928688     1.921045     1.913402     1.905759     1.898115     1.890472     1.882829     1.875186     1.867543
      1.859900     1.852257     1.844614     1.836971     1.829327     1.821684     1.814041     1.806398     1.798755     1.791112
      1.783469     1.775826     1.768183     1.760540     1.752896     1.745253     1.737610     1.729967     1.722324     1.714681
      1.707038     1.699395     1.691752     1.684108     1.676465     1.668822     1.661179     1.653536     1.645893     1.638250
      1.630607     1.622964     1.615321     1.607677     1.600034     1.592391     1.584748     1.577105     1.569462     1.561819
      1.554176     1.546533     1.538890     1.531246     1.523603     1.515960     1.508317     1.500674     1.493031     1.485388
      1.477745     1.470102     1.462458     1.454815     1.447172     1.439529     1.431886     1.424243     1.416600     1.408957
      1.401314     1.393671     1.386027     1.378384     1.370741     1.363098     1.355455     1.347812     1.340169     1.332526
      1.324883     1.317240     1.309596     1.301953     1.294310     1.286667     1.279024     1.271381     1.263738     1.256095
      1.248452     1.240808     1.233165     1.225522     1.217879     1.210236     1.202593     1.194950     1.187307     1.179664
      1.172021     1.164377     1.156734     1.149091     1.141448     1.133805     1.126162     1.118519     1.110876     1.103233
      1.095590     1.087946     1.080303     1.072660     1.065017     1.057374     1.049731     1.042088     1.034445     1.026802
      1.019158     1.011515     1.003872     0.996229     0.988586     0.980943     0.973300     0.965657     0.958014     0.950371
      0.942727     0.935084     0.927441     0.919798     0.912155     0.904512     0.896869     0.889226     0.881583     0.873940
      0.866296     0.858653     0.851010     0.843367     0.835724     0.828081     0.820438     0.812795     0.805152     0.797508
      0.789865     0.782222     0.774579     0.766936     0.759293     0.751650     0.744007     0.736364     0.728721     0.721077
      0.713434     0.705791     0.698148     0.690505     0.682862     0.675219     0.667576     0.659933     0.652290     0.644646
      0.637003     0.629360     0.621717     0.614074     0.606431     0.598788     0.591145     0.583502     0.575858     0.568215
      0.560572     0.552929     0.545286     0.537643     0.530000     0.522357     0.514714     0.507071     0.499427     0.491784
      0.484141     0.476498     0.468855     0.461212     0.453569     0.445925     0.438282     0.430639     0.422996     0.415353
      0.407710     0.400067     0.392424     0.384780     0.377137     0.369494     0.361851     0.354208     0.346565     0.338922
      0.331278     0.323635     0.315992     0.308349     0.300706     0.293063     0.285420     0.277777     0.270133     0.262490
      0.254847     0.247204     0.239561     0.231918     0.224275     0.216631     0.208988     0.201345
 NY phased data points follow
  -1.36976E+00  5.27087E+00  8.71955E+00  4.55327E+00  7.65213E+00  7.86833E+00  5.33779E+00  2.59952E+00  5.84751E+00 -5.28650E+00
   1.47666E+00  4.39673E+00  3.31277E+00  2.57717E+00 -6.51886E+00  1.04637E+01  1.07656E+01  7.01117E+00  2.12700E+01 -1.52955E-01
   7.67243E-02  1.49465E+00 -4.34474E-01  4.38369E+00 -5.97020E+00 -1.34546E+00  4.20325E+00  4.45858E-01  9.67338E+00 -3.98315E+00
   1.34604E+00  1.30016E+00  1.26257E+01  5.92040E+00  4.69911E+00  1.38298E+01  6.13531E+00  1.04473E+01  1.29042E+00  9.27285E-01
  -2.14803E+00 -1.40841E+00  2.23753E+00  4.41781E+00  3.21164E+00  2.15224E+00  3.63650E+00  8.19611E+00  7.82017E+00 -5.29495E+00
   1.66555E-01 -7.15798E+00  6.75371E+00  4.63371E+00 -3.46168E+00  5.79869E+00  3.72240E+00  1.98043E+00 -2.53961E+00  1.86277E+00
  -6.17384E+00  3.67704E+00  1.09225E+01  7.18133E+00  6.97425E-01  1.38700E+00  2.34979E+00  8.52351E+00 -1.46800E+00  9.22528E+00
   5.31227E+00  2.88260E+00  1.01734E+01 -4.09429E-01  2.24906E+00 -5.72387E+00 -3.58034E-01  3.50837E+00  2.26948E-01 -3.08047E-01
   8.96849E+00  3.34264E+00  5.02272E+00 -1.10618E+00  9.77339E+00  4.64822E+00 -1.29534E+00 -3.03477E+00  1.76677E+00 -4.58097E+00
   1.14196E+00 -2.92998E+00  7.16610E+00 -4.55414E+00  3.41991E-01 -1.07546E+00 -7.06624E-01  9.33958E-01  1.09864E+01  1.07549E+01
   3.88900E+00 -8.57922E-02  2.33889E-02 -1.15261E+01 -6.37266E+00 -6.95359E+00  1.06626E+00  2.34459E+00  5.52284E+00  1.19340E+01
   1.20558E+01  7.71197E+00 -3.63560E-01  4.21398E+00 -4.87595E-01  8.25378E-02  7.77409E-01 -2.22060E+00  2.16878E+00 -1.53786E-01
   6.11499E+00  2.88702E+00  2.12109E+00  5.60171E+00  1.40537E+01  5.14946E+00  1.71833E+00 -9.46884E+00 -6.23152E+00  1.82578E+00
   1.31173E+00 -1.31738E+00  3.32711E-02  5.78062E+00  7.25902E+00  2.87879E+00  9.82999E-01  7.37295E-01  1.06559E+01  3.91988E+00
   1.05993E+01  1.79784E+00  5.44772E+00  9.59913E+00  1.67653E+00 -3.52242E+00  3.76341E+00 -5.16721E+00 -1.96071E+00  5.32267E+00
   1.01090E+01  4.08986E+00  7.89058E-01  6.03939E+00  6.54021E-01  7.04054E-01  7.78254E+00  1.42607E+00  2.94961E+00 -1.60716E+00
   1.07398E+01  4.71039E+00  3.03406E-01  3.95917E+00  4.68134E+00  4.20554E+00  7.08488E-02  1.83971E+00  4.40651E+00 -2.27134E+00
  -1.07738E+00  8.84220E-01  9.95103E+00  1.86132E+00  1.91444E+00  1.01117E+01  3.71280E+00 -1.74610E+00  4.31097E+00  1.76952E+00
   1.23871E+00  2.43323E+00 -2.43960E+00  5.05607E+00 -1.63974E+00  1.90466E+00 -2.66929E+00  4.22180E+00 -8.81760E-01  3.21384E+00
   1.31299E+01  2.57651E+00 -2.76484E-01 -3.22097E+00  1.55933E+01 -6.17189E-01 -1.90150E+00 -2.08107E+00  9.31967E+00 -1.63933E+00
   3.77650E+00 -1.17656E+00  8.62019E+00 -1.77436E-01  4.73814E+00 -3.20923E-01 -1.84229E+00  7.61598E-01 -3.96282E-02  1.30412E+01
   5.65210E+00  2.03455E+00  7.03588E+00  7.23678E+00  2.71077E-01 -5.14050E+00 -2.21132E+00  4.90771E+00  1.77844E-01  5.62314E+00
  -1.58104E+00 -3.11018E+00 -2.72657E-01  3.18361E+00 -5.96552E+00 -2.56349E+00 -6.82202E-01  7.01521E+00  1.41156E+00  5.83958E+00
   8.18354E+00  3.19656E+00  4.34839E+00 -2.56577E+00  7.71152E+00 -1.63522E-01  1.12615E+01 -4.27290E+00  1.32286E+01 -2.65750E+00
   7.18173E-01 -4.93430E-01 -8.06493E-01  5.48550E+00  5.08111E+00  7.78922E-01  8.10591E+00 -2.45254E+00 -2.66385E+00  2.13015E+00
  -3.70616E+00  6.23236E-01  7.29468E+00  1.09924E+01  3.88742E+00  5.45828E+00  2.00619E+00  3.23002E+00  1.80775E+00 -9.89436E+00
  -7.64446E+00 -1.45214E+01 -1.16448E+01 -5.65042E+00  1.92836E+00 -6.92148E-01  6.51774E-01  6.86271E+00  7.34464E+00 -4.22904E+00
  -4.45233E+00  5.14665E+00  4.41475E+00  1.33467E+00  3.03016E+00  2.60106E+00  7.95303E+00  7.05202E-01  6.11655E+00 -6.75071E-01
   1.19243E+00  2.21566E+00  4.68541E+00  4.63246E+00  4.94654E+00  1.16902E+00  1.17417E+00  1.11840E+01  6.91131E+00  8.70302E+00
   1.26626E+00  5.10450E+00  2.43232E+00  7.48737E+00  1.50517E+01  9.96611E+00  7.72758E+00  1.22758E+00  8.40890E+00  8.33022E+00
   1.63155E+01  5.52561E+00  6.28214E+00  1.06293E+01  5.75596E+00  7.78460E+00  8.94321E+00  1.68915E+01  7.78086E+00  8.91440E+00
   1.29855E+01  1.04170E+01  1.82545E+01  8.93704E+00  1.32621E+01  1.20853E+01  1.99751E+01  1.26481E+01  1.92342E+01  2.51034E+01
   1.93369E+01  2.69066E+01  2.23623E+01  2.74825E+01  2.17189E+01  2.16496E+01  2.62537E+01  2.50413E+01  2.80805E+01  2.92760E+01
   3.17803E+01  2.23591E+01  3.07743E+01  2.56928E+01  2.59392E+01  2.87404E+01  2.61188E+01  2.03275E+01  2.28005E+01  1.70426E+01
   2.84236E+01  2.24201E+01  2.13670E+01  2.28898E+01  1.65229E+01  1.66694E+01  2.27643E+01  2.11362E+01  2.21496E+01  1.88762E+01
   1.83107E+01  1.84979E+01  1.50202E+01  1.11726E+01  1.01432E+01  1.26870E-01  1.18771E+01  5.61092E+00  4.86958E+00  1.48984E+01
   7.06897E+00  1.45223E+01  7.95474E+00  8.63357E+00  9.60476E+00  3.49050E+00  1.09243E+01  7.09187E+00  1.01192E+01  1.63527E+01
   6.52210E+00  1.12203E+01  1.85533E+00  1.08634E+01  9.78601E+00  5.42851E+00  4.09643E+00  1.07728E+01  1.09955E+01  6.63235E+00
   1.14402E+01  9.91425E+00  8.30027E-01  6.81771E+00  1.31361E+01  4.01451E+00  7.74933E+00  1.17812E+01  1.31204E+01  1.70557E+01
   9.92156E+00  1.31780E+01  1.21018E+01  1.12873E+01  8.09704E+00 -7.61589E-01  1.48725E+01  2.37609E-01  8.33934E+00  9.66268E+00
   1.12366E+01  6.39542E+00  1.47584E+01 -1.00219E+00  8.60675E+00  5.11632E+00  6.48352E+00  6.55578E+00  6.83953E+00  1.30784E+01
   7.86700E-01  9.80074E+00  6.54469E+00  5.34787E+00  4.97827E+00 -6.72878E-01  6.22198E+00  9.95637E+00  9.63813E-01 -1.47479E+00
  -2.05252E+00  1.26683E+00  4.43701E+00  2.24988E+00 -1.99139E+00  1.01973E+00 -2.51215E+00 -1.17947E+01  1.67233E+00 -2.05534E+00
  -5.28576E-01  2.28385E+00  7.23965E+00  8.65707E+00 -8.87925E-02  4.57039E+00  2.91425E+00 -1.56540E-01  7.88328E+00 -1.80606E+00
   1.12495E+01 -6.22011E+00  9.86970E+00  9.22598E+00 -1.41590E+00  8.25528E+00 -2.41026E+00 -8.34953E-01  2.10684E-01 -1.13746E+00
   6.19365E+00  5.48466E+00  8.14801E-01  4.30269E+00  1.95768E+00  4.51643E-01 -1.52416E+00  8.14986E+00  1.73942E+00 -1.60476E-01
  -1.11152E+00 -5.37945E+00 -1.48906E+00 -2.02443E+00  2.95382E+00 -1.91720E+00 -1.13159E+00  1.05614E+01 -5.79124E+00  1.05076E+00
   3.67130E+00  4.11350E+00  4.17080E+00 -3.18825E+00  5.87139E+00 -2.78367E+00  4.63824E+00  1.27830E+00  1.72437E+00 -2.78294E+00
   1.03972E+00  8.02073E+00  5.04133E-01  1.36850E+00  3.41331E+00 -7.25781E-01 -8.87855E-01  4.89935E+00  2.78401E+00 -8.22559E-01
  -5.44288E+00  1.04812E+01  6.18714E+00  5.07565E+00  5.55442E-01 -3.40051E-01  1.52124E+00  7.15773E-01
 NY points of the fit to the data follow
   2.90298E+00  2.74982E+00  2.64058E+00  2.59628E+00  2.58588E+00  2.57877E+00  2.57154E+00  2.56808E+00  2.56818E+00  2.57059E+00
   2.57400E+00  2.57759E+00  2.58121E+00  2.58351E+00  2.58576E+00  2.59200E+00  2.60602E+00  2.63195E+00  2.67330E+00  2.72547E+00
   2.78778E+00  2.86292E+00  2.93843E+00  2.97258E+00  2.96313E+00  2.99761E+00  3.13126E+00  3.34581E+00  3.64132E+00  4.02456E+00
   4.46111E+00  4.85862E+00  5.13434E+00  5.20117E+00  4.95607E+00  4.38931E+00  3.69753E+00  3.13956E+00  2.73569E+00  2.43616E+00
   2.30511E+00  2.35871E+00  2.55585E+00  2.85062E+00  3.20631E+00  3.54838E+00  3.81243E+00  4.00663E+00  4.10648E+00  4.06185E+00
   3.83855E+00  3.44678E+00  2.95557E+00  2.49575E+00  2.23299E+00  2.22549E+00  2.37514E+00  2.57235E+00  2.76450E+00  2.92759E+00
   3.04018E+00  3.08441E+00  3.05500E+00  2.95859E+00  2.80957E+00  2.64012E+00  2.51352E+00  2.47821E+00  2.53015E+00  2.64041E+00
   2.75963E+00  2.85520E+00  2.90973E+00  2.91867E+00  2.89215E+00  2.83924E+00  2.76943E+00  2.69245E+00  2.62558E+00  2.58882E+00
   2.56912E+00  2.54880E+00  2.50885E+00  2.43831E+00  2.33480E+00  2.20615E+00  2.06633E+00  1.93122E+00  1.82088E+00  1.75916E+00
   1.76447E+00  1.84711E+00  1.99511E+00  2.16355E+00  2.29527E+00  2.36200E+00  2.35943E+00  2.30206E+00  2.20436E+00  2.08420E+00
   1.96677E+00  1.87901E+00  1.83351E+00  1.83665E+00  1.87400E+00  1.92068E+00  1.96766E+00  2.01348E+00  2.05589E+00  2.09009E+00
   2.11279E+00  2.12562E+00  2.13498E+00  2.14549E+00  2.15384E+00  2.15697E+00  2.15312E+00  2.14332E+00  2.12949E+00  2.11482E+00
   2.10404E+00  2.09998E+00  2.10358E+00  2.11586E+00  2.13760E+00  2.16739E+00  2.20142E+00  2.23589E+00  2.28046E+00  2.34906E+00
   2.42871E+00  2.49499E+00  2.53228E+00  2.52231E+00  2.45545E+00  2.34020E+00  2.19130E+00  2.04531E+00  1.94156E+00  1.92320E+00
   2.02490E+00  2.22942E+00  2.44510E+00  2.59674E+00  2.65853E+00  2.62765E+00  2.53487E+00  2.42978E+00  2.34008E+00  2.28917E+00
   2.25656E+00  2.22839E+00  2.20182E+00  2.17678E+00  2.15537E+00  2.14177E+00  2.13991E+00  2.14688E+00  2.15735E+00  2.16735E+00
   2.17271E+00  2.16967E+00  2.15753E+00  2.14239E+00  2.12950E+00  2.11872E+00  2.10981E+00  2.10304E+00  2.09923E+00  2.09872E+00
   2.09991E+00  2.10017E+00  2.09723E+00  2.08932E+00  2.07616E+00  2.05827E+00  2.03586E+00  2.01044E+00  1.98427E+00  1.96135E+00
   1.94070E+00  1.91800E+00  1.89098E+00  1.86041E+00  1.83210E+00  1.81839E+00  1.83387E+00  1.88823E+00  1.98077E+00  2.09968E+00
   2.22667E+00  2.33656E+00  2.38812E+00  2.34904E+00  2.22931E+00  2.05981E+00  1.88227E+00  1.74854E+00  1.69923E+00  1.74927E+00
   1.88602E+00  2.07837E+00  2.28042E+00  2.44077E+00  2.51762E+00  2.48381E+00  2.38184E+00  2.24642E+00  2.09304E+00  1.95737E+00
   1.89324E+00  1.99262E+00  2.27079E+00  2.67001E+00  3.10148E+00  3.48079E+00  3.69906E+00  3.59075E+00  3.09248E+00  2.28013E+00
   1.33188E+00  4.62959E-01 -1.05828E-01 -1.99087E-01  1.08550E-01  6.95682E-01  1.44800E+00  2.19508E+00  2.74879E+00  2.96680E+00
   2.89172E+00  2.71368E+00  2.57055E+00  2.49771E+00  2.51574E+00  2.60073E+00  2.70246E+00  2.76120E+00  2.69220E+00  2.47441E+00
   2.17596E+00  1.88107E+00  1.66106E+00  1.58803E+00  1.70653E+00  1.98180E+00  2.29844E+00  2.54336E+00  2.66743E+00  2.66286E+00
   2.53170E+00  2.35008E+00  2.20315E+00  2.12767E+00  2.11862E+00  2.17986E+00  2.28170E+00  2.36664E+00  2.40873E+00  2.43385E+00
   2.48226E+00  2.56206E+00  2.67000E+00  2.78062E+00  2.85630E+00  2.85448E+00  2.79011E+00  2.70202E+00  2.62035E+00  2.56101E+00
   2.53707E+00  2.55554E+00  2.59723E+00  2.65082E+00  2.72903E+00  2.82161E+00  2.91344E+00  2.99269E+00  3.05142E+00  3.09037E+00
   3.12765E+00  3.18147E+00  3.25696E+00  3.35429E+00  3.47440E+00  3.61803E+00  3.78359E+00  3.96715E+00  4.16733E+00  4.38819E+00
   4.63219E+00  4.90038E+00  5.19302E+00  5.50955E+00  5.84829E+00  6.20626E+00  6.58013E+00  6.96657E+00  7.36149E+00  7.76050E+00
   8.15959E+00  8.55512E+00  8.94393E+00  9.32378E+00  9.69372E+00  1.00543E+01  1.04079E+01  1.07586E+01  1.11124E+01  1.14771E+01
   1.18621E+01  1.22774E+01  1.27332E+01  1.32393E+01  1.38047E+01  1.44368E+01  1.51407E+01  1.59185E+01  1.67693E+01  1.76887E+01
   1.86699E+01  1.97060E+01  2.07919E+01  2.18930E+01  2.29554E+01  2.39379E+01  2.48055E+01  2.55254E+01  2.60672E+01  2.64105E+01
   2.65759E+01  2.66178E+01  2.65822E+01  2.65067E+01  2.63998E+01  2.62004E+01  2.58595E+01  2.53749E+01  2.47405E+01  2.39521E+01
   2.30228E+01  2.20049E+01  2.10153E+01  2.01259E+01  1.92777E+01  1.84302E+01  1.75668E+01  1.66750E+01  1.57403E+01  1.47532E+01
   1.37614E+01  1.28678E+01  1.21579E+01  1.17038E+01  1.15411E+01  1.15875E+01  1.16735E+01  1.17316E+01  1.17091E+01  1.15524E+01
   1.12332E+01  1.07824E+01  1.03218E+01  9.93957E+00  9.59903E+00  9.27627E+00  8.96361E+00  8.65890E+00  8.36241E+00  8.07566E+00
   7.80086E+00  7.54064E+00  7.29780E+00  7.07530E+00  6.87604E+00  6.70283E+00  6.55834E+00  6.44499E+00  6.36498E+00  6.32021E+00
   6.31214E+00  6.34178E+00  6.40951E+00  6.51501E+00  6.65716E+00  6.83392E+00  7.04224E+00  7.27795E+00  7.53577E+00  7.80937E+00
   8.09142E+00  8.37381E+00  8.64781E+00  8.90441E+00  9.13466E+00  9.33005E+00  9.48290E+00  9.58669E+00  9.63642E+00  9.62877E+00
   9.56237E+00  9.43778E+00  9.25743E+00  9.02550E+00  8.74764E+00  8.43065E+00  8.08217E+00  7.71022E+00  7.32292E+00  6.92806E+00
   6.53287E+00  6.14378E+00  5.76626E+00  5.40475E+00  5.06264E+00  4.74226E+00  4.44503E+00  4.17154E+00  3.92168E+00  3.69479E+00
   3.48979E+00  3.30529E+00  3.13973E+00  2.99146E+00  2.85881E+00  2.74018E+00  2.63401E+00  2.53888E+00  2.45347E+00  2.37661E+00
   2.30726E+00  2.24449E+00  2.18748E+00  2.13553E+00  2.08802E+00  2.04443E+00  2.00429E+00  1.96720E+00  1.93283E+00  1.90087E+00
   1.87106E+00  1.84319E+00  1.81705E+00  1.79249E+00  1.76934E+00  1.74748E+00  1.72678E+00  1.70716E+00  1.68851E+00  1.67076E+00
   1.65384E+00  1.63767E+00  1.62220E+00  1.60738E+00  1.59317E+00  1.57951E+00  1.56638E+00  1.55373E+00  1.54153E+00  1.52976E+00
   1.51839E+00  1.50738E+00  1.49672E+00  1.48639E+00  1.47638E+00  1.46665E+00  1.45720E+00  1.44800E+00  1.43905E+00  1.43033E+00
   1.42184E+00  1.41355E+00  1.40546E+00  1.39756E+00  1.38983E+00  1.38228E+00  1.37490E+00  1.36767E+00  1.36058E+00  1.35364E+00
   1.34683E+00  1.34015E+00  1.33360E+00  1.32716E+00  1.32083E+00  1.31462E+00  1.30851E+00  1.30250E+00  1.29658E+00  1.29076E+00
   1.28503E+00  1.27938E+00  1.27382E+00  1.26834E+00  1.26293E+00  1.25760E+00  1.25234E+00  1.24716E+00
 NY background values follow
     2.399E+00    2.397E+00    2.394E+00    2.391E+00    2.389E+00    2.386E+00    2.383E+00    2.381E+00    2.378E+00    2.375E+00
     2.373E+00    2.370E+00    2.368E+00    2.365E+00    2.362E+00    2.360E+00    2.357E+00    2.354E+00    2.352E+00    2.349E+00
     2.346E+00    2.344E+00    2.341E+00    2.338E+00    2.336E+00    2.333E+00    2.331E+00    2.328E+00    2.325E+00    2.323E+00
     2.320E+00    2.317E+00    2.315E+00    2.312E+00    2.309E+00    2.307E+00    2.304E+00    2.301E+00    2.299E+00    2.296E+00
     2.294E+00    2.291E+00    2.288E+00    2.286E+00    2.283E+00    2.280E+00    2.278E+00    2.275E+00    2.272E+00    2.270E+00
     2.267E+00    2.264E+00    2.262E+00    2.259E+00    2.257E+00    2.254E+00    2.251E+00    2.249E+00    2.246E+00    2.243E+00
     2.241E+00    2.238E+00    2.235E+00    2.233E+00    2.230E+00    2.227E+00    2.225E+00    2.222E+00    2.219E+00    2.217E+00
     2.214E+00    2.212E+00    2.209E+00    2.206E+00    2.204E+00    2.201E+00    2.198E+00    2.196E+00    2.193E+00    2.190E+00
     2.188E+00    2.185E+00    2.182E+00    2.180E+00    2.177E+00    2.175E+00    2.172E+00    2.169E+00    2.167E+00    2.164E+00
     2.161E+00    2.159E+00    2.156E+00    2.153E+00    2.151E+00    2.148E+00    2.145E+00    2.143E+00    2.140E+00    2.138E+00
     2.135E+00    2.132E+00    2.130E+00    2.127E+00    2.124E+00    2.122E+00    2.119E+00    2.116E+00    2.114E+00    2.111E+00
     2.108E+00    2.106E+00    2.103E+00    2.100E+00    2.098E+00    2.095E+00    2.093E+00    2.090E+00    2.087E+00    2.085E+00
     2.082E+00    2.079E+00    2.077E+00    2.074E+00    2.071E+00    2.069E+00    2.066E+00    2.063E+00    2.061E+00    2.058E+00
     2.056E+00    2.053E+00    2.050E+00    2.048E+00    2.045E+00    2.042E+00    2.040E+00    2.037E+00    2.034E+00    2.032E+00
     2.029E+00    2.026E+00    2.024E+00    2.021E+00    2.019E+00    2.016E+00    2.013E+00    2.011E+00    2.008E+00    2.005E+00
     2.003E+00    2.000E+00    1.997E+00    1.995E+00    1.992E+00    1.989E+00    1.987E+00    1.984E+00    1.982E+00    1.979E+00
     1.976E+00    1.974E+00    1.971E+00    1.968E+00    1.966E+00    1.963E+00    1.960E+00    1.958E+00    1.955E+00    1.952E+00
     1.950E+00    1.947E+00    1.944E+00    1.942E+00    1.939E+00    1.937E+00    1.934E+00    1.931E+00    1.929E+00    1.926E+00
     1.923E+00    1.921E+00    1.918E+00    1.915E+00    1.913E+00    1.910E+00    1.907E+00    1.905E+00    1.902E+00    1.900E+00
     1.897E+00    1.894E+00    1.892E+00    1.889E+00    1.886E+00    1.884E+00    1.881E+00    1.878E+00    1.876E+00    1.873E+00
     1.870E+00    1.868E+00    1.865E+00    1.863E+00    1.860E+00    1.857E+00    1.855E+00    1.852E+00    1.849E+00    1.847E+00
     1.844E+00    1.841E+00    1.839E+00    1.836E+00    1.833E+00    1.831E+00    1.828E+00    1.826E+00    1.823E+00    1.820E+00
     1.818E+00    1.815E+00    1.812E+00    1.810E+00    1.807E+00    1.804E+00    1.802E+00    1.799E+00    1.796E+00    1.794E+00
     1.791E+00    1.788E+00    1.786E+00    1.783E+00    1.781E+00    1.778E+00    1.775E+00    1.773E+00    1.770E+00    1.767E+00
     1.765E+00    1.762E+00    1.759E+00    1.757E+00    1.754E+00    1.751E+00    1.749E+00    1.746E+00    1.744E+00    1.741E+00
     1.738E+00    1.736E+00    1.733E+00    1.730E+00    1.728E+00    1.725E+00    1.722E+00    1.720E+00    1.717E+00    1.714E+00
     1.712E+00    1.709E+00    1.707E+00    1.704E+00    1.701E+00    1.699E+00    1.696E+00    1.693E+00    1.691E+00    1.688E+00
     1.685E+00    1.683E+00    1.680E+00    1.677E+00    1.675E+00    1.672E+00    1.670E+00    1.667E+00    1.664E+00    1.662E+00
     1.659E+00    1.656E+00    1.654E+00    1.651E+00    1.648E+00    1.646E+00    1.643E+00    1.640E+00    1.638E+00    1.635E+00
     1.633E+00    1.630E+00    1.627E+00    1.625E+00    1.622E+00    1.619E+00    1.617E+00    1.614E+00    1.611E+00    1.609E+00
     1.606E+00    1.603E+00    1.601E+00    1.598E+00    1.596E+00    1.593E+00    1.590E+00    1.588E+00    1.585E+00    1.582E+00
     1.580E+00    1.577E+00    1.574E+00    1.572E+00    1.569E+00    1.566E+00    1.564E+00    1.561E+00    1.558E+00    1.556E+00
     1.553E+00    1.551E+00    1.548E+00    1.545E+00    1.543E+00    1.540E+00    1.537E+00    1.535E+00    1.532E+00    1.529E+00
     1.527E+00    1.524E+00    1.521E+00    1.519E+00    1.516E+00    1.514E+00    1.511E+00    1.508E+00    1.506E+00    1.503E+00
     1.500E+00    1.498E+00    1.495E+00    1.492E+00    1.490E+00    1.487E+00    1.484E+00    1.482E+00    1.479E+00    1.477E+00
     1.474E+00    1.471E+00    1.469E+00    1.466E+00    1.463E+00    1.461E+00    1.458E+00    1.455E+00    1.453E+00    1.450E+00
     1.447E+00    1.445E+00    1.442E+00    1.440E+00    1.437E+00    1.434E+00    1.432E+00    1.429E+00    1.426E+00    1.424E+00
     1.421E+00    1.418E+00    1.416E+00    1.413E+00    1.410E+00    1.408E+00    1.405E+00    1.403E+00    1.400E+00    1.397E+00
     1.395E+00    1.392E+00    1.389E+00    1.387E+00    1.384E+00    1.381E+00    1.379E+00    1.376E+00    1.373E+00    1.371E+00
     1.368E+00    1.366E+00    1.363E+00    1.360E+00    1.358E+00    1.355E+00    1.352E+00    1.350E+00    1.347E+00    1.344E+00
     1.342E+00    1.339E+00    1.336E+00    1.334E+00    1.331E+00    1.329E+00    1.326E+00    1.323E+00    1.321E+00    1.318E+00
     1.315E+00    1.313E+00    1.310E+00    1.307E+00    1.305E+00    1.302E+00    1.299E+00    1.297E+00    1.294E+00    1.291E+00
     1.289E+00    1.286E+00    1.284E+00    1.281E+00    1.278E+00    1.276E+00    1.273E+00    1.270E+00    1.268E+00    1.265E+00
     1.262E+00    1.260E+00    1.257E+00    1.254E+00    1.252E+00    1.249E+00    1.247E+00    1.244E+00    1.241E+00    1.239E+00
     1.236E+00    1.233E+00    1.231E+00    1.228E+00    1.225E+00    1.223E+00    1.220E+00    1.217E+00    1.215E+00    1.212E+00
     1.210E+00    1.207E+00    1.204E+00    1.202E+00    1.199E+00    1.196E+00    1.194E+00    1.191E+00    1.188E+00    1.186E+00
     1.183E+00    1.180E+00    1.178E+00    1.175E+00    1.173E+00    1.170E+00    1.167E+00    1.165E+00    1.162E+00    1.159E+00
     1.157E+00    1.154E+00    1.151E+00    1.149E+00    1.146E+00    1.143E+00    1.141E+00    1.138E+00    1.136E+00    1.133E+00
     1.130E+00    1.128E+00    1.125E+00    1.122E+00    1.120E+00    1.117E+00    1.114E+00    1.112E+00    1.109E+00    1.106E+00
     1.104E+00    1.101E+00    1.099E+00    1.096E+00    1.093E+00    1.091E+00    1.088E+00    1.085E+00
 Ala      Conc. = 4.06E+01
