 LCModel (Version 6.3-1L) Copyright: S.W. Provencher.          Ref.: Magn. Reson. Med. 30:672-679 (1993).                
 Slice#3 Row#1 Col#6  PD_24_press_2_raw_act
 36 lines in following concentration table = NCONC+1
    Conc.  %SD /Cr+PCr  Metabolite                                         
  209.761 122%   0.622 Ala                                                 
   41.853 101%   0.124 Asp                                                 
    0.000 999%   0.000 Cr                                                  
  337.280  31%   1.000 PCr                                                 
   25.995  97% 7.7E-02 GABA                                                
   26.624  95% 7.9E-02 Glc                                                 
    0.000 999%   0.000 Gln                                                 
  566.068 102%   1.678 Glu                                                 
  125.666  32%   0.373 GPC                                                 
    0.000 999%   0.000 PCh                                                 
  460.419  35%   1.365 GSH                                                 
  982.328  48%   2.912 Ins                                                 
  147.961 187%   0.439 Lac                                                 
  100.063 150%   0.297 NAA                                                 
   90.779 167%   0.269 NAAG                                                
    8.534  98% 2.5E-02 Scyllo                                              
   44.929  93%   0.133 Tau                                                 
    6.158 999% 1.8E-02 -CrCH2                                              
  125.666  32%   0.373 GPC+PCh                                             
  190.841  67%   0.566 NAA+NAAG                                            
  337.280  31%   1.000 Cr+PCr                                              
  566.068 102%   1.678 Glu+Gln                                             
    0.000 999%   0.000 Lip13a                                              
    0.000 999%   0.000 Lip13b                                              
 9.51E-02 999% 2.8E-04 Lip09                                               
  348.888  55%   1.034 MM09                                                
    0.000 999%   0.000 Lip20                                               
    0.000 999%   0.000 MM20                                                
   44.906 285%   0.133 MM12                                                
    0.000 999%   0.000 MM14                                                
  957.125  23%   2.838 MM17                                                
    0.000 999%   0.000 Lip13a+Lip13b                                       
   44.906 285%   0.133 MM14+Lip13a+Lip13b+MM12                             
  348.984  55%   1.035 MM09+Lip09                                          
    0.000 999%   0.000 MM20+Lip20                                          
   6 lines in following misc. output table
  FWHM = 0.061 ppm    S/N =   1                                            
  Data shift = 0.061 ppm                                                   
  Ph:-128 deg      -2.1 deg/ppm                                            
  alphaB,S = 8.5E+01,   1.0E+02                                            
   14 spline knots.   Ns = 6(1)                                            
   2 inflections.     1 extrema                                            
  498 points on ppm-axis = NY
      4.000000     3.992357     3.984714     3.977070     3.969427     3.961784     3.954141     3.946497     3.938854     3.931211
      3.923568     3.915925     3.908281     3.900638     3.892995     3.885352     3.877708     3.870065     3.862422     3.854779
      3.847136     3.839492     3.831849     3.824206     3.816563     3.808919     3.801276     3.793633     3.785990     3.778347
      3.770703     3.763060     3.755417     3.747774     3.740130     3.732487     3.724844     3.717201     3.709558     3.701914
      3.694271     3.686628     3.678985     3.671341     3.663698     3.656055     3.648412     3.640769     3.633125     3.625482
      3.617839     3.610196     3.602552     3.594909     3.587266     3.579623     3.571980     3.564336     3.556693     3.549050
      3.541407     3.533763     3.526120     3.518477     3.510834     3.503191     3.495547     3.487904     3.480261     3.472618
      3.464974     3.457331     3.449688     3.442045     3.434402     3.426758     3.419115     3.411472     3.403829     3.396185
      3.388542     3.380899     3.373256     3.365613     3.357969     3.350326     3.342683     3.335040     3.327396     3.319753
      3.312110     3.304467     3.296824     3.289180     3.281537     3.273894     3.266251     3.258607     3.250964     3.243321
      3.235678     3.228034     3.220391     3.212748     3.205105     3.197462     3.189818     3.182175     3.174532     3.166889
      3.159245     3.151602     3.143959     3.136316     3.128673     3.121029     3.113386     3.105743     3.098100     3.090456
      3.082813     3.075170     3.067527     3.059884     3.052240     3.044597     3.036954     3.029311     3.021667     3.014024
      3.006381     2.998738     2.991095     2.983451     2.975808     2.968165     2.960522     2.952878     2.945235     2.937592
      2.929949     2.922306     2.914662     2.907019     2.899376     2.891733     2.884089     2.876446     2.868803     2.861160
      2.853517     2.845873     2.838230     2.830587     2.822944     2.815300     2.807657     2.800014     2.792371     2.784728
      2.777084     2.769441     2.761798     2.754155     2.746511     2.738868     2.731225     2.723582     2.715939     2.708295
      2.700652     2.693009     2.685366     2.677722     2.670079     2.662436     2.654793     2.647150     2.639506     2.631863
      2.624220     2.616577     2.608933     2.601290     2.593647     2.586004     2.578361     2.570717     2.563074     2.555431
      2.547788     2.540144     2.532501     2.524858     2.517215     2.509572     2.501928     2.494285     2.486642     2.478999
      2.471355     2.463712     2.456069     2.448426     2.440783     2.433139     2.425496     2.417853     2.410210     2.402566
      2.394923     2.387280     2.379637     2.371994     2.364350     2.356707     2.349064     2.341421     2.333777     2.326134
      2.318491     2.310848     2.303205     2.295561     2.287918     2.280275     2.272632     2.264988     2.257345     2.249702
      2.242059     2.234416     2.226772     2.219129     2.211486     2.203843     2.196199     2.188556     2.180913     2.173270
      2.165627     2.157983     2.150340     2.142697     2.135054     2.127410     2.119767     2.112124     2.104481     2.096838
      2.089194     2.081551     2.073908     2.066265     2.058621     2.050978     2.043335     2.035692     2.028049     2.020405
      2.012762     2.005119     1.997476     1.989833     1.982190     1.974546     1.966903     1.959260     1.951617     1.943974
      1.936331     1.928688     1.921045     1.913402     1.905759     1.898115     1.890472     1.882829     1.875186     1.867543
      1.859900     1.852257     1.844614     1.836971     1.829327     1.821684     1.814041     1.806398     1.798755     1.791112
      1.783469     1.775826     1.768183     1.760540     1.752896     1.745253     1.737610     1.729967     1.722324     1.714681
      1.707038     1.699395     1.691752     1.684108     1.676465     1.668822     1.661179     1.653536     1.645893     1.638250
      1.630607     1.622964     1.615321     1.607677     1.600034     1.592391     1.584748     1.577105     1.569462     1.561819
      1.554176     1.546533     1.538890     1.531246     1.523603     1.515960     1.508317     1.500674     1.493031     1.485388
      1.477745     1.470102     1.462458     1.454815     1.447172     1.439529     1.431886     1.424243     1.416600     1.408957
      1.401314     1.393671     1.386027     1.378384     1.370741     1.363098     1.355455     1.347812     1.340169     1.332526
      1.324883     1.317240     1.309596     1.301953     1.294310     1.286667     1.279024     1.271381     1.263738     1.256095
      1.248452     1.240808     1.233165     1.225522     1.217879     1.210236     1.202593     1.194950     1.187307     1.179664
      1.172021     1.164377     1.156734     1.149091     1.141448     1.133805     1.126162     1.118519     1.110876     1.103233
      1.095590     1.087946     1.080303     1.072660     1.065017     1.057374     1.049731     1.042088     1.034445     1.026802
      1.019158     1.011515     1.003872     0.996229     0.988586     0.980943     0.973300     0.965657     0.958014     0.950371
      0.942727     0.935084     0.927441     0.919798     0.912155     0.904512     0.896869     0.889226     0.881583     0.873940
      0.866296     0.858653     0.851010     0.843367     0.835724     0.828081     0.820438     0.812795     0.805152     0.797508
      0.789865     0.782222     0.774579     0.766936     0.759293     0.751650     0.744007     0.736364     0.728721     0.721077
      0.713434     0.705791     0.698148     0.690505     0.682862     0.675219     0.667576     0.659933     0.652290     0.644646
      0.637003     0.629360     0.621717     0.614074     0.606431     0.598788     0.591145     0.583502     0.575858     0.568215
      0.560572     0.552929     0.545286     0.537643     0.530000     0.522357     0.514714     0.507071     0.499427     0.491784
      0.484141     0.476498     0.468855     0.461212     0.453569     0.445925     0.438282     0.430639     0.422996     0.415353
      0.407710     0.400067     0.392424     0.384780     0.377137     0.369494     0.361851     0.354208     0.346565     0.338922
      0.331278     0.323635     0.315992     0.308349     0.300706     0.293063     0.285420     0.277777     0.270133     0.262490
      0.254847     0.247204     0.239561     0.231918     0.224275     0.216631     0.208988     0.201345
 NY phased data points follow
  -1.41991E+01 -8.69048E+00 -1.22180E+01  2.88359E+00 -6.59003E+00  3.00309E+01 -1.41110E-01  2.02167E+01  1.02440E+01  1.40866E+01
   4.02108E+00  7.03520E+00  6.29468E+00  1.10745E+01  6.36815E+00  2.94595E+00 -8.84156E+00 -2.55513E+00 -4.01855E-02  3.18284E+00
  -8.53369E+00  1.55435E+01  1.70384E+01  8.55114E+00  5.52506E+00 -1.45733E+00  6.88460E+00  1.91531E+00  2.15124E+01  3.46501E+00
   1.22443E+01  9.13827E+00  2.91986E+00  9.13875E+00  1.24855E+01  1.43834E+01  4.86150E+00  1.45409E+01  6.30756E+00  1.35435E+01
  -5.07250E+00  6.55958E+00  2.63686E+00  2.91579E+00  7.67793E+00  4.22063E+00  1.60071E+01  9.81177E+00  1.84349E+00  8.35368E+00
   3.04672E+00  4.92653E+00  5.78318E-01  1.89598E+01  7.07348E+00 -3.00199E+00  1.05646E+01 -5.26801E+00 -5.78470E-02 -4.62119E+00
   1.62452E+01  8.89655E+00  4.74699E+00  2.87515E+00  1.72670E-01  3.46464E+00 -1.38963E+01  1.00157E+01  2.48634E+00  1.80101E+01
   4.13575E+00  5.86628E+00 -3.04568E+00 -5.12695E+00 -1.91822E-01  7.61765E+00 -1.26984E+00  1.62844E+00 -7.06534E+00  5.19554E+00
  -5.91714E+00  3.46895E-01  1.78790E+00 -4.74672E+00 -2.90283E+00 -4.39490E+00 -5.16618E+00  8.96743E+00 -4.10966E+00  2.05766E+00
   3.78537E+00 -9.36717E+00  5.14419E+00 -5.08966E+00  8.49871E+00 -1.76132E-01  1.29449E+01  1.87850E+01  4.69126E+00  2.69128E+00
   2.40850E+00  1.25970E+01  1.80990E+01  3.51545E+00  1.83901E+01  2.93879E+00 -3.89252E+00  1.01946E+00  8.80982E+00  1.45981E+01
  -1.26154E+01 -2.77087E+00  6.19221E+00 -1.62652E+00  4.02813E+00  7.79003E+00  7.67861E-01 -4.29807E-01 -5.76535E+00  5.00917E+00
  -1.16954E+01 -3.99029E+00 -1.88647E+00  5.41131E+00  7.69378E+00  1.60628E+01  1.74360E+01  1.12009E+01  1.63581E+01 -8.87655E-01
  -2.54721E+00 -5.27879E+00  1.88085E-01  6.44676E+00 -5.15682E+00  1.32615E+01  3.89298E+00  1.82243E+00 -2.67503E+00  8.86263E+00
  -7.90382E+00  7.51818E+00  2.58874E+00  4.13132E+00 -3.26794E-02  3.13439E+01 -5.94892E-02  4.15992E+00  2.59667E+00  1.48970E+01
   1.03464E+01 -1.28614E+00  5.31275E-01 -5.05861E+00 -6.68381E+00 -2.64136E+00  1.28438E+01  4.69998E+00  7.76436E-01  1.09008E+01
  -4.16544E+00  5.15651E+00  5.52050E+00  7.30579E+00  7.09805E+00 -8.78777E-01 -2.61592E+00  6.47482E+00  1.01858E+00  1.23884E+01
   5.18109E+00  1.87032E+01  7.49218E+00 -3.97049E+00 -1.28971E+01 -2.90262E+00  1.26705E+01  4.47068E+00 -3.92759E+00 -1.70185E+01
   2.59096E+00  3.51232E+00 -9.23710E-02 -2.30761E+00 -8.14474E+00  1.15774E+00 -5.93342E+00  1.13833E+01  2.11500E+01  1.77196E-01
  -6.10012E+00  7.20084E-01  1.54325E+01 -3.05965E+00  3.39850E+00  5.42091E+00 -1.79106E+00 -1.09890E+01  4.72854E+00 -4.66985E+00
  -1.08539E+01 -5.55201E+00 -3.96194E+00 -1.67012E+00  4.39099E-01  8.91034E+00  7.54116E+00  9.17453E+00 -9.40266E+00 -6.47826E+00
   1.30365E+00  7.26753E+00  1.59963E+01 -3.64966E-01  4.89803E+00  2.03147E+01 -6.50279E+00 -1.46270E+01 -1.96985E+00 -1.53393E+00
   5.92337E+00  1.55199E+00 -1.35787E+00 -5.61890E+00 -7.62779E+00  5.52000E+00  2.59530E+00 -2.10795E+00 -1.21450E+01 -1.67204E-01
   1.06248E+01 -1.25064E+00  4.75606E+00  1.24712E+01  6.26652E-01 -3.95108E-01 -2.31526E-01 -7.36825E+00  2.82267E-02 -1.61331E+00
  -1.39285E+01 -6.18062E+00 -8.84162E+00 -2.78257E+00 -9.08443E+00  1.07454E+01  3.37006E+00 -6.33798E+00 -8.77445E-01 -4.15150E+00
  -1.19272E+01  2.33099E+00 -4.12335E+00  7.36753E+00  4.06925E+00  2.45202E-01 -9.24031E-01  1.07659E+01  1.62305E+01  3.77392E+00
   1.32032E+00  1.43755E+01  5.80253E+00  3.66292E+00 -8.07533E+00 -7.45290E+00 -6.46647E+00  8.42993E+00 -7.23894E+00 -1.28981E+01
  -1.05242E+01 -3.48091E+00 -9.48040E+00  1.55460E+00 -5.45631E+00 -5.67728E+00 -2.61223E+00  7.21226E+00 -1.22827E+01 -1.48891E+01
  -5.89592E+00 -5.93571E-01 -7.03649E+00  1.15973E+00  3.08907E-01 -4.51403E+00  4.35791E+00  1.37248E+01 -4.13888E+00  6.62595E+00
   9.79867E+00  4.98840E+00  7.74492E+00  1.38586E+01  7.59459E+00  4.96380E+00  1.89298E+01  1.20144E+01  1.04921E+01  1.73261E+01
   1.35161E+01 -1.97776E+00  2.14918E+01  1.02514E+01  1.64541E+01  1.59418E+01  1.86506E+01  4.25333E+00  1.11968E+01  1.52457E+01
   2.26606E+00  1.88810E+00 -2.70283E+00  4.40293E+00  2.61320E+00  1.37521E+00 -1.56637E+01 -7.91107E+00  3.37702E-01 -7.71644E+00
   7.62906E+00 -5.32858E+00 -3.16736E+00 -1.29947E+01  5.03984E+00 -5.28461E+00 -9.80539E+00 -9.72932E+00  7.05666E+00 -3.60583E+00
  -5.37745E+00 -7.00164E+00 -1.15730E+01 -6.04118E+00 -3.89210E+00  4.63817E+00  2.58218E+00 -2.53118E+00 -1.42890E+01  1.91340E+00
   2.83816E+00  1.06555E+01  1.84441E+01  1.64841E+01  6.51784E-01  1.14752E+01 -2.28301E+00  1.10801E-01  1.31172E+01 -9.47476E+00
  -8.40282E+00 -1.18047E+00  1.43421E+01 -3.02120E+00 -3.78299E+00 -2.30427E+00 -2.92250E+00 -7.27655E+00  2.19323E+00 -5.21491E+00
  -3.13873E+00 -3.25720E+00 -3.79236E+00 -6.03428E+00  1.34623E+00  4.08815E+00 -4.93058E+00 -4.74082E+00 -1.38244E+01  1.38466E+01
   1.00850E+01  2.80212E+00  1.02997E+01 -1.47477E+01  8.18101E-01 -5.81075E+00 -1.21936E+00 -9.78368E+00  1.04965E+01 -2.39012E+01
  -9.61591E+00  1.28494E+01  2.56640E+00 -1.85804E+01 -9.36557E+00  4.21300E+00 -2.89923E+00 -6.96980E+00  6.94811E+00 -9.33027E+00
   6.74212E+00  1.47496E+01  6.42871E+00  3.26266E+00 -2.22816E+00  4.83871E+00  1.54425E+01 -9.29309E+00  1.68964E+01  1.02469E+01
   1.81124E+01  5.32032E+00  7.45691E+00  7.63376E+00  9.57658E+00  8.01010E+00 -1.96587E+00  2.09304E+00 -8.47086E-01  3.39282E-01
  -6.54282E+00 -4.45129E+00  1.02056E+01  9.08478E+00 -4.40629E-01 -6.68547E+00  1.40995E+00  5.74078E+00 -9.75842E+00  1.79204E+01
   1.33371E+01  2.69989E+00 -1.14832E+01  5.71514E+00  2.10549E+00  2.56058E+00 -4.55394E+00  6.74865E+00 -5.60366E+00  1.25062E+00
   1.63973E+01  1.03113E+01  2.62087E+00  1.07489E+01 -2.62720E+00  5.16396E+00 -8.02118E+00  9.74083E+00  1.15460E+01  3.87236E+00
  -1.95019E+00  7.26733E-01 -5.07557E+00  1.41353E+01  1.43410E+01  1.02753E+01 -2.91592E+00  7.52965E+00  1.30977E+00 -5.74490E-01
  -1.16011E+00 -1.76958E+00 -8.76055E-01  3.96127E+00  1.45521E+00  8.99029E+00  1.16809E+01 -8.98930E+00 -1.11361E+01  9.58026E+00
   2.39908E+00 -1.12570E+01 -7.87726E+00  2.29848E+00 -1.46977E+01 -1.76417E+01 -6.35130E+00  1.08232E+01  6.37492E-01  6.09625E-01
   6.29305E+00  1.30579E+01  5.20115E+00 -6.30298E-02 -1.13800E-01  3.71014E-01 -6.47646E-01  6.68358E+00  9.98219E+00  7.62370E+00
   1.00490E+01 -2.33682E+00 -4.12757E+00  4.02184E+00 -6.98778E-01  6.81055E+00  1.46441E+00  5.86961E+00 -2.70015E+00  4.86537E+00
  -2.14032E+00 -2.03485E+00 -2.82886E+00 -5.09889E-01  1.55960E+01  2.73251E+00  2.73308E+00  1.34592E+01
 NY points of the fit to the data follow
   2.43963E+00  2.12445E+00  2.13820E+00  2.78908E+00  4.03128E+00  5.50385E+00  6.87442E+00  7.90339E+00  8.43867E+00  8.44044E+00
   7.96990E+00  7.14755E+00  6.10229E+00  4.95924E+00  3.83433E+00  2.86402E+00  2.23972E+00  2.06790E+00  2.08831E+00  2.13866E+00
   2.19071E+00  2.19474E+00  2.09871E+00  2.05921E+00  2.66518E+00  4.11206E+00  6.04117E+00  8.08379E+00  9.93836E+00  1.13068E+01
   1.19568E+01  1.18535E+01  1.11077E+01  9.88185E+00  8.32925E+00  6.55418E+00  4.74087E+00  3.24637E+00  2.37592E+00  1.93560E+00
   1.74994E+00  2.02995E+00  2.95271E+00  4.33729E+00  5.80675E+00  7.04596E+00  7.81954E+00  7.96878E+00  7.49685E+00  6.53351E+00
   5.30048E+00  4.00267E+00  2.77030E+00  1.78162E+00  1.25839E+00  1.33435E+00  1.92160E+00  2.68414E+00  3.31953E+00  3.67848E+00
   3.72535E+00  3.50932E+00  3.12704E+00  2.69924E+00  2.31473E+00  2.02410E+00  1.90594E+00  2.00781E+00  2.28946E+00  2.65660E+00
   3.02204E+00  3.29137E+00  3.41748E+00  3.39506E+00  3.24822E+00  3.02633E+00  2.77362E+00  2.52282E+00  2.28904E+00  2.09962E+00
   1.98128E+00  1.84273E+00  1.58576E+00  1.17578E+00  6.55362E-01  1.01472E-01 -3.94832E-01 -7.52323E-01 -9.14034E-01 -8.67139E-01
  -6.20885E-01 -2.29400E-01  2.10210E-01  6.18787E-01  9.34429E-01  1.13924E+00  1.50677E+00  2.63166E+00  4.45354E+00  6.54687E+00
   8.48976E+00  9.93420E+00  1.06649E+01  1.06148E+01  9.86399E+00  8.57281E+00  6.94392E+00  5.17760E+00  3.44115E+00  1.93981E+00
   9.60481E-01  6.23570E-01  5.48541E-01  5.26014E-01  5.07096E-01  4.71534E-01  4.24890E-01  3.78029E-01  3.61151E-01  4.53151E-01
   9.40702E-01  2.30683E+00  4.38263E+00  6.69847E+00  8.81157E+00  1.03907E+01  1.12548E+01  1.14197E+01  1.10253E+01  1.01376E+01
   8.79031E+00  7.05078E+00  5.02834E+00  2.98375E+00  1.35583E+00  4.09516E-01 -3.57692E-02 -1.16551E-01  8.67699E-02  4.75613E-01
   9.63938E-01  1.48735E+00  1.95300E+00  2.22969E+00  2.27075E+00  2.10800E+00  1.79529E+00  1.42007E+00  1.06053E+00  7.45164E-01
   5.07729E-01  3.27942E-01  1.99203E-01  1.21871E-01  8.46631E-02  6.89476E-02  6.38951E-02  6.64496E-02  6.70428E-02  6.18535E-02
   4.83766E-02  2.61036E-02 -4.64259E-03 -4.13884E-02 -7.37178E-02 -9.18432E-02 -9.01354E-02 -6.62677E-02 -2.73960E-02  8.95288E-03
   2.29201E-02  7.37261E-03 -3.18668E-02 -8.75031E-02 -1.56616E-01 -2.37399E-01 -3.27468E-01 -4.25602E-01 -5.14009E-01 -5.99888E-01
  -6.97432E-01 -8.02478E-01 -9.01779E-01 -9.65344E-01 -9.23706E-01 -6.95564E-01 -2.48987E-01  3.54302E-01  9.81393E-01  1.49950E+00
   1.80292E+00  1.79952E+00  1.42875E+00  7.98445E-01  1.13129E-01 -4.60614E-01 -8.24223E-01 -9.24017E-01 -7.43705E-01 -3.23677E-01
   2.43047E-01  8.13503E-01  1.28256E+00  1.60259E+00  1.71373E+00  1.58921E+00  1.27867E+00  9.38059E-01  6.94479E-01  6.26518E-01
   8.58798E-01  1.34607E+00  1.93283E+00  2.45586E+00  2.77030E+00  2.74315E+00  2.27050E+00  1.36676E+00  2.29718E-01 -8.54327E-01
  -1.68521E+00 -2.13251E+00 -2.13852E+00 -1.71975E+00 -9.73606E-01 -1.91477E-01  3.82730E-01  7.04423E-01  8.23193E-01  8.04937E-01
   7.36367E-01  7.90327E-01  1.12299E+00  1.63523E+00  2.07730E+00  2.26768E+00  2.12157E+00  1.62176E+00  8.41942E-01 -6.05648E-02
  -8.42996E-01 -1.30378E+00 -1.36937E+00 -1.08236E+00 -5.55375E-01  7.75191E-02  6.61300E-01  1.04663E+00  1.19212E+00  1.20396E+00
   1.29399E+00  1.52978E+00  1.85689E+00  2.25090E+00  2.78571E+00  3.49100E+00  4.23402E+00  4.86353E+00  5.27234E+00  5.39288E+00
   5.20635E+00  4.76025E+00  4.13147E+00  3.44316E+00  2.80326E+00  2.18377E+00  1.55980E+00  1.01900E+00  6.81690E-01  5.49098E-01
   5.17368E-01  5.48016E-01  6.20841E-01  7.04508E-01  7.80045E-01  8.42945E-01  8.87595E-01  9.16703E-01  9.38754E-01  9.64952E-01
   1.00977E+00  1.09134E+00  1.22190E+00  1.40390E+00  1.63629E+00  1.91767E+00  2.24992E+00  2.63491E+00  3.07092E+00  3.55469E+00
   4.08282E+00  4.64786E+00  5.23749E+00  5.83524E+00  6.42396E+00  6.98484E+00  7.49848E+00  7.94695E+00  8.31378E+00  8.58485E+00
   8.75030E+00  8.80331E+00  8.74104E+00  8.56584E+00  8.28504E+00  7.91035E+00  7.45682E+00  6.94206E+00  6.38590E+00  5.80844E+00
   5.22862E+00  4.66375E+00  4.12860E+00  3.63511E+00  3.19253E+00  2.80767E+00  2.48550E+00  2.23025E+00  2.04745E+00  1.94859E+00
   1.96565E+00  2.16393E+00  2.46379E+00  2.65896E+00  2.62431E+00  2.31380E+00  1.73814E+00  9.43636E-01 -5.00168E-03 -9.21150E-01
  -1.52832E+00 -1.71669E+00 -1.50089E+00 -9.52672E-01 -1.64390E-01  7.38837E-01  1.55138E+00  2.13402E+00  2.49479E+00  2.67616E+00
   2.73612E+00  2.75783E+00  2.74949E+00  2.69008E+00  2.56814E+00  2.29884E+00  1.85512E+00  1.25510E+00  5.53417E-01 -7.46914E-02
  -4.64725E-01 -5.70176E-01 -4.16115E-01 -5.86998E-02  4.38669E-01  9.96306E-01  1.47691E+00  1.78609E+00  1.93392E+00  1.94663E+00
   1.84647E+00  1.65767E+00  1.43411E+00  1.26855E+00  1.17500E+00  1.11627E+00  1.07582E+00  1.04652E+00  1.02470E+00  1.00830E+00
   9.96112E-01  9.87472E-01  9.82029E-01  9.79665E-01  9.80447E-01  9.84597E-01  9.92451E-01  1.00444E+00  1.02106E+00  1.04290E+00
   1.07060E+00  1.10489E+00  1.14652E+00  1.19625E+00  1.25482E+00  1.32291E+00  1.40113E+00  1.48991E+00  1.58947E+00  1.69973E+00
   1.82025E+00  1.95020E+00  2.08827E+00  2.23268E+00  2.38113E+00  2.53088E+00  2.67877E+00  2.82133E+00  2.95493E+00  3.07590E+00
   3.18070E+00  3.26613E+00  3.32944E+00  3.36857E+00  3.38218E+00  3.36978E+00  3.33173E+00  3.26924E+00  3.18428E+00  3.07947E+00
   2.95795E+00  2.82320E+00  2.67884E+00  2.52849E+00  2.37561E+00  2.22337E+00  2.07452E+00  1.93137E+00  1.79573E+00  1.66890E+00
   1.55174E+00  1.44469E+00  1.34780E+00  1.26086E+00  1.18340E+00  1.11482E+00  1.05440E+00  1.00139E+00  9.54989E-01  9.14455E-01
   8.79063E-01  8.48157E-01  8.21138E-01  7.97477E-01  7.76703E-01  7.58414E-01  7.42260E-01  7.27948E-01  7.15224E-01  7.03872E-01
   6.93710E-01  6.84583E-01  6.76362E-01  6.68939E-01  6.62217E-01  6.56117E-01  6.50566E-01  6.45507E-01  6.40887E-01  6.36664E-01
   6.32796E-01  6.29251E-01  6.25998E-01  6.23014E-01  6.20276E-01  6.17764E-01  6.15458E-01  6.13341E-01  6.11395E-01  6.09612E-01
   6.07975E-01  6.06475E-01  6.05099E-01  6.03840E-01  6.02690E-01  6.01642E-01  6.00689E-01  5.99825E-01  5.99042E-01  5.98338E-01
   5.97708E-01  5.97148E-01  5.96654E-01  5.96223E-01  5.95851E-01  5.95537E-01  5.95274E-01  5.95063E-01  5.94899E-01  5.94781E-01
   5.94706E-01  5.94673E-01  5.94679E-01  5.94723E-01  5.94805E-01  5.94924E-01  5.95078E-01  5.95267E-01  5.95488E-01  5.95743E-01
   5.96031E-01  5.96354E-01  5.96709E-01  5.97098E-01  5.97520E-01  5.97981E-01  5.98481E-01  5.99024E-01
 NY background values follow
     2.316E-03    3.411E-03    4.507E-03    5.602E-03    6.697E-03    7.792E-03    8.887E-03    9.982E-03    1.108E-02    1.217E-02
     1.327E-02    1.436E-02    1.546E-02    1.655E-02    1.765E-02    1.874E-02    1.984E-02    2.093E-02    2.203E-02    2.312E-02
     2.422E-02    2.531E-02    2.641E-02    2.750E-02    2.860E-02    2.969E-02    3.079E-02    3.188E-02    3.298E-02    3.407E-02
     3.517E-02    3.626E-02    3.736E-02    3.845E-02    3.955E-02    4.065E-02    4.174E-02    4.284E-02    4.393E-02    4.503E-02
     4.612E-02    4.722E-02    4.831E-02    4.941E-02    5.050E-02    5.160E-02    5.269E-02    5.379E-02    5.488E-02    5.598E-02
     5.707E-02    5.817E-02    5.926E-02    6.036E-02    6.145E-02    6.255E-02    6.364E-02    6.474E-02    6.583E-02    6.693E-02
     6.802E-02    6.912E-02    7.021E-02    7.131E-02    7.240E-02    7.350E-02    7.459E-02    7.569E-02    7.678E-02    7.788E-02
     7.897E-02    8.007E-02    8.116E-02    8.226E-02    8.335E-02    8.445E-02    8.554E-02    8.664E-02    8.773E-02    8.883E-02
     8.992E-02    9.102E-02    9.211E-02    9.321E-02    9.430E-02    9.540E-02    9.649E-02    9.759E-02    9.869E-02    9.978E-02
     1.009E-01    1.020E-01    1.031E-01    1.042E-01    1.053E-01    1.064E-01    1.074E-01    1.085E-01    1.096E-01    1.107E-01
     1.118E-01    1.129E-01    1.140E-01    1.151E-01    1.162E-01    1.173E-01    1.184E-01    1.195E-01    1.206E-01    1.217E-01
     1.228E-01    1.239E-01    1.250E-01    1.261E-01    1.272E-01    1.283E-01    1.293E-01    1.304E-01    1.315E-01    1.326E-01
     1.337E-01    1.348E-01    1.359E-01    1.370E-01    1.381E-01    1.392E-01    1.403E-01    1.414E-01    1.425E-01    1.436E-01
     1.447E-01    1.458E-01    1.469E-01    1.480E-01    1.491E-01    1.502E-01    1.513E-01    1.523E-01    1.534E-01    1.545E-01
     1.556E-01    1.567E-01    1.578E-01    1.589E-01    1.600E-01    1.611E-01    1.622E-01    1.633E-01    1.644E-01    1.655E-01
     1.666E-01    1.677E-01    1.688E-01    1.699E-01    1.710E-01    1.721E-01    1.732E-01    1.742E-01    1.753E-01    1.764E-01
     1.775E-01    1.786E-01    1.797E-01    1.808E-01    1.819E-01    1.830E-01    1.841E-01    1.852E-01    1.863E-01    1.874E-01
     1.885E-01    1.896E-01    1.907E-01    1.918E-01    1.929E-01    1.940E-01    1.951E-01    1.962E-01    1.972E-01    1.983E-01
     1.994E-01    2.005E-01    2.016E-01    2.027E-01    2.038E-01    2.049E-01    2.060E-01    2.071E-01    2.082E-01    2.093E-01
     2.104E-01    2.115E-01    2.126E-01    2.137E-01    2.148E-01    2.159E-01    2.170E-01    2.181E-01    2.192E-01    2.203E-01
     2.213E-01    2.224E-01    2.235E-01    2.246E-01    2.257E-01    2.268E-01    2.279E-01    2.290E-01    2.301E-01    2.312E-01
     2.323E-01    2.334E-01    2.345E-01    2.356E-01    2.367E-01    2.378E-01    2.389E-01    2.400E-01    2.411E-01    2.422E-01
     2.433E-01    2.443E-01    2.454E-01    2.465E-01    2.476E-01    2.487E-01    2.498E-01    2.509E-01    2.520E-01    2.531E-01
     2.542E-01    2.553E-01    2.564E-01    2.575E-01    2.586E-01    2.597E-01    2.608E-01    2.619E-01    2.630E-01    2.641E-01
     2.652E-01    2.663E-01    2.674E-01    2.685E-01    2.695E-01    2.706E-01    2.717E-01    2.728E-01    2.739E-01    2.750E-01
     2.761E-01    2.772E-01    2.783E-01    2.794E-01    2.805E-01    2.816E-01    2.827E-01    2.838E-01    2.849E-01    2.860E-01
     2.871E-01    2.882E-01    2.893E-01    2.904E-01    2.915E-01    2.926E-01    2.937E-01    2.948E-01    2.959E-01    2.969E-01
     2.980E-01    2.991E-01    3.002E-01    3.013E-01    3.024E-01    3.035E-01    3.046E-01    3.057E-01    3.068E-01    3.079E-01
     3.090E-01    3.101E-01    3.112E-01    3.123E-01    3.134E-01    3.145E-01    3.156E-01    3.167E-01    3.178E-01    3.189E-01
     3.200E-01    3.211E-01    3.222E-01    3.233E-01    3.244E-01    3.255E-01    3.265E-01    3.276E-01    3.287E-01    3.298E-01
     3.309E-01    3.320E-01    3.331E-01    3.342E-01    3.353E-01    3.364E-01    3.375E-01    3.386E-01    3.397E-01    3.408E-01
     3.419E-01    3.430E-01    3.441E-01    3.452E-01    3.463E-01    3.474E-01    3.485E-01    3.496E-01    3.507E-01    3.518E-01
     3.529E-01    3.540E-01    3.551E-01    3.562E-01    3.573E-01    3.584E-01    3.594E-01    3.605E-01    3.616E-01    3.627E-01
     3.638E-01    3.649E-01    3.660E-01    3.671E-01    3.682E-01    3.693E-01    3.704E-01    3.715E-01    3.726E-01    3.737E-01
     3.748E-01    3.759E-01    3.770E-01    3.781E-01    3.792E-01    3.803E-01    3.814E-01    3.825E-01    3.836E-01    3.847E-01
     3.858E-01    3.869E-01    3.880E-01    3.891E-01    3.902E-01    3.913E-01    3.924E-01    3.935E-01    3.946E-01    3.957E-01
     3.968E-01    3.978E-01    3.989E-01    4.000E-01    4.011E-01    4.022E-01    4.033E-01    4.044E-01    4.055E-01    4.066E-01
     4.077E-01    4.088E-01    4.099E-01    4.110E-01    4.121E-01    4.132E-01    4.143E-01    4.154E-01    4.165E-01    4.176E-01
     4.187E-01    4.198E-01    4.209E-01    4.220E-01    4.231E-01    4.242E-01    4.253E-01    4.264E-01    4.275E-01    4.286E-01
     4.297E-01    4.308E-01    4.319E-01    4.330E-01    4.341E-01    4.352E-01    4.363E-01    4.374E-01    4.385E-01    4.396E-01
     4.407E-01    4.418E-01    4.429E-01    4.439E-01    4.450E-01    4.461E-01    4.472E-01    4.483E-01    4.494E-01    4.505E-01
     4.516E-01    4.527E-01    4.538E-01    4.549E-01    4.560E-01    4.571E-01    4.582E-01    4.593E-01    4.604E-01    4.615E-01
     4.626E-01    4.637E-01    4.648E-01    4.659E-01    4.670E-01    4.681E-01    4.692E-01    4.703E-01    4.714E-01    4.725E-01
     4.736E-01    4.747E-01    4.758E-01    4.769E-01    4.780E-01    4.791E-01    4.802E-01    4.813E-01    4.824E-01    4.835E-01
     4.846E-01    4.857E-01    4.868E-01    4.879E-01    4.890E-01    4.901E-01    4.912E-01    4.923E-01    4.934E-01    4.945E-01
     4.955E-01    4.966E-01    4.977E-01    4.988E-01    4.999E-01    5.010E-01    5.021E-01    5.032E-01    5.043E-01    5.054E-01
     5.065E-01    5.076E-01    5.087E-01    5.098E-01    5.109E-01    5.120E-01    5.131E-01    5.142E-01    5.153E-01    5.164E-01
     5.175E-01    5.186E-01    5.197E-01    5.208E-01    5.219E-01    5.230E-01    5.241E-01    5.252E-01    5.263E-01    5.274E-01
     5.285E-01    5.296E-01    5.307E-01    5.318E-01    5.329E-01    5.340E-01    5.351E-01    5.362E-01    5.373E-01    5.384E-01
     5.395E-01    5.406E-01    5.417E-01    5.428E-01    5.439E-01    5.450E-01    5.461E-01    5.472E-01
 Ala      Conc. = 2.10E+02
