 LCModel (Version 6.3-1L) Copyright: S.W. Provencher.          Ref.: Magn. Reson. Med. 30:672-679 (1993).                
 Slice#3 Row#7 Col#6  PD_24_press_2_raw_act
 36 lines in following concentration table = NCONC+1
    Conc.  %SD /Cr+PCr  Metabolite                                         
   80.214 277% 2.7E-02 Ala                                                 
   93.581 460% 3.1E-02 Asp                                                 
    0.000 999%   0.000 Cr                                                  
 2.99E+03   5%   1.000 PCr                                                 
   23.126 999% 7.7E-03 GABA                                                
  360.179  77%   0.121 Glc                                                 
 1.10E+03  40%   0.369 Gln                                                 
 3.11E+03  17%   1.043 Glu                                                 
  239.435  74% 8.0E-02 GPC                                                 
  794.015  22%   0.266 PCh                                                 
  713.346  23%   0.239 GSH                                                 
 2.40E+03  23%   0.804 Ins                                                 
    0.000 999%   0.000 Lac                                                 
 3.31E+03   5%   1.110 NAA                                                 
    0.000 999%   0.000 NAAG                                                
  249.761  23% 8.4E-02 Scyllo                                              
 1.12E+03  36%   0.375 Tau                                                 
  400.461  58%   0.134 -CrCH2                                              
 1.03E+03   5%   0.346 GPC+PCh                                             
 3.31E+03   5%   1.110 NAA+NAAG                                            
 2.99E+03   5%   1.000 Cr+PCr                                              
 4.21E+03  16%   1.411 Glu+Gln                                             
 4.22E+03  32%   1.415 Lip13a                                              
  185.503 247% 6.2E-02 Lip13b                                              
 1.07E+03  49%   0.359 Lip09                                               
 1.49E+03  35%   0.500 MM09                                                
  701.704  52%   0.235 Lip20                                               
 2.49E+03  32%   0.833 MM20                                                
  516.209  68%   0.173 MM12                                                
 2.85E+03  21%   0.956 MM14                                                
    0.000 999%   0.000 MM17                                                
 4.41E+03  23%   1.477 Lip13a+Lip13b                                       
 7.78E+03  12%   2.605 MM14+Lip13a+Lip13b+MM12                             
 2.57E+03  16%   0.859 MM09+Lip09                                          
 3.19E+03  24%   1.068 MM20+Lip20                                          
   6 lines in following misc. output table
  FWHM = 0.046 ppm    S/N =   7                                            
  Data shift = 0.015 ppm                                                   
  Ph: -37 deg     -13.3 deg/ppm                                            
  alphaB,S = 2.3E+00,   5.5E+00                                            
   14 spline knots.   Ns = 5(1)                                            
  ( 8) 8 infls.   ( 9) 5 extrs.                                            
  498 points on ppm-axis = NY
      4.000000     3.992357     3.984714     3.977070     3.969427     3.961784     3.954141     3.946497     3.938854     3.931211
      3.923568     3.915925     3.908281     3.900638     3.892995     3.885352     3.877708     3.870065     3.862422     3.854779
      3.847136     3.839492     3.831849     3.824206     3.816563     3.808919     3.801276     3.793633     3.785990     3.778347
      3.770703     3.763060     3.755417     3.747774     3.740130     3.732487     3.724844     3.717201     3.709558     3.701914
      3.694271     3.686628     3.678985     3.671341     3.663698     3.656055     3.648412     3.640769     3.633125     3.625482
      3.617839     3.610196     3.602552     3.594909     3.587266     3.579623     3.571980     3.564336     3.556693     3.549050
      3.541407     3.533763     3.526120     3.518477     3.510834     3.503191     3.495547     3.487904     3.480261     3.472618
      3.464974     3.457331     3.449688     3.442045     3.434402     3.426758     3.419115     3.411472     3.403829     3.396185
      3.388542     3.380899     3.373256     3.365613     3.357969     3.350326     3.342683     3.335040     3.327396     3.319753
      3.312110     3.304467     3.296824     3.289180     3.281537     3.273894     3.266251     3.258607     3.250964     3.243321
      3.235678     3.228034     3.220391     3.212748     3.205105     3.197462     3.189818     3.182175     3.174532     3.166889
      3.159245     3.151602     3.143959     3.136316     3.128673     3.121029     3.113386     3.105743     3.098100     3.090456
      3.082813     3.075170     3.067527     3.059884     3.052240     3.044597     3.036954     3.029311     3.021667     3.014024
      3.006381     2.998738     2.991095     2.983451     2.975808     2.968165     2.960522     2.952878     2.945235     2.937592
      2.929949     2.922306     2.914662     2.907019     2.899376     2.891733     2.884089     2.876446     2.868803     2.861160
      2.853517     2.845873     2.838230     2.830587     2.822944     2.815300     2.807657     2.800014     2.792371     2.784728
      2.777084     2.769441     2.761798     2.754155     2.746511     2.738868     2.731225     2.723582     2.715939     2.708295
      2.700652     2.693009     2.685366     2.677722     2.670079     2.662436     2.654793     2.647150     2.639506     2.631863
      2.624220     2.616577     2.608933     2.601290     2.593647     2.586004     2.578361     2.570717     2.563074     2.555431
      2.547788     2.540144     2.532501     2.524858     2.517215     2.509572     2.501928     2.494285     2.486642     2.478999
      2.471355     2.463712     2.456069     2.448426     2.440783     2.433139     2.425496     2.417853     2.410210     2.402566
      2.394923     2.387280     2.379637     2.371994     2.364350     2.356707     2.349064     2.341421     2.333777     2.326134
      2.318491     2.310848     2.303205     2.295561     2.287918     2.280275     2.272632     2.264988     2.257345     2.249702
      2.242059     2.234416     2.226772     2.219129     2.211486     2.203843     2.196199     2.188556     2.180913     2.173270
      2.165627     2.157983     2.150340     2.142697     2.135054     2.127410     2.119767     2.112124     2.104481     2.096838
      2.089194     2.081551     2.073908     2.066265     2.058621     2.050978     2.043335     2.035692     2.028049     2.020405
      2.012762     2.005119     1.997476     1.989833     1.982190     1.974546     1.966903     1.959260     1.951617     1.943974
      1.936331     1.928688     1.921045     1.913402     1.905759     1.898115     1.890472     1.882829     1.875186     1.867543
      1.859900     1.852257     1.844614     1.836971     1.829327     1.821684     1.814041     1.806398     1.798755     1.791112
      1.783469     1.775826     1.768183     1.760540     1.752896     1.745253     1.737610     1.729967     1.722324     1.714681
      1.707038     1.699395     1.691752     1.684108     1.676465     1.668822     1.661179     1.653536     1.645893     1.638250
      1.630607     1.622964     1.615321     1.607677     1.600034     1.592391     1.584748     1.577105     1.569462     1.561819
      1.554176     1.546533     1.538890     1.531246     1.523603     1.515960     1.508317     1.500674     1.493031     1.485388
      1.477745     1.470102     1.462458     1.454815     1.447172     1.439529     1.431886     1.424243     1.416600     1.408957
      1.401314     1.393671     1.386027     1.378384     1.370741     1.363098     1.355455     1.347812     1.340169     1.332526
      1.324883     1.317240     1.309596     1.301953     1.294310     1.286667     1.279024     1.271381     1.263738     1.256095
      1.248452     1.240808     1.233165     1.225522     1.217879     1.210236     1.202593     1.194950     1.187307     1.179664
      1.172021     1.164377     1.156734     1.149091     1.141448     1.133805     1.126162     1.118519     1.110876     1.103233
      1.095590     1.087946     1.080303     1.072660     1.065017     1.057374     1.049731     1.042088     1.034445     1.026802
      1.019158     1.011515     1.003872     0.996229     0.988586     0.980943     0.973300     0.965657     0.958014     0.950371
      0.942727     0.935084     0.927441     0.919798     0.912155     0.904512     0.896869     0.889226     0.881583     0.873940
      0.866296     0.858653     0.851010     0.843367     0.835724     0.828081     0.820438     0.812795     0.805152     0.797508
      0.789865     0.782222     0.774579     0.766936     0.759293     0.751650     0.744007     0.736364     0.728721     0.721077
      0.713434     0.705791     0.698148     0.690505     0.682862     0.675219     0.667576     0.659933     0.652290     0.644646
      0.637003     0.629360     0.621717     0.614074     0.606431     0.598788     0.591145     0.583502     0.575858     0.568215
      0.560572     0.552929     0.545286     0.537643     0.530000     0.522357     0.514714     0.507071     0.499427     0.491784
      0.484141     0.476498     0.468855     0.461212     0.453569     0.445925     0.438282     0.430639     0.422996     0.415353
      0.407710     0.400067     0.392424     0.384780     0.377137     0.369494     0.361851     0.354208     0.346565     0.338922
      0.331278     0.323635     0.315992     0.308349     0.300706     0.293063     0.285420     0.277777     0.270133     0.262490
      0.254847     0.247204     0.239561     0.231918     0.224275     0.216631     0.208988     0.201345
 NY phased data points follow
  -9.21541E+01 -9.85651E+01 -8.00520E+01 -1.00202E+02 -7.01928E+01 -8.03775E+01 -2.64634E+01 -2.86942E+01  1.29273E+01 -2.34556E+01
   1.84000E+01 -1.02244E+01 -4.45382E+00 -5.07204E+01 -3.16734E+01 -6.62218E+01 -6.33962E+01 -8.33897E+01 -6.97554E+01 -7.72676E+01
  -6.60369E+01 -7.30434E+01 -5.13569E+01 -5.57244E+01 -3.52761E+01 -6.72548E+01 -3.77846E+01 -5.37858E+01 -2.56818E+01 -4.31046E+01
  -2.88056E+01 -4.01885E+01 -2.10591E+01 -3.99230E+01 -2.66044E+01 -5.40827E+01 -3.02930E+01 -4.69244E+01 -3.08805E+01 -4.23548E+01
  -3.76376E+01 -4.32307E+01 -4.12744E+01 -4.13999E+01 -3.88073E+01 -2.62824E+01 -1.88357E+01 -2.12632E+01 -1.73202E+01 -2.49480E+01
  -1.84525E+01 -3.37692E+01 -2.28166E+01 -4.72509E+01 -2.14340E+01 -3.85625E+01 -2.35729E+01 -3.11846E+01 -2.12921E+01 -3.00066E+01
  -2.85806E+01 -4.48380E+01 -2.63973E+01 -5.53067E+01 -2.58664E+01 -4.52093E+01 -3.07380E+01 -3.35267E+01 -2.66276E+01 -3.46274E+01
  -1.19667E+01 -3.34830E+01 -1.38503E+01 -2.31739E+01 -1.31909E+01 -2.05218E+01 -1.55533E+01 -2.97973E+01 -3.48169E+01 -2.73454E+01
  -1.18625E+01 -4.58538E+01 -1.25934E+01 -1.81351E+01 -6.21329E+00 -1.93332E+01 -4.98854E-01 -1.81946E+01 -5.59391E+00 -1.77171E+01
  -1.00825E+01 -3.90995E+00 -1.26087E+01 -1.65194E+01  5.96110E+00 -1.57918E+01 -4.06030E+00 -1.65039E+01  4.79709E+00  3.14295E+01
   4.58978E+01  7.13408E+01  9.81033E+01  9.22237E+01  8.94013E+01  6.03757E+01  3.79436E+01  5.60033E+00  2.41256E+01  7.49963E+00
  -8.71543E+00 -1.14872E+01 -2.66690E+00 -1.50223E+00 -3.80435E+00 -7.95122E+00 -2.52999E-01 -9.85511E+00 -5.35544E+00 -1.24184E+01
  -1.23215E+01 -1.10399E+00  9.28570E+00  2.51929E+01  4.77429E+01  7.36529E+01  9.51476E+01  1.11942E+02  1.07650E+02  7.65661E+01
   6.14109E+01  2.67437E+01  3.63668E+01  6.31190E+00  8.05537E+00 -1.07692E+00 -9.70369E+00 -5.61238E+00 -2.09288E+00 -5.99581E+00
  -3.42724E+00 -7.55043E+00 -3.26150E+00 -1.41359E+01  1.34003E+01 -1.74713E+01  1.02871E+01  5.16964E+00 -1.77152E+01 -7.86214E+00
   4.82326E-01 -1.66615E+00  4.05584E-01 -5.27458E-01  1.73281E+01 -4.81188E+00 -8.72962E+00  1.32845E+00 -1.10730E+01 -5.24058E+00
   4.51665E+00  4.38376E+00 -2.29928E+00 -1.05067E+01  8.88481E-01  3.25593E+00  1.14395E+01 -3.64375E+00  1.07553E+01  2.16739E+00
  -1.31489E+01  6.74362E+00 -2.38362E+00 -1.01391E+01 -1.82739E+01 -1.34316E+01 -1.37373E+01 -1.35801E+01 -2.28280E+01 -1.65029E+01
  -3.03830E+00 -1.71138E+01 -7.91144E+00 -1.81619E+01 -1.21447E+01 -1.40268E+01 -2.53824E-01 -6.97992E+00  8.55143E+00 -8.73116E+00
   1.02133E+01  5.77753E+00  2.01882E+01  1.47097E+01  1.43569E+01  1.19122E+01  1.24007E+01  7.51375E-01 -5.47898E+00 -2.18384E+00
   8.94649E+00  6.19783E+00  3.29140E+01  9.21584E+00  2.45502E+01  6.54626E+00 -3.69231E+00  2.14127E+00 -5.10796E+00 -1.96584E+01
   9.19333E+00  4.11257E+00  1.31264E+01  2.40545E+01  2.44322E+01  3.20450E+01  4.24606E+01  3.17284E+01  3.32858E+01  1.25708E+01
  -1.17116E+01 -1.50949E+01  7.27907E+00 -2.05065E+00  1.68389E+00  1.57372E+01  2.06585E+01  1.85129E+01  2.33283E+01  2.02330E+01
   2.25271E+01  2.00788E+01  1.92141E+01  1.80622E+01  2.06698E+01  2.24746E+01  4.98973E+00  3.62601E+01  2.30959E+01  2.38861E+01
   1.09995E+01 -8.15323E-03  1.44698E+01  1.05925E+01  2.03555E+01  1.94141E+01  3.33393E+01  2.71734E+01  1.50306E+01  2.49403E+01
   3.25882E+01  3.34490E+01  3.23616E+01  2.62102E+01  2.54984E+01  3.26139E+01  4.45837E+01  7.16303E+01  1.09481E+02  1.41414E+02
   1.50246E+02  1.45429E+02  1.45486E+02  1.02747E+02  7.96732E+01  6.32868E+01  3.10719E+01  2.31270E+01  2.28739E+01  1.55338E+01
   3.04498E+01  3.49023E+01  2.70280E+01  3.18580E+01  2.36940E+01  1.71427E+01  1.20409E+01  2.05490E+01  1.59134E+01  3.19281E+01
   1.02518E+01  1.22364E+01  2.00279E+01 -3.35480E-01  2.08901E+01  2.54535E+01  1.26904E+01  1.68365E+01  9.04957E+00  2.29123E+01
   1.13898E+01  1.07779E+01  2.68575E+01  2.16079E+01  1.54235E+01  2.07171E+01  2.15067E+01  9.16847E+00  7.20522E+00  1.03027E+01
   1.05544E+01  2.19263E+01  1.65789E+01  1.19887E+01  5.55038E+00  6.31395E+00  1.50521E+01  7.31974E+00  2.57792E+01  2.72110E+01
   3.33294E+01  1.10904E+01  2.10299E+01  3.04495E+01  3.82263E+01  3.78295E+01  3.54275E+01  3.79071E+01  3.22082E+01  3.04192E+01
   3.39395E+01  3.50237E+01  4.65016E+01  3.76311E+01  4.59431E+01  3.96392E+01  3.82277E+01  4.83660E+01  4.09197E+01  3.24829E+01
   3.84806E+01  4.72175E+01  4.56592E+01  3.53737E+01  3.74661E+01  3.13972E+01  3.18102E+01  4.07475E+01  4.29220E+01  4.21395E+01
   3.51224E+01  3.57656E+01  3.26988E+01  3.93249E+01  3.57005E+01  4.47199E+01  4.62747E+01  5.54184E+01  3.80658E+01  4.83971E+01
   4.85870E+01  4.31883E+01  4.20162E+01  4.22548E+01  5.22491E+01  4.56266E+01  4.50057E+01  4.68064E+01  3.98168E+01  4.85655E+01
   3.72300E+01  3.91439E+01  4.02283E+01  4.72998E+01  4.25744E+01  3.74076E+01  2.67435E+01  2.80065E+01  2.97497E+01  3.76158E+01
   4.49999E+01  3.48925E+01  3.49496E+01  5.02862E+01  2.66849E+01  5.43869E+01  4.06221E+01  4.31148E+01  3.05803E+01  3.29962E+01
   3.86990E+01  3.64153E+01  3.82507E+01  3.10422E+01  3.52625E+01  3.25718E+01  2.63416E+01  3.46991E+01  2.91211E+01  2.39970E+01
   3.00262E+01  3.70295E+01  4.27411E+01  3.69312E+01  3.05706E+01  3.72325E+01  3.45581E+01  4.21397E+01  2.78698E+01  3.03750E+01
   2.76650E+01  4.80107E+01  3.57867E+01  4.59767E+01  3.40906E+01  5.41010E+01  3.12883E+01  4.24921E+01  4.92595E+01  4.82923E+01
   3.70528E+01  3.91515E+01  3.79799E+01  3.51223E+01  4.67416E+01  4.64784E+01  4.12247E+01  4.32053E+01  2.53704E+01  3.51164E+01
   3.87660E+01  4.49215E+01  2.91648E+01  2.50525E+01  2.16884E+01  3.87145E+01  3.09635E+01  3.40195E+01  2.55655E+01  3.08538E+01
   2.55741E+01  2.67400E+01  2.21046E+01  3.32245E+01  3.32272E+01  3.52852E+01  3.63347E+01  3.31760E+01  2.96941E+01  2.98166E+01
   3.69590E+01  1.14872E+01  2.71498E+01  2.46221E+01  2.65871E+01  2.63177E+01  1.93180E+01  1.76913E+01  2.73878E+01  2.05047E+01
   3.00416E+01  2.23574E+01  3.11764E+01  2.53074E+01  2.26438E+01  1.01778E+01  3.49196E+01  2.62134E+01  3.21761E+01  2.34622E+01
   4.32078E+01  2.09720E+01  2.66530E+01  2.79642E+01  2.29086E+01  2.68239E+01  1.85159E+01  2.52481E+01  3.40106E+01  2.95864E+01
   2.49264E+01  2.32291E+01  3.67158E+01  2.74144E+01  2.37040E+01  2.37096E+01  3.85558E+01  3.56041E+01  2.25777E+01  3.33725E+01
   1.26293E+01  2.23515E+01  2.32358E+01  3.55745E+01  2.60542E+01  2.56585E+01  2.09135E+01  3.43147E+01  2.05875E+01  2.19507E+01
   2.20687E+01  4.00300E+01  3.42133E+01  2.48165E+01  2.72096E+01  2.20104E+01  2.36618E+01  3.18942E+01
 NY points of the fit to the data follow
  -7.00313E+01 -7.03327E+01 -7.04098E+01 -6.96501E+01 -6.77065E+01 -5.81394E+01 -4.04945E+01 -2.34732E+01 -5.18665E+00 -1.66782E+00
   3.75482E+00 -4.39280E+00 -2.02061E+01 -3.87345E+01 -3.97679E+01 -5.08837E+01 -5.67297E+01 -5.79523E+01 -5.76904E+01 -5.70021E+01
  -5.59921E+01 -5.48813E+01 -5.40905E+01 -5.33261E+01 -5.39517E+01 -5.32706E+01 -5.07003E+01 -4.64880E+01 -4.03593E+01 -3.55328E+01
  -2.97625E+01 -2.55185E+01 -2.63037E+01 -3.07159E+01 -3.33566E+01 -3.85183E+01 -4.42628E+01 -4.76131E+01 -4.90097E+01 -4.83360E+01
  -4.82096E+01 -4.68972E+01 -4.39237E+01 -4.02188E+01 -3.50710E+01 -2.87671E+01 -2.45074E+01 -2.32156E+01 -2.40357E+01 -2.76324E+01
  -3.31778E+01 -3.76431E+01 -3.95887E+01 -4.07040E+01 -4.09884E+01 -3.98843E+01 -3.74678E+01 -3.42460E+01 -3.15440E+01 -2.97500E+01
  -2.84447E+01 -2.85473E+01 -2.96898E+01 -3.08210E+01 -3.12924E+01 -3.12950E+01 -3.09694E+01 -2.99766E+01 -2.90117E+01 -2.77009E+01
  -2.61888E+01 -2.40670E+01 -2.20829E+01 -1.94198E+01 -1.85482E+01 -1.95703E+01 -2.01982E+01 -2.21589E+01 -2.48547E+01 -2.58179E+01
  -2.49309E+01 -2.39479E+01 -2.03850E+01 -1.55638E+01 -1.20310E+01 -1.00554E+01 -1.05044E+01 -1.10732E+01 -1.39021E+01 -1.78747E+01
  -2.05912E+01 -2.06323E+01 -2.23834E+01 -2.31304E+01 -2.21534E+01 -2.05029E+01 -1.78354E+01 -1.29660E+01 -1.44614E+00  2.23344E+01
   5.03183E+01  7.59276E+01  9.07748E+01  9.50245E+01  8.84980E+01  6.56009E+01  3.84600E+01  2.16063E+01  1.10779E+01 -3.24310E+00
  -9.07551E+00 -1.13574E+01 -1.19367E+01 -1.24807E+01 -1.27768E+01 -1.28970E+01 -1.29611E+01 -1.29546E+01 -1.28503E+01 -1.25059E+01
  -1.18001E+01 -9.99476E+00 -3.34015E+00  1.80488E+01  4.80397E+01  7.78142E+01  1.01031E+02  1.05361E+02  1.07235E+02  8.78323E+01
   5.72385E+01  3.34488E+01  2.78405E+01  7.78911E+00 -1.59701E+00 -5.38417E+00 -7.60338E+00 -7.96023E+00 -6.50865E+00 -5.15836E+00
  -3.36522E+00 -1.97890E+00 -1.20950E+00 -1.22847E+00 -1.45528E+00 -2.11757E+00 -2.28983E+00 -2.72900E+00 -3.02576E+00 -3.16436E+00
  -3.26374E+00 -3.37782E+00 -3.41910E+00 -3.26408E+00 -2.99842E+00 -2.71145E+00 -2.45170E+00 -2.63330E+00 -3.25378E+00 -4.04526E+00
  -4.58385E+00 -4.14741E+00 -3.62200E+00 -2.68367E+00 -1.65720E+00 -1.34475E+00 -1.70064E+00 -2.28712E+00 -3.15403E+00 -3.73873E+00
  -3.78153E+00 -4.50695E+00 -5.17982E+00 -6.03812E+00 -6.46027E+00 -6.66035E+00 -6.00540E+00 -5.71465E+00 -5.23391E+00 -4.55863E+00
  -4.12145E+00 -4.40535E+00 -4.47739E+00 -4.51781E+00 -4.51062E+00 -3.79302E+00 -2.85648E+00  2.41772E-02  3.00728E+00  5.95233E+00
   8.16278E+00  9.09531E+00  7.94052E+00  6.95070E+00  4.97087E+00  3.63609E+00  3.02119E+00  3.86115E+00  5.30143E+00  7.97852E+00
   1.10060E+01  1.43684E+01  1.69166E+01  1.80024E+01  1.71558E+01  1.46415E+01  9.57677E+00  4.53309E+00 -5.37210E-01 -2.13312E+00
  -2.72538E+00  6.69307E-01  7.64486E+00  1.70596E+01  2.29846E+01  2.76079E+01  2.84218E+01  2.51069E+01  1.58603E+01  4.80090E+00
  -3.74557E+00 -7.46753E+00 -8.98811E+00 -5.31986E+00  1.32853E+00  1.03180E+01  1.74826E+01  2.04088E+01  2.15013E+01  2.21538E+01
   2.05982E+01  1.88213E+01  1.76896E+01  1.81428E+01  1.99424E+01  2.22807E+01  2.32279E+01  2.41641E+01  2.41129E+01  2.17286E+01
   1.81845E+01  1.59159E+01  1.57817E+01  1.58619E+01  1.77976E+01  2.04575E+01  2.36868E+01  2.45555E+01  2.48099E+01  2.50923E+01
   2.55756E+01  2.58974E+01  2.68472E+01  2.86497E+01  3.06396E+01  3.51740E+01  5.02205E+01  8.08532E+01  1.10281E+02  1.40893E+02
   1.47963E+02  1.52927E+02  1.36924E+02  1.06406E+02  7.01894E+01  6.12721E+01  4.26640E+01  2.80497E+01  2.34098E+01  2.19442E+01
   2.05334E+01  2.03168E+01  2.04415E+01  2.06431E+01  2.09415E+01  2.12587E+01  2.11685E+01  2.07890E+01  2.04363E+01  2.00016E+01
   1.95849E+01  1.92317E+01  1.90374E+01  1.89663E+01  1.89904E+01  1.89390E+01  1.89509E+01  1.89688E+01  1.89713E+01  1.89688E+01
   1.89884E+01  1.90327E+01  1.90963E+01  1.91653E+01  1.92677E+01  1.93877E+01  1.95164E+01  1.96625E+01  1.98271E+01  2.00084E+01
   2.02136E+01  2.04398E+01  2.06927E+01  2.09655E+01  2.12684E+01  2.15948E+01  2.19522E+01  2.23412E+01  2.27750E+01  2.32455E+01
   2.37643E+01  2.43291E+01  2.49465E+01  2.56130E+01  2.63329E+01  2.71016E+01  2.79214E+01  2.87861E+01  2.96964E+01  3.06450E+01
   3.16346E+01  3.26683E+01  3.37767E+01  3.49441E+01  3.59576E+01  3.67888E+01  3.73190E+01  3.76795E+01  3.79094E+01  3.79557E+01
   3.80407E+01  3.85292E+01  3.91621E+01  3.98045E+01  4.06044E+01  4.12283E+01  4.17836E+01  4.20501E+01  4.20015E+01  4.18685E+01
   4.18904E+01  4.17572E+01  4.16970E+01  4.17314E+01  4.18423E+01  4.20213E+01  4.22714E+01  4.25872E+01  4.29652E+01  4.33891E+01
   4.38413E+01  4.42903E+01  4.47049E+01  4.50447E+01  4.52771E+01  4.53696E+01  4.53062E+01  4.50772E+01  4.46927E+01  4.41676E+01
   4.35312E+01  4.28103E+01  4.20371E+01  4.12340E+01  4.04238E+01  3.96176E+01  3.88276E+01  3.80566E+01  3.73113E+01  3.65917E+01
   3.59038E+01  3.52480E+01  3.46314E+01  3.40554E+01  3.35272E+01  3.30480E+01  3.26242E+01  3.22564E+01  3.19502E+01  3.17051E+01
   3.15260E+01  3.14116E+01  3.13661E+01  3.13881E+01  3.14815E+01  3.16446E+01  3.18805E+01  3.21868E+01  3.25658E+01  3.30138E+01
   3.35311E+01  3.41115E+01  3.47524E+01  3.54442E+01  3.61805E+01  3.69476E+01  3.77351E+01  3.85252E+01  3.93036E+01  4.00500E+01
   4.07483E+01  4.13777E+01  4.19229E+01  4.23652E+01  4.26934E+01  4.28940E+01  4.29624E+01  4.28928E+01  4.26884E+01  4.23514E+01
   4.18930E+01  4.13226E+01  4.06574E+01  3.99119E+01  3.91061E+01  3.82562E+01  3.73824E+01  3.64996E+01  3.56255E+01  3.47715E+01
   3.39511E+01  3.31710E+01  3.24402E+01  3.17608E+01  3.11377E+01  3.05693E+01  3.00569E+01  2.95966E+01  2.91878E+01  2.88251E+01
   2.85070E+01  2.82273E+01  2.79844E+01  2.77725E+01  2.75901E+01  2.74320E+01  2.72971E+01  2.71807E+01  2.70825E+01  2.69982E+01
   2.69282E+01  2.68687E+01  2.68203E+01  2.67798E+01  2.67480E+01  2.67221E+01  2.67034E+01  2.66891E+01  2.66805E+01  2.66751E+01
   2.66745E+01  2.66764E+01  2.66824E+01  2.66902E+01  2.67014E+01  2.67139E+01  2.67293E+01  2.67458E+01  2.67649E+01  2.67846E+01
   2.68066E+01  2.68289E+01  2.68534E+01  2.68782E+01  2.69048E+01  2.69315E+01  2.69599E+01  2.69882E+01  2.70182E+01  2.70481E+01
   2.70794E+01  2.71105E+01  2.71431E+01  2.71753E+01  2.72090E+01  2.72424E+01  2.72771E+01  2.73113E+01  2.73468E+01  2.73820E+01
   2.74184E+01  2.74545E+01  2.74917E+01  2.75285E+01  2.75664E+01  2.76041E+01  2.76429E+01  2.76814E+01  2.77209E+01  2.77602E+01
   2.78006E+01  2.78409E+01  2.78823E+01  2.79234E+01  2.79658E+01  2.80081E+01  2.80518E+01  2.80954E+01
 NY background values follow
    -7.368E+01   -7.312E+01   -7.256E+01   -7.200E+01   -7.144E+01   -7.088E+01   -7.032E+01   -6.976E+01   -6.920E+01   -6.864E+01
    -6.808E+01   -6.752E+01   -6.696E+01   -6.640E+01   -6.584E+01   -6.528E+01   -6.472E+01   -6.417E+01   -6.361E+01   -6.305E+01
    -6.249E+01   -6.194E+01   -6.138E+01   -6.083E+01   -6.027E+01   -5.972E+01   -5.916E+01   -5.861E+01   -5.806E+01   -5.751E+01
    -5.696E+01   -5.641E+01   -5.586E+01   -5.532E+01   -5.477E+01   -5.423E+01   -5.368E+01   -5.314E+01   -5.260E+01   -5.206E+01
    -5.152E+01   -5.098E+01   -5.045E+01   -4.991E+01   -4.938E+01   -4.885E+01   -4.832E+01   -4.779E+01   -4.727E+01   -4.674E+01
    -4.622E+01   -4.570E+01   -4.518E+01   -4.466E+01   -4.414E+01   -4.363E+01   -4.312E+01   -4.260E+01   -4.210E+01   -4.159E+01
    -4.108E+01   -4.058E+01   -4.008E+01   -3.958E+01   -3.909E+01   -3.859E+01   -3.810E+01   -3.761E+01   -3.712E+01   -3.663E+01
    -3.615E+01   -3.567E+01   -3.519E+01   -3.471E+01   -3.424E+01   -3.377E+01   -3.330E+01   -3.283E+01   -3.237E+01   -3.191E+01
    -3.145E+01   -3.099E+01   -3.054E+01   -3.009E+01   -2.964E+01   -2.919E+01   -2.875E+01   -2.831E+01   -2.787E+01   -2.744E+01
    -2.700E+01   -2.657E+01   -2.615E+01   -2.573E+01   -2.531E+01   -2.489E+01   -2.447E+01   -2.406E+01   -2.365E+01   -2.325E+01
    -2.285E+01   -2.245E+01   -2.205E+01   -2.165E+01   -2.126E+01   -2.087E+01   -2.049E+01   -2.011E+01   -1.973E+01   -1.935E+01
    -1.898E+01   -1.860E+01   -1.824E+01   -1.787E+01   -1.751E+01   -1.715E+01   -1.679E+01   -1.644E+01   -1.608E+01   -1.574E+01
    -1.539E+01   -1.505E+01   -1.471E+01   -1.437E+01   -1.404E+01   -1.370E+01   -1.338E+01   -1.305E+01   -1.273E+01   -1.241E+01
    -1.209E+01   -1.177E+01   -1.146E+01   -1.115E+01   -1.085E+01   -1.054E+01   -1.024E+01   -9.945E+00   -9.650E+00   -9.357E+00
    -9.067E+00   -8.780E+00   -8.496E+00   -8.214E+00   -7.934E+00   -7.658E+00   -7.383E+00   -7.112E+00   -6.843E+00   -6.576E+00
    -6.311E+00   -6.050E+00   -5.790E+00   -5.533E+00   -5.278E+00   -5.026E+00   -4.775E+00   -4.527E+00   -4.281E+00   -4.038E+00
    -3.796E+00   -3.557E+00   -3.320E+00   -3.085E+00   -2.852E+00   -2.621E+00   -2.392E+00   -2.165E+00   -1.940E+00   -1.717E+00
    -1.496E+00   -1.277E+00   -1.059E+00   -8.438E-01   -6.300E-01   -4.181E-01   -2.078E-01    6.699E-04    2.075E-01    4.126E-01
     6.161E-01    8.179E-01    1.018E+00    1.217E+00    1.414E+00    1.609E+00    1.803E+00    1.996E+00    2.187E+00    2.376E+00
     2.564E+00    2.750E+00    2.935E+00    3.118E+00    3.299E+00    3.480E+00    3.658E+00    3.836E+00    4.011E+00    4.186E+00
     4.359E+00    4.530E+00    4.700E+00    4.868E+00    5.036E+00    5.201E+00    5.366E+00    5.529E+00    5.690E+00    5.850E+00
     6.009E+00    6.166E+00    6.322E+00    6.477E+00    6.631E+00    6.783E+00    6.933E+00    7.083E+00    7.231E+00    7.378E+00
     7.523E+00    7.667E+00    7.810E+00    7.952E+00    8.093E+00    8.232E+00    8.370E+00    8.507E+00    8.642E+00    8.776E+00
     8.910E+00    9.042E+00    9.173E+00    9.302E+00    9.431E+00    9.559E+00    9.685E+00    9.811E+00    9.935E+00    1.006E+01
     1.018E+01    1.030E+01    1.042E+01    1.054E+01    1.066E+01    1.078E+01    1.090E+01    1.101E+01    1.113E+01    1.124E+01
     1.136E+01    1.147E+01    1.158E+01    1.170E+01    1.181E+01    1.192E+01    1.203E+01    1.214E+01    1.224E+01    1.235E+01
     1.246E+01    1.257E+01    1.267E+01    1.278E+01    1.288E+01    1.299E+01    1.309E+01    1.320E+01    1.330E+01    1.340E+01
     1.351E+01    1.361E+01    1.371E+01    1.381E+01    1.391E+01    1.402E+01    1.412E+01    1.422E+01    1.432E+01    1.442E+01
     1.452E+01    1.462E+01    1.472E+01    1.481E+01    1.491E+01    1.501E+01    1.511E+01    1.521E+01    1.530E+01    1.540E+01
     1.550E+01    1.559E+01    1.569E+01    1.578E+01    1.588E+01    1.597E+01    1.607E+01    1.616E+01    1.626E+01    1.635E+01
     1.645E+01    1.654E+01    1.663E+01    1.673E+01    1.682E+01    1.691E+01    1.700E+01    1.710E+01    1.719E+01    1.728E+01
     1.737E+01    1.746E+01    1.755E+01    1.764E+01    1.773E+01    1.782E+01    1.791E+01    1.800E+01    1.809E+01    1.818E+01
     1.827E+01    1.836E+01    1.845E+01    1.854E+01    1.863E+01    1.871E+01    1.880E+01    1.889E+01    1.897E+01    1.906E+01
     1.915E+01    1.923E+01    1.932E+01    1.941E+01    1.949E+01    1.958E+01    1.966E+01    1.974E+01    1.983E+01    1.991E+01
     1.999E+01    2.008E+01    2.016E+01    2.024E+01    2.032E+01    2.040E+01    2.049E+01    2.057E+01    2.065E+01    2.073E+01
     2.081E+01    2.088E+01    2.096E+01    2.104E+01    2.112E+01    2.120E+01    2.127E+01    2.135E+01    2.143E+01    2.150E+01
     2.158E+01    2.165E+01    2.173E+01    2.180E+01    2.187E+01    2.195E+01    2.202E+01    2.209E+01    2.216E+01    2.223E+01
     2.230E+01    2.237E+01    2.244E+01    2.251E+01    2.258E+01    2.265E+01    2.272E+01    2.278E+01    2.285E+01    2.292E+01
     2.298E+01    2.305E+01    2.311E+01    2.318E+01    2.324E+01    2.331E+01    2.337E+01    2.343E+01    2.350E+01    2.356E+01
     2.362E+01    2.368E+01    2.374E+01    2.380E+01    2.387E+01    2.393E+01    2.399E+01    2.404E+01    2.410E+01    2.416E+01
     2.422E+01    2.428E+01    2.434E+01    2.439E+01    2.445E+01    2.451E+01    2.456E+01    2.462E+01    2.467E+01    2.473E+01
     2.478E+01    2.484E+01    2.489E+01    2.494E+01    2.500E+01    2.505E+01    2.510E+01    2.515E+01    2.521E+01    2.526E+01
     2.531E+01    2.536E+01    2.541E+01    2.546E+01    2.551E+01    2.556E+01    2.561E+01    2.566E+01    2.571E+01    2.576E+01
     2.581E+01    2.586E+01    2.591E+01    2.595E+01    2.600E+01    2.605E+01    2.610E+01    2.614E+01    2.619E+01    2.624E+01
     2.628E+01    2.633E+01    2.637E+01    2.642E+01    2.647E+01    2.651E+01    2.656E+01    2.660E+01    2.665E+01    2.669E+01
     2.674E+01    2.678E+01    2.682E+01    2.687E+01    2.691E+01    2.696E+01    2.700E+01    2.704E+01    2.709E+01    2.713E+01
     2.717E+01    2.721E+01    2.726E+01    2.730E+01    2.734E+01    2.739E+01    2.743E+01    2.747E+01    2.751E+01    2.755E+01
     2.760E+01    2.764E+01    2.768E+01    2.772E+01    2.776E+01    2.780E+01    2.785E+01    2.789E+01    2.793E+01    2.797E+01
     2.801E+01    2.805E+01    2.809E+01    2.814E+01    2.818E+01    2.822E+01    2.826E+01    2.830E+01    2.834E+01    2.838E+01
     2.842E+01    2.846E+01    2.850E+01    2.854E+01    2.859E+01    2.863E+01    2.867E+01    2.871E+01
 Ala      Conc. = 8.02E+01
