 LCModel (Version 6.3-1L) Copyright: S.W. Provencher.          Ref.: Magn. Reson. Med. 30:672-679 (1993).                
 Slice#3 Row#9 Col#12  PD_24_press_2_raw_act
 36 lines in following concentration table = NCONC+1
    Conc.  %SD /Cr+PCr  Metabolite                                         
    0.000 999%   0.000 Ala                                                 
    9.962  59%   1.728 Asp                                                 
    0.000 999%   0.000 Cr                                                  
    5.766 999%   1.000 PCr                                                 
    5.946  59%   1.031 GABA                                                
    5.973  59%   1.036 Glc                                                 
    0.000 999%   0.000 Gln                                                 
  548.585  55%  95.145 Glu                                                 
    0.000 999%   0.000 GPC                                                 
   11.189 120%   1.941 PCh                                                 
    0.000 999%   0.000 GSH                                                 
  173.499  90%  30.091 Ins                                                 
    0.000 999%   0.000 Lac                                                 
  159.434  44%  27.652 NAA                                                 
    0.000 999%   0.000 NAAG                                                
    2.010  59%   0.349 Scyllo                                              
    9.977  59%   1.730 Tau                                                 
    0.553 675% 9.6E-02 -CrCH2                                              
   11.189 120%   1.941 GPC+PCh                                             
  159.434  44%  27.652 NAA+NAAG                                            
    5.766 566%   1.000 Cr+PCr                                              
  548.585  55%  95.145 Glu+Gln                                             
 3.15E+04  11% 5.5E+03 Lip13a                                              
 1.31E+03  56% 227.313 Lip13b                                              
    0.000 999%   0.000-Lip09                                               
 2.47E+03  20% 427.651 MM09                                                
    0.000 999%   0.000-Lip20                                               
    0.000 999%   0.000 MM20                                                
  201.598 303%  34.965 MM12                                                
 3.43E+04   3% 5.9E+03+MM14                                                
 8.41E+03  17% 1.5E+03+MM17                                                
 3.28E+04  10% 5.7E+03 Lip13a+Lip13b                                       
 6.73E+04   5% 1.2E+04 MM14+Lip13a+Lip13b+MM12                             
 2.47E+03  20% 427.651 MM09+Lip09                                          
    0.000 999%   0.000 MM20+Lip20                                          
   6 lines in following misc. output table
  FWHM = 0.076 ppm    S/N =  47                                            
  Data shift = 0.038 ppm                                                   
  Ph:-119 deg      70.3 deg/ppm                                            
  alphaB,S = 5.5E+00,   2.1E+01                                            
    8 spline knots.   Ns = 9(2)                                            
  (11) 6 infls.   (10) 2 extrs.                                            
  498 points on ppm-axis = NY
      4.000000     3.992357     3.984714     3.977070     3.969427     3.961784     3.954141     3.946497     3.938854     3.931211
      3.923568     3.915925     3.908281     3.900638     3.892995     3.885352     3.877708     3.870065     3.862422     3.854779
      3.847136     3.839492     3.831849     3.824206     3.816563     3.808919     3.801276     3.793633     3.785990     3.778347
      3.770703     3.763060     3.755417     3.747774     3.740130     3.732487     3.724844     3.717201     3.709558     3.701914
      3.694271     3.686628     3.678985     3.671341     3.663698     3.656055     3.648412     3.640769     3.633125     3.625482
      3.617839     3.610196     3.602552     3.594909     3.587266     3.579623     3.571980     3.564336     3.556693     3.549050
      3.541407     3.533763     3.526120     3.518477     3.510834     3.503191     3.495547     3.487904     3.480261     3.472618
      3.464974     3.457331     3.449688     3.442045     3.434402     3.426758     3.419115     3.411472     3.403829     3.396185
      3.388542     3.380899     3.373256     3.365613     3.357969     3.350326     3.342683     3.335040     3.327396     3.319753
      3.312110     3.304467     3.296824     3.289180     3.281537     3.273894     3.266251     3.258607     3.250964     3.243321
      3.235678     3.228034     3.220391     3.212748     3.205105     3.197462     3.189818     3.182175     3.174532     3.166889
      3.159245     3.151602     3.143959     3.136316     3.128673     3.121029     3.113386     3.105743     3.098100     3.090456
      3.082813     3.075170     3.067527     3.059884     3.052240     3.044597     3.036954     3.029311     3.021667     3.014024
      3.006381     2.998738     2.991095     2.983451     2.975808     2.968165     2.960522     2.952878     2.945235     2.937592
      2.929949     2.922306     2.914662     2.907019     2.899376     2.891733     2.884089     2.876446     2.868803     2.861160
      2.853517     2.845873     2.838230     2.830587     2.822944     2.815300     2.807657     2.800014     2.792371     2.784728
      2.777084     2.769441     2.761798     2.754155     2.746511     2.738868     2.731225     2.723582     2.715939     2.708295
      2.700652     2.693009     2.685366     2.677722     2.670079     2.662436     2.654793     2.647150     2.639506     2.631863
      2.624220     2.616577     2.608933     2.601290     2.593647     2.586004     2.578361     2.570717     2.563074     2.555431
      2.547788     2.540144     2.532501     2.524858     2.517215     2.509572     2.501928     2.494285     2.486642     2.478999
      2.471355     2.463712     2.456069     2.448426     2.440783     2.433139     2.425496     2.417853     2.410210     2.402566
      2.394923     2.387280     2.379637     2.371994     2.364350     2.356707     2.349064     2.341421     2.333777     2.326134
      2.318491     2.310848     2.303205     2.295561     2.287918     2.280275     2.272632     2.264988     2.257345     2.249702
      2.242059     2.234416     2.226772     2.219129     2.211486     2.203843     2.196199     2.188556     2.180913     2.173270
      2.165627     2.157983     2.150340     2.142697     2.135054     2.127410     2.119767     2.112124     2.104481     2.096838
      2.089194     2.081551     2.073908     2.066265     2.058621     2.050978     2.043335     2.035692     2.028049     2.020405
      2.012762     2.005119     1.997476     1.989833     1.982190     1.974546     1.966903     1.959260     1.951617     1.943974
      1.936331     1.928688     1.921045     1.913402     1.905759     1.898115     1.890472     1.882829     1.875186     1.867543
      1.859900     1.852257     1.844614     1.836971     1.829327     1.821684     1.814041     1.806398     1.798755     1.791112
      1.783469     1.775826     1.768183     1.760540     1.752896     1.745253     1.737610     1.729967     1.722324     1.714681
      1.707038     1.699395     1.691752     1.684108     1.676465     1.668822     1.661179     1.653536     1.645893     1.638250
      1.630607     1.622964     1.615321     1.607677     1.600034     1.592391     1.584748     1.577105     1.569462     1.561819
      1.554176     1.546533     1.538890     1.531246     1.523603     1.515960     1.508317     1.500674     1.493031     1.485388
      1.477745     1.470102     1.462458     1.454815     1.447172     1.439529     1.431886     1.424243     1.416600     1.408957
      1.401314     1.393671     1.386027     1.378384     1.370741     1.363098     1.355455     1.347812     1.340169     1.332526
      1.324883     1.317240     1.309596     1.301953     1.294310     1.286667     1.279024     1.271381     1.263738     1.256095
      1.248452     1.240808     1.233165     1.225522     1.217879     1.210236     1.202593     1.194950     1.187307     1.179664
      1.172021     1.164377     1.156734     1.149091     1.141448     1.133805     1.126162     1.118519     1.110876     1.103233
      1.095590     1.087946     1.080303     1.072660     1.065017     1.057374     1.049731     1.042088     1.034445     1.026802
      1.019158     1.011515     1.003872     0.996229     0.988586     0.980943     0.973300     0.965657     0.958014     0.950371
      0.942727     0.935084     0.927441     0.919798     0.912155     0.904512     0.896869     0.889226     0.881583     0.873940
      0.866296     0.858653     0.851010     0.843367     0.835724     0.828081     0.820438     0.812795     0.805152     0.797508
      0.789865     0.782222     0.774579     0.766936     0.759293     0.751650     0.744007     0.736364     0.728721     0.721077
      0.713434     0.705791     0.698148     0.690505     0.682862     0.675219     0.667576     0.659933     0.652290     0.644646
      0.637003     0.629360     0.621717     0.614074     0.606431     0.598788     0.591145     0.583502     0.575858     0.568215
      0.560572     0.552929     0.545286     0.537643     0.530000     0.522357     0.514714     0.507071     0.499427     0.491784
      0.484141     0.476498     0.468855     0.461212     0.453569     0.445925     0.438282     0.430639     0.422996     0.415353
      0.407710     0.400067     0.392424     0.384780     0.377137     0.369494     0.361851     0.354208     0.346565     0.338922
      0.331278     0.323635     0.315992     0.308349     0.300706     0.293063     0.285420     0.277777     0.270133     0.262490
      0.254847     0.247204     0.239561     0.231918     0.224275     0.216631     0.208988     0.201345
 NY phased data points follow
  -6.32569E+00 -6.65134E+00 -4.89324E+00 -4.85643E+00 -5.96853E+00 -4.61126E+00 -3.90961E+00 -8.97552E+00 -6.70936E+00 -8.83022E+00
  -6.79876E+00 -8.07249E+00 -8.09805E+00 -8.21451E+00 -1.02278E+01 -9.17168E+00 -9.13440E+00 -1.09307E+01 -8.36891E+00 -9.58521E+00
  -8.68060E+00 -1.10087E+01 -7.55692E+00 -1.12611E+01 -1.04623E+01 -9.61657E+00 -9.26420E+00 -9.89145E+00 -1.10471E+01 -1.17579E+01
  -1.11616E+01 -1.29455E+01 -1.22954E+01 -1.26242E+01 -1.33011E+01 -1.05259E+01 -1.49471E+01 -1.03974E+01 -1.24778E+01 -1.30861E+01
  -1.24916E+01 -1.17364E+01 -1.59742E+01 -1.39983E+01 -1.33653E+01 -1.17054E+01 -1.28365E+01 -1.31689E+01 -1.15398E+01 -1.33614E+01
  -1.61023E+01 -1.70783E+01 -1.27682E+01 -1.83358E+01 -1.51106E+01 -1.19423E+01 -1.57394E+01 -1.27657E+01 -1.62320E+01 -1.45397E+01
  -1.52785E+01 -1.85965E+01 -1.48729E+01 -1.53270E+01 -1.48808E+01 -1.79037E+01 -1.49710E+01 -1.63377E+01 -1.53253E+01 -1.40915E+01
  -1.64180E+01 -1.42427E+01 -1.57103E+01 -1.80819E+01 -1.49406E+01 -1.69838E+01 -1.34587E+01 -1.84852E+01 -1.83984E+01 -1.64820E+01
  -1.65823E+01 -1.82079E+01 -1.60086E+01 -1.89837E+01 -2.16268E+01 -1.78687E+01 -1.77866E+01 -1.78250E+01 -1.76692E+01 -1.75223E+01
  -1.85340E+01 -1.93839E+01 -1.74891E+01 -1.90424E+01 -1.59431E+01 -1.62463E+01 -1.57825E+01 -1.84099E+01 -1.67886E+01 -2.17053E+01
  -2.17262E+01 -2.06342E+01 -2.46693E+01 -1.77650E+01 -1.85190E+01 -2.14785E+01 -2.00698E+01 -2.54154E+01 -1.97387E+01 -2.23357E+01
  -1.96577E+01 -2.33513E+01 -2.08706E+01 -2.14039E+01 -2.23910E+01 -1.88056E+01 -2.39511E+01 -2.02743E+01 -1.94778E+01 -1.94859E+01
  -2.13816E+01 -1.91951E+01 -2.07776E+01 -2.38207E+01 -2.23503E+01 -2.54553E+01 -2.50166E+01 -2.50369E+01 -2.29573E+01 -2.38833E+01
  -2.32966E+01 -2.20310E+01 -2.70006E+01 -2.16577E+01 -2.44502E+01 -2.25592E+01 -2.39387E+01 -2.47577E+01 -2.58458E+01 -2.12959E+01
  -2.43044E+01 -2.71596E+01 -2.51390E+01 -2.76005E+01 -2.58317E+01 -2.53774E+01 -2.68835E+01 -2.63451E+01 -2.53203E+01 -2.65846E+01
  -2.63954E+01 -2.83585E+01 -2.59126E+01 -2.38019E+01 -2.60548E+01 -2.82471E+01 -2.48958E+01 -2.71214E+01 -2.56999E+01 -2.88178E+01
  -2.59026E+01 -2.58811E+01 -2.68398E+01 -3.04258E+01 -2.85799E+01 -2.65593E+01 -2.73516E+01 -2.76786E+01 -2.90377E+01 -2.88200E+01
  -2.99198E+01 -2.81776E+01 -2.95239E+01 -2.88307E+01 -2.73160E+01 -2.83329E+01 -3.08712E+01 -2.71460E+01 -2.52686E+01 -2.66792E+01
  -2.59557E+01 -2.64925E+01 -2.90071E+01 -2.83194E+01 -2.91190E+01 -2.95774E+01 -2.99022E+01 -2.97717E+01 -2.84976E+01 -2.86078E+01
  -2.63097E+01 -2.88905E+01 -2.68305E+01 -2.66907E+01 -2.81231E+01 -2.89702E+01 -3.11106E+01 -2.77296E+01 -2.84684E+01 -2.70072E+01
  -3.13023E+01 -2.87487E+01 -2.87228E+01 -3.10850E+01 -2.90421E+01 -2.73685E+01 -2.66966E+01 -3.00971E+01 -2.48063E+01 -2.81489E+01
  -2.74637E+01 -2.93923E+01 -2.78069E+01 -2.95692E+01 -3.17792E+01 -2.48989E+01 -2.97237E+01 -2.87423E+01 -2.99890E+01 -2.80224E+01
  -3.18161E+01 -2.98949E+01 -2.95839E+01 -2.90420E+01 -2.94566E+01 -2.77966E+01 -2.87122E+01 -3.01101E+01 -2.71316E+01 -2.80191E+01
  -3.05796E+01 -2.84567E+01 -3.19728E+01 -3.36454E+01 -3.12897E+01 -3.46609E+01 -3.31184E+01 -3.23843E+01 -3.12364E+01 -3.38010E+01
  -3.32086E+01 -3.25889E+01 -3.19884E+01 -3.54320E+01 -3.17015E+01 -3.20494E+01 -3.10705E+01 -3.05275E+01 -3.07697E+01 -3.14212E+01
  -3.15998E+01 -3.18118E+01 -3.06216E+01 -3.18827E+01 -3.25823E+01 -3.29322E+01 -3.09425E+01 -3.38335E+01 -2.97052E+01 -2.55627E+01
  -2.70338E+01 -2.58033E+01 -2.64212E+01 -2.87579E+01 -2.80731E+01 -2.62473E+01 -2.57528E+01 -2.67203E+01 -2.50226E+01 -2.50839E+01
  -2.28134E+01 -2.03472E+01 -2.30627E+01 -1.91280E+01 -1.90943E+01 -1.93836E+01 -2.25168E+01 -1.84400E+01 -1.88186E+01 -1.95940E+01
  -1.89299E+01 -1.80407E+01 -1.93978E+01 -1.79938E+01 -1.52092E+01 -1.95725E+01 -1.74533E+01 -1.81663E+01 -2.19976E+01 -1.82040E+01
  -1.57827E+01 -1.63824E+01 -1.81105E+01 -1.51489E+01 -1.49419E+01 -1.07126E+01 -9.22157E+00 -9.47124E+00 -9.71997E+00 -2.15882E+00
  -1.72453E+00 -1.04960E+00  6.72642E-01  7.02952E+00  1.25249E+01  1.63027E+01  2.06098E+01  2.88909E+01  3.29300E+01  4.33064E+01
   5.25566E+01  6.07923E+01  7.01507E+01  8.20308E+01  9.30913E+01  1.02264E+02  1.16842E+02  1.30281E+02  1.40364E+02  1.54379E+02
   1.68304E+02  1.83370E+02  2.00588E+02  2.15739E+02  2.31189E+02  2.46090E+02  2.58317E+02  2.74022E+02  2.79471E+02  2.83685E+02
   2.88675E+02  2.87459E+02  2.85560E+02  2.80263E+02  2.73556E+02  2.59108E+02  2.47381E+02  2.36752E+02  2.22970E+02  2.04787E+02
   1.91229E+02  1.79671E+02  1.62232E+02  1.49435E+02  1.37866E+02  1.28005E+02  1.16139E+02  1.08134E+02  9.67555E+01  8.83916E+01
   8.56497E+01  7.96414E+01  7.26649E+01  6.63994E+01  6.43723E+01  6.09139E+01  5.40593E+01  4.91161E+01  4.34338E+01  4.56667E+01
   4.15801E+01  3.94446E+01  3.39630E+01  3.26965E+01  3.33482E+01  2.77384E+01  2.84868E+01  2.50962E+01  2.12386E+01  2.09335E+01
   1.88848E+01  1.89405E+01  1.84474E+01  1.38840E+01  1.77883E+01  1.51931E+01  1.68411E+01  1.40617E+01  1.24501E+01  9.02365E+00
   1.01017E+01  1.01813E+01  5.80575E+00  7.36022E+00  5.16864E+00  8.68647E+00  5.23926E+00  5.21611E+00  5.16252E+00  1.63582E+00
   2.64847E-01 -6.72941E-01 -1.77154E+00 -2.21584E+00 -1.42007E+00 -2.88184E+00 -1.50072E+00 -3.06131E+00 -4.07213E+00 -7.54349E+00
  -3.38634E+00 -6.00514E+00 -8.34000E+00 -6.47718E+00 -7.82715E+00 -7.51481E+00 -8.64522E+00 -5.32219E+00 -9.71224E+00 -7.45666E+00
  -8.56797E+00 -9.51451E+00 -9.76660E+00 -1.01748E+01 -7.73316E+00 -1.22815E+01 -1.15838E+01 -9.31683E+00 -1.29581E+01 -1.26140E+01
  -1.20808E+01 -1.19160E+01 -1.23220E+01 -1.42768E+01 -1.43492E+01 -1.38390E+01 -1.38411E+01 -1.35477E+01 -1.33724E+01 -1.68948E+01
  -1.72271E+01 -1.49907E+01 -1.61904E+01 -2.10653E+01 -1.70089E+01 -1.88551E+01 -1.74928E+01 -1.99990E+01 -1.93471E+01 -1.96491E+01
  -1.86869E+01 -2.14618E+01 -1.97933E+01 -2.33649E+01 -1.85377E+01 -2.42952E+01 -2.49990E+01 -2.24639E+01 -2.37900E+01 -2.48097E+01
  -2.65160E+01 -2.30109E+01 -2.50078E+01 -2.72968E+01 -2.68952E+01 -2.70223E+01 -3.22906E+01 -2.57270E+01 -2.85219E+01 -2.84648E+01
  -3.03484E+01 -3.02161E+01 -3.07944E+01 -3.08189E+01 -2.93548E+01 -3.06697E+01 -3.31927E+01 -3.01546E+01 -2.85897E+01 -2.90441E+01
  -3.22558E+01 -3.26001E+01 -3.19294E+01 -2.93807E+01 -3.06285E+01 -3.38618E+01 -3.38987E+01 -3.39819E+01 -3.26166E+01 -3.41500E+01
  -3.18037E+01 -3.74534E+01 -3.40438E+01 -3.64768E+01 -3.46522E+01 -3.50742E+01 -3.56629E+01 -3.46110E+01 -3.61344E+01 -3.49784E+01
  -3.26402E+01 -3.67183E+01 -3.65474E+01 -3.74543E+01 -3.34481E+01 -3.61453E+01 -3.66962E+01 -3.78062E+01
 NY points of the fit to the data follow
  -6.50476E+00 -6.51854E+00 -6.54555E+00 -6.56480E+00 -6.64992E+00 -6.72190E+00 -6.90284E+00 -7.08173E+00 -7.39243E+00 -7.69105E+00
  -7.90546E+00 -8.20316E+00 -8.34376E+00 -8.68176E+00 -8.82675E+00 -9.20268E+00 -9.46952E+00 -9.83756E+00 -9.95916E+00 -1.02362E+01
  -1.01974E+01 -1.03148E+01 -1.02697E+01 -1.03891E+01 -1.04225E+01 -1.05890E+01 -1.07458E+01 -1.09587E+01 -1.11483E+01 -1.13906E+01
  -1.15376E+01 -1.15964E+01 -1.16766E+01 -1.16046E+01 -1.17871E+01 -1.17229E+01 -1.20416E+01 -1.19845E+01 -1.23678E+01 -1.22458E+01
  -1.26398E+01 -1.24495E+01 -1.28294E+01 -1.25472E+01 -1.28413E+01 -1.25002E+01 -1.27341E+01 -1.24901E+01 -1.27216E+01 -1.26997E+01
  -1.31957E+01 -1.34318E+01 -1.38688E+01 -1.41145E+01 -1.42572E+01 -1.41897E+01 -1.40216E+01 -1.37991E+01 -1.37486E+01 -1.36610E+01
  -1.38685E+01 -1.41138E+01 -1.44003E+01 -1.47276E+01 -1.50793E+01 -1.54351E+01 -1.57752E+01 -1.60622E+01 -1.62657E+01 -1.62725E+01
  -1.62295E+01 -1.61948E+01 -1.61913E+01 -1.62556E+01 -1.63299E+01 -1.64914E+01 -1.66369E+01 -1.68479E+01 -1.70182E+01 -1.72159E+01
  -1.73579E+01 -1.74638E+01 -1.75167E+01 -1.75972E+01 -1.76482E+01 -1.78988E+01 -1.80536E+01 -1.83332E+01 -1.85346E+01 -1.87549E+01
  -1.89587E+01 -1.91106E+01 -1.93093E+01 -1.94365E+01 -1.95957E+01 -1.97583E+01 -1.99241E+01 -2.01183E+01 -2.02698E+01 -2.04441E+01
  -2.05419E+01 -2.06615E+01 -2.06923E+01 -2.07957E+01 -2.07908E+01 -2.08863E+01 -2.08798E+01 -2.09312E+01 -2.09386E+01 -2.10190E+01
  -2.10570E+01 -2.11460E+01 -2.11518E+01 -2.12437E+01 -2.12003E+01 -2.13552E+01 -2.12916E+01 -2.15619E+01 -2.15245E+01 -2.19119E+01
  -2.19691E+01 -2.24160E+01 -2.25645E+01 -2.29554E+01 -2.31234E+01 -2.32543E+01 -2.33633E+01 -2.34694E+01 -2.35906E+01 -2.36947E+01
  -2.38169E+01 -2.39141E+01 -2.40315E+01 -2.41134E+01 -2.42219E+01 -2.42836E+01 -2.43887E+01 -2.44355E+01 -2.45514E+01 -2.46009E+01
  -2.47367E+01 -2.48075E+01 -2.49565E+01 -2.50394E+01 -2.51867E+01 -2.53033E+01 -2.54471E+01 -2.55954E+01 -2.57008E+01 -2.58121E+01
  -2.59046E+01 -2.60020E+01 -2.60864E+01 -2.61705E+01 -2.62512E+01 -2.63296E+01 -2.64103E+01 -2.64926E+01 -2.65625E+01 -2.66485E+01
  -2.67396E+01 -2.68181E+01 -2.69163E+01 -2.69699E+01 -2.70738E+01 -2.71420E+01 -2.72502E+01 -2.73369E+01 -2.74347E+01 -2.75187E+01
  -2.76247E+01 -2.77300E+01 -2.78468E+01 -2.79550E+01 -2.80671E+01 -2.81637E+01 -2.82615E+01 -2.83542E+01 -2.84484E+01 -2.85571E+01
  -2.86463E+01 -2.87613E+01 -2.88476E+01 -2.89976E+01 -2.90760E+01 -2.92320E+01 -2.93003E+01 -2.94244E+01 -2.94905E+01 -2.95791E+01
  -2.95735E+01 -2.96639E+01 -2.95089E+01 -2.95625E+01 -2.93592E+01 -2.93964E+01 -2.93165E+01 -2.94701E+01 -2.97487E+01 -2.99541E+01
  -3.00543E+01 -3.01266E+01 -2.99450E+01 -2.98426E+01 -2.93178E+01 -2.89841E+01 -2.86047E+01 -2.84962E+01 -2.84282E+01 -2.85755E+01
  -2.86630E+01 -2.88449E+01 -2.88254E+01 -2.88635E+01 -2.87249E+01 -2.86772E+01 -2.87305E+01 -2.87426E+01 -2.91551E+01 -2.92474E+01
  -2.98167E+01 -2.98240E+01 -3.01944E+01 -2.98401E+01 -2.99070E+01 -2.92375E+01 -2.92071E+01 -2.86871E+01 -2.89131E+01 -2.87764E+01
  -2.95357E+01 -2.97068E+01 -3.08740E+01 -3.10848E+01 -3.21234E+01 -3.20822E+01 -3.25078E+01 -3.19033E+01 -3.13262E+01 -3.03927E+01
  -2.96481E+01 -2.88847E+01 -2.87515E+01 -2.88472E+01 -2.90564E+01 -2.97889E+01 -2.97789E+01 -3.03662E+01 -3.00766E+01 -3.05295E+01
  -3.00040E+01 -3.03704E+01 -2.97008E+01 -3.00888E+01 -2.93647E+01 -2.97156E+01 -2.88538E+01 -2.89617E+01 -2.80108E+01 -2.77644E+01
  -2.71064E+01 -2.67052E+01 -2.64839E+01 -2.60847E+01 -2.59691E+01 -2.54222E+01 -2.51710E+01 -2.41731E+01 -2.37542E+01 -2.23671E+01
  -2.19818E+01 -2.03128E+01 -2.04524E+01 -1.89515E+01 -1.98008E+01 -1.86627E+01 -2.00363E+01 -1.94589E+01 -2.10274E+01 -2.10005E+01
  -2.23220E+01 -2.25251E+01 -2.25404E+01 -2.21215E+01 -2.18377E+01 -2.13185E+01 -2.07802E+01 -2.01864E+01 -1.95307E+01 -1.88099E+01
  -1.80073E+01 -1.71552E+01 -1.61791E+01 -1.51331E+01 -1.39227E+01 -1.25621E+01 -1.09560E+01 -9.14496E+00 -7.04915E+00 -4.68124E+00
  -1.98377E+00  1.05987E+00  4.48022E+00  8.31512E+00  1.26056E+01  1.73881E+01  2.27034E+01  2.85947E+01  3.51035E+01  4.22776E+01
   5.01582E+01  5.87936E+01  6.82244E+01  7.84839E+01  8.95964E+01  1.01565E+02  1.14374E+02  1.27972E+02  1.42277E+02  1.57160E+02
   1.72452E+02  1.87932E+02  2.03340E+02  2.18373E+02  2.32701E+02  2.45974E+02  2.57839E+02  2.67955E+02  2.76014E+02  2.81754E+02
   2.84977E+02  2.85563E+02  2.83475E+02  2.78764E+02  2.71572E+02  2.62122E+02  2.50711E+02  2.37696E+02  2.23478E+02  2.08487E+02
   1.93158E+02  1.77915E+02  1.63149E+02  1.49194E+02  1.36315E+02  1.24681E+02  1.14366E+02  1.05340E+02  9.74848E+01  9.06152E+01
   8.45094E+01  7.89457E+01  7.37351E+01  6.87461E+01  6.39142E+01  5.92381E+01  5.47631E+01  5.05578E+01  4.66901E+01  4.32084E+01
   4.01309E+01  3.74441E+01  3.51078E+01  3.30644E+01  3.12498E+01  2.96017E+01  2.80661E+01  2.66000E+01  2.51725E+01  2.37634E+01
   2.23612E+01  2.09610E+01  1.95623E+01  1.81677E+01  1.67813E+01  1.54084E+01  1.40542E+01  1.27240E+01  1.14229E+01  1.01554E+01
   8.92554E+00  7.73702E+00  6.59289E+00  5.49577E+00  4.44777E+00  3.45066E+00  2.50578E+00  1.61411E+00  7.76288E-01 -7.31164E-03
  -7.36675E-01 -1.41203E+00 -2.03394E+00 -2.60323E+00 -3.12114E+00 -3.58917E+00 -4.00932E+00 -4.38391E+00 -4.71582E+00 -5.00828E+00
  -5.26511E+00 -5.49057E+00 -5.68941E+00 -5.86684E+00 -6.02848E+00 -6.18026E+00 -6.32837E+00 -6.47902E+00 -6.63851E+00 -6.81283E+00
  -7.00773E+00 -7.22839E+00 -7.47943E+00 -7.76459E+00 -8.08683E+00 -8.44807E+00 -8.84928E+00 -9.29035E+00 -9.77025E+00 -1.02869E+01
  -1.08376E+01 -1.14187E+01 -1.20261E+01 -1.26553E+01 -1.33015E+01 -1.39597E+01 -1.46251E+01 -1.52931E+01 -1.59593E+01 -1.66195E+01
  -1.72704E+01 -1.79087E+01 -1.85319E+01 -1.91379E+01 -1.97251E+01 -2.02924E+01 -2.08391E+01 -2.13648E+01 -2.18695E+01 -2.23535E+01
  -2.28173E+01 -2.32614E+01 -2.36867E+01 -2.40940E+01 -2.44842E+01 -2.48583E+01 -2.52172E+01 -2.55620E+01 -2.58934E+01 -2.62124E+01
  -2.65199E+01 -2.68167E+01 -2.71034E+01 -2.73809E+01 -2.76498E+01 -2.79106E+01 -2.81640E+01 -2.84105E+01 -2.86506E+01 -2.88847E+01
  -2.91132E+01 -2.93365E+01 -2.95550E+01 -2.97690E+01 -2.99787E+01 -3.01845E+01 -3.03865E+01 -3.05851E+01 -3.07805E+01 -3.09728E+01
  -3.11622E+01 -3.13489E+01 -3.15331E+01 -3.17148E+01 -3.18943E+01 -3.20717E+01 -3.22470E+01 -3.24204E+01 -3.25921E+01 -3.27620E+01
  -3.29302E+01 -3.30969E+01 -3.32622E+01 -3.34260E+01 -3.35885E+01 -3.37498E+01 -3.39098E+01 -3.40687E+01 -3.42264E+01 -3.43831E+01
  -3.45388E+01 -3.46935E+01 -3.48473E+01 -3.50002E+01 -3.51523E+01 -3.53035E+01 -3.54540E+01 -3.56037E+01
 NY background values follow
    -7.693E+00   -7.842E+00   -7.992E+00   -8.140E+00   -8.289E+00   -8.437E+00   -8.584E+00   -8.732E+00   -8.879E+00   -9.025E+00
    -9.171E+00   -9.317E+00   -9.462E+00   -9.607E+00   -9.752E+00   -9.896E+00   -1.004E+01   -1.018E+01   -1.033E+01   -1.047E+01
    -1.061E+01   -1.075E+01   -1.090E+01   -1.104E+01   -1.118E+01   -1.132E+01   -1.146E+01   -1.160E+01   -1.174E+01   -1.188E+01
    -1.202E+01   -1.216E+01   -1.230E+01   -1.244E+01   -1.257E+01   -1.271E+01   -1.285E+01   -1.299E+01   -1.312E+01   -1.326E+01
    -1.340E+01   -1.353E+01   -1.367E+01   -1.381E+01   -1.394E+01   -1.408E+01   -1.421E+01   -1.435E+01   -1.448E+01   -1.461E+01
    -1.475E+01   -1.488E+01   -1.501E+01   -1.515E+01   -1.528E+01   -1.541E+01   -1.555E+01   -1.568E+01   -1.581E+01   -1.594E+01
    -1.607E+01   -1.620E+01   -1.634E+01   -1.647E+01   -1.660E+01   -1.673E+01   -1.686E+01   -1.699E+01   -1.712E+01   -1.725E+01
    -1.738E+01   -1.751E+01   -1.764E+01   -1.776E+01   -1.789E+01   -1.802E+01   -1.815E+01   -1.828E+01   -1.841E+01   -1.854E+01
    -1.866E+01   -1.879E+01   -1.892E+01   -1.905E+01   -1.917E+01   -1.930E+01   -1.943E+01   -1.955E+01   -1.968E+01   -1.981E+01
    -1.993E+01   -2.006E+01   -2.019E+01   -2.031E+01   -2.044E+01   -2.057E+01   -2.069E+01   -2.082E+01   -2.094E+01   -2.107E+01
    -2.119E+01   -2.132E+01   -2.144E+01   -2.157E+01   -2.169E+01   -2.182E+01   -2.194E+01   -2.207E+01   -2.219E+01   -2.232E+01
    -2.244E+01   -2.257E+01   -2.269E+01   -2.281E+01   -2.294E+01   -2.306E+01   -2.318E+01   -2.330E+01   -2.343E+01   -2.355E+01
    -2.367E+01   -2.379E+01   -2.391E+01   -2.403E+01   -2.415E+01   -2.427E+01   -2.439E+01   -2.451E+01   -2.463E+01   -2.475E+01
    -2.487E+01   -2.498E+01   -2.510E+01   -2.522E+01   -2.534E+01   -2.545E+01   -2.557E+01   -2.568E+01   -2.580E+01   -2.591E+01
    -2.602E+01   -2.614E+01   -2.625E+01   -2.636E+01   -2.647E+01   -2.658E+01   -2.669E+01   -2.680E+01   -2.691E+01   -2.702E+01
    -2.713E+01   -2.724E+01   -2.734E+01   -2.745E+01   -2.755E+01   -2.766E+01   -2.776E+01   -2.787E+01   -2.797E+01   -2.807E+01
    -2.817E+01   -2.827E+01   -2.837E+01   -2.847E+01   -2.857E+01   -2.867E+01   -2.876E+01   -2.886E+01   -2.895E+01   -2.905E+01
    -2.914E+01   -2.924E+01   -2.933E+01   -2.942E+01   -2.951E+01   -2.960E+01   -2.969E+01   -2.977E+01   -2.986E+01   -2.995E+01
    -3.003E+01   -3.011E+01   -3.020E+01   -3.028E+01   -3.036E+01   -3.044E+01   -3.052E+01   -3.060E+01   -3.067E+01   -3.075E+01
    -3.083E+01   -3.090E+01   -3.097E+01   -3.104E+01   -3.111E+01   -3.118E+01   -3.125E+01   -3.132E+01   -3.139E+01   -3.145E+01
    -3.152E+01   -3.158E+01   -3.164E+01   -3.170E+01   -3.176E+01   -3.182E+01   -3.188E+01   -3.193E+01   -3.199E+01   -3.204E+01
    -3.210E+01   -3.215E+01   -3.220E+01   -3.225E+01   -3.230E+01   -3.235E+01   -3.239E+01   -3.244E+01   -3.248E+01   -3.253E+01
    -3.257E+01   -3.261E+01   -3.265E+01   -3.269E+01   -3.273E+01   -3.277E+01   -3.280E+01   -3.284E+01   -3.287E+01   -3.291E+01
    -3.294E+01   -3.297E+01   -3.300E+01   -3.303E+01   -3.306E+01   -3.309E+01   -3.312E+01   -3.314E+01   -3.317E+01   -3.319E+01
    -3.321E+01   -3.324E+01   -3.326E+01   -3.328E+01   -3.330E+01   -3.332E+01   -3.333E+01   -3.335E+01   -3.337E+01   -3.338E+01
    -3.340E+01   -3.341E+01   -3.342E+01   -3.343E+01   -3.344E+01   -3.345E+01   -3.346E+01   -3.347E+01   -3.348E+01   -3.348E+01
    -3.349E+01   -3.349E+01   -3.350E+01   -3.350E+01   -3.350E+01   -3.351E+01   -3.351E+01   -3.351E+01   -3.351E+01   -3.350E+01
    -3.350E+01   -3.350E+01   -3.350E+01   -3.349E+01   -3.349E+01   -3.348E+01   -3.347E+01   -3.347E+01   -3.346E+01   -3.345E+01
    -3.344E+01   -3.343E+01   -3.342E+01   -3.341E+01   -3.339E+01   -3.338E+01   -3.337E+01   -3.335E+01   -3.334E+01   -3.332E+01
    -3.330E+01   -3.329E+01   -3.327E+01   -3.325E+01   -3.323E+01   -3.321E+01   -3.319E+01   -3.317E+01   -3.315E+01   -3.312E+01
    -3.310E+01   -3.308E+01   -3.305E+01   -3.303E+01   -3.300E+01   -3.298E+01   -3.295E+01   -3.292E+01   -3.290E+01   -3.287E+01
    -3.284E+01   -3.281E+01   -3.278E+01   -3.275E+01   -3.273E+01   -3.270E+01   -3.267E+01   -3.264E+01   -3.261E+01   -3.257E+01
    -3.254E+01   -3.251E+01   -3.248E+01   -3.245E+01   -3.242E+01   -3.239E+01   -3.236E+01   -3.232E+01   -3.229E+01   -3.226E+01
    -3.223E+01   -3.220E+01   -3.217E+01   -3.214E+01   -3.210E+01   -3.207E+01   -3.204E+01   -3.201E+01   -3.198E+01   -3.195E+01
    -3.192E+01   -3.189E+01   -3.186E+01   -3.183E+01   -3.180E+01   -3.177E+01   -3.175E+01   -3.172E+01   -3.169E+01   -3.166E+01
    -3.164E+01   -3.161E+01   -3.158E+01   -3.156E+01   -3.153E+01   -3.151E+01   -3.149E+01   -3.146E+01   -3.144E+01   -3.142E+01
    -3.140E+01   -3.138E+01   -3.136E+01   -3.134E+01   -3.132E+01   -3.130E+01   -3.128E+01   -3.127E+01   -3.125E+01   -3.124E+01
    -3.123E+01   -3.121E+01   -3.120E+01   -3.119E+01   -3.118E+01   -3.117E+01   -3.116E+01   -3.116E+01   -3.115E+01   -3.115E+01
    -3.114E+01   -3.114E+01   -3.114E+01   -3.114E+01   -3.114E+01   -3.114E+01   -3.114E+01   -3.115E+01   -3.115E+01   -3.116E+01
    -3.117E+01   -3.118E+01   -3.119E+01   -3.120E+01   -3.121E+01   -3.123E+01   -3.124E+01   -3.126E+01   -3.128E+01   -3.130E+01
    -3.132E+01   -3.134E+01   -3.137E+01   -3.140E+01   -3.142E+01   -3.145E+01   -3.148E+01   -3.151E+01   -3.155E+01   -3.158E+01
    -3.162E+01   -3.165E+01   -3.169E+01   -3.173E+01   -3.177E+01   -3.181E+01   -3.186E+01   -3.190E+01   -3.195E+01   -3.200E+01
    -3.204E+01   -3.209E+01   -3.214E+01   -3.220E+01   -3.225E+01   -3.230E+01   -3.236E+01   -3.241E+01   -3.247E+01   -3.253E+01
    -3.259E+01   -3.265E+01   -3.271E+01   -3.277E+01   -3.284E+01   -3.290E+01   -3.297E+01   -3.304E+01   -3.310E+01   -3.317E+01
    -3.324E+01   -3.331E+01   -3.339E+01   -3.346E+01   -3.353E+01   -3.361E+01   -3.368E+01   -3.376E+01   -3.384E+01   -3.391E+01
    -3.399E+01   -3.407E+01   -3.415E+01   -3.423E+01   -3.432E+01   -3.440E+01   -3.448E+01   -3.457E+01   -3.465E+01   -3.474E+01
    -3.483E+01   -3.491E+01   -3.500E+01   -3.509E+01   -3.518E+01   -3.527E+01   -3.536E+01   -3.545E+01   -3.555E+01   -3.564E+01
    -3.573E+01   -3.583E+01   -3.592E+01   -3.602E+01   -3.611E+01   -3.621E+01   -3.631E+01   -3.640E+01   -3.650E+01   -3.660E+01
    -3.670E+01   -3.680E+01   -3.690E+01   -3.700E+01   -3.710E+01   -3.720E+01   -3.731E+01   -3.741E+01   -3.751E+01   -3.761E+01
    -3.772E+01   -3.782E+01   -3.793E+01   -3.803E+01   -3.814E+01   -3.824E+01   -3.835E+01   -3.845E+01
 Asp      Conc. = 9.96E+00
