 LCModel (Version 6.3-1L) Copyright: S.W. Provencher.          Ref.: Magn. Reson. Med. 30:672-679 (1993).                
 Slice#1 Row#4 Col#11  PD_24_press_2_raw_act
 36 lines in following concentration table = NCONC+1
    Conc.  %SD /Cr+PCr  Metabolite                                         
 1.03E+03  45%   2.913 Ala                                                 
   47.354 237%   0.134 Asp                                                 
  354.369  28%   1.000 Cr                                                  
    0.000 999%   0.000 PCr                                                 
   58.360 118%   0.165 GABA                                                
   58.338 117%   0.165 Glc                                                 
  208.721 362%   0.589 Gln                                                 
    0.000 999%   0.000 Glu                                                 
  169.656  99%   0.479 GPC                                                 
   30.797 542% 8.7E-02 PCh                                                 
   99.938 149%   0.282 GSH                                                 
 1.21E+03  36%   3.425 Ins                                                 
    0.000 999%   0.000 Lac                                                 
    0.000 999%   0.000 NAA                                                 
  916.317  18%   2.586 NAAG                                                
   37.835  57%   0.107 Scyllo                                              
  131.076  84%   0.370 Tau                                                 
  121.364  91%   0.342 -CrCH2                                              
  200.453  19%   0.566 GPC+PCh                                             
  916.317  18%   2.586 NAA+NAAG                                            
  354.369  28%   1.000 Cr+PCr                                              
  208.721 362%   0.589 Glu+Gln                                             
 5.32E+03  20%  15.010 Lip13a                                              
    0.000 999%   0.000 Lip13b                                              
 1.11E+03  45%   3.138 Lip09                                               
 1.38E+03  35%   3.885 MM09                                                
  829.321  42%   2.340 Lip20                                               
 2.88E+03  24%   8.124 MM20                                                
  584.435  59%   1.649 MM12                                                
  328.275 177%   0.926 MM14                                                
 2.32E+03  16%   6.551 MM17                                                
 5.32E+03  20%  15.010 Lip13a+Lip13b                                       
 6.23E+03  11%  17.585 MM14+Lip13a+Lip13b+MM12                             
 2.49E+03  12%   7.023 MM09+Lip09                                          
 3.71E+03  17%  10.464 MM20+Lip20                                          
   6 lines in following misc. output table
  FWHM = 0.107 ppm    S/N =   3                                            
  Data shift =-0.023 ppm                                                   
  Ph:  -2 deg       0.2 deg/ppm                                            
  alphaB,S = 8.5E+01,   5.1E+01                                            
   14 spline knots.   Ns = 6(2)                                            
   2 inflections.     1 extrema                                            
  498 points on ppm-axis = NY
      4.000000     3.992357     3.984714     3.977070     3.969427     3.961784     3.954141     3.946497     3.938854     3.931211
      3.923568     3.915925     3.908281     3.900638     3.892995     3.885352     3.877708     3.870065     3.862422     3.854779
      3.847136     3.839492     3.831849     3.824206     3.816563     3.808919     3.801276     3.793633     3.785990     3.778347
      3.770703     3.763060     3.755417     3.747774     3.740130     3.732487     3.724844     3.717201     3.709558     3.701914
      3.694271     3.686628     3.678985     3.671341     3.663698     3.656055     3.648412     3.640769     3.633125     3.625482
      3.617839     3.610196     3.602552     3.594909     3.587266     3.579623     3.571980     3.564336     3.556693     3.549050
      3.541407     3.533763     3.526120     3.518477     3.510834     3.503191     3.495547     3.487904     3.480261     3.472618
      3.464974     3.457331     3.449688     3.442045     3.434402     3.426758     3.419115     3.411472     3.403829     3.396185
      3.388542     3.380899     3.373256     3.365613     3.357969     3.350326     3.342683     3.335040     3.327396     3.319753
      3.312110     3.304467     3.296824     3.289180     3.281537     3.273894     3.266251     3.258607     3.250964     3.243321
      3.235678     3.228034     3.220391     3.212748     3.205105     3.197462     3.189818     3.182175     3.174532     3.166889
      3.159245     3.151602     3.143959     3.136316     3.128673     3.121029     3.113386     3.105743     3.098100     3.090456
      3.082813     3.075170     3.067527     3.059884     3.052240     3.044597     3.036954     3.029311     3.021667     3.014024
      3.006381     2.998738     2.991095     2.983451     2.975808     2.968165     2.960522     2.952878     2.945235     2.937592
      2.929949     2.922306     2.914662     2.907019     2.899376     2.891733     2.884089     2.876446     2.868803     2.861160
      2.853517     2.845873     2.838230     2.830587     2.822944     2.815300     2.807657     2.800014     2.792371     2.784728
      2.777084     2.769441     2.761798     2.754155     2.746511     2.738868     2.731225     2.723582     2.715939     2.708295
      2.700652     2.693009     2.685366     2.677722     2.670079     2.662436     2.654793     2.647150     2.639506     2.631863
      2.624220     2.616577     2.608933     2.601290     2.593647     2.586004     2.578361     2.570717     2.563074     2.555431
      2.547788     2.540144     2.532501     2.524858     2.517215     2.509572     2.501928     2.494285     2.486642     2.478999
      2.471355     2.463712     2.456069     2.448426     2.440783     2.433139     2.425496     2.417853     2.410210     2.402566
      2.394923     2.387280     2.379637     2.371994     2.364350     2.356707     2.349064     2.341421     2.333777     2.326134
      2.318491     2.310848     2.303205     2.295561     2.287918     2.280275     2.272632     2.264988     2.257345     2.249702
      2.242059     2.234416     2.226772     2.219129     2.211486     2.203843     2.196199     2.188556     2.180913     2.173270
      2.165627     2.157983     2.150340     2.142697     2.135054     2.127410     2.119767     2.112124     2.104481     2.096838
      2.089194     2.081551     2.073908     2.066265     2.058621     2.050978     2.043335     2.035692     2.028049     2.020405
      2.012762     2.005119     1.997476     1.989833     1.982190     1.974546     1.966903     1.959260     1.951617     1.943974
      1.936331     1.928688     1.921045     1.913402     1.905759     1.898115     1.890472     1.882829     1.875186     1.867543
      1.859900     1.852257     1.844614     1.836971     1.829327     1.821684     1.814041     1.806398     1.798755     1.791112
      1.783469     1.775826     1.768183     1.760540     1.752896     1.745253     1.737610     1.729967     1.722324     1.714681
      1.707038     1.699395     1.691752     1.684108     1.676465     1.668822     1.661179     1.653536     1.645893     1.638250
      1.630607     1.622964     1.615321     1.607677     1.600034     1.592391     1.584748     1.577105     1.569462     1.561819
      1.554176     1.546533     1.538890     1.531246     1.523603     1.515960     1.508317     1.500674     1.493031     1.485388
      1.477745     1.470102     1.462458     1.454815     1.447172     1.439529     1.431886     1.424243     1.416600     1.408957
      1.401314     1.393671     1.386027     1.378384     1.370741     1.363098     1.355455     1.347812     1.340169     1.332526
      1.324883     1.317240     1.309596     1.301953     1.294310     1.286667     1.279024     1.271381     1.263738     1.256095
      1.248452     1.240808     1.233165     1.225522     1.217879     1.210236     1.202593     1.194950     1.187307     1.179664
      1.172021     1.164377     1.156734     1.149091     1.141448     1.133805     1.126162     1.118519     1.110876     1.103233
      1.095590     1.087946     1.080303     1.072660     1.065017     1.057374     1.049731     1.042088     1.034445     1.026802
      1.019158     1.011515     1.003872     0.996229     0.988586     0.980943     0.973300     0.965657     0.958014     0.950371
      0.942727     0.935084     0.927441     0.919798     0.912155     0.904512     0.896869     0.889226     0.881583     0.873940
      0.866296     0.858653     0.851010     0.843367     0.835724     0.828081     0.820438     0.812795     0.805152     0.797508
      0.789865     0.782222     0.774579     0.766936     0.759293     0.751650     0.744007     0.736364     0.728721     0.721077
      0.713434     0.705791     0.698148     0.690505     0.682862     0.675219     0.667576     0.659933     0.652290     0.644646
      0.637003     0.629360     0.621717     0.614074     0.606431     0.598788     0.591145     0.583502     0.575858     0.568215
      0.560572     0.552929     0.545286     0.537643     0.530000     0.522357     0.514714     0.507071     0.499427     0.491784
      0.484141     0.476498     0.468855     0.461212     0.453569     0.445925     0.438282     0.430639     0.422996     0.415353
      0.407710     0.400067     0.392424     0.384780     0.377137     0.369494     0.361851     0.354208     0.346565     0.338922
      0.331278     0.323635     0.315992     0.308349     0.300706     0.293063     0.285420     0.277777     0.270133     0.262490
      0.254847     0.247204     0.239561     0.231918     0.224275     0.216631     0.208988     0.201345
 NY phased data points follow
   9.72159E+00  3.62468E-01  1.84053E+00  4.68636E-01  7.59272E+00  4.40317E+00  5.33981E+00  1.86453E+00  3.50886E+00  1.70856E+00
   1.03963E+01  5.13713E+00  8.94420E+00  6.04381E+00  2.99358E+00 -6.34123E-01  7.72760E+00  5.82269E-01  8.14964E+00 -3.79948E-01
   7.11812E+00  1.59667E+00  6.58118E+00  6.30094E+00  2.99992E+00  4.20272E+00 -2.36670E+00  7.15718E+00  1.25239E+00  2.54486E+00
   1.66074E-01 -1.41237E+00  4.91713E+00  7.31226E+00  3.86334E-01 -6.92236E-01  1.56220E+00  2.42727E+00  5.45152E+00  1.89394E+00
   4.62454E+00  7.93814E+00  1.42123E+01 -4.35453E-01 -7.16261E-02  1.15231E+01  7.97241E+00  7.41168E+00  3.16786E+00  4.95886E+00
   1.04135E+01  7.79912E+00 -3.22956E+00  7.73048E+00  5.68826E+00  1.31630E+01  5.13764E+00  5.35140E+00  1.11195E+01  7.96640E+00
   2.52537E+00  3.43085E+00  3.34488E+00  5.29925E+00  8.40914E-01  4.91665E+00  5.10110E+00  4.90557E+00  4.39621E-01  6.17462E+00
  -2.33312E-01 -6.84963E-01 -4.92672E-01  4.58097E+00  7.04002E+00  4.34092E+00  1.82181E+00  7.60493E+00  8.82119E+00  6.25611E+00
   1.66382E+00  1.49199E+00  8.22334E+00 -2.27027E+00  2.88624E+00  1.13901E+01  1.73267E+00  6.63546E+00  7.75137E+00  1.39670E+00
   5.83045E+00  1.62446E+00 -2.30423E+00  9.45809E+00  1.73948E+00  8.82271E+00  4.24246E+00  8.69910E+00  7.03449E+00  1.55028E+01
   1.27729E+01  5.28806E+00  9.50240E+00  1.20635E+01  9.42787E+00  7.51929E+00  1.13256E+01  2.97336E+00  1.02410E+00  2.12282E+01
   9.51929E+00  1.02501E+01  2.02921E+00  4.22895E+00  3.01526E-01  4.62172E+00  1.70902E+00  4.38867E+00  4.31270E+00  3.91640E+00
   6.74894E+00  6.18921E+00  7.18595E+00  6.48411E+00  1.27711E+01  1.46665E+01  1.04033E+01  1.03000E+01  5.38932E+00  9.56624E+00
   5.09567E+00  7.42339E+00  4.14059E+00  5.50139E+00  6.16181E+00  7.71110E+00  9.41638E+00  9.43317E-01  4.90132E+00  1.20693E+00
   1.32112E+01  4.59818E+00  1.25584E+01 -9.01400E-01  2.03595E+00  9.44577E+00  2.75584E+00  1.46204E+00  9.89008E+00  7.63779E+00
   1.14000E+01  3.84366E+00  2.88060E+00  3.35297E+00  4.29128E+00  5.37692E+00  4.08716E+00  4.54013E+00  8.24591E+00  1.84246E+00
   7.80038E+00  3.76279E+00 -4.70509E+00 -4.07732E+00 -4.83209E+00 -7.03986E+00 -2.62503E+00 -1.20969E+00 -8.86298E-01 -1.41393E+00
  -7.00122E+00 -4.56866E+00 -3.05968E+00 -1.09432E+00 -4.64099E-02 -3.73729E+00 -3.17384E+00 -7.67134E+00  6.58638E-01  2.39820E+00
   2.66629E-01 -8.96293E+00 -5.30619E+00 -7.18817E+00 -3.24630E+00 -2.62841E+00 -7.58811E+00  3.67049E+00  1.83113E+00  1.11294E+00
  -1.50891E+00 -7.65925E+00 -2.63610E-01 -1.44854E+00 -7.36011E+00 -9.00042E-01 -1.37243E+01  3.78358E+00 -5.26575E+00 -2.26034E+00
  -3.03508E+00  9.17307E-01 -3.16871E+00 -8.83224E+00  3.60877E+00  1.05121E+00 -3.93610E+00  1.23708E+00 -2.74821E+00  3.17009E+00
   5.86009E+00  7.43746E+00  7.25203E+00  3.73233E+00  1.16325E+01  5.57339E+00  4.74896E+00  7.33210E+00  1.58667E+00  2.91345E+00
   1.26326E+01 -5.46777E-01  1.97579E+00  2.20422E+00  5.97725E+00  7.87507E+00  8.11698E-01  4.07387E+00 -2.00130E+00  6.94183E+00
   7.10379E+00  1.54408E+01  6.69366E+00  5.12345E+00 -1.57095E+00  6.53984E+00  1.01428E+01  4.87866E+00  1.17845E+01  4.73888E+00
   1.56664E+01  8.42564E+00  7.15641E+00  1.90412E+01  1.71420E+01  1.15212E+01  1.42023E+01  1.64044E+01  2.24182E+01  2.08040E+01
   2.25049E+01  2.47257E+01  2.46738E+01  2.99938E+01  2.41595E+01  3.56689E+01  2.58227E+01  3.10773E+01  2.84082E+01  3.26459E+01
   2.94219E+01  3.09436E+01  2.20115E+01  1.44211E+01  1.37080E+01  1.03666E+01  1.61798E+01  1.11781E+01  6.46046E+00 -5.60881E-01
   1.31657E+00  7.15626E+00  4.32101E+00  5.23548E+00  3.40802E+00  4.44029E+00  1.31466E+01  5.79726E+00  2.67084E+00  8.97728E+00
   3.72222E+00  1.19297E+01  9.97651E+00  4.47418E+00  1.55669E+00 -2.40111E-01  1.86240E+00  1.68384E+00  6.25299E-02  5.07444E+00
   7.45420E+00  1.71473E+01  1.12482E+01  6.88980E+00  1.25964E+01  9.90911E+00  1.25571E+01  7.05918E+00  1.40049E+01  1.25575E+01
   1.14448E+01  1.26271E+01  1.62978E+01  1.66461E+01  2.21796E+01  1.55544E+01  1.31045E+01  1.28780E+01  1.33328E+01  1.35979E+01
   2.04093E+01  2.48309E+01  1.72609E+01  1.68415E+01  1.32379E+01  1.67942E+01  1.18786E+01  1.24287E+01  1.15059E+01  1.34998E+01
   1.46262E+01  1.45301E+01  1.17954E+01  2.82974E+00  1.21783E+01  1.05618E+01  9.96831E+00  1.33684E+01  3.54938E+00  4.17732E+00
   5.66071E-01  7.14869E+00  1.31063E+01  2.31845E+00  8.09544E+00  7.01607E+00  1.07620E+01  1.09717E+01  2.12103E+01  3.55677E+00
   1.25425E+01  1.06741E+01  1.56772E+01  2.30058E+01  1.54650E+01  1.54024E+01  1.68949E+01  2.74508E+01  1.26307E+01  1.66380E+01
   1.18690E+01  2.91090E+01  2.09830E+01  2.64712E+01  1.95266E+01  1.72671E+01  2.59291E+01  2.25891E+01  1.73695E+01  1.49939E+01
   2.01389E+01  1.79058E+01  2.31879E+01  2.13567E+01  2.43343E+01  2.11992E+01  1.69319E+01  2.26120E+01  2.25665E+01  2.23822E+01
   1.02742E+01  1.73133E+01  1.75908E+01  2.21085E+01  1.25504E+01  1.53947E+01  1.94978E+01  1.46993E+01  1.87983E+01  1.27311E+01
   1.27077E+01  1.15035E+01  1.61228E+01  1.52615E+01  2.30224E+01  1.41268E+01  1.30490E+01  1.19385E+01  9.25158E+00  1.14136E+01
   1.58714E+01  1.04901E+01  2.13213E+01  2.07542E+01  2.15554E+01  4.96565E+00  1.06377E+01  8.48829E+00  2.93873E+01  1.51098E+01
   1.98172E+01  1.98377E+01  2.23990E+01  1.72147E+01  2.02434E+01  1.44419E+01  1.41340E+01  1.14517E+01  1.08921E+01  1.51987E+01
   1.53030E+01  1.17146E+01  1.51781E+01  1.60663E+01  9.46821E+00  1.27984E+01  1.62469E+01  1.08993E+01  1.84696E+01  9.05461E+00
   1.53832E+01  1.02381E+01  1.12566E+01  9.27695E+00  6.97900E+00  1.45249E+01  8.00692E+00  7.18823E+00  8.85873E-01  9.80608E+00
   3.84568E+00  3.75077E-01  4.48004E+00  7.47529E+00  2.61011E-01  4.53306E+00  9.58579E-01  4.78409E+00 -6.40944E+00  1.47721E+00
   8.56033E+00  1.50907E+01  8.10212E+00 -1.72749E+00  1.37989E+00  4.48670E+00 -4.39100E+00  1.15275E+01  5.57678E+00 -1.20251E+00
  -4.94523E-01  3.81363E+00  4.42094E+00  3.62652E+00  1.23826E+00  7.57643E+00  4.51771E+00  7.59678E+00  7.16585E-01  5.27673E+00
   5.53742E+00 -2.18529E+00  1.37006E+00  7.34109E+00 -4.22584E+00 -3.31452E+00  5.03413E+00 -3.45279E+00  2.78021E+00  4.61301E+00
   4.11679E+00  1.98131E+00  4.14097E+00  2.75830E+00 -3.06612E+00 -6.57665E+00 -1.79086E+00 -2.76461E+00  7.56281E+00 -3.51350E+00
   3.45965E+00  2.70993E+00 -3.03093E+00 -3.35357E+00  7.88345E+00 -1.37869E+00  7.43377E+00 -1.30178E+00 -1.01922E+01  3.98820E-02
   3.56020E+00 -6.03589E-01 -3.09844E+00  5.62649E+00  1.67073E+00 -2.97255E+00 -1.33600E+00 -7.64486E+00
 NY points of the fit to the data follow
   5.12899E+00  4.80851E+00  4.82463E+00  4.51076E+00  4.81800E+00  4.48254E+00  5.02492E+00  4.69931E+00  5.34166E+00  4.95711E+00
   5.62950E+00  5.13102E+00  5.73130E+00  5.22583E+00  5.58832E+00  5.02441E+00  5.16567E+00  4.68045E+00  4.69182E+00  4.19827E+00
   4.03514E+00  3.64413E+00  3.50041E+00  3.14055E+00  3.15266E+00  3.01770E+00  3.36390E+00  3.21730E+00  3.70517E+00  3.41378E+00
   3.99583E+00  3.58670E+00  4.12528E+00  3.59247E+00  4.16793E+00  3.80586E+00  4.54290E+00  4.30262E+00  5.01574E+00  4.90719E+00
   5.52816E+00  5.41891E+00  5.89951E+00  5.76636E+00  6.13418E+00  5.90906E+00  6.05609E+00  5.82248E+00  5.90121E+00  5.66473E+00
   5.67280E+00  5.41464E+00  5.38502E+00  5.10139E+00  4.99710E+00  4.62390E+00  4.48595E+00  4.12773E+00  4.01666E+00  3.73145E+00
   3.77386E+00  3.67662E+00  3.89322E+00  3.85925E+00  4.08487E+00  4.00608E+00  4.20963E+00  4.06930E+00  4.23320E+00  4.04918E+00
   4.19396E+00  3.99402E+00  4.10592E+00  3.96216E+00  4.13728E+00  3.95111E+00  4.07157E+00  3.75029E+00  3.81821E+00  3.38199E+00
   3.40946E+00  2.91311E+00  2.93146E+00  2.42274E+00  2.46510E+00  1.98455E+00  2.07932E+00  1.66628E+00  1.78585E+00  1.52808E+00
   1.96221E+00  2.53292E+00  2.97235E+00  4.11770E+00  4.39785E+00  6.14865E+00  6.17586E+00  8.39070E+00  8.00056E+00  1.03475E+01
   9.49268E+00  1.15784E+01  1.02051E+01  1.17213E+01  1.00102E+01  1.08929E+01  9.09469E+00  9.39497E+00  7.72954E+00  7.60090E+00
   6.14292E+00  5.58551E+00  4.47525E+00  3.79026E+00  3.18393E+00  3.00013E+00  3.13604E+00  3.63814E+00  4.12040E+00  4.90369E+00
   5.55511E+00  6.38018E+00  7.11263E+00  7.74071E+00  8.42719E+00  8.69309E+00  9.22341E+00  9.03829E+00  9.35792E+00  8.76846E+00
   8.87764E+00  8.00369E+00  7.94310E+00  6.95143E+00  6.76790E+00  5.69945E+00  5.43924E+00  4.48966E+00  4.24021E+00  3.52158E+00
   3.37472E+00  3.10107E+00  3.06400E+00  2.87952E+00  2.86596E+00  2.69116E+00  2.68545E+00  2.53282E+00  2.51079E+00  2.33666E+00
   2.29371E+00  2.10979E+00  2.04831E+00  1.87279E+00  1.80520E+00  1.64530E+00  1.56837E+00  1.40163E+00  1.27706E+00  1.10840E+00
   9.91967E-01  8.26756E-01  7.29459E-01  5.56000E-01  4.53057E-01  2.95523E-01  2.06928E-01  6.22199E-02 -2.23994E-02 -1.62159E-01
  -2.45316E-01 -3.79829E-01 -4.12471E-01 -4.94676E-01 -5.03834E-01 -5.59841E-01 -5.32340E-01 -5.55547E-01 -4.57025E-01 -4.27819E-01
  -2.49361E-01 -1.73215E-01  1.27075E-02  1.21155E-01  2.66057E-01  3.76998E-01  4.67952E-01  5.87940E-01  6.34370E-01  7.44510E-01
   7.18958E-01  8.38887E-01  7.59477E-01  8.95629E-01  8.02691E-01  9.34511E-01  8.28438E-01  8.76985E-01  7.62834E-01  7.84202E-01
   6.79565E-01  6.69455E-01  5.72389E-01  5.45057E-01  4.78483E-01  4.75306E-01  4.74606E-01  5.11002E-01  5.36254E-01  6.22029E-01
   6.86578E-01  8.33684E-01  9.60679E-01  1.18978E+00  1.41706E+00  1.72559E+00  2.01866E+00  2.38276E+00  2.71158E+00  3.05172E+00
   3.35780E+00  3.64792E+00  3.90945E+00  4.13000E+00  4.33001E+00  4.54817E+00  4.72915E+00  4.97867E+00  5.15393E+00  5.46715E+00
   5.58989E+00  5.93368E+00  6.04738E+00  6.44182E+00  6.56714E+00  6.99905E+00  7.17116E+00  7.61521E+00  7.87500E+00  8.34482E+00
   8.72043E+00  9.22356E+00  9.73012E+00  1.04764E+01  1.21404E+01  1.33103E+01  1.54512E+01  1.68696E+01  1.93629E+01  2.09556E+01
   2.34789E+01  2.50398E+01  2.70370E+01  2.82682E+01  2.93209E+01  2.99950E+01  2.97997E+01  2.97762E+01  2.84678E+01  2.78321E+01
   2.57401E+01  2.46651E+01  2.22182E+01  2.08536E+01  1.81496E+01  1.66236E+01  1.41528E+01  1.27139E+01  1.07712E+01  9.66046E+00
   8.85731E+00  8.15271E+00  7.69821E+00  7.12514E+00  6.77323E+00  6.26230E+00  5.99597E+00  5.55315E+00  5.37219E+00  4.99664E+00
   4.91632E+00  4.63353E+00  4.65562E+00  4.47843E+00  4.61351E+00  4.57949E+00  4.85522E+00  4.98332E+00  5.40348E+00  5.71422E+00
   6.27830E+00  6.75414E+00  7.43985E+00  8.07529E+00  8.86269E+00  9.62839E+00  1.04783E+01  1.13221E+01  1.21832E+01  1.30221E+01
   1.38126E+01  1.45520E+01  1.51856E+01  1.57400E+01  1.61470E+01  1.64516E+01  1.66034E+01  1.66462E+01  1.65439E+01  1.63456E+01
   1.60341E+01  1.56642E+01  1.52424E+01  1.48383E+01  1.45424E+01  1.45316E+01  1.42046E+01  1.40635E+01  1.36929E+01  1.33747E+01
   1.28930E+01  1.21400E+01  1.13331E+01  1.02635E+01  9.81005E+00  8.33948E+00  8.30904E+00  6.52100E+00  7.17207E+00  5.31653E+00
   6.82427E+00  5.09488E+00  7.39108E+00  5.91741E+00  8.72219E+00  7.44080E+00  1.04356E+01  9.53233E+00  1.24123E+01  1.19352E+01
   1.45185E+01  1.46003E+01  1.66288E+01  1.66515E+01  1.79329E+01  1.79187E+01  1.85971E+01  1.86214E+01  1.88424E+01  1.91365E+01
   1.95093E+01  1.99381E+01  2.03704E+01  2.07889E+01  2.11675E+01  2.15008E+01  2.17698E+01  2.19740E+01  2.20990E+01  2.21485E+01
   2.21121E+01  2.19976E+01  2.17985E+01  2.15261E+01  2.11775E+01  2.07670E+01  2.02944E+01  1.97763E+01  1.92141E+01  1.86257E+01
   1.80134E+01  1.73953E+01  1.67734E+01  1.61657E+01  1.55733E+01  1.50129E+01  1.44847E+01  1.40041E+01  1.35697E+01  1.31955E+01
   1.28787E+01  1.26315E+01  1.24495E+01  1.23434E+01  1.23067E+01  1.23479E+01  1.24584E+01  1.26442E+01  1.28938E+01  1.32102E+01
   1.35787E+01  1.39992E+01  1.44538E+01  1.49392E+01  1.54351E+01  1.59359E+01  1.64199E+01  1.68809E+01  1.72973E+01  1.76642E+01
   1.79622E+01  1.81896E+01  1.83306E+01  1.83881E+01  1.83511E+01  1.82275E+01  1.80116E+01  1.77156E+01  1.73380E+01  1.68948E+01
   1.63872E+01  1.58332E+01  1.52351E+01  1.46114E+01  1.39639E+01  1.33100E+01  1.26504E+01  1.20006E+01  1.13589E+01  1.07389E+01
   1.01368E+01  9.56378E+00  9.01423E+00  8.49759E+00  8.00653E+00  7.54919E+00  7.11713E+00  6.71757E+00  6.34137E+00  5.99523E+00
   5.66967E+00  5.37115E+00  5.09009E+00  4.83293E+00  4.59014E+00  4.36825E+00  4.15788E+00  3.96572E+00  3.78258E+00  3.61533E+00
   3.45495E+00  3.30851E+00  3.16714E+00  3.03807E+00  2.91262E+00  2.79813E+00  2.68603E+00  2.58381E+00  2.48299E+00  2.39115E+00
   2.29992E+00  2.21693E+00  2.13388E+00  2.05847E+00  1.98246E+00  1.91360E+00  1.84368E+00  1.78049E+00  1.71587E+00  1.65763E+00
   1.59765E+00  1.54376E+00  1.48786E+00  1.43780E+00  1.38550E+00  1.33884E+00  1.28975E+00  1.24611E+00  1.19987E+00  1.15893E+00
   1.11524E+00  1.07671E+00  1.03532E+00  9.98971E-01  9.59645E-01  9.25247E-01  8.87783E-01  8.55155E-01  8.19377E-01  7.88349E-01
   7.54091E-01  7.24510E-01  6.91633E-01  6.63366E-01  6.31740E-01  6.04656E-01  5.74155E-01  5.48141E-01  5.18657E-01  4.93605E-01
   4.65029E-01  4.40828E-01  4.13052E-01  3.89602E-01  3.62527E-01  3.39718E-01  3.13226E-01  2.90939E-01
 NY background values follow
     6.421E-01    6.377E-01    6.332E-01    6.287E-01    6.243E-01    6.198E-01    6.153E-01    6.109E-01    6.064E-01    6.019E-01
     5.975E-01    5.930E-01    5.885E-01    5.841E-01    5.796E-01    5.751E-01    5.707E-01    5.662E-01    5.617E-01    5.573E-01
     5.528E-01    5.483E-01    5.438E-01    5.394E-01    5.349E-01    5.304E-01    5.260E-01    5.215E-01    5.170E-01    5.126E-01
     5.081E-01    5.036E-01    4.991E-01    4.947E-01    4.902E-01    4.857E-01    4.813E-01    4.768E-01    4.723E-01    4.678E-01
     4.634E-01    4.589E-01    4.544E-01    4.500E-01    4.455E-01    4.410E-01    4.365E-01    4.321E-01    4.276E-01    4.231E-01
     4.186E-01    4.142E-01    4.097E-01    4.052E-01    4.007E-01    3.963E-01    3.918E-01    3.873E-01    3.828E-01    3.784E-01
     3.739E-01    3.694E-01    3.649E-01    3.605E-01    3.560E-01    3.515E-01    3.470E-01    3.426E-01    3.381E-01    3.336E-01
     3.291E-01    3.247E-01    3.202E-01    3.157E-01    3.112E-01    3.068E-01    3.023E-01    2.978E-01    2.933E-01    2.889E-01
     2.844E-01    2.799E-01    2.754E-01    2.710E-01    2.665E-01    2.620E-01    2.575E-01    2.530E-01    2.486E-01    2.441E-01
     2.396E-01    2.351E-01    2.307E-01    2.262E-01    2.217E-01    2.172E-01    2.128E-01    2.083E-01    2.038E-01    1.993E-01
     1.949E-01    1.904E-01    1.859E-01    1.814E-01    1.770E-01    1.725E-01    1.680E-01    1.635E-01    1.591E-01    1.546E-01
     1.501E-01    1.456E-01    1.412E-01    1.367E-01    1.322E-01    1.277E-01    1.233E-01    1.188E-01    1.143E-01    1.098E-01
     1.054E-01    1.009E-01    9.641E-02    9.194E-02    8.746E-02    8.299E-02    7.852E-02    7.404E-02    6.957E-02    6.510E-02
     6.063E-02    5.615E-02    5.168E-02    4.721E-02    4.274E-02    3.826E-02    3.379E-02    2.932E-02    2.485E-02    2.038E-02
     1.591E-02    1.143E-02    6.963E-03    2.492E-03   -1.978E-03   -6.449E-03   -1.092E-02   -1.539E-02   -1.986E-02   -2.433E-02
    -2.880E-02   -3.327E-02   -3.774E-02   -4.220E-02   -4.667E-02   -5.114E-02   -5.561E-02   -6.008E-02   -6.454E-02   -6.901E-02
    -7.348E-02   -7.795E-02   -8.241E-02   -8.688E-02   -9.134E-02   -9.581E-02   -1.003E-01   -1.047E-01   -1.092E-01   -1.137E-01
    -1.181E-01   -1.226E-01   -1.271E-01   -1.315E-01   -1.360E-01   -1.405E-01   -1.449E-01   -1.494E-01   -1.538E-01   -1.583E-01
    -1.628E-01   -1.672E-01   -1.717E-01   -1.761E-01   -1.806E-01   -1.851E-01   -1.895E-01   -1.940E-01   -1.984E-01   -2.029E-01
    -2.074E-01   -2.118E-01   -2.163E-01   -2.207E-01   -2.252E-01   -2.296E-01   -2.341E-01   -2.386E-01   -2.430E-01   -2.475E-01
    -2.519E-01   -2.564E-01   -2.608E-01   -2.653E-01   -2.697E-01   -2.742E-01   -2.786E-01   -2.831E-01   -2.875E-01   -2.920E-01
    -2.964E-01   -3.009E-01   -3.053E-01   -3.098E-01   -3.142E-01   -3.187E-01   -3.231E-01   -3.276E-01   -3.320E-01   -3.365E-01
    -3.409E-01   -3.454E-01   -3.498E-01   -3.543E-01   -3.587E-01   -3.631E-01   -3.676E-01   -3.720E-01   -3.765E-01   -3.809E-01
    -3.854E-01   -3.898E-01   -3.942E-01   -3.987E-01   -4.031E-01   -4.076E-01   -4.120E-01   -4.164E-01   -4.209E-01   -4.253E-01
    -4.298E-01   -4.342E-01   -4.386E-01   -4.431E-01   -4.475E-01   -4.519E-01   -4.564E-01   -4.608E-01   -4.652E-01   -4.697E-01
    -4.741E-01   -4.785E-01   -4.830E-01   -4.874E-01   -4.918E-01   -4.962E-01   -5.007E-01   -5.051E-01   -5.095E-01   -5.139E-01
    -5.184E-01   -5.228E-01   -5.272E-01   -5.316E-01   -5.361E-01   -5.405E-01   -5.449E-01   -5.493E-01   -5.538E-01   -5.582E-01
    -5.626E-01   -5.670E-01   -5.714E-01   -5.759E-01   -5.803E-01   -5.847E-01   -5.891E-01   -5.935E-01   -5.979E-01   -6.024E-01
    -6.068E-01   -6.112E-01   -6.156E-01   -6.200E-01   -6.244E-01   -6.288E-01   -6.332E-01   -6.376E-01   -6.421E-01   -6.465E-01
    -6.509E-01   -6.553E-01   -6.597E-01   -6.641E-01   -6.685E-01   -6.729E-01   -6.773E-01   -6.817E-01   -6.861E-01   -6.905E-01
    -6.949E-01   -6.993E-01   -7.037E-01   -7.081E-01   -7.125E-01   -7.169E-01   -7.213E-01   -7.257E-01   -7.301E-01   -7.345E-01
    -7.389E-01   -7.433E-01   -7.476E-01   -7.520E-01   -7.564E-01   -7.608E-01   -7.652E-01   -7.696E-01   -7.740E-01   -7.784E-01
    -7.828E-01   -7.871E-01   -7.915E-01   -7.959E-01   -8.003E-01   -8.047E-01   -8.091E-01   -8.134E-01   -8.178E-01   -8.222E-01
    -8.266E-01   -8.309E-01   -8.353E-01   -8.397E-01   -8.441E-01   -8.484E-01   -8.528E-01   -8.572E-01   -8.616E-01   -8.659E-01
    -8.703E-01   -8.747E-01   -8.790E-01   -8.834E-01   -8.878E-01   -8.921E-01   -8.965E-01   -9.009E-01   -9.052E-01   -9.096E-01
    -9.140E-01   -9.183E-01   -9.227E-01   -9.270E-01   -9.314E-01   -9.358E-01   -9.401E-01   -9.445E-01   -9.488E-01   -9.532E-01
    -9.575E-01   -9.619E-01   -9.662E-01   -9.706E-01   -9.749E-01   -9.793E-01   -9.836E-01   -9.880E-01   -9.923E-01   -9.967E-01
    -1.001E+00   -1.005E+00   -1.010E+00   -1.014E+00   -1.018E+00   -1.023E+00   -1.027E+00   -1.031E+00   -1.036E+00   -1.040E+00
    -1.044E+00   -1.049E+00   -1.053E+00   -1.057E+00   -1.062E+00   -1.066E+00   -1.070E+00   -1.075E+00   -1.079E+00   -1.083E+00
    -1.088E+00   -1.092E+00   -1.096E+00   -1.101E+00   -1.105E+00   -1.109E+00   -1.114E+00   -1.118E+00   -1.122E+00   -1.127E+00
    -1.131E+00   -1.135E+00   -1.139E+00   -1.144E+00   -1.148E+00   -1.152E+00   -1.157E+00   -1.161E+00   -1.165E+00   -1.170E+00
    -1.174E+00   -1.178E+00   -1.183E+00   -1.187E+00   -1.191E+00   -1.195E+00   -1.200E+00   -1.204E+00   -1.208E+00   -1.213E+00
    -1.217E+00   -1.221E+00   -1.226E+00   -1.230E+00   -1.234E+00   -1.238E+00   -1.243E+00   -1.247E+00   -1.251E+00   -1.256E+00
    -1.260E+00   -1.264E+00   -1.268E+00   -1.273E+00   -1.277E+00   -1.281E+00   -1.285E+00   -1.290E+00   -1.294E+00   -1.298E+00
    -1.303E+00   -1.307E+00   -1.311E+00   -1.315E+00   -1.320E+00   -1.324E+00   -1.328E+00   -1.332E+00   -1.337E+00   -1.341E+00
    -1.345E+00   -1.349E+00   -1.354E+00   -1.358E+00   -1.362E+00   -1.367E+00   -1.371E+00   -1.375E+00   -1.379E+00   -1.384E+00
    -1.388E+00   -1.392E+00   -1.396E+00   -1.400E+00   -1.405E+00   -1.409E+00   -1.413E+00   -1.417E+00   -1.422E+00   -1.426E+00
    -1.430E+00   -1.434E+00   -1.439E+00   -1.443E+00   -1.447E+00   -1.451E+00   -1.456E+00   -1.460E+00   -1.464E+00   -1.468E+00
    -1.472E+00   -1.477E+00   -1.481E+00   -1.485E+00   -1.489E+00   -1.494E+00   -1.498E+00   -1.502E+00   -1.506E+00   -1.510E+00
    -1.515E+00   -1.519E+00   -1.523E+00   -1.527E+00   -1.531E+00   -1.536E+00   -1.540E+00   -1.544E+00
 Ala      Conc. = 1.03E+03
