 LCModel (Version 6.3-1L) Copyright: S.W. Provencher.          Ref.: Magn. Reson. Med. 30:672-679 (1993).                
 Slice#2 Row#12 Col#1  PD_24_press_2_raw_act
 36 lines in following concentration table = NCONC+1
    Conc.  %SD /Cr+PCr  Metabolite                                         
   98.093  23%   0.000 Ala                                                 
    2.606  50%   0.000 Asp                                                 
    0.000 999%   0.000 Cr                                                  
    0.000 999%   0.000 PCr                                                 
    1.516  51%   0.000 GABA                                                
    1.481  53%   0.000 Glc                                                 
    0.000 999%   0.000 Gln                                                 
  136.798  28%   0.000 Glu                                                 
    0.000 999%   0.000 GPC                                                 
    0.000 999%   0.000 PCh                                                 
    0.000 999%   0.000 GSH                                                 
   15.212 120%   0.000 Ins                                                 
    0.000 999%   0.000 Lac                                                 
    0.000 999%   0.000 NAA                                                 
   48.650  12%   0.000 NAAG                                                
    0.465  55%   0.000 Scyllo                                              
    2.484  52%   0.000 Tau                                                 
    2.169 188%   0.000 -CrCH2                                              
    0.000 999%   0.000 GPC+PCh                                             
   48.650  12%   0.000 NAA+NAAG                                            
    0.000 999%   0.000 Cr+PCr                                              
  136.798  28%   0.000 Glu+Gln                                             
 6.18E+03  11%   0.000 Lip13a                                              
    0.000 999%   0.000 Lip13b                                              
 1.78E+03  16%   0.000 Lip09                                               
    0.000 999%   0.000 MM09                                                
 1.23E+03  16%   0.000 Lip20                                               
    0.000 999%   0.000 MM20                                                
    0.000 999%   0.000 MM12                                                
 2.98E+03  11%   0.000 MM14                                                
 3.38E+03   4%   0.000+MM17                                                
 6.18E+03  11%   0.000 Lip13a+Lip13b                                       
 9.16E+03   9%   0.000 MM14+Lip13a+Lip13b+MM12                             
 1.78E+03  16%   0.000 MM09+Lip09                                          
 1.23E+03  16%   0.000 MM20+Lip20                                          
   6 lines in following misc. output table
  FWHM = 0.107 ppm    S/N =   5                                            
  Data shift = 0.268 ppm                                                   
  Ph: 179 deg     200.5 deg/ppm                                            
  alphaB,S = 2.8E-01,   4.5E+00                                            
   13 spline knots.   Ns = 9(2)                                            
   2 inflections.     2 extrema                                            
  498 points on ppm-axis = NY
      4.000000     3.992357     3.984714     3.977070     3.969427     3.961784     3.954141     3.946497     3.938854     3.931211
      3.923568     3.915925     3.908281     3.900638     3.892995     3.885352     3.877708     3.870065     3.862422     3.854779
      3.847136     3.839492     3.831849     3.824206     3.816563     3.808919     3.801276     3.793633     3.785990     3.778347
      3.770703     3.763060     3.755417     3.747774     3.740130     3.732487     3.724844     3.717201     3.709558     3.701914
      3.694271     3.686628     3.678985     3.671341     3.663698     3.656055     3.648412     3.640769     3.633125     3.625482
      3.617839     3.610196     3.602552     3.594909     3.587266     3.579623     3.571980     3.564336     3.556693     3.549050
      3.541407     3.533763     3.526120     3.518477     3.510834     3.503191     3.495547     3.487904     3.480261     3.472618
      3.464974     3.457331     3.449688     3.442045     3.434402     3.426758     3.419115     3.411472     3.403829     3.396185
      3.388542     3.380899     3.373256     3.365613     3.357969     3.350326     3.342683     3.335040     3.327396     3.319753
      3.312110     3.304467     3.296824     3.289180     3.281537     3.273894     3.266251     3.258607     3.250964     3.243321
      3.235678     3.228034     3.220391     3.212748     3.205105     3.197462     3.189818     3.182175     3.174532     3.166889
      3.159245     3.151602     3.143959     3.136316     3.128673     3.121029     3.113386     3.105743     3.098100     3.090456
      3.082813     3.075170     3.067527     3.059884     3.052240     3.044597     3.036954     3.029311     3.021667     3.014024
      3.006381     2.998738     2.991095     2.983451     2.975808     2.968165     2.960522     2.952878     2.945235     2.937592
      2.929949     2.922306     2.914662     2.907019     2.899376     2.891733     2.884089     2.876446     2.868803     2.861160
      2.853517     2.845873     2.838230     2.830587     2.822944     2.815300     2.807657     2.800014     2.792371     2.784728
      2.777084     2.769441     2.761798     2.754155     2.746511     2.738868     2.731225     2.723582     2.715939     2.708295
      2.700652     2.693009     2.685366     2.677722     2.670079     2.662436     2.654793     2.647150     2.639506     2.631863
      2.624220     2.616577     2.608933     2.601290     2.593647     2.586004     2.578361     2.570717     2.563074     2.555431
      2.547788     2.540144     2.532501     2.524858     2.517215     2.509572     2.501928     2.494285     2.486642     2.478999
      2.471355     2.463712     2.456069     2.448426     2.440783     2.433139     2.425496     2.417853     2.410210     2.402566
      2.394923     2.387280     2.379637     2.371994     2.364350     2.356707     2.349064     2.341421     2.333777     2.326134
      2.318491     2.310848     2.303205     2.295561     2.287918     2.280275     2.272632     2.264988     2.257345     2.249702
      2.242059     2.234416     2.226772     2.219129     2.211486     2.203843     2.196199     2.188556     2.180913     2.173270
      2.165627     2.157983     2.150340     2.142697     2.135054     2.127410     2.119767     2.112124     2.104481     2.096838
      2.089194     2.081551     2.073908     2.066265     2.058621     2.050978     2.043335     2.035692     2.028049     2.020405
      2.012762     2.005119     1.997476     1.989833     1.982190     1.974546     1.966903     1.959260     1.951617     1.943974
      1.936331     1.928688     1.921045     1.913402     1.905759     1.898115     1.890472     1.882829     1.875186     1.867543
      1.859900     1.852257     1.844614     1.836971     1.829327     1.821684     1.814041     1.806398     1.798755     1.791112
      1.783469     1.775826     1.768183     1.760540     1.752896     1.745253     1.737610     1.729967     1.722324     1.714681
      1.707038     1.699395     1.691752     1.684108     1.676465     1.668822     1.661179     1.653536     1.645893     1.638250
      1.630607     1.622964     1.615321     1.607677     1.600034     1.592391     1.584748     1.577105     1.569462     1.561819
      1.554176     1.546533     1.538890     1.531246     1.523603     1.515960     1.508317     1.500674     1.493031     1.485388
      1.477745     1.470102     1.462458     1.454815     1.447172     1.439529     1.431886     1.424243     1.416600     1.408957
      1.401314     1.393671     1.386027     1.378384     1.370741     1.363098     1.355455     1.347812     1.340169     1.332526
      1.324883     1.317240     1.309596     1.301953     1.294310     1.286667     1.279024     1.271381     1.263738     1.256095
      1.248452     1.240808     1.233165     1.225522     1.217879     1.210236     1.202593     1.194950     1.187307     1.179664
      1.172021     1.164377     1.156734     1.149091     1.141448     1.133805     1.126162     1.118519     1.110876     1.103233
      1.095590     1.087946     1.080303     1.072660     1.065017     1.057374     1.049731     1.042088     1.034445     1.026802
      1.019158     1.011515     1.003872     0.996229     0.988586     0.980943     0.973300     0.965657     0.958014     0.950371
      0.942727     0.935084     0.927441     0.919798     0.912155     0.904512     0.896869     0.889226     0.881583     0.873940
      0.866296     0.858653     0.851010     0.843367     0.835724     0.828081     0.820438     0.812795     0.805152     0.797508
      0.789865     0.782222     0.774579     0.766936     0.759293     0.751650     0.744007     0.736364     0.728721     0.721077
      0.713434     0.705791     0.698148     0.690505     0.682862     0.675219     0.667576     0.659933     0.652290     0.644646
      0.637003     0.629360     0.621717     0.614074     0.606431     0.598788     0.591145     0.583502     0.575858     0.568215
      0.560572     0.552929     0.545286     0.537643     0.530000     0.522357     0.514714     0.507071     0.499427     0.491784
      0.484141     0.476498     0.468855     0.461212     0.453569     0.445925     0.438282     0.430639     0.422996     0.415353
      0.407710     0.400067     0.392424     0.384780     0.377137     0.369494     0.361851     0.354208     0.346565     0.338922
      0.331278     0.323635     0.315992     0.308349     0.300706     0.293063     0.285420     0.277777     0.270133     0.262490
      0.254847     0.247204     0.239561     0.231918     0.224275     0.216631     0.208988     0.201345
 NY phased data points follow
  -3.01625E+00 -1.71231E+00 -1.49321E+00 -2.31455E+00 -6.53763E-01 -5.65242E-01 -1.86100E+00 -2.15006E+00 -1.81340E+00 -2.10731E+00
  -1.85530E+00 -2.57745E+00 -2.25081E+00 -1.09461E+00 -2.04456E+00 -3.24767E+00 -4.10737E+00 -3.19122E+00 -4.04929E+00 -3.06763E+00
  -4.64848E+00 -4.73750E+00 -4.39607E+00 -4.48597E+00 -4.36082E+00 -3.99276E+00 -5.12073E+00 -4.64718E+00 -3.27735E+00 -3.92823E+00
  -3.47451E+00 -4.81410E+00 -4.96651E+00 -4.30097E+00 -3.67195E+00 -4.09575E+00 -4.15672E+00 -3.16044E+00 -3.23604E+00 -4.69255E+00
  -3.39823E+00 -5.95930E+00 -3.36885E+00 -3.84820E+00 -3.15830E+00 -5.58679E+00 -5.67385E+00 -3.82819E+00 -2.96678E+00 -3.01944E+00
  -5.19543E+00 -3.71235E+00 -3.64776E+00 -5.77164E+00 -3.75402E+00 -5.42747E+00 -4.75154E+00 -3.62521E+00 -3.91913E+00 -2.82295E+00
  -3.42776E+00 -2.56019E+00 -4.49852E+00 -3.43473E+00 -4.23696E+00 -3.26752E+00 -2.77690E+00 -5.25577E+00 -4.97887E+00 -5.94249E+00
  -3.59743E+00 -5.68956E+00 -4.50823E+00 -4.01180E+00 -2.56929E+00 -5.12991E+00 -4.95833E+00 -4.86056E+00 -5.83040E+00 -4.33053E+00
  -2.74265E+00 -2.94629E+00 -1.80622E+00 -3.04866E+00 -2.63451E+00 -2.83142E+00 -4.80839E-01 -3.02346E+00 -1.89598E+00 -3.42061E+00
  -2.79375E+00 -3.87912E+00 -2.81768E+00 -3.84070E+00 -3.57373E+00 -2.82076E+00 -2.84776E+00 -2.08368E+00 -9.93195E-01 -2.13838E+00
  -1.06673E+00 -2.21127E+00 -4.96601E-01  8.23380E-01 -2.96894E+00 -1.00800E+00 -4.32125E-01 -2.12463E+00  5.99506E-01 -5.87979E-01
  -2.22175E+00 -1.17738E+00 -5.75825E-01 -6.11860E-01 -1.86140E-01 -3.07682E+00  4.48186E-01 -2.75856E+00  1.98220E-01  5.43049E-01
   3.95100E-01  8.97496E-01 -9.81718E-01  7.06574E-01  1.82086E+00 -1.63737E+00  2.02304E+00  2.08085E-02  2.19913E+00  3.87017E-01
   3.46248E-01  1.45850E+00  2.73198E+00  1.09619E+00  3.18117E+00  3.32391E+00  3.30402E+00  3.76433E+00  8.74489E-01  3.73779E+00
   2.42115E+00  3.22533E+00  5.16858E+00  3.83342E+00  3.80552E+00  4.33619E+00  5.33462E+00  4.02277E+00  5.18100E+00  5.63235E+00
   5.54791E+00  7.04007E+00  6.48446E+00  5.93159E+00  7.47514E+00  6.11827E+00  6.74476E+00  6.34949E+00  1.02621E+01  5.31300E+00
   7.27994E+00  5.68188E+00  7.59184E+00  7.89669E+00  6.89358E+00  7.82336E+00  7.42655E+00  7.78964E+00  7.08920E+00  7.33348E+00
   7.35403E+00  7.91516E+00  7.38372E+00  5.02439E+00  5.61415E+00  7.91157E+00  8.38719E+00  5.94738E+00  8.19657E+00  4.77184E+00
   5.51441E+00  4.95125E+00  6.03312E+00  4.24732E+00  4.18074E+00  3.13824E+00  4.47791E+00  2.44128E+00  2.13348E+00  1.62704E+00
   3.00585E+00  8.14934E-01  2.13778E-01 -1.03906E-01 -2.15625E-01 -1.16287E+00 -1.17767E+00 -1.36603E+00  3.12223E-01 -6.14462E-01
   3.41345E-01 -1.96820E+00 -1.68710E+00 -3.06891E+00 -2.03310E+00 -2.99699E+00 -1.22955E+00 -2.06113E+00 -2.91908E+00 -2.19679E+00
  -2.59328E+00 -2.72272E+00 -5.77194E-01 -3.36875E+00 -1.70799E+00 -3.61111E+00 -5.20644E+00 -2.30564E+00 -2.30574E+00 -3.21197E+00
  -2.03260E+00 -4.94060E-02 -1.14284E+00  1.26115E+00  1.99672E-01 -2.02301E-02  1.86366E+00  8.28643E-01  8.80032E-01  4.54190E-01
   7.40472E-01 -1.23326E+00  1.01568E+00  2.05104E+00  2.17299E+00  6.13262E-01  5.47830E-01  8.56027E-01 -1.46438E-02  5.70578E-01
   1.55411E-01  4.96327E-01  1.36705E+00 -1.50202E+00  2.18930E+00  9.06917E-01 -5.36825E-01 -7.00081E-01  1.35653E+00  4.26146E-01
  -1.57703E-02 -6.36647E-01 -9.19870E-01 -1.74425E+00 -1.21164E+00 -1.49816E+00 -1.80607E+00 -4.19555E+00 -2.15128E+00 -3.02288E+00
  -3.54946E+00 -5.80710E+00 -6.58488E+00 -6.63848E+00 -8.47500E+00 -9.38226E+00 -1.17511E+01 -1.36286E+01 -1.37008E+01 -1.33863E+01
  -1.41500E+01 -1.85307E+01 -1.90463E+01 -2.06920E+01 -2.06236E+01 -1.97282E+01 -2.15679E+01 -2.05309E+01 -1.98418E+01 -1.97899E+01
  -1.76460E+01 -1.74439E+01 -1.55393E+01 -1.33538E+01 -1.03916E+01 -8.42660E+00 -3.47328E+00 -4.03331E+00 -1.48709E+00  1.21140E+00
   3.54071E+00  4.22329E+00  6.87395E+00  7.10147E+00  8.22678E+00  9.12543E+00  9.91948E+00  8.21684E+00  1.00750E+01  1.06374E+01
   1.15187E+01  9.05021E+00  1.08596E+01  1.05210E+01  1.01185E+01  9.80952E+00  1.00302E+01  8.76696E+00  8.38104E+00  8.50595E+00
   8.15712E+00  8.53818E+00  6.57640E+00  7.53180E+00  7.56848E+00  4.97324E+00  7.71969E+00  6.27193E+00  5.54935E+00  6.26467E+00
   5.17011E+00  3.74755E+00  4.01408E+00  5.19484E+00  5.21174E+00  3.13091E+00  2.52555E+00  3.76191E+00  2.37030E+00  2.62908E+00
   2.36271E+00  3.02442E-01  2.99458E+00 -1.41947E-01  1.43018E+00  5.24974E-02  1.40308E+00  5.75851E-01 -2.97997E-01  2.50620E+00
   1.54715E+00  1.05009E+00  2.06091E+00  3.30535E+00  1.81734E+00  1.05054E+00  1.10627E+00  8.93406E-01  2.68456E+00  4.09728E-01
   6.69748E-01  1.08967E+00  4.00065E-01  2.99955E-01  1.74384E+00 -1.32251E+00  1.49748E+00  1.56700E+00 -6.61299E-01  1.37168E+00
   3.39094E-01 -2.50154E-01 -2.29588E-01  1.98909E+00  1.58835E+00 -9.55102E-01  6.64285E-01  1.42376E+00  1.62000E+00  1.46078E-01
  -9.16905E-01  5.06450E-01  1.67280E+00  9.19196E-01  2.45770E-01  6.26827E-01 -2.83922E-01  7.10869E-01  3.06559E-01  9.29592E-01
  -2.37633E+00 -5.91234E-01 -4.78975E-01  3.62817E-02  1.72935E+00  7.15314E-01 -6.98176E-01 -1.31628E-01  1.72733E+00 -7.18632E-01
  -7.61825E-01 -1.10355E+00 -4.23981E-01 -1.76758E+00 -1.83542E+00 -2.11734E+00 -3.40500E-01 -1.18236E+00  1.18479E+00 -7.67267E-01
   6.85699E-02 -1.49915E+00 -5.21810E-02 -8.44423E-02  4.69852E-01 -4.95105E-01 -7.93815E-01 -8.95343E-01 -8.31288E-01 -9.81419E-01
  -3.55784E-01 -1.68316E+00 -1.53247E+00  4.28120E-01  1.92260E-01  4.10888E-01 -4.23824E-01  1.02249E+00  1.26516E+00 -2.73748E-01
  -1.55151E-01 -6.19760E-01 -4.30828E-01 -5.36447E-01 -4.40092E-01 -1.82935E+00 -3.87789E-01 -1.74094E+00 -1.18477E+00 -1.76623E+00
  -6.18934E-02  4.79280E-02 -1.84116E+00 -5.09935E-01  1.53456E-01 -2.94375E-01 -1.97560E+00 -2.38497E-01 -1.38206E+00 -1.16373E+00
  -4.53494E-02 -5.95497E-01 -5.21027E-01 -1.61384E-01 -2.06158E+00 -9.58894E-01  1.26853E+00 -6.10725E-01 -5.44804E-01  1.54476E+00
  -2.16843E+00 -7.98213E-01 -2.53048E+00 -3.25115E-01 -6.55448E-01 -1.22358E+00 -1.40212E+00 -9.59004E-01 -1.14285E+00 -8.01591E-01
  -1.70246E+00 -3.02226E-01 -1.31075E+00 -4.97898E-01 -7.91000E-01 -8.66268E-01 -2.43882E-01 -1.84637E+00 -9.91742E-01 -1.75196E+00
  -5.26499E-01  9.64486E-01  5.00490E-01 -1.07857E+00  5.79032E-01 -1.04189E+00  1.82813E-01 -2.98704E+00 -1.37204E+00 -2.56933E-01
   2.51251E-01 -7.80187E-01 -6.67743E-01 -2.49431E+00 -5.52448E-01 -5.40723E-01 -1.14442E+00 -1.03666E+00 -2.00126E+00 -1.44978E+00
  -1.21656E+00 -1.63098E+00 -2.61218E-01 -1.52188E+00 -1.26015E+00 -1.69384E-01  1.38365E+00 -2.62534E-02
 NY points of the fit to the data follow
  -4.73784E+00 -4.62277E+00 -4.49262E+00 -4.27977E+00 -4.07065E+00 -3.74436E+00 -3.42333E+00 -3.14032E+00 -3.29437E+00 -3.39312E+00
  -3.79518E+00 -3.85820E+00 -4.22988E+00 -4.05307E+00 -4.05335E+00 -3.34683E+00 -3.36050E+00 -3.01649E+00 -3.26163E+00 -3.24161E+00
  -3.55120E+00 -3.44100E+00 -3.68689E+00 -3.61851E+00 -3.70423E+00 -3.68264E+00 -3.66934E+00 -3.76108E+00 -3.64433E+00 -3.77604E+00
  -3.61306E+00 -3.88659E+00 -3.72975E+00 -4.03098E+00 -3.77637E+00 -3.99805E+00 -3.67600E+00 -3.89134E+00 -3.63917E+00 -3.83638E+00
  -3.64594E+00 -3.81972E+00 -3.65410E+00 -3.76140E+00 -3.69903E+00 -3.85502E+00 -4.10033E+00 -4.33111E+00 -4.44042E+00 -4.31750E+00
  -4.18646E+00 -3.79744E+00 -3.55003E+00 -3.14261E+00 -3.13754E+00 -3.20507E+00 -3.34577E+00 -3.33519E+00 -3.40340E+00 -3.25580E+00
  -3.19778E+00 -3.09817E+00 -3.01120E+00 -2.91839E+00 -2.82850E+00 -2.73844E+00 -2.64799E+00 -2.56924E+00 -2.50795E+00 -2.54681E+00
  -2.53723E+00 -2.57520E+00 -2.53227E+00 -2.54665E+00 -2.47280E+00 -2.47693E+00 -2.38703E+00 -2.37821E+00 -2.27138E+00 -2.25263E+00
  -2.14753E+00 -2.13827E+00 -2.06028E+00 -2.04845E+00 -1.97615E+00 -1.94052E+00 -1.86463E+00 -1.78334E+00 -1.71295E+00 -1.60957E+00
  -1.54290E+00 -1.43566E+00 -1.36441E+00 -1.25561E+00 -1.19039E+00 -1.07170E+00 -1.00785E+00 -8.98858E-01 -8.38165E-01 -7.34035E-01
  -6.73730E-01 -5.71831E-01 -5.08785E-01 -4.09344E-01 -3.45812E-01 -2.62540E-01 -1.98962E-01 -1.36537E-01 -7.78597E-02 -2.30412E-03
   7.63867E-02  1.58258E-01  2.42278E-01  3.18150E-01  3.97618E-01  4.64138E-01  5.38535E-01  6.01352E-01  6.68549E-01  7.31495E-01
   7.92953E-01  8.58281E-01  9.25454E-01  9.95358E-01  1.06238E+00  1.14334E+00  1.22074E+00  1.30656E+00  1.39742E+00  1.48594E+00
   1.58051E+00  1.67882E+00  1.78241E+00  1.89330E+00  2.00685E+00  2.11966E+00  2.19850E+00  2.32491E+00  2.43690E+00  2.60269E+00
   2.77684E+00  2.98144E+00  3.12653E+00  3.34116E+00  3.47745E+00  3.70283E+00  3.83759E+00  4.06192E+00  4.18951E+00  4.39869E+00
   4.49929E+00  4.65443E+00  4.69512E+00  4.86931E+00  4.91569E+00  5.06397E+00  5.07273E+00  5.11195E+00  5.06722E+00  5.07184E+00
   5.00267E+00  4.96280E+00  4.85777E+00  4.75309E+00  4.58718E+00  4.42614E+00  4.32054E+00  4.14218E+00  4.07821E+00  3.88397E+00
   3.84355E+00  3.63611E+00  3.60431E+00  3.41701E+00  3.43038E+00  3.22543E+00  3.26085E+00  3.05777E+00  3.05746E+00  2.85349E+00
   2.79887E+00  2.62660E+00  2.59351E+00  2.44035E+00  2.40116E+00  2.26166E+00  2.22272E+00  2.13674E+00  2.08805E+00  1.86685E+00
   1.81188E+00  1.37935E+00  1.19786E+00  6.82567E-01  4.46378E-01  5.02750E-02  8.34007E-02  2.04901E-01  9.29119E-01  6.31420E-01
   1.32133E+00  5.79459E-01  1.04384E+00 -2.51034E-01 -4.05712E-01 -1.86121E+00 -1.76434E+00 -2.83934E+00 -2.60231E+00 -3.29878E+00
  -3.14505E+00 -3.49597E+00 -3.43416E+00 -3.66744E+00 -3.82521E+00 -3.70301E+00 -3.85071E+00 -3.24397E+00 -3.31337E+00 -2.45410E+00
  -2.50784E+00 -1.56881E+00 -1.94622E+00 -1.07418E+00 -1.80406E+00 -1.07650E+00 -1.64508E+00 -9.23893E-01 -1.35168E+00 -7.52683E-01
  -1.13192E+00 -7.39144E-01 -1.14426E+00 -1.14274E+00 -1.39038E+00 -1.67536E+00 -1.70020E+00 -1.92794E+00 -6.24523E-01 -1.16818E+00
  -1.48050E-01 -1.05946E+00 -2.25382E-01 -8.95954E-01  4.80636E-01  1.99179E-01  1.45352E+00  1.14160E+00  2.19869E+00  1.83001E+00
   2.39957E+00  1.96507E+00  2.09687E+00  1.63141E+00  1.13785E+00  7.09074E-01 -1.66426E-01 -5.38055E-01 -1.75915E+00 -2.19888E+00
  -3.77256E+00 -4.39660E+00 -6.25525E+00 -6.97889E+00 -8.88619E+00 -9.47139E+00 -1.13209E+01 -1.18471E+01 -1.33161E+01 -1.38187E+01
  -1.51549E+01 -1.55581E+01 -1.64373E+01 -1.64641E+01 -1.64828E+01 -1.61853E+01 -1.53471E+01 -1.51708E+01 -1.50165E+01 -1.47629E+01
  -1.42728E+01 -1.36433E+01 -1.27537E+01 -1.17306E+01 -1.03905E+01 -8.94180E+00 -7.23229E+00 -5.33846E+00 -3.33022E+00 -1.20754E+00
   9.15783E-01  3.06558E+00  5.07743E+00  7.01423E+00  8.67992E+00  1.01306E+01  1.11989E+01  1.19856E+01  1.23764E+01  1.25087E+01
   1.22768E+01  1.18522E+01  1.11774E+01  1.04152E+01  9.54034E+00  8.69114E+00  7.89343E+00  7.32730E+00  7.28514E+00  8.26714E+00
   7.97326E+00  8.46248E+00  7.86084E+00  7.93873E+00  7.11021E+00  6.66456E+00  4.96553E+00  4.99607E+00  4.53764E+00  4.67227E+00
   4.75142E+00  4.52278E+00  4.75945E+00  4.30767E+00  4.67013E+00  3.82772E+00  4.26478E+00  3.29922E+00  3.88450E+00  2.91044E+00
   3.40491E+00  2.45901E+00  2.91406E+00  1.90775E+00  2.12508E+00  1.16539E+00  1.19424E+00  5.99089E-01  6.67396E-01  6.45647E-01
   6.88161E-01  8.99847E-01  8.26169E-01  1.27426E+00  1.03444E+00  1.87001E+00  1.35383E+00  2.38299E+00  1.44645E+00  1.34921E+00
   2.71134E-01  2.00083E-01 -8.52039E-01 -7.55381E-01 -1.34972E+00 -7.42028E-01 -5.67960E-02  4.69509E-01  8.91268E-01  1.23716E+00
   1.52064E+00  1.74909E+00  1.92664E+00  2.05640E+00  2.14071E+00  2.18208E+00  2.18284E+00  2.14579E+00  2.07365E+00  1.96969E+00
   1.83707E+00  1.67946E+00  1.50031E+00  1.30346E+00  1.09242E+00  8.70987E-01  6.42585E-01  4.10849E-01  1.78963E-01 -4.97594E-02
  -2.72484E-01 -4.86276E-01 -6.88694E-01 -8.77207E-01 -1.04982E+00 -1.20448E+00 -1.33968E+00 -1.45390E+00 -1.54614E+00 -1.61544E+00
  -1.66143E+00 -1.68378E+00 -1.68280E+00 -1.65885E+00 -1.61292E+00 -1.54610E+00 -1.46008E+00 -1.35664E+00 -1.23812E+00 -1.10684E+00
  -9.65616E-01 -8.17157E-01 -6.64562E-01 -5.10678E-01 -3.58592E-01 -2.10998E-01 -7.07105E-02  5.99845E-02  1.78788E-01  2.84018E-01
   3.74074E-01  4.48022E-01  5.05031E-01  5.44917E-01  5.67573E-01  5.73518E-01  5.63282E-01  5.37930E-01  4.98456E-01  4.46282E-01
   3.82669E-01  3.09231E-01  2.27333E-01  1.38604E-01  4.43556E-02 -5.38921E-02 -1.54987E-01 -2.57586E-01 -3.60738E-01 -4.63325E-01
  -5.64635E-01 -6.63783E-01 -7.60274E-01 -8.53422E-01 -9.42923E-01 -1.02828E+00 -1.10934E+00 -1.18577E+00 -1.25754E+00 -1.32439E+00
  -1.38639E+00 -1.44339E+00 -1.49552E+00 -1.54266E+00 -1.58500E+00 -1.62246E+00 -1.65524E+00 -1.68328E+00 -1.70682E+00 -1.72582E+00
  -1.74048E+00 -1.75078E+00 -1.75694E+00 -1.75894E+00 -1.75699E+00 -1.75107E+00 -1.74138E+00 -1.72790E+00 -1.71083E+00 -1.69015E+00
  -1.66604E+00 -1.63847E+00 -1.60764E+00 -1.57349E+00 -1.53622E+00 -1.49579E+00 -1.45237E+00 -1.40591E+00 -1.35659E+00 -1.30436E+00
  -1.24938E+00 -1.19162E+00 -1.13121E+00 -1.06813E+00 -1.00251E+00 -9.34314E-01 -8.63696E-01 -7.90599E-01 -7.15178E-01 -6.37375E-01
  -5.57351E-01 -4.75050E-01 -3.90631E-01 -3.04042E-01 -2.15446E-01 -1.24795E-01 -3.22633E-02  6.21869E-02  1.58376E-01  2.56316E-01
   3.55804E-01  4.56829E-01  5.59153E-01  6.62710E-01  7.67191E-01  8.72424E-01  9.77957E-01  1.08342E+00
 NY background values follow
    -6.847E+00   -6.836E+00   -6.825E+00   -6.814E+00   -6.802E+00   -6.790E+00   -6.778E+00   -6.765E+00   -6.751E+00   -6.737E+00
    -6.723E+00   -6.708E+00   -6.693E+00   -6.677E+00   -6.660E+00   -6.644E+00   -6.626E+00   -6.608E+00   -6.590E+00   -6.571E+00
    -6.551E+00   -6.531E+00   -6.510E+00   -6.488E+00   -6.466E+00   -6.444E+00   -6.420E+00   -6.396E+00   -6.372E+00   -6.346E+00
    -6.320E+00   -6.293E+00   -6.266E+00   -6.238E+00   -6.209E+00   -6.179E+00   -6.148E+00   -6.117E+00   -6.085E+00   -6.052E+00
    -6.018E+00   -5.983E+00   -5.948E+00   -5.912E+00   -5.874E+00   -5.836E+00   -5.797E+00   -5.757E+00   -5.716E+00   -5.674E+00
    -5.631E+00   -5.588E+00   -5.543E+00   -5.497E+00   -5.450E+00   -5.403E+00   -5.354E+00   -5.304E+00   -5.254E+00   -5.202E+00
    -5.150E+00   -5.096E+00   -5.042E+00   -4.987E+00   -4.931E+00   -4.874E+00   -4.816E+00   -4.757E+00   -4.698E+00   -4.637E+00
    -4.576E+00   -4.513E+00   -4.450E+00   -4.386E+00   -4.321E+00   -4.256E+00   -4.189E+00   -4.122E+00   -4.054E+00   -3.985E+00
    -3.915E+00   -3.845E+00   -3.773E+00   -3.701E+00   -3.628E+00   -3.555E+00   -3.480E+00   -3.405E+00   -3.330E+00   -3.253E+00
    -3.176E+00   -3.098E+00   -3.019E+00   -2.940E+00   -2.860E+00   -2.780E+00   -2.698E+00   -2.616E+00   -2.534E+00   -2.451E+00
    -2.367E+00   -2.282E+00   -2.198E+00   -2.112E+00   -2.026E+00   -1.940E+00   -1.854E+00   -1.767E+00   -1.680E+00   -1.593E+00
    -1.506E+00   -1.419E+00   -1.332E+00   -1.245E+00   -1.158E+00   -1.071E+00   -9.847E-01   -8.985E-01   -8.127E-01   -7.273E-01
    -6.424E-01   -5.580E-01   -4.742E-01   -3.911E-01   -3.086E-01   -2.270E-01   -1.461E-01   -6.616E-02    1.286E-02    9.090E-02
     1.679E-01    2.437E-01    3.184E-01    3.919E-01    4.641E-01    5.349E-01    6.044E-01    6.724E-01    7.388E-01    8.037E-01
     8.670E-01    9.286E-01    9.884E-01    1.046E+00    1.103E+00    1.157E+00    1.209E+00    1.259E+00    1.308E+00    1.354E+00
     1.397E+00    1.439E+00    1.478E+00    1.516E+00    1.550E+00    1.583E+00    1.614E+00    1.642E+00    1.668E+00    1.691E+00
     1.713E+00    1.732E+00    1.748E+00    1.763E+00    1.775E+00    1.785E+00    1.793E+00    1.798E+00    1.801E+00    1.802E+00
     1.800E+00    1.796E+00    1.789E+00    1.781E+00    1.770E+00    1.756E+00    1.741E+00    1.723E+00    1.702E+00    1.680E+00
     1.655E+00    1.627E+00    1.597E+00    1.565E+00    1.531E+00    1.494E+00    1.455E+00    1.414E+00    1.370E+00    1.324E+00
     1.275E+00    1.225E+00    1.171E+00    1.116E+00    1.058E+00    9.981E-01    9.357E-01    8.710E-01    8.040E-01    7.347E-01
     6.631E-01    5.892E-01    5.132E-01    4.350E-01    3.547E-01    2.723E-01    1.879E-01    1.015E-01    1.318E-02   -7.702E-02
    -1.691E-01   -2.629E-01   -3.585E-01   -4.558E-01   -5.547E-01   -6.553E-01   -7.574E-01   -8.610E-01   -9.661E-01   -1.073E+00
    -1.181E+00   -1.290E+00   -1.400E+00   -1.512E+00   -1.625E+00   -1.739E+00   -1.855E+00   -1.971E+00   -2.088E+00   -2.206E+00
    -2.326E+00   -2.446E+00   -2.567E+00   -2.688E+00   -2.811E+00   -2.934E+00   -3.057E+00   -3.182E+00   -3.307E+00   -3.432E+00
    -3.558E+00   -3.684E+00   -3.811E+00   -3.938E+00   -4.065E+00   -4.192E+00   -4.320E+00   -4.448E+00   -4.576E+00   -4.704E+00
    -4.832E+00   -4.960E+00   -5.088E+00   -5.215E+00   -5.343E+00   -5.471E+00   -5.598E+00   -5.726E+00   -5.853E+00   -5.980E+00
    -6.106E+00   -6.233E+00   -6.359E+00   -6.484E+00   -6.610E+00   -6.735E+00   -6.859E+00   -6.983E+00   -7.107E+00   -7.230E+00
    -7.353E+00   -7.475E+00   -7.596E+00   -7.717E+00   -7.837E+00   -7.957E+00   -8.075E+00   -8.194E+00   -8.311E+00   -8.428E+00
    -8.544E+00   -8.659E+00   -8.773E+00   -8.887E+00   -8.999E+00   -9.111E+00   -9.222E+00   -9.331E+00   -9.440E+00   -9.548E+00
    -9.655E+00   -9.761E+00   -9.865E+00   -9.969E+00   -1.007E+01   -1.017E+01   -1.027E+01   -1.037E+01   -1.047E+01   -1.057E+01
    -1.066E+01   -1.076E+01   -1.085E+01   -1.094E+01   -1.103E+01   -1.112E+01   -1.121E+01   -1.130E+01   -1.138E+01   -1.147E+01
    -1.155E+01   -1.163E+01   -1.171E+01   -1.179E+01   -1.187E+01   -1.195E+01   -1.203E+01   -1.210E+01   -1.217E+01   -1.225E+01
    -1.232E+01   -1.239E+01   -1.245E+01   -1.252E+01   -1.259E+01   -1.265E+01   -1.272E+01   -1.278E+01   -1.284E+01   -1.290E+01
    -1.296E+01   -1.301E+01   -1.307E+01   -1.312E+01   -1.318E+01   -1.323E+01   -1.328E+01   -1.333E+01   -1.338E+01   -1.342E+01
    -1.347E+01   -1.351E+01   -1.356E+01   -1.360E+01   -1.364E+01   -1.368E+01   -1.372E+01   -1.375E+01   -1.379E+01   -1.382E+01
    -1.385E+01   -1.388E+01   -1.391E+01   -1.394E+01   -1.397E+01   -1.400E+01   -1.402E+01   -1.405E+01   -1.407E+01   -1.409E+01
    -1.411E+01   -1.413E+01   -1.414E+01   -1.416E+01   -1.417E+01   -1.419E+01   -1.420E+01   -1.421E+01   -1.422E+01   -1.422E+01
    -1.423E+01   -1.423E+01   -1.424E+01   -1.424E+01   -1.424E+01   -1.424E+01   -1.424E+01   -1.423E+01   -1.423E+01   -1.422E+01
    -1.422E+01   -1.421E+01   -1.420E+01   -1.419E+01   -1.417E+01   -1.416E+01   -1.414E+01   -1.413E+01   -1.411E+01   -1.409E+01
    -1.407E+01   -1.404E+01   -1.402E+01   -1.399E+01   -1.397E+01   -1.394E+01   -1.391E+01   -1.388E+01   -1.385E+01   -1.381E+01
    -1.378E+01   -1.374E+01   -1.371E+01   -1.367E+01   -1.363E+01   -1.358E+01   -1.354E+01   -1.350E+01   -1.345E+01   -1.340E+01
    -1.335E+01   -1.330E+01   -1.325E+01   -1.320E+01   -1.315E+01   -1.309E+01   -1.303E+01   -1.298E+01   -1.292E+01   -1.285E+01
    -1.279E+01   -1.273E+01   -1.266E+01   -1.260E+01   -1.253E+01   -1.246E+01   -1.239E+01   -1.232E+01   -1.224E+01   -1.217E+01
    -1.209E+01   -1.202E+01   -1.194E+01   -1.186E+01   -1.177E+01   -1.169E+01   -1.161E+01   -1.152E+01   -1.143E+01   -1.135E+01
    -1.126E+01   -1.117E+01   -1.107E+01   -1.098E+01   -1.088E+01   -1.079E+01   -1.069E+01   -1.059E+01   -1.049E+01   -1.039E+01
    -1.028E+01   -1.018E+01   -1.007E+01   -9.966E+00   -9.858E+00   -9.747E+00   -9.636E+00   -9.523E+00   -9.409E+00   -9.293E+00
    -9.177E+00   -9.058E+00   -8.939E+00   -8.818E+00   -8.696E+00   -8.572E+00   -8.447E+00   -8.321E+00   -8.193E+00   -8.064E+00
    -7.933E+00   -7.802E+00   -7.669E+00   -7.534E+00   -7.398E+00   -7.261E+00   -7.123E+00   -6.983E+00   -6.842E+00   -6.699E+00
    -6.556E+00   -6.410E+00   -6.264E+00   -6.116E+00   -5.967E+00   -5.817E+00   -5.665E+00   -5.512E+00   -5.357E+00   -5.202E+00
    -5.045E+00   -4.886E+00   -4.726E+00   -4.565E+00   -4.403E+00   -4.240E+00   -4.075E+00   -3.908E+00
 Ala      Conc. = 9.81E+01
