 LCModel (Version 6.3-1L) Copyright: S.W. Provencher.          Ref.: Magn. Reson. Med. 30:672-679 (1993).                
 Slice#2 Row#11 Col#3  PD_24_press_2_raw_act
 36 lines in following concentration table = NCONC+1
    Conc.  %SD /Cr+PCr  Metabolite                                         
    0.000 999%   0.000 Ala                                                 
   16.509  33%   0.120 Asp                                                 
    0.000 999%   0.000 Cr                                                  
  137.386  41%   1.000 PCr                                                 
    9.901  33% 7.2E-02 GABA                                                
    9.910  33% 7.2E-02 Glc                                                 
 1.32E+03  37%   9.613 Gln                                                 
 3.81E+03  16%  27.700 Glu                                                 
    0.000 999%   0.000 GPC                                                 
   64.330  34%   0.468 PCh                                                 
    0.000 999%   0.000 GSH                                                 
 1.10E+03  24%   8.004 Ins                                                 
    0.000 999%   0.000 Lac                                                 
    0.000 999%   0.000 NAA                                                 
    0.000 999%   0.000 NAAG                                                
    3.304  33% 2.4E-02 Scyllo                                              
   16.526  33%   0.120 Tau                                                 
   13.543  49% 9.9E-02 -CrCH2                                              
   64.330  34%   0.468 GPC+PCh                                             
    0.000 999%   0.000 NAA+NAAG                                            
  137.386  41%   1.000 Cr+PCr                                              
 5.13E+03  17%  37.313 Glu+Gln                                             
    0.000 999%   0.000 Lip13a                                              
    0.000 999%   0.000 Lip13b                                              
    0.000 999%   0.000 Lip09                                               
  733.043  15%   5.336 MM09                                                
    0.000 999%   0.000 Lip20                                               
    0.000 999%   0.000 MM20                                                
   77.954 127%   0.567 MM12                                                
 4.02E+03   5%  29.268+MM14                                                
 2.45E+03   7%  17.857+MM17                                                
    0.000 999%   0.000 Lip13a+Lip13b                                       
 4.10E+03   6%  29.836 MM14+Lip13a+Lip13b+MM12                             
  733.043  15%   5.336 MM09+Lip09                                          
    0.000 999%   0.000 MM20+Lip20                                          
   6 lines in following misc. output table
  FWHM = 0.168 ppm    S/N =   7                                            
  Data shift = 0.245 ppm                                                   
  Ph:-159 deg       7.4 deg/ppm                                            
  alphaB,S = 8.5E+01,   4.1E+02                                            
    6 spline knots.   Ns = 9(2)                                            
  ( 9) 7 infls.   ( 9) 1 extrs.                                            
  498 points on ppm-axis = NY
      4.000000     3.992357     3.984714     3.977070     3.969427     3.961784     3.954141     3.946497     3.938854     3.931211
      3.923568     3.915925     3.908281     3.900638     3.892995     3.885352     3.877708     3.870065     3.862422     3.854779
      3.847136     3.839492     3.831849     3.824206     3.816563     3.808919     3.801276     3.793633     3.785990     3.778347
      3.770703     3.763060     3.755417     3.747774     3.740130     3.732487     3.724844     3.717201     3.709558     3.701914
      3.694271     3.686628     3.678985     3.671341     3.663698     3.656055     3.648412     3.640769     3.633125     3.625482
      3.617839     3.610196     3.602552     3.594909     3.587266     3.579623     3.571980     3.564336     3.556693     3.549050
      3.541407     3.533763     3.526120     3.518477     3.510834     3.503191     3.495547     3.487904     3.480261     3.472618
      3.464974     3.457331     3.449688     3.442045     3.434402     3.426758     3.419115     3.411472     3.403829     3.396185
      3.388542     3.380899     3.373256     3.365613     3.357969     3.350326     3.342683     3.335040     3.327396     3.319753
      3.312110     3.304467     3.296824     3.289180     3.281537     3.273894     3.266251     3.258607     3.250964     3.243321
      3.235678     3.228034     3.220391     3.212748     3.205105     3.197462     3.189818     3.182175     3.174532     3.166889
      3.159245     3.151602     3.143959     3.136316     3.128673     3.121029     3.113386     3.105743     3.098100     3.090456
      3.082813     3.075170     3.067527     3.059884     3.052240     3.044597     3.036954     3.029311     3.021667     3.014024
      3.006381     2.998738     2.991095     2.983451     2.975808     2.968165     2.960522     2.952878     2.945235     2.937592
      2.929949     2.922306     2.914662     2.907019     2.899376     2.891733     2.884089     2.876446     2.868803     2.861160
      2.853517     2.845873     2.838230     2.830587     2.822944     2.815300     2.807657     2.800014     2.792371     2.784728
      2.777084     2.769441     2.761798     2.754155     2.746511     2.738868     2.731225     2.723582     2.715939     2.708295
      2.700652     2.693009     2.685366     2.677722     2.670079     2.662436     2.654793     2.647150     2.639506     2.631863
      2.624220     2.616577     2.608933     2.601290     2.593647     2.586004     2.578361     2.570717     2.563074     2.555431
      2.547788     2.540144     2.532501     2.524858     2.517215     2.509572     2.501928     2.494285     2.486642     2.478999
      2.471355     2.463712     2.456069     2.448426     2.440783     2.433139     2.425496     2.417853     2.410210     2.402566
      2.394923     2.387280     2.379637     2.371994     2.364350     2.356707     2.349064     2.341421     2.333777     2.326134
      2.318491     2.310848     2.303205     2.295561     2.287918     2.280275     2.272632     2.264988     2.257345     2.249702
      2.242059     2.234416     2.226772     2.219129     2.211486     2.203843     2.196199     2.188556     2.180913     2.173270
      2.165627     2.157983     2.150340     2.142697     2.135054     2.127410     2.119767     2.112124     2.104481     2.096838
      2.089194     2.081551     2.073908     2.066265     2.058621     2.050978     2.043335     2.035692     2.028049     2.020405
      2.012762     2.005119     1.997476     1.989833     1.982190     1.974546     1.966903     1.959260     1.951617     1.943974
      1.936331     1.928688     1.921045     1.913402     1.905759     1.898115     1.890472     1.882829     1.875186     1.867543
      1.859900     1.852257     1.844614     1.836971     1.829327     1.821684     1.814041     1.806398     1.798755     1.791112
      1.783469     1.775826     1.768183     1.760540     1.752896     1.745253     1.737610     1.729967     1.722324     1.714681
      1.707038     1.699395     1.691752     1.684108     1.676465     1.668822     1.661179     1.653536     1.645893     1.638250
      1.630607     1.622964     1.615321     1.607677     1.600034     1.592391     1.584748     1.577105     1.569462     1.561819
      1.554176     1.546533     1.538890     1.531246     1.523603     1.515960     1.508317     1.500674     1.493031     1.485388
      1.477745     1.470102     1.462458     1.454815     1.447172     1.439529     1.431886     1.424243     1.416600     1.408957
      1.401314     1.393671     1.386027     1.378384     1.370741     1.363098     1.355455     1.347812     1.340169     1.332526
      1.324883     1.317240     1.309596     1.301953     1.294310     1.286667     1.279024     1.271381     1.263738     1.256095
      1.248452     1.240808     1.233165     1.225522     1.217879     1.210236     1.202593     1.194950     1.187307     1.179664
      1.172021     1.164377     1.156734     1.149091     1.141448     1.133805     1.126162     1.118519     1.110876     1.103233
      1.095590     1.087946     1.080303     1.072660     1.065017     1.057374     1.049731     1.042088     1.034445     1.026802
      1.019158     1.011515     1.003872     0.996229     0.988586     0.980943     0.973300     0.965657     0.958014     0.950371
      0.942727     0.935084     0.927441     0.919798     0.912155     0.904512     0.896869     0.889226     0.881583     0.873940
      0.866296     0.858653     0.851010     0.843367     0.835724     0.828081     0.820438     0.812795     0.805152     0.797508
      0.789865     0.782222     0.774579     0.766936     0.759293     0.751650     0.744007     0.736364     0.728721     0.721077
      0.713434     0.705791     0.698148     0.690505     0.682862     0.675219     0.667576     0.659933     0.652290     0.644646
      0.637003     0.629360     0.621717     0.614074     0.606431     0.598788     0.591145     0.583502     0.575858     0.568215
      0.560572     0.552929     0.545286     0.537643     0.530000     0.522357     0.514714     0.507071     0.499427     0.491784
      0.484141     0.476498     0.468855     0.461212     0.453569     0.445925     0.438282     0.430639     0.422996     0.415353
      0.407710     0.400067     0.392424     0.384780     0.377137     0.369494     0.361851     0.354208     0.346565     0.338922
      0.331278     0.323635     0.315992     0.308349     0.300706     0.293063     0.285420     0.277777     0.270133     0.262490
      0.254847     0.247204     0.239561     0.231918     0.224275     0.216631     0.208988     0.201345
 NY phased data points follow
   1.87794E+01  1.94586E+01  1.70339E+01  1.95128E+01  1.87257E+01  1.78041E+01  1.61365E+01  1.73188E+01  1.66675E+01  1.79729E+01
   1.81234E+01  1.63305E+01  1.79378E+01  1.33342E+01  1.41898E+01  1.57155E+01  1.77539E+01  1.77319E+01  1.69713E+01  1.40064E+01
   1.39249E+01  1.49203E+01  1.55647E+01  1.32401E+01  1.41986E+01  1.45241E+01  1.78054E+01  1.51239E+01  1.92291E+01  1.54183E+01
   1.61561E+01  1.68589E+01  1.87651E+01  1.51681E+01  1.68208E+01  1.68616E+01  1.71116E+01  1.55335E+01  1.69360E+01  1.51016E+01
   1.57760E+01  1.49949E+01  1.59958E+01  1.60287E+01  1.52885E+01  1.48917E+01  1.89030E+01  1.77185E+01  1.39386E+01  1.64046E+01
   1.47192E+01  1.60444E+01  1.45994E+01  1.53259E+01  1.51947E+01  1.67800E+01  1.50650E+01  1.58575E+01  1.33130E+01  1.64563E+01
   1.52541E+01  1.43484E+01  1.58545E+01  1.35811E+01  1.33585E+01  1.59208E+01  1.50100E+01  1.75702E+01  1.31489E+01  1.12950E+01
   1.29131E+01  1.28471E+01  1.11244E+01  1.29890E+01  1.39376E+01  1.26816E+01  1.48555E+01  1.30680E+01  1.40904E+01  1.36334E+01
   1.27612E+01  1.45069E+01  9.32383E+00  9.40657E+00  1.36004E+01  1.00204E+01  1.01609E+01  1.04351E+01  1.28077E+01  1.21709E+01
   1.06086E+01  1.11282E+01  1.03200E+01  1.18433E+01  8.30656E+00  8.24522E+00  1.25593E+01  1.20166E+01  1.06589E+01  1.36418E+01
   1.42768E+01  1.28131E+01  1.16642E+01  1.36019E+01  9.43963E+00  9.17002E+00  1.05866E+01  1.03138E+01  1.15010E+01  1.40222E+01
   1.09103E+01  1.15750E+01  1.29537E+01  1.15463E+01  1.05073E+01  1.02757E+01  9.96788E+00  1.25737E+01  1.06122E+01  1.32932E+01
   9.69184E+00  8.93032E+00  1.16108E+01  1.28503E+01  9.96765E+00  8.82590E+00  1.15365E+01  1.04071E+01  1.38816E+01  1.14134E+01
   9.63848E+00  9.74605E+00  9.98007E+00  7.50198E+00  8.54791E+00  1.01709E+01  9.51711E+00  9.66333E+00  1.10648E+01  6.19276E+00
   9.55481E+00  9.25886E+00  9.71114E+00  8.59204E+00  9.16018E+00  1.19313E+01  9.09215E+00  6.99490E+00  8.71576E+00  1.04012E+01
   1.07014E+01  1.17118E+01  9.99146E+00  1.08261E+01  8.41967E+00  8.36557E+00  7.86403E+00  1.03493E+01  9.98315E+00  6.36792E+00
   6.53010E+00  8.92449E+00  5.29239E+00  8.27271E+00  1.01955E+01  8.03360E+00  7.61867E+00  9.27532E+00  7.43175E+00  1.02454E+01
   9.99322E+00  1.10392E+01  9.57463E+00  9.41832E+00  1.06159E+01  9.31836E+00  9.75336E+00  8.43373E+00  8.78444E+00  8.98212E+00
   9.43255E+00  9.90349E+00  7.10093E+00  9.54971E+00  7.60220E+00  8.62625E+00  8.62289E+00  7.94548E+00  1.08422E+01  7.24205E+00
   9.62302E+00  9.85404E+00  9.95959E+00  6.00330E+00  5.47973E+00  8.84604E+00  8.71299E+00  1.01697E+01  6.48745E+00  1.28626E+01
   7.11840E+00  7.78818E+00  5.96740E+00  1.04261E+01  4.43485E+00  9.14594E+00  8.57949E+00  6.23253E+00  5.68884E+00  7.44430E+00
   1.01208E+01  5.03318E+00  5.04492E+00  6.71959E+00  5.22989E+00  5.73283E+00  6.59034E+00  6.28933E+00  8.55852E+00  7.36901E+00
   9.31183E+00  6.42122E+00  8.93347E+00  6.49056E+00  6.83135E+00  6.79354E+00  4.39852E+00  3.80849E+00  3.39306E+00  2.09065E+00
   3.62698E+00  6.22829E+00  7.48454E+00  5.76154E+00  7.19252E+00  6.65846E+00  4.42759E+00  4.30653E+00  4.77797E+00  5.29416E+00
   5.54313E+00  6.09367E+00  6.45724E+00  3.27488E+00  5.44864E+00  7.66157E+00  2.90192E+00  2.90055E+00  4.46192E+00  4.04858E+00
   5.63361E+00  5.08080E+00  5.98222E+00  4.31081E+00  6.48665E+00  5.03401E+00  6.39673E+00  2.76831E+00  4.51102E+00  6.65619E+00
   6.77423E+00  6.79424E+00  6.34050E+00  4.86008E+00  6.77398E+00  8.83521E+00  8.14056E+00  1.13687E+01  1.11110E+01  1.10229E+01
   8.03945E+00  1.03784E+01  1.27667E+01  9.62898E+00  1.04041E+01  9.33789E+00  9.62697E+00  1.10133E+01  1.01205E+01  1.03261E+01
   1.04682E+01  1.01148E+01  1.14035E+01  1.05848E+01  1.36870E+01  1.28501E+01  1.51905E+01  1.81303E+01  1.67070E+01  1.87209E+01
   2.29360E+01  2.27652E+01  2.68643E+01  2.73348E+01  3.07341E+01  2.84536E+01  2.94939E+01  3.39422E+01  3.64959E+01  3.48356E+01
   3.84967E+01  3.95837E+01  3.85026E+01  4.02457E+01  3.87284E+01  4.45653E+01  4.16307E+01  4.27003E+01  4.33022E+01  4.18092E+01
   4.27008E+01  3.98760E+01  4.10267E+01  3.84229E+01  3.89014E+01  3.46142E+01  3.45065E+01  3.23584E+01  2.96212E+01  2.93324E+01
   2.88889E+01  2.60637E+01  2.46260E+01  2.19417E+01  2.41201E+01  2.24559E+01  2.19798E+01  2.23609E+01  1.99604E+01  2.05210E+01
   1.82099E+01  1.76169E+01  1.61424E+01  1.92052E+01  1.06992E+01  1.27938E+01  1.31692E+01  1.26789E+01  1.19440E+01  1.12223E+01
   8.38070E+00  7.92762E+00  8.95841E+00  1.24079E+01  1.01741E+01  6.71933E+00  7.90860E+00  9.29337E+00  8.73924E+00  4.66757E+00
   8.58248E+00  6.98367E+00  8.60774E+00  1.05955E+01  6.52486E+00  7.03509E+00  6.78309E+00  5.76478E+00  6.16681E+00  8.38136E+00
   6.83674E+00  6.92706E+00  8.36617E+00  5.95793E+00  7.77589E+00  6.62091E+00  6.27451E+00  9.45215E+00  8.12392E+00  6.19082E+00
   6.05643E+00  7.48574E+00  8.04990E+00  9.61885E+00  5.49782E+00  5.99182E+00  6.91488E+00  6.45496E+00  6.81148E+00  8.83849E+00
   6.86530E+00  9.14893E+00  8.41554E+00  8.60762E+00  6.25157E+00  1.00370E+01  1.11755E+01  6.82904E+00  9.16865E+00  1.15084E+01
   8.65102E+00  1.05958E+01  9.82944E+00  1.07475E+01  1.12211E+01  8.62782E+00  9.31260E+00  9.24823E+00  1.12786E+01  9.26524E+00
   9.05187E+00  7.38467E+00  7.21622E+00  9.24143E+00  9.85808E+00  7.45851E+00  7.48239E+00  8.10935E+00  7.58626E+00  1.09480E+01
   9.88921E+00  1.14203E+01  1.05774E+01  8.49684E+00  1.06705E+01  8.83076E+00  6.81326E+00  1.02491E+01  7.18885E+00  5.15482E+00
   9.41819E+00  8.27100E+00  6.30583E+00  5.82484E+00  7.64809E+00  7.41473E+00  6.99375E+00  9.08811E+00  8.63970E+00  6.77055E+00
   8.50513E+00  9.47414E+00  6.63677E+00  5.58758E+00  9.79453E+00  7.33002E+00  1.07035E+01  8.47624E+00  8.48762E+00  9.29422E+00
   7.66766E+00  7.79413E+00  7.60319E+00  7.33128E+00  8.12971E+00  8.69466E+00  8.89932E+00  6.73443E+00  8.15311E+00  7.33654E+00
   8.84921E+00  7.02172E+00  5.60097E+00  5.34487E+00  6.17314E+00  6.30150E+00  8.38821E+00  4.85740E+00  5.73732E+00  3.69034E+00
   3.46718E+00  4.97773E+00  6.00720E+00  5.91981E+00  4.60772E+00  3.70796E+00  3.45572E+00  4.93310E+00  5.06818E+00  4.77693E+00
   4.23958E+00  5.88331E+00  3.95533E+00  4.36543E+00  4.27726E+00  2.56617E+00  3.78849E+00  5.43109E+00  3.59059E+00  1.63260E+00
   3.62748E+00  3.83954E+00  3.33397E+00  2.67891E+00  2.41702E+00  3.97815E+00  2.57837E+00  4.56294E-01  8.49003E-01  2.33246E+00
   8.28772E-01  3.85433E+00  4.09174E+00  2.32859E+00  3.39572E+00  2.17705E+00  3.61137E+00  5.16701E+00
 NY points of the fit to the data follow
   1.70053E+01  1.69768E+01  1.68304E+01  1.67781E+01  1.65902E+01  1.65475E+01  1.63699E+01  1.63792E+01  1.62111E+01  1.61934E+01
   1.59553E+01  1.59281E+01  1.56409E+01  1.57293E+01  1.55727E+01  1.58033E+01  1.58253E+01  1.59900E+01  1.60728E+01  1.60708E+01
   1.61510E+01  1.60664E+01  1.62561E+01  1.61218E+01  1.64461E+01  1.62064E+01  1.66074E+01  1.62149E+01  1.66426E+01  1.61627E+01
   1.67092E+01  1.62524E+01  1.69139E+01  1.64309E+01  1.71981E+01  1.66528E+01  1.74799E+01  1.68346E+01  1.76300E+01  1.68807E+01
   1.75469E+01  1.67576E+01  1.73141E+01  1.66045E+01  1.71138E+01  1.65427E+01  1.70097E+01  1.65339E+01  1.68488E+01  1.63566E+01
   1.64503E+01  1.60390E+01  1.60428E+01  1.57846E+01  1.58513E+01  1.56483E+01  1.56478E+01  1.53541E+01  1.52184E+01  1.48766E+01
   1.46866E+01  1.44476E+01  1.43185E+01  1.41493E+01  1.40373E+01  1.39047E+01  1.37852E+01  1.36834E+01  1.35733E+01  1.35169E+01
   1.34447E+01  1.34081E+01  1.32868E+01  1.32085E+01  1.30461E+01  1.29505E+01  1.27582E+01  1.26584E+01  1.24351E+01  1.23463E+01
   1.20951E+01  1.20151E+01  1.17687E+01  1.17127E+01  1.14890E+01  1.15258E+01  1.13027E+01  1.13962E+01  1.11608E+01  1.12896E+01
   1.10511E+01  1.12182E+01  1.09933E+01  1.12130E+01  1.10165E+01  1.12963E+01  1.11179E+01  1.14248E+01  1.12536E+01  1.15530E+01
   1.13795E+01  1.16540E+01  1.14756E+01  1.17163E+01  1.15389E+01  1.17381E+01  1.15660E+01  1.17056E+01  1.15543E+01  1.16554E+01
   1.14819E+01  1.15282E+01  1.13325E+01  1.13531E+01  1.11552E+01  1.11887E+01  1.10017E+01  1.10789E+01  1.08916E+01  1.10058E+01
   1.07988E+01  1.09272E+01  1.07016E+01  1.08646E+01  1.06467E+01  1.08951E+01  1.06717E+01  1.09177E+01  1.06761E+01  1.09118E+01
   1.06457E+01  1.08485E+01  1.05557E+01  1.06983E+01  1.03891E+01  1.04570E+01  1.01538E+01  1.01561E+01  9.88150E+00  9.83854E+00
   9.60470E+00  9.53218E+00  9.34011E+00  9.24554E+00  9.09583E+00  8.98953E+00  8.88727E+00  8.79631E+00  8.74902E+00  8.71656E+00
   8.68223E+00  8.65476E+00  8.62198E+00  8.59628E+00  8.56372E+00  8.53887E+00  8.50674E+00  8.48294E+00  8.45155E+00  8.42849E+00
   8.39724E+00  8.37492E+00  8.34362E+00  8.32184E+00  8.29101E+00  8.27019E+00  8.24160E+00  8.22226E+00  8.19555E+00  8.17832E+00
   8.15350E+00  8.13756E+00  8.11545E+00  8.10057E+00  8.08165E+00  8.06002E+00  8.02795E+00  8.00127E+00  7.92479E+00  7.90217E+00
   7.78277E+00  7.77667E+00  7.63240E+00  7.69554E+00  7.55960E+00  7.70756E+00  7.58227E+00  7.85020E+00  7.71285E+00  8.02949E+00
   7.86037E+00  8.08054E+00  7.74969E+00  7.95601E+00  7.50496E+00  7.79506E+00  7.34217E+00  7.86046E+00  7.61234E+00  8.16090E+00
   8.07465E+00  8.50315E+00  8.52300E+00  8.67806E+00  8.65697E+00  8.52640E+00  8.65810E+00  8.26566E+00  8.57065E+00  7.90907E+00
   8.31483E+00  7.39852E+00  7.86028E+00  6.79856E+00  7.40788E+00  6.36977E+00  7.21462E+00  6.23623E+00  7.24969E+00  6.28103E+00
   7.31116E+00  6.29094E+00  7.14486E+00  6.19416E+00  6.74002E+00  5.99960E+00  6.35257E+00  6.03615E+00  6.29292E+00  6.34540E+00
   6.49220E+00  6.73622E+00  6.56421E+00  6.99354E+00  6.63718E+00  7.24453E+00  6.88111E+00  7.67765E+00  7.44763E+00  8.11270E+00
   7.76130E+00  8.22169E+00  7.70048E+00  7.91377E+00  7.21403E+00  7.33219E+00  6.81204E+00  6.93134E+00  6.57748E+00  6.72379E+00
   6.51559E+00  6.69019E+00  6.57831E+00  6.75110E+00  6.69070E+00  6.88935E+00  6.86037E+00  7.07402E+00  7.03060E+00  7.31728E+00
   7.27631E+00  7.61610E+00  7.53365E+00  7.88678E+00  7.75443E+00  8.02851E+00  7.95627E+00  8.17319E+00  8.12995E+00  8.25940E+00
   8.24425E+00  8.27374E+00  8.25221E+00  8.24678E+00  8.29198E+00  8.35387E+00  8.50405E+00  8.66089E+00  8.91584E+00  9.18990E+00
   9.55620E+00  1.00310E+01  1.06227E+01  1.13772E+01  1.22432E+01  1.33040E+01  1.44915E+01  1.58353E+01  1.73266E+01  1.89502E+01
   2.06865E+01  2.25074E+01  2.43879E+01  2.62904E+01  2.81884E+01  3.00556E+01  3.18493E+01  3.35401E+01  3.50946E+01  3.64937E+01
   3.77146E+01  3.87523E+01  3.95912E+01  4.02459E+01  4.07099E+01  4.10014E+01  4.11196E+01  4.10829E+01  4.08920E+01  4.05619E+01
   4.00917E+01  3.94944E+01  3.87685E+01  3.79237E+01  3.69617E+01  3.58926E+01  3.47222E+01  3.34637E+01  3.21281E+01  3.07322E+01
   2.92915E+01  2.78252E+01  2.63511E+01  2.48881E+01  2.34533E+01  2.20633E+01  2.07311E+01  1.94691E+01  1.82850E+01  1.71859E+01
   1.61742E+01  1.52518E+01  1.44167E+01  1.36669E+01  1.29971E+01  1.24029E+01  1.18774E+01  1.14151E+01  1.10087E+01  1.06527E+01
   1.03403E+01  1.00668E+01  9.82622E+00  9.61503E+00  9.42826E+00  9.26340E+00  9.11651E+00  8.98600E+00  8.86876E+00  8.76392E+00
   8.66896E+00  8.58353E+00  8.50556E+00  8.43502E+00  8.37011E+00  8.31104E+00  8.25616E+00  8.20582E+00  8.15850E+00  8.11466E+00
   8.07288E+00  8.03370E+00  7.99582E+00  7.95992E+00  7.92481E+00  7.89132E+00  7.85842E+00  7.82709E+00  7.79649E+00  7.76779E+00
   7.74030E+00  7.71536E+00  7.69248E+00  7.67314E+00  7.65697E+00  7.64561E+00  7.63881E+00  7.63828E+00  7.64385E+00  7.65729E+00
   7.67845E+00  7.70907E+00  7.74896E+00  7.79977E+00  7.86113E+00  7.93449E+00  8.01919E+00  8.11630E+00  8.22471E+00  8.34496E+00
   8.47533E+00  8.61568E+00  8.76357E+00  8.91813E+00  9.07617E+00  9.23611E+00  9.39415E+00  9.54821E+00  9.69416E+00  9.82974E+00
   9.95087E+00  1.00556E+01  1.01403E+01  1.02037E+01  1.02432E+01  1.02586E+01  1.02483E+01  1.02135E+01  1.01537E+01  1.00712E+01
   9.96686E+00  9.84369E+00  9.70323E+00  9.54912E+00  9.38319E+00  9.20921E+00  9.02893E+00  8.84585E+00  8.66134E+00  8.47843E+00
   8.29792E+00  8.12224E+00  7.95157E+00  7.78776E+00  7.63044E+00  7.48095E+00  7.33851E+00  7.20406E+00  7.07652E+00  6.95660E+00
   6.84304E+00  6.73642E+00  6.63540E+00  6.54052E+00  6.45040E+00  6.36559E+00  6.28477E+00  6.20851E+00  6.13551E+00  6.06641E+00
   5.99995E+00  5.93683E+00  5.87585E+00  5.81773E+00  5.76131E+00  5.70738E+00  5.65480E+00  5.60439E+00  5.55504E+00  5.50761E+00
   5.46100E+00  5.41610E+00  5.37182E+00  5.32907E+00  5.28679E+00  5.24590E+00  5.20534E+00  5.16603E+00  5.12696E+00  5.08904E+00
   5.05125E+00  5.01453E+00  4.97786E+00  4.94218E+00  4.90649E+00  4.87172E+00  4.83688E+00  4.80290E+00  4.76880E+00  4.73551E+00
   4.70206E+00  4.66937E+00  4.63648E+00  4.60431E+00  4.57189E+00  4.54017E+00  4.50816E+00  4.47681E+00  4.44514E+00  4.41409E+00
   4.38270E+00  4.35189E+00  4.32071E+00  4.29007E+00  4.25903E+00  4.22850E+00  4.19752E+00  4.16703E+00  4.13604E+00  4.10549E+00
   4.07439E+00  4.04368E+00  4.01237E+00  3.98137E+00  3.94970E+00  3.91825E+00  3.88602E+00  3.85388E+00
 NY background values follow
     1.246E+01    1.244E+01    1.242E+01    1.240E+01    1.238E+01    1.235E+01    1.233E+01    1.231E+01    1.229E+01    1.227E+01
     1.225E+01    1.223E+01    1.221E+01    1.219E+01    1.217E+01    1.215E+01    1.213E+01    1.211E+01    1.209E+01    1.206E+01
     1.204E+01    1.202E+01    1.200E+01    1.198E+01    1.196E+01    1.194E+01    1.192E+01    1.190E+01    1.188E+01    1.186E+01
     1.184E+01    1.182E+01    1.179E+01    1.177E+01    1.175E+01    1.173E+01    1.171E+01    1.169E+01    1.167E+01    1.165E+01
     1.163E+01    1.161E+01    1.159E+01    1.156E+01    1.154E+01    1.152E+01    1.150E+01    1.148E+01    1.146E+01    1.144E+01
     1.142E+01    1.140E+01    1.138E+01    1.136E+01    1.134E+01    1.131E+01    1.129E+01    1.127E+01    1.125E+01    1.123E+01
     1.121E+01    1.119E+01    1.117E+01    1.115E+01    1.113E+01    1.111E+01    1.109E+01    1.106E+01    1.104E+01    1.102E+01
     1.100E+01    1.098E+01    1.096E+01    1.094E+01    1.092E+01    1.090E+01    1.088E+01    1.086E+01    1.084E+01    1.082E+01
     1.079E+01    1.077E+01    1.075E+01    1.073E+01    1.071E+01    1.069E+01    1.067E+01    1.065E+01    1.063E+01    1.061E+01
     1.059E+01    1.057E+01    1.055E+01    1.052E+01    1.050E+01    1.048E+01    1.046E+01    1.044E+01    1.042E+01    1.040E+01
     1.038E+01    1.036E+01    1.034E+01    1.032E+01    1.030E+01    1.028E+01    1.026E+01    1.024E+01    1.022E+01    1.020E+01
     1.018E+01    1.015E+01    1.013E+01    1.011E+01    1.009E+01    1.007E+01    1.005E+01    1.003E+01    1.001E+01    9.992E+00
     9.971E+00    9.951E+00    9.931E+00    9.910E+00    9.890E+00    9.870E+00    9.849E+00    9.829E+00    9.809E+00    9.789E+00
     9.769E+00    9.748E+00    9.728E+00    9.708E+00    9.688E+00    9.668E+00    9.648E+00    9.628E+00    9.608E+00    9.588E+00
     9.568E+00    9.548E+00    9.528E+00    9.508E+00    9.488E+00    9.468E+00    9.448E+00    9.428E+00    9.408E+00    9.388E+00
     9.369E+00    9.349E+00    9.329E+00    9.309E+00    9.290E+00    9.270E+00    9.250E+00    9.230E+00    9.211E+00    9.191E+00
     9.172E+00    9.152E+00    9.132E+00    9.113E+00    9.093E+00    9.074E+00    9.054E+00    9.035E+00    9.016E+00    8.996E+00
     8.977E+00    8.958E+00    8.938E+00    8.919E+00    8.900E+00    8.880E+00    8.861E+00    8.842E+00    8.823E+00    8.804E+00
     8.785E+00    8.765E+00    8.746E+00    8.727E+00    8.708E+00    8.689E+00    8.670E+00    8.651E+00    8.632E+00    8.613E+00
     8.594E+00    8.575E+00    8.557E+00    8.538E+00    8.519E+00    8.500E+00    8.481E+00    8.462E+00    8.444E+00    8.425E+00
     8.406E+00    8.388E+00    8.369E+00    8.350E+00    8.331E+00    8.313E+00    8.294E+00    8.276E+00    8.257E+00    8.239E+00
     8.220E+00    8.201E+00    8.183E+00    8.164E+00    8.146E+00    8.128E+00    8.109E+00    8.091E+00    8.072E+00    8.054E+00
     8.035E+00    8.017E+00    7.999E+00    7.980E+00    7.962E+00    7.944E+00    7.926E+00    7.907E+00    7.889E+00    7.871E+00
     7.853E+00    7.834E+00    7.816E+00    7.798E+00    7.780E+00    7.762E+00    7.743E+00    7.725E+00    7.707E+00    7.689E+00
     7.671E+00    7.653E+00    7.635E+00    7.617E+00    7.599E+00    7.581E+00    7.563E+00    7.545E+00    7.527E+00    7.509E+00
     7.491E+00    7.473E+00    7.455E+00    7.437E+00    7.419E+00    7.401E+00    7.383E+00    7.365E+00    7.347E+00    7.330E+00
     7.312E+00    7.294E+00    7.276E+00    7.258E+00    7.240E+00    7.223E+00    7.205E+00    7.187E+00    7.169E+00    7.151E+00
     7.134E+00    7.116E+00    7.098E+00    7.080E+00    7.063E+00    7.045E+00    7.027E+00    7.009E+00    6.992E+00    6.974E+00
     6.956E+00    6.939E+00    6.921E+00    6.903E+00    6.886E+00    6.868E+00    6.850E+00    6.833E+00    6.815E+00    6.797E+00
     6.780E+00    6.762E+00    6.744E+00    6.727E+00    6.709E+00    6.692E+00    6.674E+00    6.656E+00    6.639E+00    6.621E+00
     6.604E+00    6.586E+00    6.568E+00    6.551E+00    6.533E+00    6.516E+00    6.498E+00    6.481E+00    6.463E+00    6.445E+00
     6.428E+00    6.410E+00    6.393E+00    6.375E+00    6.358E+00    6.340E+00    6.323E+00    6.305E+00    6.288E+00    6.270E+00
     6.252E+00    6.235E+00    6.217E+00    6.200E+00    6.182E+00    6.165E+00    6.147E+00    6.130E+00    6.112E+00    6.095E+00
     6.077E+00    6.059E+00    6.042E+00    6.024E+00    6.007E+00    5.989E+00    5.972E+00    5.954E+00    5.937E+00    5.919E+00
     5.901E+00    5.884E+00    5.866E+00    5.849E+00    5.831E+00    5.814E+00    5.796E+00    5.778E+00    5.761E+00    5.743E+00
     5.726E+00    5.708E+00    5.691E+00    5.673E+00    5.655E+00    5.638E+00    5.620E+00    5.602E+00    5.585E+00    5.567E+00
     5.550E+00    5.532E+00    5.514E+00    5.497E+00    5.479E+00    5.461E+00    5.443E+00    5.426E+00    5.408E+00    5.390E+00
     5.373E+00    5.355E+00    5.337E+00    5.319E+00    5.302E+00    5.284E+00    5.266E+00    5.248E+00    5.231E+00    5.213E+00
     5.195E+00    5.177E+00    5.159E+00    5.142E+00    5.124E+00    5.106E+00    5.088E+00    5.070E+00    5.052E+00    5.034E+00
     5.016E+00    4.998E+00    4.981E+00    4.963E+00    4.945E+00    4.927E+00    4.909E+00    4.891E+00    4.873E+00    4.855E+00
     4.837E+00    4.819E+00    4.800E+00    4.782E+00    4.764E+00    4.746E+00    4.728E+00    4.710E+00    4.692E+00    4.674E+00
     4.655E+00    4.637E+00    4.619E+00    4.601E+00    4.583E+00    4.564E+00    4.546E+00    4.528E+00    4.510E+00    4.491E+00
     4.473E+00    4.454E+00    4.436E+00    4.418E+00    4.399E+00    4.381E+00    4.362E+00    4.344E+00    4.326E+00    4.307E+00
     4.289E+00    4.270E+00    4.251E+00    4.233E+00    4.214E+00    4.196E+00    4.177E+00    4.158E+00    4.140E+00    4.121E+00
     4.102E+00    4.084E+00    4.065E+00    4.046E+00    4.027E+00    4.009E+00    3.990E+00    3.971E+00    3.952E+00    3.933E+00
     3.914E+00    3.895E+00    3.876E+00    3.857E+00    3.838E+00    3.819E+00    3.800E+00    3.781E+00    3.762E+00    3.743E+00
     3.724E+00    3.705E+00    3.686E+00    3.666E+00    3.647E+00    3.628E+00    3.609E+00    3.589E+00    3.570E+00    3.551E+00
     3.531E+00    3.512E+00    3.492E+00    3.473E+00    3.454E+00    3.434E+00    3.415E+00    3.395E+00    3.375E+00    3.356E+00
     3.336E+00    3.317E+00    3.297E+00    3.277E+00    3.257E+00    3.238E+00    3.218E+00    3.198E+00    3.178E+00    3.158E+00
     3.139E+00    3.119E+00    3.099E+00    3.079E+00    3.059E+00    3.039E+00    3.019E+00    2.998E+00
 Asp      Conc. = 1.65E+01
