 LCModel (Version 6.3-1L) Copyright: S.W. Provencher.          Ref.: Magn. Reson. Med. 30:672-679 (1993).                
 Slice#3 Row#11 Col#8  PD_24_press_2_raw_act
 36 lines in following concentration table = NCONC+1
    Conc.  %SD /Cr+PCr  Metabolite                                         
    0.203 999% 2.2E-03 Ala                                                 
   27.770 126%   0.304 Asp                                                 
   91.294  31%   1.000 Cr                                                  
    0.000 999%   0.000 PCr                                                 
   18.917 112%   0.207 GABA                                                
   14.709 144%   0.161 Glc                                                 
    0.000 999%   0.000 Gln                                                 
  218.807  70%   2.397 Glu                                                 
    0.000 999%   0.000 GPC                                                 
   76.876  15%   0.842 PCh                                                 
   13.956 297%   0.153 GSH                                                 
  760.254  19%   8.327 Ins                                                 
   48.367 153%   0.530 Lac                                                 
  260.730  16%   2.856 NAA                                                 
    5.531 804% 6.1E-02 NAAG                                                
   16.842  39%   0.184 Scyllo                                              
   51.595  67%   0.565 Tau                                                 
  174.204  23%   1.908 -CrCH2                                              
   76.876  15%   0.842 GPC+PCh                                             
  266.261  14%   2.917 NAA+NAAG                                            
   91.294  31%   1.000 Cr+PCr                                              
  218.807  70%   2.397 Glu+Gln                                             
  643.501  23%   7.049 Lip13a                                              
    0.000 999%   0.000 Lip13b                                              
  172.671  43%   1.891 Lip09                                               
   72.312 104%   0.792 MM09                                                
  108.146  49%   1.185 Lip20                                               
  201.152  66%   2.203 MM20                                                
   19.873 195%   0.218 MM12                                                
    0.000 999%   0.000 MM14                                                
    0.000 999%   0.000 MM17                                                
  643.501  23%   7.049 Lip13a+Lip13b                                       
  663.374  21%   7.266 MM14+Lip13a+Lip13b+MM12                             
  244.983  32%   2.683 MM09+Lip09                                          
  309.298  44%   3.388 MM20+Lip20                                          
   6 lines in following misc. output table
  FWHM = 0.061 ppm    S/N =   2                                            
  Data shift = 0.031 ppm                                                   
  Ph: -69 deg      -8.2 deg/ppm                                            
  alphaB,S = 5.5E-01,   9.3E+01                                            
   14 spline knots.   Ns = 7(1)                                            
  (12) 2 infls.   (10) 1 extrs.                                            
  498 points on ppm-axis = NY
      4.000000     3.992357     3.984714     3.977070     3.969427     3.961784     3.954141     3.946497     3.938854     3.931211
      3.923568     3.915925     3.908281     3.900638     3.892995     3.885352     3.877708     3.870065     3.862422     3.854779
      3.847136     3.839492     3.831849     3.824206     3.816563     3.808919     3.801276     3.793633     3.785990     3.778347
      3.770703     3.763060     3.755417     3.747774     3.740130     3.732487     3.724844     3.717201     3.709558     3.701914
      3.694271     3.686628     3.678985     3.671341     3.663698     3.656055     3.648412     3.640769     3.633125     3.625482
      3.617839     3.610196     3.602552     3.594909     3.587266     3.579623     3.571980     3.564336     3.556693     3.549050
      3.541407     3.533763     3.526120     3.518477     3.510834     3.503191     3.495547     3.487904     3.480261     3.472618
      3.464974     3.457331     3.449688     3.442045     3.434402     3.426758     3.419115     3.411472     3.403829     3.396185
      3.388542     3.380899     3.373256     3.365613     3.357969     3.350326     3.342683     3.335040     3.327396     3.319753
      3.312110     3.304467     3.296824     3.289180     3.281537     3.273894     3.266251     3.258607     3.250964     3.243321
      3.235678     3.228034     3.220391     3.212748     3.205105     3.197462     3.189818     3.182175     3.174532     3.166889
      3.159245     3.151602     3.143959     3.136316     3.128673     3.121029     3.113386     3.105743     3.098100     3.090456
      3.082813     3.075170     3.067527     3.059884     3.052240     3.044597     3.036954     3.029311     3.021667     3.014024
      3.006381     2.998738     2.991095     2.983451     2.975808     2.968165     2.960522     2.952878     2.945235     2.937592
      2.929949     2.922306     2.914662     2.907019     2.899376     2.891733     2.884089     2.876446     2.868803     2.861160
      2.853517     2.845873     2.838230     2.830587     2.822944     2.815300     2.807657     2.800014     2.792371     2.784728
      2.777084     2.769441     2.761798     2.754155     2.746511     2.738868     2.731225     2.723582     2.715939     2.708295
      2.700652     2.693009     2.685366     2.677722     2.670079     2.662436     2.654793     2.647150     2.639506     2.631863
      2.624220     2.616577     2.608933     2.601290     2.593647     2.586004     2.578361     2.570717     2.563074     2.555431
      2.547788     2.540144     2.532501     2.524858     2.517215     2.509572     2.501928     2.494285     2.486642     2.478999
      2.471355     2.463712     2.456069     2.448426     2.440783     2.433139     2.425496     2.417853     2.410210     2.402566
      2.394923     2.387280     2.379637     2.371994     2.364350     2.356707     2.349064     2.341421     2.333777     2.326134
      2.318491     2.310848     2.303205     2.295561     2.287918     2.280275     2.272632     2.264988     2.257345     2.249702
      2.242059     2.234416     2.226772     2.219129     2.211486     2.203843     2.196199     2.188556     2.180913     2.173270
      2.165627     2.157983     2.150340     2.142697     2.135054     2.127410     2.119767     2.112124     2.104481     2.096838
      2.089194     2.081551     2.073908     2.066265     2.058621     2.050978     2.043335     2.035692     2.028049     2.020405
      2.012762     2.005119     1.997476     1.989833     1.982190     1.974546     1.966903     1.959260     1.951617     1.943974
      1.936331     1.928688     1.921045     1.913402     1.905759     1.898115     1.890472     1.882829     1.875186     1.867543
      1.859900     1.852257     1.844614     1.836971     1.829327     1.821684     1.814041     1.806398     1.798755     1.791112
      1.783469     1.775826     1.768183     1.760540     1.752896     1.745253     1.737610     1.729967     1.722324     1.714681
      1.707038     1.699395     1.691752     1.684108     1.676465     1.668822     1.661179     1.653536     1.645893     1.638250
      1.630607     1.622964     1.615321     1.607677     1.600034     1.592391     1.584748     1.577105     1.569462     1.561819
      1.554176     1.546533     1.538890     1.531246     1.523603     1.515960     1.508317     1.500674     1.493031     1.485388
      1.477745     1.470102     1.462458     1.454815     1.447172     1.439529     1.431886     1.424243     1.416600     1.408957
      1.401314     1.393671     1.386027     1.378384     1.370741     1.363098     1.355455     1.347812     1.340169     1.332526
      1.324883     1.317240     1.309596     1.301953     1.294310     1.286667     1.279024     1.271381     1.263738     1.256095
      1.248452     1.240808     1.233165     1.225522     1.217879     1.210236     1.202593     1.194950     1.187307     1.179664
      1.172021     1.164377     1.156734     1.149091     1.141448     1.133805     1.126162     1.118519     1.110876     1.103233
      1.095590     1.087946     1.080303     1.072660     1.065017     1.057374     1.049731     1.042088     1.034445     1.026802
      1.019158     1.011515     1.003872     0.996229     0.988586     0.980943     0.973300     0.965657     0.958014     0.950371
      0.942727     0.935084     0.927441     0.919798     0.912155     0.904512     0.896869     0.889226     0.881583     0.873940
      0.866296     0.858653     0.851010     0.843367     0.835724     0.828081     0.820438     0.812795     0.805152     0.797508
      0.789865     0.782222     0.774579     0.766936     0.759293     0.751650     0.744007     0.736364     0.728721     0.721077
      0.713434     0.705791     0.698148     0.690505     0.682862     0.675219     0.667576     0.659933     0.652290     0.644646
      0.637003     0.629360     0.621717     0.614074     0.606431     0.598788     0.591145     0.583502     0.575858     0.568215
      0.560572     0.552929     0.545286     0.537643     0.530000     0.522357     0.514714     0.507071     0.499427     0.491784
      0.484141     0.476498     0.468855     0.461212     0.453569     0.445925     0.438282     0.430639     0.422996     0.415353
      0.407710     0.400067     0.392424     0.384780     0.377137     0.369494     0.361851     0.354208     0.346565     0.338922
      0.331278     0.323635     0.315992     0.308349     0.300706     0.293063     0.285420     0.277777     0.270133     0.262490
      0.254847     0.247204     0.239561     0.231918     0.224275     0.216631     0.208988     0.201345
 NY phased data points follow
  -5.04486E+01 -4.45393E+01 -4.62441E+01 -4.58616E+01 -4.24872E+01 -4.53904E+01 -4.34835E+01 -4.42636E+01 -4.10332E+01 -3.68838E+01
  -4.04746E+01 -3.83617E+01 -3.50275E+01 -3.96449E+01 -3.58384E+01 -3.59954E+01 -3.69269E+01 -4.10207E+01 -3.88094E+01 -3.64969E+01
  -3.66549E+01 -3.67103E+01 -3.62038E+01 -3.54154E+01 -3.56629E+01 -3.49690E+01 -3.20839E+01 -3.82788E+01 -3.31629E+01 -3.35205E+01
  -3.18446E+01 -2.86159E+01 -2.98988E+01 -2.95535E+01 -2.78818E+01 -3.28909E+01 -3.27575E+01 -3.11968E+01 -2.86187E+01 -2.86154E+01
  -3.04083E+01 -3.00837E+01 -2.60524E+01 -2.73208E+01 -2.42486E+01 -2.66886E+01 -2.33219E+01 -2.77300E+01 -2.53810E+01 -2.76534E+01
  -2.72025E+01 -2.57900E+01 -2.70451E+01 -2.59433E+01 -2.38377E+01 -2.45667E+01 -2.36023E+01 -2.20852E+01 -2.66519E+01 -2.55273E+01
  -2.44370E+01 -2.58355E+01 -2.50308E+01 -2.62684E+01 -2.54646E+01 -2.29833E+01 -2.11281E+01 -2.24785E+01 -2.22641E+01 -2.61429E+01
  -2.21341E+01 -2.43039E+01 -2.10056E+01 -2.55364E+01 -2.33633E+01 -2.17837E+01 -2.27914E+01 -2.46424E+01 -2.18232E+01 -2.13467E+01
  -1.83734E+01 -2.11031E+01 -1.97835E+01 -2.34228E+01 -2.03866E+01 -2.20384E+01 -1.99244E+01 -1.71101E+01 -1.93369E+01 -1.92920E+01
  -2.16753E+01 -2.31604E+01 -2.07602E+01 -1.83844E+01 -1.83735E+01 -2.12461E+01 -1.99350E+01 -1.83855E+01 -1.82885E+01 -1.39221E+01
  -1.93911E+01 -1.51019E+01 -1.35069E+01 -1.29900E+01 -1.46531E+01 -1.44686E+01 -1.56072E+01 -1.64327E+01 -1.22059E+01 -1.91910E+01
  -1.96943E+01 -1.99582E+01 -1.46036E+01 -1.88734E+01 -1.78566E+01 -1.94076E+01 -1.65874E+01 -1.76966E+01 -1.99164E+01 -1.79242E+01
  -1.81190E+01 -1.68449E+01 -1.44779E+01 -1.50717E+01 -1.28716E+01 -1.58515E+01 -1.54635E+01 -1.43292E+01 -1.16627E+01 -1.46877E+01
  -1.36115E+01 -1.58285E+01 -1.41975E+01 -1.45891E+01 -1.47797E+01 -1.58692E+01 -1.73444E+01 -1.40657E+01 -1.56435E+01 -1.32868E+01
  -1.58932E+01 -1.47562E+01 -1.51093E+01 -1.37560E+01 -1.45177E+01 -1.57730E+01 -1.56187E+01 -1.51642E+01 -1.33172E+01 -1.67847E+01
  -1.57252E+01 -1.55511E+01 -1.37588E+01 -1.57951E+01 -1.30881E+01 -1.62146E+01 -1.21913E+01 -1.28391E+01 -1.32031E+01 -1.31545E+01
  -1.15742E+01 -1.53600E+01 -1.64988E+01 -1.50747E+01 -1.44902E+01 -1.47988E+01 -1.43719E+01 -1.28268E+01 -1.36624E+01 -1.23309E+01
  -1.23672E+01 -1.61887E+01 -1.24268E+01 -1.39772E+01 -1.43098E+01 -1.41499E+01 -1.30101E+01 -1.24252E+01 -1.38029E+01 -1.04231E+01
  -1.06761E+01 -1.18774E+01 -1.26871E+01 -1.36461E+01 -1.48109E+01 -1.35703E+01 -1.38578E+01 -1.04813E+01 -1.35788E+01 -1.07169E+01
  -1.21041E+01 -1.04939E+01 -1.16962E+01 -9.02019E+00 -1.16427E+01 -1.32210E+01 -1.01827E+01 -1.23159E+01 -8.46958E+00 -1.14932E+01
  -1.02459E+01 -1.64175E+01 -1.07693E+01 -1.05463E+01 -9.86472E+00 -1.00175E+01 -1.01265E+01 -9.42820E+00 -1.25873E+01 -8.79103E+00
  -9.91268E+00 -9.66088E+00 -1.27724E+01 -1.01286E+01 -1.14895E+01 -1.25147E+01 -1.07266E+01 -1.01566E+01 -1.27673E+01 -1.21181E+01
  -1.12026E+01 -1.09871E+01 -1.11407E+01 -1.19005E+01 -1.24761E+01 -1.08224E+01 -8.82336E+00 -8.11732E+00 -9.04215E+00 -8.45107E+00
  -8.33918E+00 -8.49272E+00 -9.54892E+00 -7.08897E+00 -6.23508E+00 -6.43444E+00 -9.57893E+00 -9.28570E+00 -9.25816E+00 -1.14383E+01
  -1.01536E+01 -6.08361E+00 -6.84892E+00 -1.15539E+01 -7.39100E+00 -1.12655E+01 -1.23738E+01 -8.05367E+00 -7.67282E+00 -8.28848E+00
  -7.46301E+00 -9.90427E+00 -9.81824E+00 -8.07479E+00 -5.88635E+00 -5.56339E+00 -2.49871E+00 -3.86408E+00 -9.05739E-01 -4.53473E-01
  -3.36917E+00 -4.27674E+00 -5.81275E+00 -4.95683E+00 -5.63422E+00 -8.29631E+00 -1.20206E+01 -1.12502E+01 -1.30922E+01 -9.03552E+00
  -1.20688E+01 -1.04231E+01 -1.00076E+01 -1.01886E+01 -1.14056E+01 -9.97347E+00 -9.83968E+00 -1.10866E+01 -9.44715E+00 -1.11413E+01
  -9.50341E+00 -1.10748E+01 -1.31003E+01 -1.49429E+01 -1.24362E+01 -9.36150E+00 -7.62794E+00 -1.29098E+01 -1.00583E+01 -1.06968E+01
  -1.33277E+01 -1.01052E+01 -9.14997E+00 -1.14118E+01 -1.30485E+01 -7.98219E+00 -9.69354E+00 -9.77301E+00 -1.18043E+01 -1.22132E+01
  -9.70276E+00 -1.02145E+01 -1.18600E+01 -9.33591E+00 -1.26531E+01 -1.38615E+01 -7.65539E+00 -1.16667E+01 -1.24060E+01 -1.04099E+01
  -8.52184E+00 -1.19582E+01 -7.66826E+00 -8.24367E+00 -9.49837E+00 -1.03624E+01 -7.81995E+00 -7.95349E+00 -8.00357E+00 -1.09923E+01
  -1.05966E+01 -1.17397E+01 -9.48901E+00 -6.40131E+00 -1.04860E+01 -1.35920E+01 -9.78412E+00 -9.32170E+00 -1.27096E+01 -1.05326E+01
  -8.37030E+00 -7.79359E+00 -1.03421E+01 -8.21325E+00 -1.20553E+01 -1.00546E+01 -9.74191E+00 -9.42656E+00 -1.17921E+01 -6.58760E+00
  -6.02636E+00 -7.42198E+00 -6.37098E+00 -6.42321E+00 -4.91541E+00 -4.89365E+00 -4.78974E+00 -7.24792E+00 -4.11335E+00 -2.83605E+00
  -1.03472E+01 -8.83391E+00 -4.17440E+00 -5.37066E+00 -6.55957E+00 -5.04168E+00 -4.66439E+00 -4.77761E+00 -6.38442E+00 -4.98870E+00
  -7.73973E+00 -3.65061E+00 -5.79688E+00 -7.40326E+00 -6.02518E+00 -5.36076E+00 -3.21482E+00 -6.68674E+00 -5.44348E+00 -7.84976E+00
  -7.31900E+00 -6.38413E+00 -5.84314E+00 -6.11295E+00 -5.69446E+00 -1.03041E+01 -7.14540E+00 -4.30442E+00 -6.85145E+00 -7.24143E+00
  -6.07206E+00 -7.00278E+00 -6.63107E+00 -6.87813E+00 -8.83539E+00 -1.07814E+01 -6.07010E+00 -8.85843E+00 -7.89595E+00 -9.35786E+00
  -8.12910E+00 -7.91036E+00 -6.29583E+00 -6.88121E+00 -7.79625E+00 -4.62235E+00 -7.95891E+00 -8.21502E+00 -5.25043E+00 -5.19811E+00
  -6.82940E+00 -5.15003E+00 -3.87189E+00 -5.64101E+00 -2.47364E+00 -4.28104E+00 -4.16072E+00 -2.38064E+00 -6.30810E+00 -3.97675E+00
  -6.52132E+00 -4.68432E+00 -4.49054E+00 -7.46732E+00 -1.82848E+00 -3.77801E+00 -4.28906E+00 -2.60954E+00 -4.87534E+00 -6.50602E+00
  -3.66085E+00 -5.00571E+00 -7.40060E+00 -4.08240E+00 -8.92032E+00 -1.50632E+00 -2.39616E+00 -4.38097E+00 -3.47768E+00 -3.75549E+00
  -4.13888E+00 -5.40274E+00 -7.42592E+00 -3.81571E+00 -6.42235E+00 -5.19547E+00 -2.18417E+00 -6.01354E+00 -2.50093E+00 -2.66725E+00
  -2.94765E+00 -2.76131E+00 -2.33860E-02 -3.81617E+00 -4.71109E+00 -3.91806E+00 -1.23973E+00 -6.02874E+00 -3.49202E+00 -5.08468E+00
  -2.03956E+00 -3.25595E+00 -5.38799E+00 -6.08338E+00 -4.07960E+00 -3.90344E+00 -3.97731E+00 -5.26274E+00 -2.72878E+00 -8.33966E+00
  -3.68494E+00 -5.62317E+00 -9.99616E-01 -2.88373E+00 -2.57322E+00 -3.26930E+00 -5.57394E+00 -1.74440E+00 -4.14405E+00 -1.83849E+00
  -1.95369E+00 -4.92228E+00 -3.68835E+00 -4.41191E+00 -2.23706E+00 -4.35628E+00 -6.23540E+00 -1.05636E+00 -4.83885E+00 -2.05453E+00
  -5.45703E+00 -3.25673E+00 -4.72260E+00 -5.90535E+00 -2.14281E+00 -2.88317E+00 -4.36547E+00 -6.50866E+00 -4.34479E+00 -6.13856E+00
  -2.26354E+00 -6.00938E+00 -4.86345E+00 -1.99265E+00 -3.18647E+00 -2.58578E+00 -4.08317E+00 -5.38602E+00
 NY points of the fit to the data follow
  -4.07099E+01 -4.10360E+01 -4.15577E+01 -4.20651E+01 -4.23488E+01 -4.22637E+01 -4.18630E+01 -4.12372E+01 -4.04858E+01 -3.97015E+01
  -3.89600E+01 -3.82836E+01 -3.76659E+01 -3.71156E+01 -3.66950E+01 -3.64584E+01 -3.63779E+01 -3.63239E+01 -3.61857E+01 -3.59378E+01
  -3.56282E+01 -3.53372E+01 -3.50787E+01 -3.48218E+01 -3.45472E+01 -3.42432E+01 -3.38919E+01 -3.34834E+01 -3.30377E+01 -3.25849E+01
  -3.21318E+01 -3.17244E+01 -3.14493E+01 -3.13079E+01 -3.12647E+01 -3.12831E+01 -3.13300E+01 -3.13521E+01 -3.12748E+01 -3.09335E+01
  -3.01219E+01 -2.89011E+01 -2.75987E+01 -2.65136E+01 -2.57975E+01 -2.55133E+01 -2.56385E+01 -2.60569E+01 -2.66039E+01 -2.71585E+01
  -2.76838E+01 -2.81165E+01 -2.83011E+01 -2.81152E+01 -2.75428E+01 -2.67593E+01 -2.60214E+01 -2.54931E+01 -2.52119E+01 -2.51244E+01
  -2.51377E+01 -2.51765E+01 -2.51834E+01 -2.51486E+01 -2.50292E+01 -2.47918E+01 -2.44486E+01 -2.40431E+01 -2.36231E+01 -2.32285E+01
  -2.29137E+01 -2.27047E+01 -2.25925E+01 -2.25508E+01 -2.25493E+01 -2.25594E+01 -2.25615E+01 -2.25352E+01 -2.24627E+01 -2.23449E+01
  -2.22474E+01 -2.22494E+01 -2.23404E+01 -2.24638E+01 -2.25664E+01 -2.26048E+01 -2.25439E+01 -2.23777E+01 -2.21215E+01 -2.17918E+01
  -2.14504E+01 -2.11370E+01 -2.08569E+01 -2.06216E+01 -2.04453E+01 -2.02946E+01 -1.99544E+01 -1.90324E+01 -1.76808E+01 -1.62795E+01
  -1.50895E+01 -1.42429E+01 -1.38120E+01 -1.38029E+01 -1.41383E+01 -1.47033E+01 -1.54094E+01 -1.62145E+01 -1.70701E+01 -1.78513E+01
  -1.83811E+01 -1.85763E+01 -1.85300E+01 -1.84169E+01 -1.82991E+01 -1.81771E+01 -1.80495E+01 -1.79126E+01 -1.77553E+01 -1.75458E+01
  -1.71638E+01 -1.65349E+01 -1.58089E+01 -1.51344E+01 -1.45974E+01 -1.42426E+01 -1.40870E+01 -1.41108E+01 -1.42688E+01 -1.45138E+01
  -1.48185E+01 -1.51646E+01 -1.55118E+01 -1.57867E+01 -1.59210E+01 -1.59102E+01 -1.58191E+01 -1.57087E+01 -1.55914E+01 -1.54686E+01
  -1.53443E+01 -1.52240E+01 -1.51119E+01 -1.50103E+01 -1.49200E+01 -1.48387E+01 -1.47625E+01 -1.46873E+01 -1.46123E+01 -1.45370E+01
  -1.44610E+01 -1.43832E+01 -1.43038E+01 -1.42294E+01 -1.41759E+01 -1.41430E+01 -1.41162E+01 -1.40792E+01 -1.40163E+01 -1.39341E+01
  -1.38459E+01 -1.37599E+01 -1.36817E+01 -1.36138E+01 -1.35545E+01 -1.35002E+01 -1.34511E+01 -1.34127E+01 -1.33924E+01 -1.33960E+01
  -1.34111E+01 -1.34057E+01 -1.33680E+01 -1.33074E+01 -1.32467E+01 -1.31909E+01 -1.31318E+01 -1.30641E+01 -1.29875E+01 -1.29084E+01
  -1.28383E+01 -1.27704E+01 -1.26909E+01 -1.25957E+01 -1.24811E+01 -1.23446E+01 -1.21962E+01 -1.20536E+01 -1.19282E+01 -1.18167E+01
  -1.17072E+01 -1.16090E+01 -1.15344E+01 -1.14887E+01 -1.14699E+01 -1.14661E+01 -1.14540E+01 -1.14092E+01 -1.13342E+01 -1.12422E+01
  -1.11570E+01 -1.10923E+01 -1.10527E+01 -1.10517E+01 -1.10886E+01 -1.11561E+01 -1.12462E+01 -1.13199E+01 -1.13263E+01 -1.12059E+01
  -1.09890E+01 -1.07485E+01 -1.05434E+01 -1.04190E+01 -1.04136E+01 -1.05617E+01 -1.08391E+01 -1.11489E+01 -1.13994E+01 -1.15571E+01
  -1.16056E+01 -1.15322E+01 -1.13381E+01 -1.10595E+01 -1.07605E+01 -1.04918E+01 -1.02648E+01 -1.00852E+01 -9.96526E+00 -9.90786E+00
  -9.89016E+00 -9.87656E+00 -9.85014E+00 -9.82401E+00 -9.81295E+00 -9.81637E+00 -9.83935E+00 -9.86748E+00 -9.87899E+00 -9.85986E+00
  -9.80951E+00 -9.72748E+00 -9.62372E+00 -9.52120E+00 -9.43969E+00 -9.38071E+00 -9.33093E+00 -9.27984E+00 -9.21806E+00 -9.13202E+00
  -9.01567E+00 -8.86549E+00 -8.59312E+00 -7.82698E+00 -6.40051E+00 -4.75309E+00 -3.29208E+00 -2.24609E+00 -1.73453E+00 -1.79740E+00
  -2.35637E+00 -3.25458E+00 -4.35044E+00 -5.56895E+00 -6.86662E+00 -8.15055E+00 -9.22615E+00 -9.90471E+00 -1.01840E+01 -1.02495E+01
  -1.02622E+01 -1.02552E+01 -1.02416E+01 -1.02312E+01 -1.02283E+01 -1.02333E+01 -1.02468E+01 -1.02689E+01 -1.02972E+01 -1.03270E+01
  -1.03535E+01 -1.03729E+01 -1.03842E+01 -1.03880E+01 -1.03859E+01 -1.03798E+01 -1.03715E+01 -1.03628E+01 -1.03548E+01 -1.03474E+01
  -1.03403E+01 -1.03331E+01 -1.03253E+01 -1.03161E+01 -1.03054E+01 -1.02934E+01 -1.02800E+01 -1.02650E+01 -1.02487E+01 -1.02311E+01
  -1.02124E+01 -1.01928E+01 -1.01724E+01 -1.01512E+01 -1.01293E+01 -1.01065E+01 -1.00829E+01 -1.00584E+01 -1.00330E+01 -1.00066E+01
  -9.97908E+00 -9.95034E+00 -9.92036E+00 -9.88905E+00 -9.85640E+00 -9.82224E+00 -9.78653E+00 -9.74907E+00 -9.70978E+00 -9.66840E+00
  -9.62475E+00 -9.57872E+00 -9.53033E+00 -9.47930E+00 -9.42534E+00 -9.36796E+00 -9.30674E+00 -9.24103E+00 -9.17010E+00 -9.09306E+00
  -9.00926E+00 -8.91794E+00 -8.81835E+00 -8.70950E+00 -8.59047E+00 -8.46007E+00 -8.31691E+00 -8.15870E+00 -7.98175E+00 -7.77774E+00
  -7.53022E+00 -7.25993E+00 -7.02559E+00 -6.85175E+00 -6.73803E+00 -6.67607E+00 -6.65625E+00 -6.66133E+00 -6.63467E+00 -6.53189E+00
  -6.36324E+00 -6.15383E+00 -5.92249E+00 -5.68292E+00 -5.45610E+00 -5.27139E+00 -5.15244E+00 -5.10309E+00 -5.11559E+00 -5.18629E+00
  -5.30901E+00 -5.46512E+00 -5.62820E+00 -5.78052E+00 -5.92347E+00 -6.06305E+00 -6.19950E+00 -6.33119E+00 -6.45629E+00 -6.57293E+00
  -6.67962E+00 -6.77507E+00 -6.85847E+00 -6.92926E+00 -6.98726E+00 -7.03248E+00 -7.06524E+00 -7.08588E+00 -7.09498E+00 -7.09303E+00
  -7.08065E+00 -7.05835E+00 -7.02667E+00 -6.98600E+00 -6.93679E+00 -6.87930E+00 -6.81386E+00 -6.74067E+00 -6.66003E+00 -6.57215E+00
  -6.47741E+00 -6.37618E+00 -6.26905E+00 -6.15664E+00 -6.03987E+00 -5.91973E+00 -5.79751E+00 -5.67456E+00 -5.55252E+00 -5.43303E+00
  -5.31790E+00 -5.20885E+00 -5.10768E+00 -5.01591E+00 -4.93499E+00 -4.86601E+00 -4.80982E+00 -4.76682E+00 -4.73712E+00 -4.72037E+00
  -4.71590E+00 -4.72266E+00 -4.73937E+00 -4.76448E+00 -4.79634E+00 -4.83317E+00 -4.87327E+00 -4.91491E+00 -4.95657E+00 -4.99683E+00
  -5.03455E+00 -5.06869E+00 -5.09857E+00 -5.12360E+00 -5.14351E+00 -5.15810E+00 -5.16744E+00 -5.17162E+00 -5.17091E+00 -5.16557E+00
  -5.15602E+00 -5.14259E+00 -5.12572E+00 -5.10573E+00 -5.08306E+00 -5.05801E+00 -5.03093E+00 -5.00209E+00 -4.97178E+00 -4.94020E+00
  -4.90760E+00 -4.87412E+00 -4.83996E+00 -4.80521E+00 -4.77005E+00 -4.73452E+00 -4.69878E+00 -4.66285E+00 -4.62686E+00 -4.59081E+00
  -4.55480E+00 -4.51885E+00 -4.48303E+00 -4.44735E+00 -4.41185E+00 -4.37651E+00 -4.34138E+00 -4.30643E+00 -4.27170E+00 -4.23716E+00
  -4.20285E+00 -4.16872E+00 -4.13483E+00 -4.10112E+00 -4.06763E+00 -4.03433E+00 -4.00124E+00 -3.96831E+00 -3.93560E+00 -3.90304E+00
  -3.87068E+00 -3.83846E+00 -3.80642E+00 -3.77450E+00 -3.74275E+00 -3.71111E+00 -3.67962E+00 -3.64823E+00 -3.61696E+00 -3.58576E+00
  -3.55468E+00 -3.52365E+00 -3.49272E+00 -3.46182E+00 -3.43098E+00 -3.40016E+00 -3.36939E+00 -3.33862E+00 -3.30786E+00 -3.27708E+00
  -3.24629E+00 -3.21545E+00 -3.18458E+00 -3.15363E+00 -3.12263E+00 -3.09151E+00 -3.06031E+00 -3.02897E+00
 NY background values follow
    -4.140E+01   -4.116E+01   -4.091E+01   -4.067E+01   -4.042E+01   -4.018E+01   -3.993E+01   -3.969E+01   -3.944E+01   -3.920E+01
    -3.895E+01   -3.871E+01   -3.846E+01   -3.822E+01   -3.797E+01   -3.773E+01   -3.748E+01   -3.724E+01   -3.700E+01   -3.676E+01
    -3.651E+01   -3.627E+01   -3.603E+01   -3.579E+01   -3.555E+01   -3.531E+01   -3.507E+01   -3.483E+01   -3.459E+01   -3.435E+01
    -3.412E+01   -3.388E+01   -3.365E+01   -3.341E+01   -3.318E+01   -3.294E+01   -3.271E+01   -3.248E+01   -3.225E+01   -3.202E+01
    -3.179E+01   -3.156E+01   -3.133E+01   -3.111E+01   -3.088E+01   -3.066E+01   -3.044E+01   -3.021E+01   -2.999E+01   -2.977E+01
    -2.955E+01   -2.934E+01   -2.912E+01   -2.890E+01   -2.869E+01   -2.848E+01   -2.827E+01   -2.805E+01   -2.785E+01   -2.764E+01
    -2.743E+01   -2.722E+01   -2.702E+01   -2.682E+01   -2.661E+01   -2.641E+01   -2.621E+01   -2.602E+01   -2.582E+01   -2.562E+01
    -2.543E+01   -2.524E+01   -2.505E+01   -2.486E+01   -2.467E+01   -2.448E+01   -2.429E+01   -2.411E+01   -2.393E+01   -2.375E+01
    -2.357E+01   -2.339E+01   -2.321E+01   -2.303E+01   -2.286E+01   -2.269E+01   -2.252E+01   -2.235E+01   -2.218E+01   -2.201E+01
    -2.185E+01   -2.168E+01   -2.152E+01   -2.136E+01   -2.120E+01   -2.105E+01   -2.089E+01   -2.074E+01   -2.058E+01   -2.043E+01
    -2.028E+01   -2.013E+01   -1.999E+01   -1.984E+01   -1.970E+01   -1.956E+01   -1.942E+01   -1.928E+01   -1.914E+01   -1.900E+01
    -1.887E+01   -1.874E+01   -1.860E+01   -1.847E+01   -1.834E+01   -1.822E+01   -1.809E+01   -1.797E+01   -1.784E+01   -1.772E+01
    -1.760E+01   -1.748E+01   -1.736E+01   -1.725E+01   -1.713E+01   -1.702E+01   -1.690E+01   -1.679E+01   -1.668E+01   -1.657E+01
    -1.647E+01   -1.636E+01   -1.626E+01   -1.615E+01   -1.605E+01   -1.595E+01   -1.585E+01   -1.575E+01   -1.565E+01   -1.556E+01
    -1.546E+01   -1.537E+01   -1.527E+01   -1.518E+01   -1.509E+01   -1.500E+01   -1.492E+01   -1.483E+01   -1.474E+01   -1.466E+01
    -1.458E+01   -1.449E+01   -1.441E+01   -1.433E+01   -1.426E+01   -1.418E+01   -1.410E+01   -1.403E+01   -1.395E+01   -1.388E+01
    -1.381E+01   -1.373E+01   -1.366E+01   -1.360E+01   -1.353E+01   -1.346E+01   -1.339E+01   -1.333E+01   -1.326E+01   -1.320E+01
    -1.314E+01   -1.308E+01   -1.302E+01   -1.296E+01   -1.290E+01   -1.284E+01   -1.279E+01   -1.273E+01   -1.268E+01   -1.262E+01
    -1.257E+01   -1.252E+01   -1.247E+01   -1.242E+01   -1.237E+01   -1.232E+01   -1.227E+01   -1.223E+01   -1.218E+01   -1.213E+01
    -1.209E+01   -1.205E+01   -1.200E+01   -1.196E+01   -1.192E+01   -1.188E+01   -1.184E+01   -1.180E+01   -1.177E+01   -1.173E+01
    -1.169E+01   -1.166E+01   -1.163E+01   -1.159E+01   -1.156E+01   -1.153E+01   -1.150E+01   -1.147E+01   -1.144E+01   -1.141E+01
    -1.138E+01   -1.135E+01   -1.132E+01   -1.130E+01   -1.127E+01   -1.125E+01   -1.122E+01   -1.120E+01   -1.118E+01   -1.116E+01
    -1.114E+01   -1.112E+01   -1.110E+01   -1.108E+01   -1.106E+01   -1.104E+01   -1.103E+01   -1.101E+01   -1.099E+01   -1.098E+01
    -1.097E+01   -1.095E+01   -1.094E+01   -1.093E+01   -1.091E+01   -1.090E+01   -1.089E+01   -1.088E+01   -1.087E+01   -1.086E+01
    -1.085E+01   -1.085E+01   -1.084E+01   -1.083E+01   -1.082E+01   -1.081E+01   -1.081E+01   -1.080E+01   -1.079E+01   -1.079E+01
    -1.078E+01   -1.078E+01   -1.077E+01   -1.077E+01   -1.076E+01   -1.076E+01   -1.075E+01   -1.075E+01   -1.074E+01   -1.074E+01
    -1.073E+01   -1.073E+01   -1.072E+01   -1.072E+01   -1.071E+01   -1.071E+01   -1.070E+01   -1.070E+01   -1.069E+01   -1.069E+01
    -1.068E+01   -1.068E+01   -1.067E+01   -1.067E+01   -1.066E+01   -1.065E+01   -1.065E+01   -1.064E+01   -1.063E+01   -1.063E+01
    -1.062E+01   -1.061E+01   -1.060E+01   -1.059E+01   -1.059E+01   -1.058E+01   -1.057E+01   -1.056E+01   -1.055E+01   -1.054E+01
    -1.053E+01   -1.052E+01   -1.051E+01   -1.049E+01   -1.048E+01   -1.047E+01   -1.046E+01   -1.044E+01   -1.043E+01   -1.042E+01
    -1.040E+01   -1.039E+01   -1.037E+01   -1.036E+01   -1.034E+01   -1.033E+01   -1.031E+01   -1.029E+01   -1.027E+01   -1.026E+01
    -1.024E+01   -1.022E+01   -1.020E+01   -1.018E+01   -1.016E+01   -1.014E+01   -1.011E+01   -1.009E+01   -1.007E+01   -1.005E+01
    -1.002E+01   -9.997E+00   -9.972E+00   -9.947E+00   -9.921E+00   -9.895E+00   -9.868E+00   -9.840E+00   -9.812E+00   -9.784E+00
    -9.755E+00   -9.726E+00   -9.696E+00   -9.666E+00   -9.635E+00   -9.603E+00   -9.572E+00   -9.540E+00   -9.507E+00   -9.474E+00
    -9.440E+00   -9.407E+00   -9.372E+00   -9.337E+00   -9.302E+00   -9.267E+00   -9.230E+00   -9.194E+00   -9.157E+00   -9.120E+00
    -9.082E+00   -9.044E+00   -9.006E+00   -8.967E+00   -8.927E+00   -8.888E+00   -8.848E+00   -8.807E+00   -8.767E+00   -8.725E+00
    -8.684E+00   -8.642E+00   -8.600E+00   -8.557E+00   -8.515E+00   -8.471E+00   -8.428E+00   -8.384E+00   -8.340E+00   -8.295E+00
    -8.251E+00   -8.206E+00   -8.161E+00   -8.115E+00   -8.069E+00   -8.023E+00   -7.977E+00   -7.931E+00   -7.884E+00   -7.837E+00
    -7.790E+00   -7.743E+00   -7.695E+00   -7.648E+00   -7.600E+00   -7.552E+00   -7.504E+00   -7.456E+00   -7.408E+00   -7.359E+00
    -7.311E+00   -7.262E+00   -7.213E+00   -7.165E+00   -7.116E+00   -7.067E+00   -7.018E+00   -6.969E+00   -6.920E+00   -6.871E+00
    -6.822E+00   -6.772E+00   -6.723E+00   -6.674E+00   -6.625E+00   -6.576E+00   -6.527E+00   -6.478E+00   -6.429E+00   -6.380E+00
    -6.332E+00   -6.283E+00   -6.234E+00   -6.186E+00   -6.137E+00   -6.089E+00   -6.041E+00   -5.992E+00   -5.945E+00   -5.897E+00
    -5.849E+00   -5.802E+00   -5.754E+00   -5.707E+00   -5.660E+00   -5.613E+00   -5.567E+00   -5.520E+00   -5.474E+00   -5.428E+00
    -5.382E+00   -5.337E+00   -5.292E+00   -5.247E+00   -5.202E+00   -5.157E+00   -5.113E+00   -5.069E+00   -5.026E+00   -4.982E+00
    -4.940E+00   -4.897E+00   -4.855E+00   -4.813E+00   -4.771E+00   -4.730E+00   -4.689E+00   -4.648E+00   -4.608E+00   -4.568E+00
    -4.529E+00   -4.490E+00   -4.451E+00   -4.413E+00   -4.375E+00   -4.338E+00   -4.301E+00   -4.264E+00   -4.228E+00   -4.192E+00
    -4.156E+00   -4.121E+00   -4.086E+00   -4.052E+00   -4.017E+00   -3.983E+00   -3.949E+00   -3.916E+00   -3.883E+00   -3.850E+00
    -3.817E+00   -3.784E+00   -3.752E+00   -3.720E+00   -3.688E+00   -3.656E+00   -3.624E+00   -3.593E+00   -3.561E+00   -3.530E+00
    -3.499E+00   -3.468E+00   -3.437E+00   -3.407E+00   -3.376E+00   -3.345E+00   -3.315E+00   -3.284E+00   -3.254E+00   -3.223E+00
    -3.193E+00   -3.162E+00   -3.132E+00   -3.102E+00   -3.071E+00   -3.041E+00   -3.010E+00   -2.979E+00
 Ala      Conc. = 2.03E-01
