 LCModel (Version 6.3-1L) Copyright: S.W. Provencher.          Ref.: Magn. Reson. Med. 30:672-679 (1993).                
 Slice#2 Row#11 Col#4  PD_24_press_2_raw_act
 36 lines in following concentration table = NCONC+1
    Conc.  %SD /Cr+PCr  Metabolite                                         
    0.000 999%   0.000 Ala                                                 
   33.118 134%   0.000 Asp                                                 
    0.000 999%   0.000 Cr                                                  
    0.000 999%   0.000 PCr                                                 
    2.795 958%   0.000 GABA                                                
   12.364 217%   0.000 Glc                                                 
    0.000 999%   0.000 Gln                                                 
   99.078 694%   0.000 Glu                                                 
  103.586  30%   0.000 GPC                                                 
    0.000 999%   0.000 PCh                                                 
  826.008  26%   0.000 GSH                                                 
 2.20E+03  21%   0.000 Ins                                                 
    0.000 999%   0.000 Lac                                                 
    0.000 999%   0.000 NAA                                                 
    0.000 999%   0.000 NAAG                                                
   11.788  75%   0.000 Scyllo                                              
   30.216 147%   0.000 Tau                                                 
  416.836  37%   0.000+-CrCH2                                              
  103.586  30%   0.000 GPC+PCh                                             
    0.000 999%   0.000 NAA+NAAG                                            
    0.000 999%   0.000 Cr+PCr                                              
   99.078 694%   0.000 Glu+Gln                                             
    0.000 999%   0.000 Lip13a                                              
    0.000 999%   0.000 Lip13b                                              
  164.838  50%   0.000 Lip09                                               
  103.753  49%   0.000 MM09                                                
    0.000 999%   0.000 Lip20                                               
    0.000 999%   0.000 MM20                                                
   24.743 106%   0.000 MM12                                                
   26.948 356%   0.000 MM14                                                
  439.451  13%   0.000+MM17                                                
    0.000 999%   0.000 Lip13a+Lip13b                                       
   51.691 203%   0.000 MM14+Lip13a+Lip13b+MM12                             
  268.591  33%   0.000 MM09+Lip09                                          
    0.000 999%   0.000 MM20+Lip20                                          
   6 lines in following misc. output table
  FWHM = 0.122 ppm    S/N =   2                                            
  Data shift = 0.122 ppm                                                   
  Ph: -26 deg      28.1 deg/ppm                                            
  alphaB,S = 2.1E+00,   1.1E+02                                            
    9 spline knots.   Ns = 9(2)                                            
  (11) 6 infls.   ( 4) 2 extrs.                                            
  498 points on ppm-axis = NY
      4.000000     3.992357     3.984714     3.977070     3.969427     3.961784     3.954141     3.946497     3.938854     3.931211
      3.923568     3.915925     3.908281     3.900638     3.892995     3.885352     3.877708     3.870065     3.862422     3.854779
      3.847136     3.839492     3.831849     3.824206     3.816563     3.808919     3.801276     3.793633     3.785990     3.778347
      3.770703     3.763060     3.755417     3.747774     3.740130     3.732487     3.724844     3.717201     3.709558     3.701914
      3.694271     3.686628     3.678985     3.671341     3.663698     3.656055     3.648412     3.640769     3.633125     3.625482
      3.617839     3.610196     3.602552     3.594909     3.587266     3.579623     3.571980     3.564336     3.556693     3.549050
      3.541407     3.533763     3.526120     3.518477     3.510834     3.503191     3.495547     3.487904     3.480261     3.472618
      3.464974     3.457331     3.449688     3.442045     3.434402     3.426758     3.419115     3.411472     3.403829     3.396185
      3.388542     3.380899     3.373256     3.365613     3.357969     3.350326     3.342683     3.335040     3.327396     3.319753
      3.312110     3.304467     3.296824     3.289180     3.281537     3.273894     3.266251     3.258607     3.250964     3.243321
      3.235678     3.228034     3.220391     3.212748     3.205105     3.197462     3.189818     3.182175     3.174532     3.166889
      3.159245     3.151602     3.143959     3.136316     3.128673     3.121029     3.113386     3.105743     3.098100     3.090456
      3.082813     3.075170     3.067527     3.059884     3.052240     3.044597     3.036954     3.029311     3.021667     3.014024
      3.006381     2.998738     2.991095     2.983451     2.975808     2.968165     2.960522     2.952878     2.945235     2.937592
      2.929949     2.922306     2.914662     2.907019     2.899376     2.891733     2.884089     2.876446     2.868803     2.861160
      2.853517     2.845873     2.838230     2.830587     2.822944     2.815300     2.807657     2.800014     2.792371     2.784728
      2.777084     2.769441     2.761798     2.754155     2.746511     2.738868     2.731225     2.723582     2.715939     2.708295
      2.700652     2.693009     2.685366     2.677722     2.670079     2.662436     2.654793     2.647150     2.639506     2.631863
      2.624220     2.616577     2.608933     2.601290     2.593647     2.586004     2.578361     2.570717     2.563074     2.555431
      2.547788     2.540144     2.532501     2.524858     2.517215     2.509572     2.501928     2.494285     2.486642     2.478999
      2.471355     2.463712     2.456069     2.448426     2.440783     2.433139     2.425496     2.417853     2.410210     2.402566
      2.394923     2.387280     2.379637     2.371994     2.364350     2.356707     2.349064     2.341421     2.333777     2.326134
      2.318491     2.310848     2.303205     2.295561     2.287918     2.280275     2.272632     2.264988     2.257345     2.249702
      2.242059     2.234416     2.226772     2.219129     2.211486     2.203843     2.196199     2.188556     2.180913     2.173270
      2.165627     2.157983     2.150340     2.142697     2.135054     2.127410     2.119767     2.112124     2.104481     2.096838
      2.089194     2.081551     2.073908     2.066265     2.058621     2.050978     2.043335     2.035692     2.028049     2.020405
      2.012762     2.005119     1.997476     1.989833     1.982190     1.974546     1.966903     1.959260     1.951617     1.943974
      1.936331     1.928688     1.921045     1.913402     1.905759     1.898115     1.890472     1.882829     1.875186     1.867543
      1.859900     1.852257     1.844614     1.836971     1.829327     1.821684     1.814041     1.806398     1.798755     1.791112
      1.783469     1.775826     1.768183     1.760540     1.752896     1.745253     1.737610     1.729967     1.722324     1.714681
      1.707038     1.699395     1.691752     1.684108     1.676465     1.668822     1.661179     1.653536     1.645893     1.638250
      1.630607     1.622964     1.615321     1.607677     1.600034     1.592391     1.584748     1.577105     1.569462     1.561819
      1.554176     1.546533     1.538890     1.531246     1.523603     1.515960     1.508317     1.500674     1.493031     1.485388
      1.477745     1.470102     1.462458     1.454815     1.447172     1.439529     1.431886     1.424243     1.416600     1.408957
      1.401314     1.393671     1.386027     1.378384     1.370741     1.363098     1.355455     1.347812     1.340169     1.332526
      1.324883     1.317240     1.309596     1.301953     1.294310     1.286667     1.279024     1.271381     1.263738     1.256095
      1.248452     1.240808     1.233165     1.225522     1.217879     1.210236     1.202593     1.194950     1.187307     1.179664
      1.172021     1.164377     1.156734     1.149091     1.141448     1.133805     1.126162     1.118519     1.110876     1.103233
      1.095590     1.087946     1.080303     1.072660     1.065017     1.057374     1.049731     1.042088     1.034445     1.026802
      1.019158     1.011515     1.003872     0.996229     0.988586     0.980943     0.973300     0.965657     0.958014     0.950371
      0.942727     0.935084     0.927441     0.919798     0.912155     0.904512     0.896869     0.889226     0.881583     0.873940
      0.866296     0.858653     0.851010     0.843367     0.835724     0.828081     0.820438     0.812795     0.805152     0.797508
      0.789865     0.782222     0.774579     0.766936     0.759293     0.751650     0.744007     0.736364     0.728721     0.721077
      0.713434     0.705791     0.698148     0.690505     0.682862     0.675219     0.667576     0.659933     0.652290     0.644646
      0.637003     0.629360     0.621717     0.614074     0.606431     0.598788     0.591145     0.583502     0.575858     0.568215
      0.560572     0.552929     0.545286     0.537643     0.530000     0.522357     0.514714     0.507071     0.499427     0.491784
      0.484141     0.476498     0.468855     0.461212     0.453569     0.445925     0.438282     0.430639     0.422996     0.415353
      0.407710     0.400067     0.392424     0.384780     0.377137     0.369494     0.361851     0.354208     0.346565     0.338922
      0.331278     0.323635     0.315992     0.308349     0.300706     0.293063     0.285420     0.277777     0.270133     0.262490
      0.254847     0.247204     0.239561     0.231918     0.224275     0.216631     0.208988     0.201345
 NY phased data points follow
  -2.92732E+02 -2.88097E+02 -2.86224E+02 -2.85189E+02 -2.84325E+02 -2.75650E+02 -2.78789E+02 -2.77057E+02 -2.74870E+02 -2.69356E+02
  -2.72969E+02 -2.69145E+02 -2.66445E+02 -2.61588E+02 -2.59834E+02 -2.55954E+02 -2.54095E+02 -2.52286E+02 -2.49708E+02 -2.47923E+02
  -2.46865E+02 -2.42626E+02 -2.39552E+02 -2.39036E+02 -2.35628E+02 -2.34086E+02 -2.32225E+02 -2.31949E+02 -2.29415E+02 -2.25328E+02
  -2.26772E+02 -2.25575E+02 -2.24304E+02 -2.22162E+02 -2.24160E+02 -2.20810E+02 -2.20433E+02 -2.18569E+02 -2.15014E+02 -2.12495E+02
  -2.15788E+02 -2.14172E+02 -2.11876E+02 -2.11340E+02 -2.11872E+02 -2.07801E+02 -2.08948E+02 -2.09450E+02 -2.03681E+02 -2.06073E+02
  -2.04699E+02 -2.01248E+02 -2.00811E+02 -1.99895E+02 -1.98866E+02 -1.95519E+02 -1.95355E+02 -1.95784E+02 -1.93783E+02 -1.89390E+02
  -1.91450E+02 -1.91812E+02 -1.92816E+02 -1.85578E+02 -1.87073E+02 -1.88238E+02 -1.85500E+02 -1.83409E+02 -1.85384E+02 -1.83627E+02
  -1.80515E+02 -1.82988E+02 -1.79781E+02 -1.76157E+02 -1.79438E+02 -1.76687E+02 -1.76517E+02 -1.72802E+02 -1.72450E+02 -1.72602E+02
  -1.70635E+02 -1.70470E+02 -1.71880E+02 -1.69938E+02 -1.68958E+02 -1.67227E+02 -1.66989E+02 -1.66219E+02 -1.65781E+02 -1.64662E+02
  -1.66079E+02 -1.63491E+02 -1.61858E+02 -1.59254E+02 -1.59656E+02 -1.55665E+02 -1.59963E+02 -1.54461E+02 -1.55816E+02 -1.54014E+02
  -1.59379E+02 -1.52691E+02 -1.55474E+02 -1.56482E+02 -1.58093E+02 -1.52968E+02 -1.52864E+02 -1.51383E+02 -1.52786E+02 -1.51640E+02
  -1.48282E+02 -1.50250E+02 -1.50562E+02 -1.51837E+02 -1.51303E+02 -1.44996E+02 -1.43888E+02 -1.42251E+02 -1.42000E+02 -1.40481E+02
  -1.38241E+02 -1.38900E+02 -1.40888E+02 -1.41651E+02 -1.42401E+02 -1.41406E+02 -1.41235E+02 -1.40767E+02 -1.40837E+02 -1.38133E+02
  -1.39348E+02 -1.40020E+02 -1.38433E+02 -1.38354E+02 -1.36140E+02 -1.35706E+02 -1.34638E+02 -1.35250E+02 -1.36177E+02 -1.37422E+02
  -1.30889E+02 -1.32940E+02 -1.33886E+02 -1.31239E+02 -1.32023E+02 -1.31704E+02 -1.32234E+02 -1.30825E+02 -1.30792E+02 -1.30747E+02
  -1.28527E+02 -1.29547E+02 -1.28060E+02 -1.27785E+02 -1.26501E+02 -1.23773E+02 -1.29795E+02 -1.25819E+02 -1.29443E+02 -1.28279E+02
  -1.27494E+02 -1.29188E+02 -1.26003E+02 -1.23156E+02 -1.24647E+02 -1.23278E+02 -1.23315E+02 -1.23187E+02 -1.21724E+02 -1.21832E+02
  -1.17369E+02 -1.18283E+02 -1.18597E+02 -1.19905E+02 -1.19247E+02 -1.15448E+02 -1.16408E+02 -1.15458E+02 -1.13595E+02 -1.17201E+02
  -1.16887E+02 -1.15216E+02 -1.15481E+02 -1.14134E+02 -1.14391E+02 -1.12843E+02 -1.09906E+02 -1.13305E+02 -1.11611E+02 -1.11608E+02
  -1.11615E+02 -1.09899E+02 -1.09880E+02 -1.09435E+02 -1.09400E+02 -1.06764E+02 -1.07151E+02 -1.05135E+02 -1.06801E+02 -1.06480E+02
  -1.06532E+02 -1.06402E+02 -1.03787E+02 -1.03857E+02 -1.05801E+02 -1.03113E+02 -1.02492E+02 -1.03156E+02 -1.02292E+02 -9.91057E+01
  -1.04054E+02 -1.05144E+02 -1.04949E+02 -1.02751E+02 -1.01040E+02 -1.04635E+02 -1.00732E+02 -9.95929E+01 -1.01686E+02 -1.02872E+02
  -1.02265E+02 -1.07933E+02 -1.00472E+02 -1.01992E+02 -1.02156E+02 -9.97291E+01 -1.02044E+02 -9.82753E+01 -9.99628E+01 -9.74460E+01
  -9.98627E+01 -9.85932E+01 -9.90507E+01 -9.71976E+01 -9.97710E+01 -9.88165E+01 -9.71624E+01 -9.61985E+01 -9.66721E+01 -9.68691E+01
  -9.47666E+01 -9.56516E+01 -9.40243E+01 -9.57960E+01 -9.49950E+01 -9.57459E+01 -9.73922E+01 -9.51039E+01 -9.49710E+01 -9.22467E+01
  -9.30577E+01 -9.18025E+01 -9.09034E+01 -9.30177E+01 -8.91235E+01 -9.55089E+01 -9.58772E+01 -9.36861E+01 -9.13130E+01 -9.00924E+01
  -9.30295E+01 -8.92663E+01 -8.54225E+01 -8.78465E+01 -8.73783E+01 -8.81629E+01 -8.65597E+01 -8.81455E+01 -8.97335E+01 -8.84385E+01
  -8.92069E+01 -8.55175E+01 -8.74564E+01 -8.38704E+01 -8.72132E+01 -8.62014E+01 -8.56327E+01 -8.59217E+01 -8.58227E+01 -8.25388E+01
  -8.28854E+01 -8.07393E+01 -8.03423E+01 -8.11207E+01 -7.67030E+01 -7.75344E+01 -7.55956E+01 -7.25895E+01 -7.55453E+01 -6.96926E+01
  -6.59555E+01 -6.71061E+01 -6.57425E+01 -6.46880E+01 -6.04705E+01 -5.98867E+01 -5.91131E+01 -5.78431E+01 -5.94741E+01 -5.80992E+01
  -5.75408E+01 -5.61999E+01 -5.93453E+01 -6.07599E+01 -6.05360E+01 -6.31299E+01 -6.37380E+01 -6.45068E+01 -6.51264E+01 -6.41045E+01
  -6.23888E+01 -6.50913E+01 -6.52354E+01 -6.73424E+01 -6.55193E+01 -6.40269E+01 -6.85369E+01 -6.47816E+01 -6.62178E+01 -6.12853E+01
  -6.29504E+01 -6.26834E+01 -6.03283E+01 -5.95031E+01 -6.17011E+01 -6.02559E+01 -5.96216E+01 -6.04498E+01 -5.87836E+01 -5.60170E+01
  -5.96292E+01 -5.77350E+01 -5.84221E+01 -5.67113E+01 -5.55364E+01 -5.56703E+01 -5.71263E+01 -5.58726E+01 -5.77689E+01 -5.80441E+01
  -5.89506E+01 -5.82563E+01 -6.00627E+01 -5.85178E+01 -5.80676E+01 -5.66161E+01 -5.97196E+01 -5.54427E+01 -5.54857E+01 -5.42006E+01
  -5.15722E+01 -5.63103E+01 -5.49487E+01 -5.60768E+01 -5.60582E+01 -5.62187E+01 -5.59376E+01 -5.49270E+01 -5.45752E+01 -5.60032E+01
  -5.30229E+01 -5.51089E+01 -5.55586E+01 -5.40836E+01 -5.29189E+01 -5.38412E+01 -5.28772E+01 -5.20594E+01 -5.47140E+01 -5.27046E+01
  -5.25237E+01 -5.06941E+01 -5.48902E+01 -5.14560E+01 -5.18414E+01 -5.20081E+01 -5.08498E+01 -4.92511E+01 -5.26483E+01 -5.13388E+01
  -4.93135E+01 -5.18539E+01 -5.47222E+01 -5.08132E+01 -4.94518E+01 -4.78230E+01 -5.05830E+01 -4.92341E+01 -5.03128E+01 -4.80982E+01
  -4.79644E+01 -4.84101E+01 -4.81061E+01 -4.95385E+01 -4.88792E+01 -4.82362E+01 -4.91816E+01 -4.83465E+01 -4.62049E+01 -4.63273E+01
  -4.71371E+01 -4.63474E+01 -4.59836E+01 -4.59351E+01 -4.43305E+01 -4.27313E+01 -4.40142E+01 -4.36779E+01 -4.13262E+01 -4.21614E+01
  -4.20068E+01 -4.20134E+01 -4.43023E+01 -4.12294E+01 -4.12683E+01 -4.30292E+01 -3.93422E+01 -3.99966E+01 -4.10337E+01 -3.97973E+01
  -4.03819E+01 -4.01127E+01 -3.59577E+01 -3.82741E+01 -4.04890E+01 -3.92720E+01 -3.86715E+01 -4.12976E+01 -3.66893E+01 -3.72605E+01
  -3.80833E+01 -3.63931E+01 -3.61700E+01 -3.77050E+01 -3.54342E+01 -3.73131E+01 -3.65845E+01 -3.80786E+01 -3.72182E+01 -3.87603E+01
  -3.64415E+01 -3.74037E+01 -3.68239E+01 -3.58467E+01 -3.56743E+01 -3.35405E+01 -3.51413E+01 -3.36978E+01 -3.14265E+01 -3.60820E+01
  -3.40855E+01 -3.45652E+01 -3.19681E+01 -3.32042E+01 -3.04769E+01 -3.16944E+01 -3.10187E+01 -3.10862E+01 -3.12312E+01 -3.02408E+01
  -2.82688E+01 -2.81499E+01 -2.91788E+01 -2.89060E+01 -2.93374E+01 -2.93712E+01 -2.70524E+01 -2.68406E+01 -2.62931E+01 -2.65096E+01
  -2.72211E+01 -2.46053E+01 -2.88046E+01 -2.68224E+01 -2.70258E+01 -2.46729E+01 -2.71018E+01 -2.69423E+01 -2.67725E+01 -2.83121E+01
  -2.54412E+01 -2.55200E+01 -2.74956E+01 -2.55729E+01 -2.42687E+01 -2.43226E+01 -2.73514E+01 -2.20105E+01 -2.42760E+01 -2.54662E+01
  -2.27880E+01 -2.50395E+01 -2.59398E+01 -2.54585E+01 -2.57276E+01 -2.63940E+01 -2.67002E+01 -2.53059E+01
 NY points of the fit to the data follow
  -2.86913E+02 -2.85806E+02 -2.84500E+02 -2.82894E+02 -2.81492E+02 -2.79403E+02 -2.78052E+02 -2.75749E+02 -2.74463E+02 -2.72043E+02
  -2.70779E+02 -2.68072E+02 -2.65837E+02 -2.62833E+02 -2.60255E+02 -2.57334E+02 -2.54698E+02 -2.52013E+02 -2.49407E+02 -2.46846E+02
  -2.44127E+02 -2.41865E+02 -2.39590E+02 -2.37687E+02 -2.36014E+02 -2.34410E+02 -2.33312E+02 -2.31889E+02 -2.30972E+02 -2.29341E+02
  -2.28155E+02 -2.26358E+02 -2.25238E+02 -2.23569E+02 -2.22613E+02 -2.21049E+02 -2.20009E+02 -2.18466E+02 -2.17241E+02 -2.15808E+02
  -2.14625E+02 -2.13297E+02 -2.11970E+02 -2.10742E+02 -2.09444E+02 -2.08393E+02 -2.07208E+02 -2.06341E+02 -2.05287E+02 -2.04469E+02
  -2.03261E+02 -2.02464E+02 -2.01209E+02 -2.00455E+02 -1.99030E+02 -1.98262E+02 -1.96735E+02 -1.95923E+02 -1.94285E+02 -1.93390E+02
  -1.91655E+02 -1.90780E+02 -1.89129E+02 -1.88371E+02 -1.86920E+02 -1.86237E+02 -1.84947E+02 -1.84192E+02 -1.82936E+02 -1.82224E+02
  -1.81157E+02 -1.80604E+02 -1.79686E+02 -1.79251E+02 -1.78413E+02 -1.78058E+02 -1.77250E+02 -1.76934E+02 -1.76107E+02 -1.75716E+02
  -1.74875E+02 -1.74368E+02 -1.73511E+02 -1.72837E+02 -1.71697E+02 -1.70484E+02 -1.69474E+02 -1.67891E+02 -1.67165E+02 -1.65336E+02
  -1.64890E+02 -1.62858E+02 -1.62609E+02 -1.60419E+02 -1.60423E+02 -1.58276E+02 -1.58511E+02 -1.56573E+02 -1.56942E+02 -1.55301E+02
  -1.55652E+02 -1.54257E+02 -1.54529E+02 -1.53338E+02 -1.53475E+02 -1.52454E+02 -1.52442E+02 -1.51569E+02 -1.51395E+02 -1.50606E+02
  -1.50318E+02 -1.49559E+02 -1.49174E+02 -1.48387E+02 -1.47832E+02 -1.46824E+02 -1.46070E+02 -1.45125E+02 -1.44432E+02 -1.43712E+02
  -1.43149E+02 -1.42602E+02 -1.41936E+02 -1.41423E+02 -1.40521E+02 -1.40163E+02 -1.39149E+02 -1.38989E+02 -1.37909E+02 -1.37889E+02
  -1.36699E+02 -1.36715E+02 -1.35411E+02 -1.35475E+02 -1.34181E+02 -1.34289E+02 -1.33119E+02 -1.33241E+02 -1.32218E+02 -1.32262E+02
  -1.31359E+02 -1.31318E+02 -1.30551E+02 -1.30444E+02 -1.29829E+02 -1.29646E+02 -1.29149E+02 -1.28920E+02 -1.28537E+02 -1.28267E+02
  -1.27947E+02 -1.27616E+02 -1.27278E+02 -1.26868E+02 -1.26457E+02 -1.26014E+02 -1.25594E+02 -1.25162E+02 -1.24785E+02 -1.24365E+02
  -1.24015E+02 -1.23597E+02 -1.23250E+02 -1.22848E+02 -1.22510E+02 -1.22139E+02 -1.21803E+02 -1.21513E+02 -1.21208E+02 -1.20966E+02
  -1.20685E+02 -1.20447E+02 -1.20087E+02 -1.19746E+02 -1.19253E+02 -1.18837E+02 -1.18318E+02 -1.17873E+02 -1.17399E+02 -1.17024E+02
  -1.16726E+02 -1.16269E+02 -1.16017E+02 -1.15475E+02 -1.15297E+02 -1.14721E+02 -1.14639E+02 -1.14052E+02 -1.14033E+02 -1.13386E+02
  -1.13323E+02 -1.12611E+02 -1.12481E+02 -1.11751E+02 -1.11565E+02 -1.10878E+02 -1.10664E+02 -1.10029E+02 -1.09735E+02 -1.09139E+02
  -1.08780E+02 -1.08228E+02 -1.07815E+02 -1.07336E+02 -1.06935E+02 -1.06562E+02 -1.06197E+02 -1.05897E+02 -1.05569E+02 -1.05312E+02
  -1.05007E+02 -1.04713E+02 -1.04381E+02 -1.04125E+02 -1.03883E+02 -1.03619E+02 -1.03405E+02 -1.03088E+02 -1.02851E+02 -1.02359E+02
  -1.01983E+02 -1.01506E+02 -1.01177E+02 -1.00798E+02 -1.00513E+02 -1.00239E+02 -9.99803E+01 -9.97482E+01 -9.93555E+01 -9.91968E+01
  -9.87520E+01 -9.86783E+01 -9.82090E+01 -9.81760E+01 -9.76883E+01 -9.76179E+01 -9.70526E+01 -9.69239E+01 -9.63400E+01 -9.61648E+01
  -9.56243E+01 -9.54140E+01 -9.49508E+01 -9.46830E+01 -9.42610E+01 -9.39080E+01 -9.34894E+01 -9.30662E+01 -9.26454E+01 -9.21777E+01
  -9.17685E+01 -9.13310E+01 -9.09811E+01 -9.05709E+01 -9.02439E+01 -8.98258E+01 -8.94795E+01 -8.90103E+01 -8.85946E+01 -8.81033E+01
  -8.76681E+01 -8.71875E+01 -8.67649E+01 -8.63077E+01 -8.59125E+01 -8.54678E+01 -8.50723E+01 -8.46257E+01 -8.42198E+01 -8.37694E+01
  -8.33534E+01 -8.29012E+01 -8.24777E+01 -8.20229E+01 -8.15899E+01 -8.11248E+01 -8.06742E+01 -8.01899E+01 -7.97145E+01 -7.92000E+01
  -7.86888E+01 -7.81329E+01 -7.75750E+01 -7.69686E+01 -7.63574E+01 -7.56979E+01 -7.50355E+01 -7.43300E+01 -7.36299E+01 -7.28984E+01
  -7.21861E+01 -7.14590E+01 -7.07689E+01 -7.00826E+01 -6.94511E+01 -6.88404E+01 -6.82985E+01 -6.77888E+01 -6.73547E+01 -6.69557E+01
  -6.66302E+01 -6.63339E+01 -6.61011E+01 -6.58847E+01 -6.57163E+01 -6.55484E+01 -6.54120E+01 -6.52606E+01 -6.51264E+01 -6.49654E+01
  -6.48121E+01 -6.46249E+01 -6.44408E+01 -6.42207E+01 -6.40033E+01 -6.37516E+01 -6.35048E+01 -6.32274E+01 -6.29587E+01 -6.26636E+01
  -6.23811E+01 -6.20762E+01 -6.17871E+01 -6.14789E+01 -6.11891E+01 -6.08827E+01 -6.05964E+01 -6.02954E+01 -6.00158E+01 -5.97227E+01
  -5.94519E+01 -5.91687E+01 -5.89083E+01 -5.86362E+01 -5.83868E+01 -5.81259E+01 -5.78876E+01 -5.76378E+01 -5.74103E+01 -5.71713E+01
  -5.69540E+01 -5.67252E+01 -5.65177E+01 -5.62983E+01 -5.60997E+01 -5.58890E+01 -5.56984E+01 -5.54954E+01 -5.53120E+01 -5.51160E+01
  -5.49388E+01 -5.47489E+01 -5.45774E+01 -5.43929E+01 -5.42264E+01 -5.40468E+01 -5.38848E+01 -5.37098E+01 -5.35521E+01 -5.33814E+01
  -5.32278E+01 -5.30612E+01 -5.29115E+01 -5.27489E+01 -5.26029E+01 -5.24440E+01 -5.23014E+01 -5.21460E+01 -5.20064E+01 -5.18538E+01
  -5.17166E+01 -5.15662E+01 -5.14307E+01 -5.12816E+01 -5.11468E+01 -5.09980E+01 -5.08627E+01 -5.07130E+01 -5.05759E+01 -5.04239E+01
  -5.02835E+01 -5.01273E+01 -4.99818E+01 -4.98195E+01 -4.96664E+01 -4.94954E+01 -4.93319E+01 -4.91490E+01 -4.89717E+01 -4.87733E+01
  -4.85783E+01 -4.83602E+01 -4.81435E+01 -4.79021E+01 -4.76604E+01 -4.73929E+01 -4.71244E+01 -4.68304E+01 -4.65360E+01 -4.62178E+01
  -4.59019E+01 -4.55661E+01 -4.52369E+01 -4.48932E+01 -4.45621E+01 -4.42232E+01 -4.39031E+01 -4.35817E+01 -4.32849E+01 -4.29918E+01
  -4.27270E+01 -4.24686E+01 -4.22395E+01 -4.20163E+01 -4.18203E+01 -4.16271E+01 -4.14567E+01 -4.12843E+01 -4.11293E+01 -4.09667E+01
  -4.08157E+01 -4.06519E+01 -4.04947E+01 -4.03205E+01 -4.01492E+01 -3.99586E+01 -3.97689E+01 -3.95588E+01 -3.93492E+01 -3.91195E+01
  -3.88908E+01 -3.86431E+01 -3.83975E+01 -3.81345E+01 -3.78749E+01 -3.75994E+01 -3.73288E+01 -3.70438E+01 -3.67648E+01 -3.64728E+01
  -3.61878E+01 -3.58909E+01 -3.56018E+01 -3.53018E+01 -3.50103E+01 -3.47087E+01 -3.44162E+01 -3.41144E+01 -3.38220E+01 -3.35210E+01
  -3.32300E+01 -3.29309E+01 -3.26421E+01 -3.23458E+01 -3.20602E+01 -3.17677E+01 -3.14862E+01 -3.11983E+01 -3.09217E+01 -3.06392E+01
  -3.03684E+01 -3.00922E+01 -2.98280E+01 -2.95588E+01 -2.93019E+01 -2.90406E+01 -2.87918E+01 -2.85390E+01 -2.82991E+01 -2.80558E+01
  -2.78256E+01 -2.75923E+01 -2.73725E+01 -2.71502E+01 -2.69415E+01 -2.67308E+01 -2.65340E+01 -2.63357E+01 -2.61516E+01 -2.59664E+01
  -2.57956E+01 -2.56243E+01 -2.54677E+01 -2.53111E+01 -2.51694E+01 -2.50280E+01 -2.49020E+01 -2.47768E+01 -2.46672E+01 -2.45589E+01
  -2.44665E+01 -2.43760E+01 -2.43016E+01 -2.42295E+01 -2.41740E+01 -2.41213E+01 -2.40855E+01 -2.40532E+01
 NY background values follow
    -2.867E+02   -2.849E+02   -2.832E+02   -2.814E+02   -2.797E+02   -2.780E+02   -2.762E+02   -2.745E+02   -2.728E+02   -2.712E+02
    -2.695E+02   -2.678E+02   -2.661E+02   -2.645E+02   -2.629E+02   -2.612E+02   -2.596E+02   -2.580E+02   -2.564E+02   -2.548E+02
    -2.532E+02   -2.516E+02   -2.501E+02   -2.485E+02   -2.470E+02   -2.454E+02   -2.439E+02   -2.424E+02   -2.409E+02   -2.394E+02
    -2.379E+02   -2.364E+02   -2.350E+02   -2.335E+02   -2.321E+02   -2.306E+02   -2.292E+02   -2.278E+02   -2.264E+02   -2.250E+02
    -2.236E+02   -2.222E+02   -2.208E+02   -2.195E+02   -2.181E+02   -2.168E+02   -2.155E+02   -2.141E+02   -2.128E+02   -2.115E+02
    -2.102E+02   -2.090E+02   -2.077E+02   -2.064E+02   -2.052E+02   -2.040E+02   -2.027E+02   -2.015E+02   -2.003E+02   -1.991E+02
    -1.979E+02   -1.967E+02   -1.956E+02   -1.944E+02   -1.933E+02   -1.921E+02   -1.910E+02   -1.899E+02   -1.888E+02   -1.877E+02
    -1.866E+02   -1.855E+02   -1.845E+02   -1.834E+02   -1.824E+02   -1.813E+02   -1.803E+02   -1.793E+02   -1.783E+02   -1.773E+02
    -1.763E+02   -1.753E+02   -1.744E+02   -1.734E+02   -1.725E+02   -1.716E+02   -1.706E+02   -1.697E+02   -1.688E+02   -1.679E+02
    -1.671E+02   -1.662E+02   -1.653E+02   -1.645E+02   -1.636E+02   -1.628E+02   -1.620E+02   -1.612E+02   -1.604E+02   -1.596E+02
    -1.588E+02   -1.580E+02   -1.572E+02   -1.565E+02   -1.557E+02   -1.550E+02   -1.543E+02   -1.535E+02   -1.528E+02   -1.521E+02
    -1.514E+02   -1.507E+02   -1.500E+02   -1.493E+02   -1.487E+02   -1.480E+02   -1.474E+02   -1.467E+02   -1.461E+02   -1.454E+02
    -1.448E+02   -1.442E+02   -1.436E+02   -1.430E+02   -1.424E+02   -1.418E+02   -1.412E+02   -1.406E+02   -1.400E+02   -1.395E+02
    -1.389E+02   -1.384E+02   -1.378E+02   -1.373E+02   -1.367E+02   -1.362E+02   -1.357E+02   -1.352E+02   -1.346E+02   -1.341E+02
    -1.336E+02   -1.331E+02   -1.326E+02   -1.322E+02   -1.317E+02   -1.312E+02   -1.307E+02   -1.302E+02   -1.298E+02   -1.293E+02
    -1.289E+02   -1.284E+02   -1.280E+02   -1.275E+02   -1.271E+02   -1.266E+02   -1.262E+02   -1.258E+02   -1.254E+02   -1.249E+02
    -1.245E+02   -1.241E+02   -1.237E+02   -1.233E+02   -1.229E+02   -1.225E+02   -1.221E+02   -1.217E+02   -1.213E+02   -1.209E+02
    -1.205E+02   -1.201E+02   -1.197E+02   -1.194E+02   -1.190E+02   -1.186E+02   -1.182E+02   -1.179E+02   -1.175E+02   -1.171E+02
    -1.168E+02   -1.164E+02   -1.160E+02   -1.157E+02   -1.153E+02   -1.150E+02   -1.146E+02   -1.142E+02   -1.139E+02   -1.135E+02
    -1.132E+02   -1.128E+02   -1.125E+02   -1.121E+02   -1.118E+02   -1.114E+02   -1.111E+02   -1.108E+02   -1.104E+02   -1.101E+02
    -1.097E+02   -1.094E+02   -1.090E+02   -1.087E+02   -1.084E+02   -1.080E+02   -1.077E+02   -1.073E+02   -1.070E+02   -1.066E+02
    -1.063E+02   -1.060E+02   -1.056E+02   -1.053E+02   -1.049E+02   -1.046E+02   -1.043E+02   -1.039E+02   -1.036E+02   -1.032E+02
    -1.029E+02   -1.025E+02   -1.022E+02   -1.018E+02   -1.015E+02   -1.011E+02   -1.008E+02   -1.004E+02   -1.001E+02   -9.970E+01
    -9.934E+01   -9.898E+01   -9.862E+01   -9.826E+01   -9.789E+01   -9.752E+01   -9.716E+01   -9.678E+01   -9.641E+01   -9.604E+01
    -9.566E+01   -9.528E+01   -9.490E+01   -9.451E+01   -9.413E+01   -9.374E+01   -9.335E+01   -9.295E+01   -9.255E+01   -9.215E+01
    -9.175E+01   -9.135E+01   -9.094E+01   -9.053E+01   -9.011E+01   -8.970E+01   -8.928E+01   -8.886E+01   -8.844E+01   -8.802E+01
    -8.760E+01   -8.717E+01   -8.674E+01   -8.631E+01   -8.588E+01   -8.545E+01   -8.502E+01   -8.459E+01   -8.415E+01   -8.372E+01
    -8.328E+01   -8.285E+01   -8.241E+01   -8.197E+01   -8.154E+01   -8.110E+01   -8.066E+01   -8.023E+01   -7.979E+01   -7.935E+01
    -7.892E+01   -7.848E+01   -7.805E+01   -7.761E+01   -7.718E+01   -7.675E+01   -7.631E+01   -7.588E+01   -7.546E+01   -7.503E+01
    -7.460E+01   -7.418E+01   -7.375E+01   -7.333E+01   -7.291E+01   -7.250E+01   -7.208E+01   -7.167E+01   -7.126E+01   -7.085E+01
    -7.044E+01   -7.004E+01   -6.964E+01   -6.924E+01   -6.885E+01   -6.845E+01   -6.807E+01   -6.768E+01   -6.730E+01   -6.692E+01
    -6.654E+01   -6.617E+01   -6.580E+01   -6.544E+01   -6.508E+01   -6.472E+01   -6.437E+01   -6.402E+01   -6.368E+01   -6.334E+01
    -6.301E+01   -6.268E+01   -6.235E+01   -6.203E+01   -6.172E+01   -6.141E+01   -6.110E+01   -6.080E+01   -6.051E+01   -6.022E+01
    -5.993E+01   -5.966E+01   -5.938E+01   -5.912E+01   -5.886E+01   -5.860E+01   -5.835E+01   -5.811E+01   -5.787E+01   -5.763E+01
    -5.740E+01   -5.718E+01   -5.696E+01   -5.674E+01   -5.653E+01   -5.632E+01   -5.611E+01   -5.591E+01   -5.572E+01   -5.552E+01
    -5.533E+01   -5.515E+01   -5.496E+01   -5.478E+01   -5.460E+01   -5.443E+01   -5.426E+01   -5.409E+01   -5.392E+01   -5.376E+01
    -5.359E+01   -5.343E+01   -5.327E+01   -5.312E+01   -5.296E+01   -5.281E+01   -5.265E+01   -5.250E+01   -5.235E+01   -5.220E+01
    -5.205E+01   -5.191E+01   -5.176E+01   -5.161E+01   -5.146E+01   -5.132E+01   -5.117E+01   -5.102E+01   -5.088E+01   -5.073E+01
    -5.058E+01   -5.043E+01   -5.028E+01   -5.013E+01   -4.998E+01   -4.983E+01   -4.967E+01   -4.952E+01   -4.936E+01   -4.920E+01
    -4.904E+01   -4.888E+01   -4.872E+01   -4.855E+01   -4.838E+01   -4.821E+01   -4.804E+01   -4.786E+01   -4.768E+01   -4.750E+01
    -4.732E+01   -4.713E+01   -4.694E+01   -4.674E+01   -4.654E+01   -4.634E+01   -4.613E+01   -4.592E+01   -4.571E+01   -4.549E+01
    -4.527E+01   -4.504E+01   -4.481E+01   -4.457E+01   -4.433E+01   -4.408E+01   -4.383E+01   -4.357E+01   -4.331E+01   -4.305E+01
    -4.278E+01   -4.251E+01   -4.223E+01   -4.195E+01   -4.167E+01   -4.138E+01   -4.109E+01   -4.080E+01   -4.050E+01   -4.021E+01
    -3.991E+01   -3.961E+01   -3.930E+01   -3.900E+01   -3.869E+01   -3.838E+01   -3.807E+01   -3.776E+01   -3.745E+01   -3.714E+01
    -3.683E+01   -3.652E+01   -3.620E+01   -3.589E+01   -3.558E+01   -3.527E+01   -3.496E+01   -3.465E+01   -3.434E+01   -3.403E+01
    -3.373E+01   -3.342E+01   -3.312E+01   -3.282E+01   -3.252E+01   -3.223E+01   -3.193E+01   -3.164E+01   -3.136E+01   -3.107E+01
    -3.079E+01   -3.051E+01   -3.024E+01   -2.997E+01   -2.970E+01   -2.944E+01   -2.918E+01   -2.893E+01   -2.868E+01   -2.843E+01
    -2.819E+01   -2.796E+01   -2.773E+01   -2.751E+01   -2.729E+01   -2.708E+01   -2.688E+01   -2.668E+01   -2.649E+01   -2.630E+01
    -2.612E+01   -2.595E+01   -2.578E+01   -2.563E+01   -2.548E+01   -2.534E+01   -2.520E+01   -2.508E+01   -2.496E+01   -2.485E+01
    -2.475E+01   -2.466E+01   -2.457E+01   -2.450E+01   -2.444E+01   -2.438E+01   -2.434E+01   -2.430E+01
 Asp      Conc. = 3.31E+01
