 LCModel (Version 6.3-1L) Copyright: S.W. Provencher.          Ref.: Magn. Reson. Med. 30:672-679 (1993).                
 Slice#1 Row#2 Col#3  PD_24_press_2_raw_act
 36 lines in following concentration table = NCONC+1
    Conc.  %SD /Cr+PCr  Metabolite                                         
  402.857 163%   1.081 Ala                                                 
   62.546  94%   0.168 Asp                                                 
  372.687  31%   1.000 Cr                                                  
    0.000 999%   0.000 PCr                                                 
   32.967 107% 8.8E-02 GABA                                                
   38.104  93%   0.102 Glc                                                 
 6.08E+03  17%  16.317 Gln                                                 
 6.53E+03  18%  17.515 Glu                                                 
  152.065  29%   0.408 GPC                                                 
    0.000 999%   0.000 PCh                                                 
    0.000 999%   0.000 GSH                                                 
  857.134  60%   2.300 Ins                                                 
    0.000 999%   0.000 Lac                                                 
  369.476  38%   0.991 NAA                                                 
    0.000 999%   0.000 NAAG                                                
   13.839  84% 3.7E-02 Scyllo                                              
   71.295  81%   0.191 Tau                                                 
    0.000 999%   0.000 -CrCH2                                              
  152.065  29%   0.408 GPC+PCh                                             
  369.476  38%   0.991 NAA+NAAG                                            
  372.687  31%   1.000 Cr+PCr                                              
 1.26E+04  14%  33.832 Glu+Gln                                             
 1.30E+03  53%   3.488 Lip13a                                              
    0.000 999%   0.000 Lip13b                                              
  442.261  72%   1.187 Lip09                                               
 2.11E+03  18%   5.659 MM09                                                
   19.368 999% 5.2E-02 Lip20                                               
    0.000 999%   0.000 MM20                                                
  909.933  34%   2.442 MM12                                                
 3.90E+03  17%  10.457 MM14                                                
 2.84E+03  20%   7.614 MM17                                                
 1.30E+03  53%   3.488 Lip13a+Lip13b                                       
 6.11E+03  12%  16.387 MM14+Lip13a+Lip13b+MM12                             
 2.55E+03  11%   6.845 MM09+Lip09                                          
   19.368 999% 5.2E-02 MM20+Lip20                                          
   6 lines in following misc. output table
  FWHM = 0.122 ppm    S/N =   2                                            
  Data shift = 0.206 ppm                                                   
  Ph:   1 deg      14.2 deg/ppm                                            
  alphaB,S = 8.5E+01,   2.0E+02                                            
   14 spline knots.   Ns = 6(2)                                            
   2 inflections.     1 extrema                                            
  498 points on ppm-axis = NY
      4.000000     3.992357     3.984714     3.977070     3.969427     3.961784     3.954141     3.946497     3.938854     3.931211
      3.923568     3.915925     3.908281     3.900638     3.892995     3.885352     3.877708     3.870065     3.862422     3.854779
      3.847136     3.839492     3.831849     3.824206     3.816563     3.808919     3.801276     3.793633     3.785990     3.778347
      3.770703     3.763060     3.755417     3.747774     3.740130     3.732487     3.724844     3.717201     3.709558     3.701914
      3.694271     3.686628     3.678985     3.671341     3.663698     3.656055     3.648412     3.640769     3.633125     3.625482
      3.617839     3.610196     3.602552     3.594909     3.587266     3.579623     3.571980     3.564336     3.556693     3.549050
      3.541407     3.533763     3.526120     3.518477     3.510834     3.503191     3.495547     3.487904     3.480261     3.472618
      3.464974     3.457331     3.449688     3.442045     3.434402     3.426758     3.419115     3.411472     3.403829     3.396185
      3.388542     3.380899     3.373256     3.365613     3.357969     3.350326     3.342683     3.335040     3.327396     3.319753
      3.312110     3.304467     3.296824     3.289180     3.281537     3.273894     3.266251     3.258607     3.250964     3.243321
      3.235678     3.228034     3.220391     3.212748     3.205105     3.197462     3.189818     3.182175     3.174532     3.166889
      3.159245     3.151602     3.143959     3.136316     3.128673     3.121029     3.113386     3.105743     3.098100     3.090456
      3.082813     3.075170     3.067527     3.059884     3.052240     3.044597     3.036954     3.029311     3.021667     3.014024
      3.006381     2.998738     2.991095     2.983451     2.975808     2.968165     2.960522     2.952878     2.945235     2.937592
      2.929949     2.922306     2.914662     2.907019     2.899376     2.891733     2.884089     2.876446     2.868803     2.861160
      2.853517     2.845873     2.838230     2.830587     2.822944     2.815300     2.807657     2.800014     2.792371     2.784728
      2.777084     2.769441     2.761798     2.754155     2.746511     2.738868     2.731225     2.723582     2.715939     2.708295
      2.700652     2.693009     2.685366     2.677722     2.670079     2.662436     2.654793     2.647150     2.639506     2.631863
      2.624220     2.616577     2.608933     2.601290     2.593647     2.586004     2.578361     2.570717     2.563074     2.555431
      2.547788     2.540144     2.532501     2.524858     2.517215     2.509572     2.501928     2.494285     2.486642     2.478999
      2.471355     2.463712     2.456069     2.448426     2.440783     2.433139     2.425496     2.417853     2.410210     2.402566
      2.394923     2.387280     2.379637     2.371994     2.364350     2.356707     2.349064     2.341421     2.333777     2.326134
      2.318491     2.310848     2.303205     2.295561     2.287918     2.280275     2.272632     2.264988     2.257345     2.249702
      2.242059     2.234416     2.226772     2.219129     2.211486     2.203843     2.196199     2.188556     2.180913     2.173270
      2.165627     2.157983     2.150340     2.142697     2.135054     2.127410     2.119767     2.112124     2.104481     2.096838
      2.089194     2.081551     2.073908     2.066265     2.058621     2.050978     2.043335     2.035692     2.028049     2.020405
      2.012762     2.005119     1.997476     1.989833     1.982190     1.974546     1.966903     1.959260     1.951617     1.943974
      1.936331     1.928688     1.921045     1.913402     1.905759     1.898115     1.890472     1.882829     1.875186     1.867543
      1.859900     1.852257     1.844614     1.836971     1.829327     1.821684     1.814041     1.806398     1.798755     1.791112
      1.783469     1.775826     1.768183     1.760540     1.752896     1.745253     1.737610     1.729967     1.722324     1.714681
      1.707038     1.699395     1.691752     1.684108     1.676465     1.668822     1.661179     1.653536     1.645893     1.638250
      1.630607     1.622964     1.615321     1.607677     1.600034     1.592391     1.584748     1.577105     1.569462     1.561819
      1.554176     1.546533     1.538890     1.531246     1.523603     1.515960     1.508317     1.500674     1.493031     1.485388
      1.477745     1.470102     1.462458     1.454815     1.447172     1.439529     1.431886     1.424243     1.416600     1.408957
      1.401314     1.393671     1.386027     1.378384     1.370741     1.363098     1.355455     1.347812     1.340169     1.332526
      1.324883     1.317240     1.309596     1.301953     1.294310     1.286667     1.279024     1.271381     1.263738     1.256095
      1.248452     1.240808     1.233165     1.225522     1.217879     1.210236     1.202593     1.194950     1.187307     1.179664
      1.172021     1.164377     1.156734     1.149091     1.141448     1.133805     1.126162     1.118519     1.110876     1.103233
      1.095590     1.087946     1.080303     1.072660     1.065017     1.057374     1.049731     1.042088     1.034445     1.026802
      1.019158     1.011515     1.003872     0.996229     0.988586     0.980943     0.973300     0.965657     0.958014     0.950371
      0.942727     0.935084     0.927441     0.919798     0.912155     0.904512     0.896869     0.889226     0.881583     0.873940
      0.866296     0.858653     0.851010     0.843367     0.835724     0.828081     0.820438     0.812795     0.805152     0.797508
      0.789865     0.782222     0.774579     0.766936     0.759293     0.751650     0.744007     0.736364     0.728721     0.721077
      0.713434     0.705791     0.698148     0.690505     0.682862     0.675219     0.667576     0.659933     0.652290     0.644646
      0.637003     0.629360     0.621717     0.614074     0.606431     0.598788     0.591145     0.583502     0.575858     0.568215
      0.560572     0.552929     0.545286     0.537643     0.530000     0.522357     0.514714     0.507071     0.499427     0.491784
      0.484141     0.476498     0.468855     0.461212     0.453569     0.445925     0.438282     0.430639     0.422996     0.415353
      0.407710     0.400067     0.392424     0.384780     0.377137     0.369494     0.361851     0.354208     0.346565     0.338922
      0.331278     0.323635     0.315992     0.308349     0.300706     0.293063     0.285420     0.277777     0.270133     0.262490
      0.254847     0.247204     0.239561     0.231918     0.224275     0.216631     0.208988     0.201345
 NY phased data points follow
   3.00187E-01  4.33812E+00 -5.03253E+00 -2.55212E-01  6.04207E+00  6.11512E+00  4.15574E-01  4.22262E+00 -4.72548E+00  2.73967E+00
   1.04538E+01  7.44008E+00  1.21497E+01  1.91531E+01  1.40581E+01  5.11500E+00  6.07939E+00  4.22912E+00  5.94106E+00  1.19286E+01
   1.27063E+01  2.12478E+00  8.41150E+00  9.62200E+00  1.55794E+00  8.91293E+00  1.05294E+01 -4.26100E+00  7.67841E+00  3.43658E+00
  -3.73978E+00  1.28852E+01  4.91789E+00  1.51171E+01  1.33974E+00  3.08180E+00  9.27186E+00  9.38628E-01  8.20314E+00  1.41192E+01
   5.11341E+00  1.48398E+00  1.39537E+00  1.57911E+01  4.09664E+00  7.93152E-01  7.07463E+00  1.01356E+01  3.70201E+00  1.23630E+01
  -3.76942E+00  3.31948E+00  6.55233E-01 -4.29556E+00 -1.57357E-01  7.05439E+00  1.19799E+01  7.65192E+00  4.73739E+00  2.74731E+00
   7.14301E-02  2.82907E+00  6.66062E+00 -6.40711E+00  7.98227E-01  4.37290E+00 -2.03655E+00 -9.08423E-01 -5.41655E+00  9.08011E-01
  -5.24648E-01  3.01780E-01 -1.76990E+00  1.37131E+01 -3.66677E-01  1.67899E+01  4.53153E+00  8.61598E+00  2.21651E+00 -3.00918E+00
  -3.74301E+00  4.28322E+00  8.50253E+00  4.41161E+00 -4.16395E-01 -5.59345E-01 -1.05536E+01  2.16770E+00  4.08171E+00 -7.97687E+00
   6.59813E+00 -1.00034E+01  2.33201E+00 -6.00873E+00  1.30954E-01 -1.13736E+00 -3.75499E+00  1.08706E+01  8.52733E+00  1.33285E+01
   5.93778E+00  2.23315E+00  2.56319E-01  5.22053E+00  4.37618E+00  2.40560E+00  2.57706E+00  3.01415E+00  7.52008E+00  3.78787E+00
  -2.21415E+00 -5.86253E+00  1.27604E+00  1.62049E-01 -3.82023E-01 -1.03507E+01  1.64098E+00  1.72945E+00 -6.32665E-01  8.41683E+00
  -3.69069E+00 -1.98756E+00  9.24588E-01 -5.66348E+00 -3.29766E+00  8.80977E-01  6.93264E+00  3.92110E+00 -6.06140E+00  1.05069E+01
  -1.78467E+00  8.65951E+00  2.50463E+00 -7.97064E+00  1.84753E+00  8.74134E-01 -9.73625E-01 -7.87157E+00  8.51218E+00  9.63550E+00
   4.96323E-01  4.75402E+00 -1.20616E+01 -7.55460E+00 -3.05470E+00  3.79139E+00 -7.10091E-01  1.02748E+01 -5.34630E+00 -3.35112E+00
  -1.14708E+01 -4.68144E+00 -8.06056E+00 -2.91950E+00 -1.69457E+01  8.13950E-01 -8.18445E+00 -9.33570E+00  4.29118E+00 -8.95976E+00
  -8.99583E+00  6.19777E+00 -1.23580E+00 -7.84636E+00 -6.51694E+00 -4.27118E+00 -3.99989E+00 -6.49221E+00 -2.00334E+01 -8.80614E+00
  -4.71387E+00 -1.07091E+01 -9.23394E+00 -8.84397E+00 -7.92291E+00 -8.65899E+00 -1.30303E+01 -1.22144E+00  3.45646E+00 -9.65063E+00
  -8.18229E+00 -7.06906E+00 -1.14215E+01 -1.12755E+00  1.82117E+00 -1.01055E+01 -1.22056E+01 -8.77747E+00  2.18835E-01  4.55330E+00
  -7.14827E+00  4.35103E+00 -5.91364E+00  3.24844E+00 -7.22573E-01 -7.24792E+00 -1.37243E+01 -3.93116E+00 -1.03582E+01 -4.01789E+00
  -8.87803E+00  2.16530E-01  2.51149E+00 -6.66999E+00  5.45970E+00  5.45896E+00  6.27801E-01  2.39873E+00 -5.73900E+00 -9.22234E-01
  -4.43587E+00 -1.30342E+01  6.17826E+00  1.13997E+00  1.55695E+00  2.83810E+00  4.23298E+00 -3.67427E+00  4.71608E+00 -1.86924E+00
  -1.83452E+00 -5.59408E+00 -3.77030E+00 -5.43334E+00  7.19458E+00 -5.26015E+00  3.94634E+00 -1.79918E+00  5.00877E+00  2.68029E-01
   6.73735E+00  3.94165E+00 -7.48171E+00  1.06501E+01 -1.30249E+00  1.12070E+00  6.33093E+00 -1.25364E+00 -3.74719E+00 -6.70444E+00
  -2.08761E+00 -1.22414E+01 -2.58639E-01 -1.42173E+00 -2.04682E+00 -2.74858E+00 -6.96963E+00 -9.94985E+00 -3.37976E-01 -1.32225E+01
   2.72013E+00 -1.01657E+01 -7.85804E+00  5.90334E-01 -7.61677E+00  6.34000E-01 -6.10779E-01  6.76471E-01  4.33980E+00  3.65858E+00
   1.67710E+01  7.19799E+00  5.37510E+00  1.11599E+01  1.20154E+01  1.30827E+01  1.97473E+01  6.12822E+00  1.00674E+01  1.41149E+01
   1.28161E+01  1.03368E+01  9.35162E+00  7.68509E+00  6.78864E+00  7.02355E+00  3.29620E+00  7.14803E+00 -5.10807E-01  9.42665E+00
   6.58257E+00  2.45876E+00  1.04616E+01  7.92297E+00 -2.16803E+00  1.10383E+01  1.18118E+01  7.91679E+00  1.35698E+01  2.04471E+01
   7.73807E+00  3.35266E+00  8.68357E+00  1.39568E+01  9.18343E+00  2.15854E+01  1.99370E+01  2.74593E+01  1.91103E+01  1.80538E+01
   1.66688E+01  1.89515E+01  2.21383E+01  2.14589E+01  2.23844E+01  2.76571E+01  2.45221E+01  2.12009E+01  2.10999E+01  3.44210E+01
   2.27959E+01  2.34269E+01  2.11246E+01  2.26835E+01  1.67655E+01  2.78311E+01  2.89060E+01  2.34595E+01  2.23977E+01  2.80066E+01
   1.64717E+01  2.81249E+01  2.56305E+01  3.09824E+01  3.03330E+01  2.64042E+01  2.99615E+01  3.48641E+01  3.48226E+01  2.31699E+01
   2.38171E+01  2.35636E+01  1.98825E+01  1.11113E+01  1.59412E+01  1.89367E+01  2.08759E+01  1.45011E+01  1.26629E+01  1.50349E+01
   1.52675E+01  1.43726E+01  3.37583E+00  1.44908E+01  9.76112E+00  1.74531E+01  1.46979E+01  9.94983E+00  8.42587E+00  9.72959E+00
   1.99520E+01  1.08904E+01  9.05886E+00  2.35452E+01  1.49384E+01  1.37577E+01  6.05180E+00  1.14492E+01 -4.18138E+00  6.96984E+00
   7.70152E+00  1.57244E+01  6.77870E+00  1.21131E+01  7.69901E+00  3.01186E+00  9.68612E+00  1.64015E+01  1.01308E+00  1.46278E+01
   1.94388E+01  4.83913E+00  1.06046E+01  2.58554E+01  1.62538E+01  1.53527E+01  1.42104E+01  3.12887E+00  1.87558E+01  5.57974E+00
   4.77295E+00  1.51285E+01  1.94852E+01  2.29248E+01  1.69536E+00  1.19104E+01  6.44719E-01  1.22275E+01  1.07890E+00  1.61051E+01
   1.36627E+01  1.47009E+01  1.93848E+01  1.97586E+01  1.12650E+01  1.47768E+01  9.67471E+00  1.97476E+01  9.91667E+00  2.40095E+01
   1.12767E+01  1.47419E+01  1.64037E+01  1.35481E+01  1.24914E+01  1.34271E+01  1.03837E+01  1.71963E+01  2.25174E+01  9.11140E+00
   5.59521E+00  1.03759E+01  7.57845E+00  9.45866E+00  8.19037E+00  1.74009E+01  6.70290E+00  1.40765E+01  7.74116E+00  1.06194E+01
   3.56113E+00  6.32023E+00  1.19328E+01  1.30144E+01  6.52273E-01  4.66787E+00  4.03020E+00  4.89946E-01  1.07787E+01  3.88795E+00
   5.06431E+00  3.69508E+00  4.88881E+00  7.15905E+00 -9.81321E+00 -7.05691E+00 -3.40358E+00  6.55721E+00 -6.54206E+00  2.08562E+00
   8.47550E+00 -1.29776E+00 -1.05635E+01 -6.67334E-01  1.17012E-01  2.65686E-01  3.44233E+00  3.21856E+00  5.47811E-01 -7.69949E+00
  -2.79053E+00 -1.41782E+00 -4.90985E+00  3.63557E+00  5.41812E+00  3.31403E-01  3.60055E+00 -4.45153E+00 -3.88698E+00 -3.35735E+00
   1.77279E+00  2.10357E+00  8.15775E+00 -4.30026E+00  3.30258E+00 -8.42512E+00  2.64112E+00 -9.51605E+00  1.90843E+00 -5.25333E+00
  -8.54103E+00 -2.79173E+00  4.10011E+00 -1.69212E+00 -6.58360E-01  1.79997E+00 -8.52328E+00 -1.10865E+01  6.14095E-01 -7.37381E+00
   3.88894E+00 -3.61930E+00 -4.15492E+00 -1.63146E+00  6.56084E+00 -2.45158E-01 -9.45942E+00 -4.68621E+00  2.76183E-01  2.64211E+00
  -3.41785E+00 -5.21760E+00 -2.03024E+00  3.91194E+00  4.42505E-01 -7.90124E+00 -6.73922E+00  4.88577E+00
 NY points of the fit to the data follow
   1.43283E+00  1.68863E+00  1.74925E+00  2.06990E+00  2.20120E+00  2.62914E+00  2.85332E+00  3.39391E+00  3.71588E+00  4.39122E+00
   4.76213E+00  5.47198E+00  6.01985E+00  6.88080E+00  7.27605E+00  7.56172E+00  7.30456E+00  7.06400E+00  6.27612E+00  6.03050E+00
   6.08716E+00  6.32871E+00  6.84712E+00  6.91986E+00  7.22035E+00  6.69562E+00  6.59036E+00  6.29357E+00  6.71355E+00  6.66198E+00
   7.55010E+00  7.55068E+00  8.35812E+00  8.11418E+00  8.42123E+00  8.04230E+00  8.07804E+00  7.76655E+00  7.81962E+00  7.74549E+00
   8.00041E+00  8.07484E+00  8.08016E+00  7.55684E+00  7.03355E+00  6.33097E+00  5.89622E+00  5.55052E+00  6.18221E+00  6.20612E+00
   6.74956E+00  6.26943E+00  6.11514E+00  5.09761E+00  4.35640E+00  3.55484E+00  3.08147E+00  2.47950E+00  2.15368E+00  1.69110E+00
   1.48791E+00  1.13492E+00  1.07406E+00  8.99679E-01  9.85082E-01  8.48322E-01  9.21283E-01  7.60349E-01  8.19570E-01  6.40197E-01
   6.95909E-01  5.08885E-01  5.58249E-01  3.78750E-01  4.20564E-01  2.37718E-01  2.60466E-01  2.55775E-02  1.43288E-02 -2.95280E-01
  -3.39253E-01 -7.01517E-01 -7.53947E-01 -1.13470E+00 -1.16783E+00 -1.54225E+00 -1.55689E+00 -1.89968E+00 -1.86093E+00 -2.10739E+00
  -1.79886E+00 -1.47860E+00 -1.16830E+00 -4.23423E-01 -2.78359E-01  8.28136E-01  7.51955E-01  2.21723E+00  1.88063E+00  3.67034E+00
   2.98513E+00  4.91412E+00  3.81524E+00  5.57041E+00  4.05647E+00  5.40711E+00  3.67567E+00  4.55427E+00  2.81739E+00  3.23943E+00
   1.67461E+00  1.70793E+00  4.30372E-01  1.82507E-01 -6.47539E-01 -6.66711E-01 -1.03906E+00 -8.01049E-01 -7.15558E-01  4.90521E-02
   1.47288E-01  1.10121E+00  1.13648E+00  2.22391E+00  2.13804E+00  3.20302E+00  2.92123E+00  3.76220E+00  3.25244E+00  3.71524E+00
   3.01643E+00  3.08816E+00  2.29158E+00  2.04353E+00  1.24830E+00  7.82011E-01  5.98982E-02 -5.28122E-01 -1.12185E+00 -1.73815E+00
  -2.14357E+00 -2.61586E+00 -2.75699E+00 -2.81542E+00 -2.85294E+00 -2.88169E+00 -2.90503E+00 -2.92766E+00 -2.95533E+00 -2.99051E+00
  -3.02443E+00 -3.06593E+00 -3.09700E+00 -3.13407E+00 -3.17035E+00 -3.20395E+00 -3.24691E+00 -3.27675E+00 -3.32805E+00 -3.35267E+00
  -3.40357E+00 -3.41439E+00 -3.46263E+00 -3.46212E+00 -3.52285E+00 -3.51871E+00 -3.57713E+00 -3.57667E+00 -3.62813E+00 -3.64589E+00
  -3.68312E+00 -3.71130E+00 -3.72141E+00 -3.75195E+00 -3.74270E+00 -3.77995E+00 -3.73290E+00 -3.77704E+00 -3.68547E+00 -3.71091E+00
  -3.57710E+00 -3.61246E+00 -3.63935E+00 -3.70616E+00 -4.08250E+00 -4.28134E+00 -4.89460E+00 -5.17070E+00 -5.89345E+00 -5.83315E+00
  -6.21489E+00 -5.70748E+00 -5.85073E+00 -4.65106E+00 -4.54156E+00 -3.15559E+00 -2.92740E+00 -2.10585E+00 -3.04630E+00 -2.25139E+00
  -3.38978E+00 -2.42017E+00 -3.49055E+00 -2.15976E+00 -2.58648E+00 -1.99418E+00 -2.16105E+00 -2.55307E+00 -2.18813E+00 -3.66397E+00
  -2.91037E+00 -5.13870E+00 -2.77918E+00 -5.56679E+00 -1.80993E+00 -5.12865E+00 -8.07623E-01 -4.34963E+00 -5.71250E-02 -3.46459E+00
   1.90654E-01 -2.29259E+00  7.16810E-01 -1.25670E+00  3.60167E-02 -1.24297E+00 -1.88975E+00 -1.40814E+00 -2.08082E+00  3.94306E-01
  -3.27000E-01  2.80499E+00  2.59862E+00  4.80681E+00  4.22611E+00  5.15815E+00  4.34108E+00  3.53189E+00  2.41745E+00  3.58836E-01
   4.62041E-01 -2.16592E+00 -1.00510E+00 -3.94140E+00 -2.03345E+00 -5.07990E+00 -2.91396E+00 -5.66898E+00 -2.97242E+00 -4.70317E+00
  -2.02796E+00 -2.75274E+00 -7.67303E-01 -3.54367E-01  1.42700E+00  2.95782E+00  4.31340E+00  6.56554E+00  7.18068E+00  8.82507E+00
   8.91201E+00  1.00800E+01  9.52330E+00  1.01469E+01  9.27525E+00  9.38889E+00  8.26162E+00  8.23721E+00  7.23700E+00  7.26309E+00
   6.45662E+00  6.45890E+00  5.73971E+00  5.60063E+00  5.00800E+00  4.93902E+00  4.91796E+00  5.15916E+00  5.26008E+00  5.58903E+00
   5.83595E+00  6.10167E+00  6.43072E+00  6.75677E+00  7.15158E+00  7.53511E+00  8.00833E+00  8.48446E+00  9.07413E+00  9.75123E+00
   1.05390E+01  1.13919E+01  1.23239E+01  1.33043E+01  1.43202E+01  1.53574E+01  1.63713E+01  1.73849E+01  1.83456E+01  1.92669E+01
   2.01025E+01  2.08636E+01  2.15155E+01  2.20705E+01  2.25061E+01  2.28447E+01  2.30795E+01  2.32318E+01  2.33137E+01  2.33485E+01
   2.33563E+01  2.33619E+01  2.33900E+01  2.34678E+01  2.36379E+01  2.39330E+01  2.41322E+01  2.44842E+01  2.46793E+01  2.50297E+01
   2.51687E+01  2.54290E+01  2.53987E+01  2.56232E+01  2.55067E+01  2.55291E+01  2.52562E+01  2.49540E+01  2.45178E+01  2.38887E+01
   2.33745E+01  2.25136E+01  2.20324E+01  2.10268E+01  2.06406E+01  1.95461E+01  1.92500E+01  1.81076E+01  1.78634E+01  1.67474E+01
   1.65460E+01  1.55612E+01  1.53911E+01  1.46087E+01  1.43234E+01  1.35837E+01  1.32456E+01  1.26141E+01  1.22533E+01  1.17749E+01
   1.14447E+01  1.12378E+01  1.11043E+01  1.10202E+01  1.09699E+01  1.09406E+01  1.09220E+01  1.09049E+01  1.08819E+01  1.08465E+01
   1.07938E+01  1.07203E+01  1.06234E+01  1.05022E+01  1.03568E+01  1.01885E+01  9.99959E+00  9.79348E+00  9.57430E+00  9.34693E+00
   9.11683E+00  8.88987E+00  8.67221E+00  8.47016E+00  8.29006E+00  8.13812E+00  8.02034E+00  7.94240E+00  7.90953E+00  7.92646E+00
   7.99731E+00  8.12544E+00  8.31339E+00  8.56271E+00  8.87382E+00  9.24589E+00  9.67667E+00  1.01623E+01  1.06973E+01  1.12742E+01
   1.18841E+01  1.25160E+01  1.31574E+01  1.37945E+01  1.44122E+01  1.49951E+01  1.55274E+01  1.59939E+01  1.63804E+01  1.66745E+01
   1.68657E+01  1.69464E+01  1.69118E+01  1.67606E+01  1.64944E+01  1.61183E+01  1.56401E+01  1.50702E+01  1.44209E+01  1.37063E+01
   1.29409E+01  1.21397E+01  1.13173E+01  1.04876E+01  9.66327E+00  8.85542E+00  8.07345E+00  7.32503E+00  6.61596E+00  5.95037E+00
   5.33077E+00  4.75829E+00  4.23285E+00  3.75338E+00  3.31809E+00  2.92458E+00  2.57015E+00  2.25176E+00  1.96643E+00  1.71105E+00
   1.48276E+00  1.27869E+00  1.09631E+00  9.33157E-01  7.87118E-01  6.56180E-01  5.38645E-01  4.32931E-01  3.37687E-01  2.51697E-01
   1.73905E-01  1.03398E-01  3.93507E-02 -1.89140E-02 -7.20553E-02 -1.20568E-01 -1.64987E-01 -2.05655E-01 -2.43016E-01 -2.77305E-01
  -3.08902E-01 -3.37971E-01 -3.64817E-01 -3.89556E-01 -4.12436E-01 -4.33549E-01 -4.53102E-01 -4.71171E-01 -4.87904E-01 -5.03370E-01
  -5.17683E-01 -5.30917E-01 -5.43147E-01 -5.54452E-01 -5.64870E-01 -5.74483E-01 -5.83310E-01 -5.91439E-01 -5.98874E-01 -6.05692E-01
  -6.11881E-01 -6.17514E-01 -6.22579E-01 -6.27144E-01 -6.31199E-01 -6.34793E-01 -6.37916E-01 -6.40603E-01 -6.42859E-01 -6.44711E-01
  -6.46154E-01 -6.47203E-01 -6.47851E-01 -6.48115E-01 -6.47991E-01 -6.47491E-01 -6.46601E-01 -6.45315E-01 -6.43622E-01 -6.41513E-01
  -6.38976E-01 -6.35993E-01 -6.32534E-01 -6.28560E-01 -6.24036E-01 -6.18916E-01 -6.13151E-01 -6.06664E-01
 NY background values follow
    -1.952E+00   -1.949E+00   -1.946E+00   -1.943E+00   -1.940E+00   -1.938E+00   -1.935E+00   -1.932E+00   -1.929E+00   -1.926E+00
    -1.923E+00   -1.920E+00   -1.917E+00   -1.914E+00   -1.911E+00   -1.908E+00   -1.906E+00   -1.903E+00   -1.900E+00   -1.897E+00
    -1.894E+00   -1.891E+00   -1.888E+00   -1.885E+00   -1.882E+00   -1.879E+00   -1.876E+00   -1.873E+00   -1.871E+00   -1.868E+00
    -1.865E+00   -1.862E+00   -1.859E+00   -1.856E+00   -1.853E+00   -1.850E+00   -1.847E+00   -1.844E+00   -1.841E+00   -1.838E+00
    -1.835E+00   -1.832E+00   -1.829E+00   -1.827E+00   -1.824E+00   -1.821E+00   -1.818E+00   -1.815E+00   -1.812E+00   -1.809E+00
    -1.806E+00   -1.803E+00   -1.800E+00   -1.797E+00   -1.794E+00   -1.791E+00   -1.788E+00   -1.785E+00   -1.782E+00   -1.780E+00
    -1.777E+00   -1.774E+00   -1.771E+00   -1.768E+00   -1.765E+00   -1.762E+00   -1.759E+00   -1.756E+00   -1.753E+00   -1.750E+00
    -1.747E+00   -1.744E+00   -1.741E+00   -1.738E+00   -1.735E+00   -1.732E+00   -1.729E+00   -1.726E+00   -1.723E+00   -1.720E+00
    -1.717E+00   -1.715E+00   -1.712E+00   -1.709E+00   -1.706E+00   -1.703E+00   -1.700E+00   -1.697E+00   -1.694E+00   -1.691E+00
    -1.688E+00   -1.685E+00   -1.682E+00   -1.679E+00   -1.676E+00   -1.673E+00   -1.670E+00   -1.667E+00   -1.664E+00   -1.661E+00
    -1.658E+00   -1.655E+00   -1.652E+00   -1.649E+00   -1.646E+00   -1.643E+00   -1.640E+00   -1.637E+00   -1.634E+00   -1.631E+00
    -1.628E+00   -1.625E+00   -1.622E+00   -1.619E+00   -1.616E+00   -1.613E+00   -1.610E+00   -1.607E+00   -1.605E+00   -1.602E+00
    -1.599E+00   -1.596E+00   -1.593E+00   -1.590E+00   -1.587E+00   -1.584E+00   -1.581E+00   -1.578E+00   -1.575E+00   -1.572E+00
    -1.569E+00   -1.566E+00   -1.563E+00   -1.560E+00   -1.557E+00   -1.554E+00   -1.551E+00   -1.548E+00   -1.545E+00   -1.542E+00
    -1.539E+00   -1.536E+00   -1.533E+00   -1.530E+00   -1.527E+00   -1.524E+00   -1.521E+00   -1.518E+00   -1.515E+00   -1.512E+00
    -1.509E+00   -1.506E+00   -1.503E+00   -1.500E+00   -1.497E+00   -1.494E+00   -1.491E+00   -1.488E+00   -1.485E+00   -1.482E+00
    -1.479E+00   -1.476E+00   -1.473E+00   -1.470E+00   -1.467E+00   -1.464E+00   -1.461E+00   -1.458E+00   -1.455E+00   -1.452E+00
    -1.449E+00   -1.446E+00   -1.443E+00   -1.440E+00   -1.437E+00   -1.434E+00   -1.431E+00   -1.428E+00   -1.425E+00   -1.422E+00
    -1.419E+00   -1.416E+00   -1.413E+00   -1.409E+00   -1.406E+00   -1.403E+00   -1.400E+00   -1.397E+00   -1.394E+00   -1.391E+00
    -1.388E+00   -1.385E+00   -1.382E+00   -1.379E+00   -1.376E+00   -1.373E+00   -1.370E+00   -1.367E+00   -1.364E+00   -1.361E+00
    -1.358E+00   -1.355E+00   -1.352E+00   -1.349E+00   -1.346E+00   -1.343E+00   -1.340E+00   -1.337E+00   -1.334E+00   -1.331E+00
    -1.328E+00   -1.325E+00   -1.322E+00   -1.319E+00   -1.316E+00   -1.313E+00   -1.310E+00   -1.307E+00   -1.304E+00   -1.301E+00
    -1.298E+00   -1.295E+00   -1.292E+00   -1.289E+00   -1.286E+00   -1.283E+00   -1.280E+00   -1.276E+00   -1.273E+00   -1.270E+00
    -1.267E+00   -1.264E+00   -1.261E+00   -1.258E+00   -1.255E+00   -1.252E+00   -1.249E+00   -1.246E+00   -1.243E+00   -1.240E+00
    -1.237E+00   -1.234E+00   -1.231E+00   -1.228E+00   -1.225E+00   -1.222E+00   -1.219E+00   -1.216E+00   -1.213E+00   -1.210E+00
    -1.207E+00   -1.204E+00   -1.201E+00   -1.198E+00   -1.195E+00   -1.192E+00   -1.189E+00   -1.185E+00   -1.182E+00   -1.179E+00
    -1.176E+00   -1.173E+00   -1.170E+00   -1.167E+00   -1.164E+00   -1.161E+00   -1.158E+00   -1.155E+00   -1.152E+00   -1.149E+00
    -1.146E+00   -1.143E+00   -1.140E+00   -1.137E+00   -1.134E+00   -1.131E+00   -1.128E+00   -1.125E+00   -1.122E+00   -1.119E+00
    -1.116E+00   -1.113E+00   -1.109E+00   -1.106E+00   -1.103E+00   -1.100E+00   -1.097E+00   -1.094E+00   -1.091E+00   -1.088E+00
    -1.085E+00   -1.082E+00   -1.079E+00   -1.076E+00   -1.073E+00   -1.070E+00   -1.067E+00   -1.064E+00   -1.061E+00   -1.058E+00
    -1.055E+00   -1.052E+00   -1.049E+00   -1.046E+00   -1.043E+00   -1.039E+00   -1.036E+00   -1.033E+00   -1.030E+00   -1.027E+00
    -1.024E+00   -1.021E+00   -1.018E+00   -1.015E+00   -1.012E+00   -1.009E+00   -1.006E+00   -1.003E+00   -9.999E-01   -9.969E-01
    -9.938E-01   -9.908E-01   -9.877E-01   -9.847E-01   -9.816E-01   -9.786E-01   -9.756E-01   -9.725E-01   -9.695E-01   -9.664E-01
    -9.634E-01   -9.603E-01   -9.573E-01   -9.542E-01   -9.512E-01   -9.481E-01   -9.451E-01   -9.420E-01   -9.390E-01   -9.360E-01
    -9.329E-01   -9.299E-01   -9.268E-01   -9.238E-01   -9.207E-01   -9.177E-01   -9.146E-01   -9.116E-01   -9.085E-01   -9.055E-01
    -9.025E-01   -8.994E-01   -8.964E-01   -8.933E-01   -8.903E-01   -8.872E-01   -8.842E-01   -8.811E-01   -8.781E-01   -8.750E-01
    -8.720E-01   -8.690E-01   -8.659E-01   -8.629E-01   -8.598E-01   -8.568E-01   -8.537E-01   -8.507E-01   -8.476E-01   -8.446E-01
    -8.415E-01   -8.385E-01   -8.355E-01   -8.324E-01   -8.294E-01   -8.263E-01   -8.233E-01   -8.202E-01   -8.172E-01   -8.142E-01
    -8.111E-01   -8.081E-01   -8.050E-01   -8.020E-01   -7.989E-01   -7.959E-01   -7.928E-01   -7.898E-01   -7.868E-01   -7.837E-01
    -7.807E-01   -7.776E-01   -7.746E-01   -7.715E-01   -7.685E-01   -7.655E-01   -7.624E-01   -7.594E-01   -7.563E-01   -7.533E-01
    -7.503E-01   -7.472E-01   -7.442E-01   -7.411E-01   -7.381E-01   -7.351E-01   -7.320E-01   -7.290E-01   -7.259E-01   -7.229E-01
    -7.199E-01   -7.168E-01   -7.138E-01   -7.107E-01   -7.077E-01   -7.047E-01   -7.016E-01   -6.986E-01   -6.955E-01   -6.925E-01
    -6.895E-01   -6.864E-01   -6.834E-01   -6.804E-01   -6.773E-01   -6.743E-01   -6.712E-01   -6.682E-01   -6.652E-01   -6.621E-01
    -6.591E-01   -6.561E-01   -6.530E-01   -6.500E-01   -6.470E-01   -6.439E-01   -6.409E-01   -6.379E-01   -6.348E-01   -6.318E-01
    -6.287E-01   -6.257E-01   -6.227E-01   -6.197E-01   -6.166E-01   -6.136E-01   -6.106E-01   -6.075E-01   -6.045E-01   -6.015E-01
    -5.984E-01   -5.954E-01   -5.924E-01   -5.893E-01   -5.863E-01   -5.833E-01   -5.802E-01   -5.772E-01   -5.742E-01   -5.712E-01
    -5.681E-01   -5.651E-01   -5.621E-01   -5.591E-01   -5.560E-01   -5.530E-01   -5.500E-01   -5.469E-01   -5.439E-01   -5.409E-01
    -5.379E-01   -5.348E-01   -5.318E-01   -5.288E-01   -5.258E-01   -5.227E-01   -5.197E-01   -5.167E-01   -5.137E-01   -5.107E-01
    -5.076E-01   -5.046E-01   -5.016E-01   -4.986E-01   -4.955E-01   -4.925E-01   -4.895E-01   -4.865E-01   -4.835E-01   -4.804E-01
    -4.774E-01   -4.744E-01   -4.714E-01   -4.684E-01   -4.654E-01   -4.623E-01   -4.593E-01   -4.563E-01
 Ala      Conc. = 4.03E+02
