 LCModel (Version 6.3-1L) Copyright: S.W. Provencher.          Ref.: Magn. Reson. Med. 30:672-679 (1993).                
 Slice#2 Row#6 Col#4  PD_24_press_2_raw_act
 36 lines in following concentration table = NCONC+1
    Conc.  %SD /Cr+PCr  Metabolite                                         
  714.239  29%   0.337 Ala                                                 
    0.000 999%   0.000 Asp                                                 
 1.80E+03  20%   0.850 Cr                                                  
  317.153 112%   0.150 PCr                                                 
  183.206 131% 8.7E-02 GABA                                                
  241.470 101%   0.114 Glc                                                 
 1.28E+03  32%   0.603 Gln                                                 
 1.92E+03  24%   0.908 Glu                                                 
  815.557   5%   0.385 GPC                                                 
    0.000 999%   0.000 PCh                                                 
  761.374  19%   0.360 GSH                                                 
 2.14E+03  22%   1.010 Ins                                                 
  110.577 203% 5.2E-02 Lac                                                 
 3.59E+03   6%   1.694 NAA                                                 
  492.599  48%   0.233 NAAG                                                
  109.409  45% 5.2E-02 Scyllo                                              
    0.000 999%   0.000 Tau                                                 
    0.000 999%   0.000 -CrCH2                                              
  815.557   5%   0.385 GPC+PCh                                             
 4.08E+03   4%   1.927 NAA+NAAG                                            
 2.12E+03   5%   1.000 Cr+PCr                                              
 3.20E+03  20%   1.511 Glu+Gln                                             
 4.41E+03  32%   2.082 Lip13a                                              
  349.352 276%   0.165 Lip13b                                              
    0.000 999%   0.000 Lip09                                               
 3.00E+03  14%   1.417 MM09                                                
 1.14E+03  39%   0.539 Lip20                                               
 7.69E+03  10%   3.634 MM20                                                
  926.743  32%   0.438 MM12                                                
 4.07E+03  17%   1.922 MM14                                                
    0.000 999%   0.000 MM17                                                
 4.76E+03  19%   2.247 Lip13a+Lip13b                                       
 9.75E+03   9%   4.606 MM14+Lip13a+Lip13b+MM12                             
 3.00E+03  14%   1.417 MM09+Lip09                                          
 8.84E+03   9%   4.173 MM20+Lip20                                          
   6 lines in following misc. output table
  FWHM = 0.046 ppm    S/N =  11                                            
  Data shift = 0.008 ppm                                                   
  Ph:  -1 deg       8.4 deg/ppm                                            
  alphaB,S = 1.0E+00,   4.8E+01                                            
   14 spline knots.   Ns = 6(1)                                            
  ( 4) 2 infls.   ( 1) 1 extrs.                                            
  498 points on ppm-axis = NY
      4.000000     3.992357     3.984714     3.977070     3.969427     3.961784     3.954141     3.946497     3.938854     3.931211
      3.923568     3.915925     3.908281     3.900638     3.892995     3.885352     3.877708     3.870065     3.862422     3.854779
      3.847136     3.839492     3.831849     3.824206     3.816563     3.808919     3.801276     3.793633     3.785990     3.778347
      3.770703     3.763060     3.755417     3.747774     3.740130     3.732487     3.724844     3.717201     3.709558     3.701914
      3.694271     3.686628     3.678985     3.671341     3.663698     3.656055     3.648412     3.640769     3.633125     3.625482
      3.617839     3.610196     3.602552     3.594909     3.587266     3.579623     3.571980     3.564336     3.556693     3.549050
      3.541407     3.533763     3.526120     3.518477     3.510834     3.503191     3.495547     3.487904     3.480261     3.472618
      3.464974     3.457331     3.449688     3.442045     3.434402     3.426758     3.419115     3.411472     3.403829     3.396185
      3.388542     3.380899     3.373256     3.365613     3.357969     3.350326     3.342683     3.335040     3.327396     3.319753
      3.312110     3.304467     3.296824     3.289180     3.281537     3.273894     3.266251     3.258607     3.250964     3.243321
      3.235678     3.228034     3.220391     3.212748     3.205105     3.197462     3.189818     3.182175     3.174532     3.166889
      3.159245     3.151602     3.143959     3.136316     3.128673     3.121029     3.113386     3.105743     3.098100     3.090456
      3.082813     3.075170     3.067527     3.059884     3.052240     3.044597     3.036954     3.029311     3.021667     3.014024
      3.006381     2.998738     2.991095     2.983451     2.975808     2.968165     2.960522     2.952878     2.945235     2.937592
      2.929949     2.922306     2.914662     2.907019     2.899376     2.891733     2.884089     2.876446     2.868803     2.861160
      2.853517     2.845873     2.838230     2.830587     2.822944     2.815300     2.807657     2.800014     2.792371     2.784728
      2.777084     2.769441     2.761798     2.754155     2.746511     2.738868     2.731225     2.723582     2.715939     2.708295
      2.700652     2.693009     2.685366     2.677722     2.670079     2.662436     2.654793     2.647150     2.639506     2.631863
      2.624220     2.616577     2.608933     2.601290     2.593647     2.586004     2.578361     2.570717     2.563074     2.555431
      2.547788     2.540144     2.532501     2.524858     2.517215     2.509572     2.501928     2.494285     2.486642     2.478999
      2.471355     2.463712     2.456069     2.448426     2.440783     2.433139     2.425496     2.417853     2.410210     2.402566
      2.394923     2.387280     2.379637     2.371994     2.364350     2.356707     2.349064     2.341421     2.333777     2.326134
      2.318491     2.310848     2.303205     2.295561     2.287918     2.280275     2.272632     2.264988     2.257345     2.249702
      2.242059     2.234416     2.226772     2.219129     2.211486     2.203843     2.196199     2.188556     2.180913     2.173270
      2.165627     2.157983     2.150340     2.142697     2.135054     2.127410     2.119767     2.112124     2.104481     2.096838
      2.089194     2.081551     2.073908     2.066265     2.058621     2.050978     2.043335     2.035692     2.028049     2.020405
      2.012762     2.005119     1.997476     1.989833     1.982190     1.974546     1.966903     1.959260     1.951617     1.943974
      1.936331     1.928688     1.921045     1.913402     1.905759     1.898115     1.890472     1.882829     1.875186     1.867543
      1.859900     1.852257     1.844614     1.836971     1.829327     1.821684     1.814041     1.806398     1.798755     1.791112
      1.783469     1.775826     1.768183     1.760540     1.752896     1.745253     1.737610     1.729967     1.722324     1.714681
      1.707038     1.699395     1.691752     1.684108     1.676465     1.668822     1.661179     1.653536     1.645893     1.638250
      1.630607     1.622964     1.615321     1.607677     1.600034     1.592391     1.584748     1.577105     1.569462     1.561819
      1.554176     1.546533     1.538890     1.531246     1.523603     1.515960     1.508317     1.500674     1.493031     1.485388
      1.477745     1.470102     1.462458     1.454815     1.447172     1.439529     1.431886     1.424243     1.416600     1.408957
      1.401314     1.393671     1.386027     1.378384     1.370741     1.363098     1.355455     1.347812     1.340169     1.332526
      1.324883     1.317240     1.309596     1.301953     1.294310     1.286667     1.279024     1.271381     1.263738     1.256095
      1.248452     1.240808     1.233165     1.225522     1.217879     1.210236     1.202593     1.194950     1.187307     1.179664
      1.172021     1.164377     1.156734     1.149091     1.141448     1.133805     1.126162     1.118519     1.110876     1.103233
      1.095590     1.087946     1.080303     1.072660     1.065017     1.057374     1.049731     1.042088     1.034445     1.026802
      1.019158     1.011515     1.003872     0.996229     0.988586     0.980943     0.973300     0.965657     0.958014     0.950371
      0.942727     0.935084     0.927441     0.919798     0.912155     0.904512     0.896869     0.889226     0.881583     0.873940
      0.866296     0.858653     0.851010     0.843367     0.835724     0.828081     0.820438     0.812795     0.805152     0.797508
      0.789865     0.782222     0.774579     0.766936     0.759293     0.751650     0.744007     0.736364     0.728721     0.721077
      0.713434     0.705791     0.698148     0.690505     0.682862     0.675219     0.667576     0.659933     0.652290     0.644646
      0.637003     0.629360     0.621717     0.614074     0.606431     0.598788     0.591145     0.583502     0.575858     0.568215
      0.560572     0.552929     0.545286     0.537643     0.530000     0.522357     0.514714     0.507071     0.499427     0.491784
      0.484141     0.476498     0.468855     0.461212     0.453569     0.445925     0.438282     0.430639     0.422996     0.415353
      0.407710     0.400067     0.392424     0.384780     0.377137     0.369494     0.361851     0.354208     0.346565     0.338922
      0.331278     0.323635     0.315992     0.308349     0.300706     0.293063     0.285420     0.277777     0.270133     0.262490
      0.254847     0.247204     0.239561     0.231918     0.224275     0.216631     0.208988     0.201345
 NY phased data points follow
   4.18134E+01  4.38128E+01  4.08881E+01  5.36500E+01  4.68774E+01  5.19128E+01  6.07824E+01  6.36689E+01  7.25646E+01  8.67278E+01
   9.97779E+01  9.60416E+01  1.01450E+02  9.88935E+01  8.26729E+01  7.85680E+01  5.96046E+01  5.86770E+01  5.63563E+01  5.55302E+01
   5.26493E+01  5.84143E+01  4.74690E+01  5.42128E+01  4.54196E+01  5.62494E+01  5.05878E+01  5.89222E+01  5.48616E+01  5.53899E+01
   5.80638E+01  6.32098E+01  4.74981E+01  4.99775E+01  4.89078E+01  5.46971E+01  4.08680E+01  3.87584E+01  4.17040E+01  4.34380E+01
   4.15249E+01  4.64337E+01  4.47668E+01  3.74567E+01  4.40550E+01  4.41681E+01  4.85080E+01  4.36188E+01  5.87009E+01  6.31751E+01
   4.46150E+01  4.54592E+01  3.85002E+01  4.31076E+01  3.61023E+01  4.59148E+01  3.43075E+01  3.50222E+01  4.42302E+01  4.66335E+01
   2.51199E+01  4.39810E+01  3.49686E+01  2.59743E+01  1.87537E+01  2.62716E+01  1.98679E+01  2.70293E+01  2.09926E+01  2.46252E+01
   2.44847E+01  1.95983E+01  1.65186E+01  2.35244E+01  4.10030E+01  2.78730E+01  1.89245E+01  1.46070E+01  2.06539E+01  2.95993E+01
   2.33950E+01  2.75220E+01  2.49176E+01  2.90454E+01  1.96311E+01  1.78708E+01  1.36680E+01  3.17678E+01  1.83876E+01  2.84410E+01
   1.74589E+01  3.07059E+01  2.78613E+01  1.78482E+01  2.35505E+01  1.24698E+01  2.35724E+01  1.89654E+01  2.34494E+01  2.83680E+01
   5.69792E+01  5.83440E+01  7.96922E+01  1.02821E+02  1.00697E+02  9.22082E+01  7.26738E+01  6.51035E+01  3.74859E+01  3.13520E+01
   2.35640E+01  2.00334E+01  3.31628E+01  2.26679E+01  1.92578E+01  1.18597E+01  1.36153E+01  8.33417E+00  4.94152E+00  1.82060E+01
  -8.46186E+00  8.25238E+00  1.01711E+01  2.02605E+01  2.62072E+01  5.91876E+01  8.18981E+01  8.43113E+01  9.71365E+01  9.20582E+01
   7.00418E+01  5.39847E+01  3.61214E+01  3.31051E+01  2.06188E+01  2.84935E+01  1.76297E+01  9.51211E+00  2.01100E+01  1.22316E+01
   9.60774E+00  1.10648E+01  8.12932E+00  6.04830E-01  9.41149E+00  9.47104E+00  4.84701E+00  3.55935E+00  1.17318E+01  1.51515E+01
   7.25502E+00  2.44126E+00  7.16263E+00  8.62090E+00 -3.70862E-01  9.13108E+00  2.26009E+00  3.86895E+00 -6.97727E+00  1.08090E+01
  -3.78893E+00  5.26694E+00  7.15412E+00  3.50358E+00 -5.77011E+00 -5.53790E+00 -8.24072E+00 -1.21026E+01 -1.89157E+01 -1.40719E+01
  -1.55837E+00 -7.68638E+00 -7.67350E+00 -1.45824E+01 -1.93382E+01 -1.01251E+01 -1.63152E+01 -1.87298E+01 -1.60926E+01 -1.58865E+01
  -4.14881E+00 -8.77177E+00 -1.01185E+01 -1.88925E+01 -9.27414E+00 -1.55725E+01 -2.11924E+01 -1.71353E+01 -1.47993E+01 -4.73430E+00
  -3.82462E-01  9.88976E-01  1.47284E+01  1.03711E+01  3.53911E+00 -3.59111E+00 -2.56572E+00  2.10240E+00 -3.16597E-01  3.25581E+00
  -3.15597E+00  3.01717E+00 -1.66804E+00  8.01909E+00  7.17707E+00 -9.16156E+00 -1.28907E+00 -5.56057E+00 -1.67232E+00 -4.63510E+00
  -1.40803E+01 -3.91438E+00  7.65717E+00  1.09353E+01  1.05413E+01  2.13581E+01  2.21541E+01  1.24508E+01  1.60849E+01  2.28175E+00
   5.64109E+00  3.90150E+00 -1.25441E-01  7.11484E+00  9.91145E+00  2.74670E+01  1.60670E+01  2.87215E+01  1.09555E+01  1.59439E+01
   1.99858E+01  1.28252E+01  3.10266E+01  1.77051E+01  2.33590E+01  3.25898E+01  1.20839E+01  1.69727E+01  2.27454E+01  2.23850E+01
   1.53899E+01  1.68510E+01  1.99066E+01  1.20205E+00  1.85075E+01  1.47778E+01  2.42834E+01  1.97849E+01  2.78107E+01  3.14177E+01
   2.46790E+01  2.33137E+01  3.09072E+01  3.93006E+01  4.06303E+01  5.88707E+01  7.44070E+01  9.58138E+01  1.20844E+02  1.38370E+02
   1.64852E+02  1.47521E+02  1.30068E+02  1.02799E+02  8.70615E+01  5.51627E+01  3.12095E+01  2.16778E+01  2.34280E+01  1.94489E+01
   1.01014E+01  1.34962E+01  1.68422E+01  1.11797E+01  7.75292E+00  8.17194E+00  4.12921E+00  9.42122E+00  7.55390E+00  3.36172E+00
  -9.44407E-01  9.63489E+00 -2.04149E+00 -1.39450E+00 -6.01273E-01 -3.28130E+00 -3.55966E+00  7.92255E-01  1.02833E+01 -3.65505E-01
  -2.72714E-01 -7.85318E+00 -5.59957E+00 -1.18245E+01 -7.14490E+00 -1.68546E+01 -7.77337E-01 -1.53213E+01 -1.15712E+01 -1.97388E+01
  -1.14794E+01 -4.31273E+00 -1.47116E+01 -2.70215E+01 -1.11166E+01 -1.53682E+01 -2.18374E+01 -1.51519E+01 -1.74210E+01 -1.75930E+01
  -2.23765E+01 -4.14032E+00 -1.72426E+01 -1.75068E+00 -3.18335E+00  2.67038E+00  5.45210E+00  6.97629E+00  1.34740E+01  9.95392E+00
   1.02461E+01  2.57592E+01  3.01594E+01  1.15183E+01  2.26469E+01  2.03712E+01  2.74535E+01  1.41271E+01  1.81047E+01  1.58930E+01
   3.77399E+00  1.96074E+01  9.92959E+00  1.13527E+01  2.35036E+01  2.13036E+01  1.90023E+01  2.02610E+01  1.98267E+01  2.31146E+01
   2.31266E+01  2.61479E+01  1.52892E+01  2.12569E+01  1.81889E+01  2.57713E+01  2.06727E+01  2.43014E+01  1.56973E+01  2.13706E+01
   1.24114E+01  2.33977E+01  1.28758E+01  2.23364E+01  2.72592E+01  2.90290E+01  2.30090E+01  1.52760E+01  2.32785E+01  9.09488E+00
   1.64579E+01  1.48160E+01  2.36578E+01  1.38051E+01  2.53790E+01  1.54735E+01  8.39686E+00  9.33426E+00  6.72054E+00  1.38356E+00
   8.12449E+00 -3.81802E+00  3.96522E+00  2.36460E+00  7.38723E+00 -3.35821E+00  2.92991E+00  7.68439E-01 -2.46733E+00 -8.79384E+00
  -2.59236E+00  3.76042E+00 -6.93980E+00  3.90401E+00 -5.81809E+00 -1.06046E+00  8.92359E+00  9.97839E-01  7.65442E+00  3.47894E+00
   5.24480E+00  5.99025E+00 -3.88843E+00  3.26698E+00  1.02872E+01 -2.91421E+00 -9.85551E+00  3.76093E+00 -2.76096E+00  4.22896E-01
   6.16791E+00  1.03519E+01 -2.54682E+00  3.24909E+00  6.28035E+00  2.15992E+01  2.12604E+00  1.05530E+01  1.88401E+01  6.80161E+00
  -6.58093E+00  6.97634E+00 -6.77864E-01  5.62257E+00 -3.32611E+00  8.89216E-01  3.41598E+00 -2.73213E+00 -4.34047E+00 -9.64258E-01
   3.50167E+00  7.64508E+00 -3.20250E+00 -1.05686E+01 -4.82464E+00 -5.57060E+00 -3.49782E+00 -2.83733E+00 -1.05014E+01 -6.89204E+00
  -1.64961E+01 -1.50964E+01 -1.27491E+01 -4.42035E+00 -6.98793E+00 -5.07515E+00 -9.57270E+00 -1.66576E+01 -3.52748E+00 -1.27471E+01
  -7.02251E+00 -3.98090E+00 -8.14551E+00 -1.08391E+01 -1.82953E+01 -1.02438E+01 -1.30014E+01 -1.64889E+00 -1.13844E+01 -9.38425E+00
  -5.81198E+00 -7.02418E+00 -6.82993E-01 -1.57056E+01 -1.10086E+01 -9.70959E+00 -1.24480E+01 -2.36758E+00 -1.02679E+01 -6.68494E+00
  -1.01522E+01 -5.79134E+00 -1.03440E+01 -1.31344E+01  1.82438E+00 -3.95874E+00 -2.91618E+00 -6.82929E+00 -4.60987E+00 -1.83913E+01
  -9.98383E+00 -7.25175E+00 -8.51692E+00 -1.83066E+00 -1.02356E+01 -3.10611E+00  4.69977E+00 -1.06392E+01  4.52417E+00 -8.84463E+00
  -1.39418E+01 -1.52973E+00 -3.70012E+00 -3.21828E+00 -3.01471E+00 -3.58832E+00 -1.14041E+01 -3.37743E+00 -1.33126E+01 -3.83637E+00
  -6.84873E+00  6.08195E+00 -1.73569E+01 -8.88419E+00 -6.05223E+00 -1.99277E+00 -1.02641E+01 -7.87485E-02
 NY points of the fit to the data follow
   4.96460E+01  4.85895E+01  4.81721E+01  4.82930E+01  4.92867E+01  5.13589E+01  5.48908E+01  6.10529E+01  6.99712E+01  8.01344E+01
   8.94059E+01  9.58012E+01  9.71711E+01  9.24306E+01  8.33735E+01  7.33826E+01  6.44720E+01  5.77024E+01  5.28964E+01  4.91011E+01
   4.74580E+01  4.70328E+01  4.64469E+01  4.53667E+01  4.43391E+01  4.42268E+01  4.54045E+01  4.81121E+01  5.22783E+01  5.68717E+01
   6.00711E+01  6.06732E+01  5.88544E+01  5.54646E+01  5.11845E+01  4.68793E+01  4.29498E+01  4.01153E+01  3.87798E+01  3.81389E+01
   3.78454E+01  3.77832E+01  3.85845E+01  4.06653E+01  4.37693E+01  4.72434E+01  5.03784E+01  5.22500E+01  5.19228E+01  4.91517E+01
   4.48480E+01  4.03955E+01  3.67646E+01  3.40733E+01  3.22035E+01  3.13862E+01  3.17425E+01  3.28211E+01  3.40404E+01  3.50379E+01
   3.53434E+01  3.46445E+01  3.30208E+01  3.09131E+01  2.89370E+01  2.75438E+01  2.68052E+01  2.67431E+01  2.72613E+01  2.80372E+01
   2.88477E+01  2.94702E+01  2.97483E+01  2.95859E+01  2.90255E+01  2.82812E+01  2.74927E+01  2.67372E+01  2.60284E+01  2.53259E+01
   2.47751E+01  2.45252E+01  2.46646E+01  2.49999E+01  2.51914E+01  2.49646E+01  2.40855E+01  2.24599E+01  2.04390E+01  1.87387E+01
   1.78342E+01  1.77320E+01  1.81815E+01  1.87400E+01  1.91967E+01  1.95373E+01  1.96607E+01  2.01767E+01  2.34650E+01  3.27807E+01
   4.82570E+01  6.71934E+01  8.57321E+01  9.89905E+01  1.01661E+02  9.25281E+01  7.63192E+01  5.91504E+01  4.42965E+01  3.30955E+01
   2.44745E+01  1.81592E+01  1.60182E+01  1.55125E+01  1.53432E+01  1.52358E+01  1.51248E+01  1.50058E+01  1.49112E+01  1.49368E+01
   1.52830E+01  1.64558E+01  2.01152E+01  2.89259E+01  4.31598E+01  6.05502E+01  7.77802E+01  9.08091E+01  9.49427E+01  8.84481E+01
   7.48472E+01  5.94314E+01  4.51301E+01  3.31500E+01  2.29783E+01  1.46700E+01  1.08407E+01  9.92701E+00  1.04158E+01  1.16065E+01
   1.28218E+01  1.36800E+01  1.39374E+01  1.35120E+01  1.27198E+01  1.17892E+01  1.08079E+01  9.93642E+00  9.11580E+00  8.37322E+00
   7.66688E+00  6.98712E+00  6.38421E+00  5.91229E+00  5.61765E+00  5.45681E+00  5.22176E+00  4.70093E+00  3.84640E+00  2.80625E+00
   1.87740E+00  1.36993E+00  1.37988E+00  1.67975E+00  1.86485E+00  1.54004E+00  5.97849E-01 -6.33141E-01 -1.72497E+00 -2.64962E+00
  -3.46278E+00 -4.30660E+00 -5.33734E+00 -6.34658E+00 -7.18326E+00 -7.73937E+00 -7.90539E+00 -7.69464E+00 -7.36468E+00 -7.24549E+00
  -7.43018E+00 -7.73762E+00 -7.97285E+00 -8.00570E+00 -7.82156E+00 -7.25947E+00 -5.91082E+00 -3.63827E+00 -6.88322E-01  2.12046E+00
   3.95553E+00  4.44800E+00  3.61766E+00  1.81015E+00 -2.71942E-01 -2.08512E+00 -3.12151E+00 -2.97680E+00 -1.61795E+00  7.60786E-01
   3.77721E+00  6.75590E+00  8.98571E+00  9.99551E+00  9.25148E+00  6.44385E+00  2.01038E+00 -2.89738E+00 -7.20922E+00 -9.87446E+00
  -9.93500E+00 -7.16603E+00 -2.46161E+00  2.89332E+00  7.80875E+00  1.10918E+01  1.18594E+01  9.73897E+00  5.32600E+00  4.98353E-01
  -3.27919E+00 -5.25544E+00 -4.92371E+00 -2.23818E+00  2.17134E+00  6.57734E+00  9.77887E+00  1.14457E+01  1.18644E+01  1.15495E+01
   1.08245E+01  1.02259E+01  1.05644E+01  1.19397E+01  1.37987E+01  1.57650E+01  1.76160E+01  1.89418E+01  1.92663E+01  1.84972E+01
   1.72231E+01  1.60697E+01  1.55463E+01  1.60319E+01  1.74410E+01  1.94362E+01  2.14245E+01  2.30457E+01  2.42889E+01  2.55557E+01
   2.72117E+01  2.98497E+01  3.38273E+01  3.89378E+01  4.54609E+01  5.62055E+01  7.39017E+01  9.69346E+01  1.21636E+02  1.43625E+02
   1.56260E+02  1.52821E+02  1.33423E+02  1.05944E+02  7.89510E+01  5.63421E+01  3.88813E+01  2.46189E+01  1.46243E+01  1.04343E+01
   8.29779E+00  6.91337E+00  6.03138E+00  5.37436E+00  4.73189E+00  3.98997E+00  3.09325E+00  2.06682E+00  9.81950E-01 -7.68738E-02
  -1.05606E+00 -1.90214E+00 -2.58509E+00 -3.13540E+00 -3.59457E+00 -4.00221E+00 -4.39002E+00 -4.76383E+00 -5.11588E+00 -5.43762E+00
  -5.72116E+00 -5.95934E+00 -6.15715E+00 -6.34023E+00 -6.52070E+00 -6.69974E+00 -6.87511E+00 -7.03511E+00 -7.16648E+00 -7.26411E+00
  -7.31206E+00 -7.30447E+00 -7.24964E+00 -7.15222E+00 -7.01290E+00 -6.82684E+00 -6.58439E+00 -6.27978E+00 -5.90096E+00 -5.43418E+00
  -4.86834E+00 -4.19129E+00 -3.39209E+00 -2.46064E+00 -1.38766E+00 -1.65137E-01  1.21380E+00  2.75580E+00  4.46994E+00  6.37433E+00
   8.51592E+00  1.10161E+01  1.40194E+01  1.72484E+01  2.00468E+01  2.18042E+01  2.20837E+01  2.06069E+01  1.76161E+01  1.40959E+01
   1.13702E+01  1.03016E+01  1.10839E+01  1.34354E+01  1.68813E+01  2.09531E+01  2.42955E+01  2.58542E+01  2.58470E+01  2.48929E+01
   2.35542E+01  2.22430E+01  2.09473E+01  1.99024E+01  1.93645E+01  1.90736E+01  1.88580E+01  1.86179E+01  1.83344E+01  1.81182E+01
   1.81580E+01  1.85463E+01  1.92404E+01  2.01203E+01  2.10271E+01  2.18084E+01  2.22329E+01  2.21301E+01  2.15511E+01  2.06041E+01
   1.93989E+01  1.80183E+01  1.64895E+01  1.49123E+01  1.33542E+01  1.18195E+01  1.03218E+01  8.87618E+00  7.49566E+00  6.19045E+00
   4.96855E+00  3.83621E+00  2.79841E+00  1.85904E+00  1.02099E+00  2.86137E-01 -3.44657E-01 -8.71343E-01 -1.29444E+00 -1.61489E+00
  -1.83397E+00 -1.95327E+00 -1.97466E+00 -1.90018E+00 -1.73205E+00 -1.47284E+00 -1.12571E+00 -6.94670E-01 -1.84833E-01  3.97474E-01
   1.04451E+00  1.74684E+00  2.49319E+00  3.27033E+00  4.06333E+00  4.85574E+00  5.62996E+00  6.36765E+00  7.05016E+00  7.65925E+00
   8.17790E+00  8.59096E+00  8.88586E+00  9.05300E+00  9.08626E+00  8.98325E+00  8.74557E+00  8.37861E+00  7.89129E+00  7.29544E+00
   6.60536E+00  5.83712E+00  5.00795E+00  4.13545E+00  3.23686E+00  2.32841E+00  1.42490E+00  5.39388E-01 -3.17032E-01 -1.13540E+00
  -1.90897E+00 -2.63306E+00 -3.30487E+00 -3.92315E+00 -4.48799E+00 -5.00067E+00 -5.46337E+00 -5.87892E+00 -6.25051E+00 -6.58150E+00
  -6.87527E+00 -7.13526E+00 -7.36480E+00 -7.56704E+00 -7.74483E+00 -7.90075E+00 -8.03714E+00 -8.15615E+00 -8.25974E+00 -8.34963E+00
  -8.42726E+00 -8.49388E+00 -8.55063E+00 -8.59857E+00 -8.63864E+00 -8.67162E+00 -8.69814E+00 -8.71878E+00 -8.73408E+00 -8.74459E+00
  -8.75075E+00 -8.75290E+00 -8.75132E+00 -8.74628E+00 -8.73810E+00 -8.72706E+00 -8.71338E+00 -8.69722E+00 -8.67872E+00 -8.65805E+00
  -8.63540E+00 -8.61095E+00 -8.58478E+00 -8.55696E+00 -8.52756E+00 -8.49673E+00 -8.46460E+00 -8.43125E+00 -8.39674E+00 -8.36108E+00
  -8.32433E+00 -8.28661E+00 -8.24800E+00 -8.20853E+00 -8.16821E+00 -8.12705E+00 -8.08513E+00 -8.04254E+00 -7.99934E+00 -7.95551E+00
  -7.91106E+00 -7.86600E+00 -7.82041E+00 -7.77435E+00 -7.72784E+00 -7.68086E+00 -7.63340E+00 -7.58551E+00 -7.53723E+00 -7.48862E+00
  -7.43966E+00 -7.39032E+00 -7.34061E+00 -7.29056E+00 -7.24022E+00 -7.18961E+00 -7.13867E+00 -7.08737E+00
 NY background values follow
     4.284E+01    4.253E+01    4.223E+01    4.192E+01    4.162E+01    4.131E+01    4.101E+01    4.070E+01    4.039E+01    4.009E+01
     3.978E+01    3.948E+01    3.917E+01    3.886E+01    3.856E+01    3.825E+01    3.795E+01    3.764E+01    3.734E+01    3.703E+01
     3.672E+01    3.642E+01    3.611E+01    3.581E+01    3.550E+01    3.520E+01    3.489E+01    3.459E+01    3.428E+01    3.398E+01
     3.367E+01    3.337E+01    3.306E+01    3.276E+01    3.246E+01    3.215E+01    3.185E+01    3.154E+01    3.124E+01    3.094E+01
     3.064E+01    3.033E+01    3.003E+01    2.973E+01    2.943E+01    2.913E+01    2.882E+01    2.852E+01    2.822E+01    2.792E+01
     2.762E+01    2.732E+01    2.702E+01    2.672E+01    2.643E+01    2.613E+01    2.583E+01    2.553E+01    2.524E+01    2.494E+01
     2.464E+01    2.435E+01    2.405E+01    2.376E+01    2.347E+01    2.317E+01    2.288E+01    2.259E+01    2.230E+01    2.201E+01
     2.172E+01    2.143E+01    2.114E+01    2.086E+01    2.057E+01    2.029E+01    2.000E+01    1.972E+01    1.943E+01    1.915E+01
     1.887E+01    1.859E+01    1.831E+01    1.803E+01    1.776E+01    1.748E+01    1.720E+01    1.693E+01    1.666E+01    1.639E+01
     1.611E+01    1.584E+01    1.558E+01    1.531E+01    1.504E+01    1.478E+01    1.451E+01    1.425E+01    1.399E+01    1.373E+01
     1.347E+01    1.321E+01    1.295E+01    1.270E+01    1.244E+01    1.219E+01    1.194E+01    1.169E+01    1.144E+01    1.119E+01
     1.094E+01    1.070E+01    1.045E+01    1.021E+01    9.970E+00    9.731E+00    9.493E+00    9.256E+00    9.021E+00    8.788E+00
     8.555E+00    8.325E+00    8.096E+00    7.868E+00    7.642E+00    7.418E+00    7.195E+00    6.973E+00    6.754E+00    6.535E+00
     6.319E+00    6.104E+00    5.891E+00    5.679E+00    5.469E+00    5.261E+00    5.055E+00    4.850E+00    4.647E+00    4.445E+00
     4.246E+00    4.048E+00    3.852E+00    3.657E+00    3.464E+00    3.273E+00    3.083E+00    2.896E+00    2.710E+00    2.525E+00
     2.343E+00    2.162E+00    1.982E+00    1.805E+00    1.629E+00    1.455E+00    1.282E+00    1.111E+00    9.422E-01    7.747E-01
     6.089E-01    4.448E-01    2.824E-01    1.217E-01   -3.734E-02   -1.947E-01   -3.504E-01   -5.044E-01   -6.567E-01   -8.074E-01
    -9.563E-01   -1.104E+00   -1.249E+00   -1.393E+00   -1.536E+00   -1.676E+00   -1.815E+00   -1.952E+00   -2.088E+00   -2.222E+00
    -2.354E+00   -2.485E+00   -2.614E+00   -2.741E+00   -2.867E+00   -2.991E+00   -3.114E+00   -3.235E+00   -3.354E+00   -3.472E+00
    -3.589E+00   -3.704E+00   -3.818E+00   -3.930E+00   -4.041E+00   -4.151E+00   -4.260E+00   -4.367E+00   -4.473E+00   -4.577E+00
    -4.681E+00   -4.783E+00   -4.884E+00   -4.985E+00   -5.084E+00   -5.181E+00   -5.278E+00   -5.374E+00   -5.469E+00   -5.563E+00
    -5.656E+00   -5.748E+00   -5.839E+00   -5.929E+00   -6.019E+00   -6.107E+00   -6.195E+00   -6.282E+00   -6.369E+00   -6.454E+00
    -6.539E+00   -6.624E+00   -6.707E+00   -6.790E+00   -6.873E+00   -6.955E+00   -7.036E+00   -7.117E+00   -7.197E+00   -7.277E+00
    -7.357E+00   -7.435E+00   -7.514E+00   -7.591E+00   -7.669E+00   -7.746E+00   -7.822E+00   -7.898E+00   -7.973E+00   -8.048E+00
    -8.122E+00   -8.196E+00   -8.269E+00   -8.342E+00   -8.414E+00   -8.485E+00   -8.557E+00   -8.627E+00   -8.697E+00   -8.767E+00
    -8.836E+00   -8.905E+00   -8.973E+00   -9.041E+00   -9.108E+00   -9.174E+00   -9.240E+00   -9.306E+00   -9.371E+00   -9.435E+00
    -9.499E+00   -9.563E+00   -9.626E+00   -9.688E+00   -9.750E+00   -9.812E+00   -9.873E+00   -9.933E+00   -9.993E+00   -1.005E+01
    -1.011E+01   -1.017E+01   -1.023E+01   -1.028E+01   -1.034E+01   -1.040E+01   -1.045E+01   -1.051E+01   -1.056E+01   -1.062E+01
    -1.067E+01   -1.072E+01   -1.078E+01   -1.083E+01   -1.088E+01   -1.093E+01   -1.098E+01   -1.103E+01   -1.108E+01   -1.113E+01
    -1.117E+01   -1.122E+01   -1.127E+01   -1.131E+01   -1.136E+01   -1.140E+01   -1.145E+01   -1.149E+01   -1.153E+01   -1.157E+01
    -1.161E+01   -1.165E+01   -1.169E+01   -1.173E+01   -1.177E+01   -1.181E+01   -1.185E+01   -1.188E+01   -1.192E+01   -1.195E+01
    -1.199E+01   -1.202E+01   -1.205E+01   -1.208E+01   -1.211E+01   -1.214E+01   -1.217E+01   -1.220E+01   -1.223E+01   -1.226E+01
    -1.228E+01   -1.231E+01   -1.233E+01   -1.236E+01   -1.238E+01   -1.240E+01   -1.243E+01   -1.245E+01   -1.247E+01   -1.249E+01
    -1.250E+01   -1.252E+01   -1.254E+01   -1.256E+01   -1.257E+01   -1.259E+01   -1.260E+01   -1.262E+01   -1.263E+01   -1.264E+01
    -1.265E+01   -1.266E+01   -1.267E+01   -1.268E+01   -1.269E+01   -1.270E+01   -1.271E+01   -1.271E+01   -1.272E+01   -1.273E+01
    -1.273E+01   -1.273E+01   -1.274E+01   -1.274E+01   -1.274E+01   -1.274E+01   -1.275E+01   -1.275E+01   -1.274E+01   -1.274E+01
    -1.274E+01   -1.274E+01   -1.274E+01   -1.273E+01   -1.273E+01   -1.272E+01   -1.272E+01   -1.271E+01   -1.271E+01   -1.270E+01
    -1.269E+01   -1.268E+01   -1.267E+01   -1.266E+01   -1.265E+01   -1.264E+01   -1.263E+01   -1.262E+01   -1.260E+01   -1.259E+01
    -1.257E+01   -1.256E+01   -1.254E+01   -1.253E+01   -1.251E+01   -1.249E+01   -1.247E+01   -1.246E+01   -1.244E+01   -1.242E+01
    -1.240E+01   -1.237E+01   -1.235E+01   -1.233E+01   -1.231E+01   -1.228E+01   -1.226E+01   -1.223E+01   -1.221E+01   -1.218E+01
    -1.215E+01   -1.212E+01   -1.210E+01   -1.207E+01   -1.204E+01   -1.201E+01   -1.198E+01   -1.194E+01   -1.191E+01   -1.188E+01
    -1.184E+01   -1.181E+01   -1.178E+01   -1.174E+01   -1.170E+01   -1.167E+01   -1.163E+01   -1.159E+01   -1.155E+01   -1.151E+01
    -1.148E+01   -1.144E+01   -1.139E+01   -1.135E+01   -1.131E+01   -1.127E+01   -1.123E+01   -1.118E+01   -1.114E+01   -1.110E+01
    -1.105E+01   -1.101E+01   -1.096E+01   -1.092E+01   -1.087E+01   -1.082E+01   -1.078E+01   -1.073E+01   -1.068E+01   -1.063E+01
    -1.058E+01   -1.053E+01   -1.048E+01   -1.043E+01   -1.038E+01   -1.033E+01   -1.028E+01   -1.023E+01   -1.018E+01   -1.013E+01
    -1.008E+01   -1.002E+01   -9.972E+00   -9.919E+00   -9.866E+00   -9.813E+00   -9.759E+00   -9.705E+00   -9.651E+00   -9.597E+00
    -9.542E+00   -9.487E+00   -9.432E+00   -9.377E+00   -9.322E+00   -9.266E+00   -9.211E+00   -9.155E+00   -9.099E+00   -9.042E+00
    -8.986E+00   -8.930E+00   -8.873E+00   -8.816E+00   -8.759E+00   -8.702E+00   -8.645E+00   -8.588E+00   -8.531E+00   -8.474E+00
    -8.416E+00   -8.359E+00   -8.302E+00   -8.244E+00   -8.186E+00   -8.129E+00   -8.071E+00   -8.014E+00   -7.956E+00   -7.898E+00
    -7.841E+00   -7.783E+00   -7.726E+00   -7.668E+00   -7.611E+00   -7.553E+00   -7.496E+00   -7.438E+00
 Ala      Conc. = 7.14E+02
