 LCModel (Version 6.3-1L) Copyright: S.W. Provencher.          Ref.: Magn. Reson. Med. 30:672-679 (1993).                
 Slice#2 Row#7 Col#12  PD_24_press_2_raw_act
 36 lines in following concentration table = NCONC+1
    Conc.  %SD /Cr+PCr  Metabolite                                         
    0.000 999%   0.000 Ala                                                 
  114.245  71%   1.971 Asp                                                 
    0.000 999%   0.000 Cr                                                  
   57.973  88%   1.000 PCr                                                 
   38.515 129%   0.664 GABA                                                
   44.549 110%   0.768 Glc                                                 
    0.000 999%   0.000 Gln                                                 
   33.642 999%   0.580 Glu                                                 
    0.000 999%   0.000 GPC                                                 
    0.000 999%   0.000 PCh                                                 
    0.000 999%   0.000 GSH                                                 
   10.125 999%   0.175 Ins                                                 
    0.000 999%   0.000 Lac                                                 
 1.60E+03   8%  27.624 NAA                                                 
    0.000 999%   0.000 NAAG                                                
   23.678  60%   0.408 Scyllo                                              
   41.054 186%   0.708 Tau                                                 
    6.392 460%   0.110 -CrCH2                                              
    0.000 999%   0.000 GPC+PCh                                             
 1.60E+03   8%  27.624 NAA+NAAG                                            
   57.973  88%   1.000 Cr+PCr                                              
   33.642 999%   0.580 Glu+Gln                                             
 9.92E+03  12% 171.075 Lip13a                                              
    0.000 999%   0.000 Lip13b                                              
 3.37E+03  12%  58.215 Lip09                                               
 2.44E+03  18%  42.102 MM09                                                
 1.79E+03  18%  30.827 Lip20                                               
   88.704 552%   1.530 MM20                                                
    0.000 999%   0.000 MM12                                                
 1.92E+03  34%  33.193 MM14                                                
 2.53E+03  26%  43.677 MM17                                                
 9.92E+03  12% 171.075 Lip13a+Lip13b                                       
 1.18E+04  10% 204.268 MM14+Lip13a+Lip13b+MM12                             
 5.82E+03   6% 100.317 MM09+Lip09                                          
 1.88E+03  24%  32.357 MM20+Lip20                                          
   6 lines in following misc. output table
  FWHM = 0.076 ppm    S/N =   7                                            
  Data shift = 0.015 ppm                                                   
  Ph:  67 deg      19.7 deg/ppm                                            
  alphaB,S = 8.5E+01,   7.3E+01                                            
   14 spline knots.   Ns = 7(2)                                            
   2 inflections.     1 extrema                                            
  498 points on ppm-axis = NY
      4.000000     3.992357     3.984714     3.977070     3.969427     3.961784     3.954141     3.946497     3.938854     3.931211
      3.923568     3.915925     3.908281     3.900638     3.892995     3.885352     3.877708     3.870065     3.862422     3.854779
      3.847136     3.839492     3.831849     3.824206     3.816563     3.808919     3.801276     3.793633     3.785990     3.778347
      3.770703     3.763060     3.755417     3.747774     3.740130     3.732487     3.724844     3.717201     3.709558     3.701914
      3.694271     3.686628     3.678985     3.671341     3.663698     3.656055     3.648412     3.640769     3.633125     3.625482
      3.617839     3.610196     3.602552     3.594909     3.587266     3.579623     3.571980     3.564336     3.556693     3.549050
      3.541407     3.533763     3.526120     3.518477     3.510834     3.503191     3.495547     3.487904     3.480261     3.472618
      3.464974     3.457331     3.449688     3.442045     3.434402     3.426758     3.419115     3.411472     3.403829     3.396185
      3.388542     3.380899     3.373256     3.365613     3.357969     3.350326     3.342683     3.335040     3.327396     3.319753
      3.312110     3.304467     3.296824     3.289180     3.281537     3.273894     3.266251     3.258607     3.250964     3.243321
      3.235678     3.228034     3.220391     3.212748     3.205105     3.197462     3.189818     3.182175     3.174532     3.166889
      3.159245     3.151602     3.143959     3.136316     3.128673     3.121029     3.113386     3.105743     3.098100     3.090456
      3.082813     3.075170     3.067527     3.059884     3.052240     3.044597     3.036954     3.029311     3.021667     3.014024
      3.006381     2.998738     2.991095     2.983451     2.975808     2.968165     2.960522     2.952878     2.945235     2.937592
      2.929949     2.922306     2.914662     2.907019     2.899376     2.891733     2.884089     2.876446     2.868803     2.861160
      2.853517     2.845873     2.838230     2.830587     2.822944     2.815300     2.807657     2.800014     2.792371     2.784728
      2.777084     2.769441     2.761798     2.754155     2.746511     2.738868     2.731225     2.723582     2.715939     2.708295
      2.700652     2.693009     2.685366     2.677722     2.670079     2.662436     2.654793     2.647150     2.639506     2.631863
      2.624220     2.616577     2.608933     2.601290     2.593647     2.586004     2.578361     2.570717     2.563074     2.555431
      2.547788     2.540144     2.532501     2.524858     2.517215     2.509572     2.501928     2.494285     2.486642     2.478999
      2.471355     2.463712     2.456069     2.448426     2.440783     2.433139     2.425496     2.417853     2.410210     2.402566
      2.394923     2.387280     2.379637     2.371994     2.364350     2.356707     2.349064     2.341421     2.333777     2.326134
      2.318491     2.310848     2.303205     2.295561     2.287918     2.280275     2.272632     2.264988     2.257345     2.249702
      2.242059     2.234416     2.226772     2.219129     2.211486     2.203843     2.196199     2.188556     2.180913     2.173270
      2.165627     2.157983     2.150340     2.142697     2.135054     2.127410     2.119767     2.112124     2.104481     2.096838
      2.089194     2.081551     2.073908     2.066265     2.058621     2.050978     2.043335     2.035692     2.028049     2.020405
      2.012762     2.005119     1.997476     1.989833     1.982190     1.974546     1.966903     1.959260     1.951617     1.943974
      1.936331     1.928688     1.921045     1.913402     1.905759     1.898115     1.890472     1.882829     1.875186     1.867543
      1.859900     1.852257     1.844614     1.836971     1.829327     1.821684     1.814041     1.806398     1.798755     1.791112
      1.783469     1.775826     1.768183     1.760540     1.752896     1.745253     1.737610     1.729967     1.722324     1.714681
      1.707038     1.699395     1.691752     1.684108     1.676465     1.668822     1.661179     1.653536     1.645893     1.638250
      1.630607     1.622964     1.615321     1.607677     1.600034     1.592391     1.584748     1.577105     1.569462     1.561819
      1.554176     1.546533     1.538890     1.531246     1.523603     1.515960     1.508317     1.500674     1.493031     1.485388
      1.477745     1.470102     1.462458     1.454815     1.447172     1.439529     1.431886     1.424243     1.416600     1.408957
      1.401314     1.393671     1.386027     1.378384     1.370741     1.363098     1.355455     1.347812     1.340169     1.332526
      1.324883     1.317240     1.309596     1.301953     1.294310     1.286667     1.279024     1.271381     1.263738     1.256095
      1.248452     1.240808     1.233165     1.225522     1.217879     1.210236     1.202593     1.194950     1.187307     1.179664
      1.172021     1.164377     1.156734     1.149091     1.141448     1.133805     1.126162     1.118519     1.110876     1.103233
      1.095590     1.087946     1.080303     1.072660     1.065017     1.057374     1.049731     1.042088     1.034445     1.026802
      1.019158     1.011515     1.003872     0.996229     0.988586     0.980943     0.973300     0.965657     0.958014     0.950371
      0.942727     0.935084     0.927441     0.919798     0.912155     0.904512     0.896869     0.889226     0.881583     0.873940
      0.866296     0.858653     0.851010     0.843367     0.835724     0.828081     0.820438     0.812795     0.805152     0.797508
      0.789865     0.782222     0.774579     0.766936     0.759293     0.751650     0.744007     0.736364     0.728721     0.721077
      0.713434     0.705791     0.698148     0.690505     0.682862     0.675219     0.667576     0.659933     0.652290     0.644646
      0.637003     0.629360     0.621717     0.614074     0.606431     0.598788     0.591145     0.583502     0.575858     0.568215
      0.560572     0.552929     0.545286     0.537643     0.530000     0.522357     0.514714     0.507071     0.499427     0.491784
      0.484141     0.476498     0.468855     0.461212     0.453569     0.445925     0.438282     0.430639     0.422996     0.415353
      0.407710     0.400067     0.392424     0.384780     0.377137     0.369494     0.361851     0.354208     0.346565     0.338922
      0.331278     0.323635     0.315992     0.308349     0.300706     0.293063     0.285420     0.277777     0.270133     0.262490
      0.254847     0.247204     0.239561     0.231918     0.224275     0.216631     0.208988     0.201345
 NY phased data points follow
   2.49140E+00 -7.17078E-01  1.16140E+00  1.92021E+00  2.81221E+00 -1.36792E+00  3.67461E+00  2.33043E+00  3.37016E+00  4.20871E+00
   5.60345E+00 -6.95894E+00 -3.72997E+00  1.12044E+00 -1.91739E+00 -1.14122E+00  1.80222E+00 -2.33995E+00  3.23904E-01 -5.06015E+00
  -1.16846E+00 -1.46338E+00  9.07499E-01 -2.20834E+00  9.53887E-01  6.63949E-02  1.16788E+00 -3.39257E-01 -1.13777E+00  2.16546E+00
  -1.36037E+00 -6.07464E+00 -2.37851E+00 -2.73193E-01  1.34320E+00 -2.61071E+00  2.19534E+00 -2.58202E-01  6.04311E-01 -8.95876E-02
   2.19504E+00  6.50517E+00 -2.66627E+00 -3.01705E+00  4.07998E+00  2.33555E-01  2.18618E+00  6.91271E-01 -2.78193E+00 -5.67060E+00
  -2.11398E+00  3.82036E+00  6.32354E-01 -1.63722E+00  1.56545E-01 -1.50645E+00 -1.40628E+00 -5.89089E-01 -3.68171E+00  2.45237E+00
   1.13458E-02 -1.98068E+00  5.63897E-01 -3.50564E+00  1.02780E+00  1.11532E+00  4.26715E+00 -9.40814E-01  1.44829E-01  1.12648E-02
  -5.50047E-01 -1.02588E+00  7.10398E-01 -1.48721E+00 -6.98951E-01 -1.19776E+00  6.11829E-01  2.05753E+00 -2.10384E+00  2.11445E+00
  -4.05226E-01  3.89403E+00 -2.11018E+00  5.58388E-01  2.08301E+00 -3.22874E+00 -5.79951E-01  1.47960E+00  2.09057E+00  3.95679E+00
   2.74363E+00 -2.11932E+00  2.44238E+00  6.02607E-01  3.75422E+00  1.14485E+00  2.13527E+00  1.08117E+00  3.24797E+00  1.59534E-01
   1.01292E+00 -8.04939E-01 -1.92075E-01 -1.76978E+00 -6.12328E+00 -7.85084E+00 -4.62954E+00 -3.53136E-01 -1.37206E+00 -4.70738E+00
  -4.72862E+00 -1.34809E+00  3.22776E-01 -5.55434E+00 -4.69476E+00  1.48330E+00 -1.92628E+00  3.67094E+00  1.04999E+00 -1.02658E+00
  -1.12903E-01  5.32817E+00  4.18871E+00  5.88897E+00  2.12174E+00  1.40692E+00  4.12514E+00  2.92447E+00 -1.04175E+00 -2.35914E+00
  -1.17996E+00 -8.00729E+00  1.83168E+00 -3.05171E+00 -4.47603E+00 -8.33792E-01 -2.13617E+00 -5.07785E-01  5.91737E-01 -3.95589E-01
   5.22153E+00 -2.33184E+00  4.03796E-01  3.29778E+00  5.31216E+00  1.25814E-01 -4.14681E-01 -2.19841E+00  6.58915E-01 -3.09391E-02
   2.73718E-01 -1.56416E+00 -1.32092E+00  4.66040E+00  1.58520E+00  2.64604E-01  5.36087E-01  3.18322E-01  1.72317E-01  7.45466E-02
   2.25800E+00 -2.97308E+00  3.75163E+00 -3.99463E+00  5.35052E+00  2.04584E+00  1.78789E+00 -1.78908E+00  3.34801E-01 -2.47274E+00
   4.87971E-01  1.98639E+00  6.83968E-01 -1.08252E+00 -1.07657E+00  9.11645E-01  2.11425E+00  2.30114E+00 -2.78859E-01 -1.40724E+00
   1.60034E+00  4.21407E-02  8.22218E-01  1.99370E+00  1.60082E+00 -2.53787E+00 -2.75485E+00  1.52579E+00  2.77872E+00  5.13491E-01
  -2.26115E+00 -3.35716E-01  1.17060E+00  3.14839E+00  1.65784E+00  4.14017E-01  1.39036E+00 -2.43250E+00  2.40083E+00  2.52476E+00
   1.59571E+00 -9.36952E-01 -2.09449E+00  6.29911E-01  3.36780E+00  4.25781E+00  1.90560E+00 -7.24116E-01  4.49214E+00 -5.57543E+00
   1.71142E-01  2.12031E+00  2.80654E+00  3.64841E+00  3.84337E+00  2.12327E+00  2.60300E+00  4.72642E+00  1.72652E+00 -2.90945E-01
  -5.12890E-01  4.22325E+00  3.00571E+00  3.76741E+00  2.15624E+00  3.75675E+00  2.13495E+00  2.24698E+00  1.00332E+01  4.25964E+00
   1.60760E+00  1.60000E+00  3.97217E+00  1.58558E+00  1.32609E+00  4.19290E+00  6.21368E+00  1.46879E+00  3.57413E+00  3.29074E+00
   3.28334E+00  1.41716E+00  4.02773E+00  7.54754E+00  8.99174E+00  7.03052E+00  4.77295E+00  6.12377E+00  5.97547E+00  6.46537E+00
   5.01184E+00  9.08359E+00  1.12913E+01  1.40373E+01  1.58143E+01  2.56226E+01  3.24316E+01  3.88607E+01  4.41091E+01  4.23389E+01
   4.33418E+01  3.55867E+01  2.97862E+01  2.94808E+01  2.62047E+01  2.44341E+01  1.35462E+01  1.59492E+01  1.50420E+01  1.26967E+01
   6.62328E+00  7.52232E+00  5.37748E+00  7.53045E+00  6.75316E+00  4.57894E+00  5.12444E+00  5.78433E+00  3.26386E+00  1.16021E+00
   3.77151E+00  3.93871E+00  2.47256E+00  3.99136E+00  2.48667E-02  2.89747E+00  1.74819E+00  3.38024E+00  7.60251E+00  1.68670E+00
   5.28850E+00  5.22030E+00  8.28309E-01  1.72522E+00  4.80816E+00  2.32109E+00  7.67637E+00  4.68396E+00  6.04810E+00  5.38888E+00
   3.97075E+00  5.27962E+00  8.96292E+00  7.01307E+00  1.03460E+01  1.27769E+01  1.15813E+01  1.72261E+01  1.75860E+01  1.41923E+01
   1.70630E+01  2.10850E+01  2.13155E+01  1.94448E+01  2.44749E+01  2.54692E+01  2.56960E+01  2.37809E+01  2.40246E+01  2.54211E+01
   3.07180E+01  2.57912E+01  3.10077E+01  3.20745E+01  2.58290E+01  2.64821E+01  2.50793E+01  2.98573E+01  2.88457E+01  2.83286E+01
   2.63552E+01  2.54958E+01  2.63827E+01  2.29893E+01  2.37609E+01  2.93674E+01  2.56261E+01  2.63209E+01  2.53772E+01  1.86588E+01
   2.37462E+01  2.42767E+01  2.54445E+01  2.59069E+01  2.37342E+01  2.24044E+01  2.30928E+01  2.62367E+01  2.23545E+01  2.09909E+01
   2.41135E+01  2.16812E+01  2.48141E+01  1.61065E+01  2.65954E+01  2.56926E+01  2.48759E+01  1.79401E+01  2.30875E+01  2.04011E+01
   1.80540E+01  1.92283E+01  2.16181E+01  2.07743E+01  2.18974E+01  1.90459E+01  1.58982E+01  1.69221E+01  2.10620E+01  2.27282E+01
   2.09668E+01  1.71155E+01  2.14939E+01  2.32162E+01  1.95859E+01  2.34523E+01  2.11080E+01  1.86637E+01  2.13652E+01  2.17438E+01
   1.92006E+01  2.37444E+01  2.51364E+01  2.37620E+01  2.46064E+01  2.29298E+01  2.20569E+01  2.46055E+01  2.49169E+01  2.24681E+01
   2.30595E+01  2.80279E+01  2.45552E+01  2.31216E+01  2.53182E+01  2.62841E+01  2.40814E+01  2.61762E+01  2.73397E+01  2.66531E+01
   2.52849E+01  2.38678E+01  2.23415E+01  2.41577E+01  2.13337E+01  2.28101E+01  2.24970E+01  2.39347E+01  1.91132E+01  2.06064E+01
   2.40999E+01  1.55972E+01  2.18342E+01  1.63454E+01  2.03608E+01  1.40023E+01  1.82119E+01  1.61268E+01  1.13219E+01  1.42357E+01
   1.26591E+01  1.19477E+01  1.44220E+01  1.23861E+01  1.06203E+01  8.91203E+00  8.25967E+00  1.00934E+01  7.58039E+00  8.73284E+00
   7.60366E+00  1.02686E+01  6.01062E+00  1.02961E+01  5.17030E+00  4.62680E+00  9.69734E+00  6.21885E+00  2.42457E+00  7.04995E+00
   3.10805E+00 -1.66217E+00  2.18903E+00  3.21837E+00  2.91984E+00  1.52855E+00 -2.35239E+00  3.79075E+00  9.18237E-01 -1.45433E-01
  -3.35680E+00 -1.48771E+00  2.09235E-01  1.48158E+00 -5.45491E+00 -3.47830E+00 -7.18345E-01 -3.36496E+00 -1.33147E+00 -2.49713E+00
  -1.52961E+00 -1.97379E+00 -2.42776E+00 -1.90251E+00 -3.43679E+00 -4.28037E+00 -3.53005E+00 -2.25270E+00 -4.96598E+00 -5.91190E+00
  -4.18777E+00 -6.41450E+00 -4.54723E+00 -5.01549E+00 -6.35281E+00 -4.59705E+00 -6.92214E+00 -7.91532E+00 -7.55084E+00 -9.77272E+00
  -5.83593E+00 -9.78907E+00 -3.99494E+00 -6.47068E+00 -4.43648E+00 -8.80602E+00 -6.10923E+00 -3.54844E+00 -8.55459E+00 -5.94361E+00
  -5.09749E+00 -7.42526E+00 -7.62514E+00 -1.23391E+01 -1.01937E+01 -7.92222E+00 -3.73042E+00 -6.10579E+00
 NY points of the fit to the data follow
   4.43065E-01  5.29867E-01  5.44989E-01  7.12108E-01  6.83921E-01  9.11237E-01  8.07770E-01  1.01574E+00  8.53028E-01  9.66781E-01
   7.84633E-01  8.01090E-01  6.28235E-01  5.94952E-01  4.37871E-01  3.93119E-01  2.69037E-01  2.56812E-01  1.78550E-01  1.96821E-01
   1.67877E-01  2.04688E-01  1.89496E-01  2.22723E-01  2.05852E-01  2.21468E-01  2.04505E-01  2.19625E-01  1.94714E-01  2.04394E-01
   1.81769E-01  1.74978E-01  1.48492E-01  1.25706E-01  1.08848E-01  7.24383E-02  6.25720E-02  1.54999E-02  8.55147E-03 -3.37719E-02
  -3.42201E-02 -6.71547E-02 -6.36082E-02 -8.72193E-02 -8.07834E-02 -9.47399E-02 -9.06703E-02 -9.98306E-02 -1.00419E-01 -1.09503E-01
  -1.14038E-01 -1.22585E-01 -1.28869E-01 -1.35834E-01 -1.46358E-01 -1.49381E-01 -1.60869E-01 -1.58669E-01 -1.68782E-01 -1.61648E-01
  -1.73611E-01 -1.59508E-01 -1.79782E-01 -1.57530E-01 -1.91346E-01 -1.59166E-01 -1.99300E-01 -1.54919E-01 -1.82585E-01 -1.30512E-01
  -1.37939E-01 -8.96022E-02 -8.24798E-02 -5.92849E-02 -5.41077E-02 -5.98328E-02 -3.66083E-02 -3.93515E-02  5.26710E-02  8.28373E-02
   2.61138E-01  3.17857E-01  5.32518E-01  5.75567E-01  7.11004E-01  6.91990E-01  6.79057E-01  5.97919E-01  4.80793E-01  3.68980E-01
   2.30196E-01  1.27311E-01 -2.84621E-05 -5.84973E-02 -1.36014E-01 -1.52136E-01 -2.16673E-01 -2.13363E-01 -2.67171E-01 -2.64144E-01
  -3.16043E-01 -3.22779E-01 -3.72687E-01 -3.80083E-01 -3.86645E-01 -3.95462E-01 -3.88623E-01 -4.01372E-01 -3.91786E-01 -4.02619E-01
  -3.90503E-01 -3.98001E-01 -3.90538E-01 -3.92648E-01 -3.91376E-01 -3.87083E-01 -3.60768E-01 -3.11227E-01 -2.31269E-01 -8.12075E-02
   5.04654E-02  3.35520E-01  4.52313E-01  8.43662E-01  8.23514E-01  1.19477E+00  1.00200E+00  1.24788E+00  9.63986E-01  1.08460E+00
   8.21489E-01  8.73930E-01  6.74739E-01  7.00412E-01  5.89936E-01  6.34932E-01  5.79371E-01  6.38147E-01  6.37547E-01  7.18211E-01
   7.56086E-01  8.35717E-01  8.97644E-01  9.64558E-01  1.06228E+00  1.14302E+00  1.22631E+00  1.30306E+00  1.37982E+00  1.45664E+00
   1.51872E+00  1.56041E+00  1.58717E+00  1.53147E+00  1.53484E+00  1.35862E+00  1.36330E+00  1.13020E+00  1.16264E+00  1.01600E+00
   1.02485E+00  1.03349E+00  9.06104E-01  9.71006E-01  6.83570E-01  6.69988E-01  2.79494E-01  1.70905E-01 -2.58749E-01 -4.38994E-01
  -8.41859E-01 -1.05772E+00 -1.33291E+00 -1.58017E+00 -1.62099E+00 -1.91642E+00 -1.72644E+00 -2.07792E+00 -1.79233E+00 -2.18446E+00
  -1.84553E+00 -2.15994E+00 -1.72082E+00 -1.89651E+00 -1.39296E+00 -1.40965E+00 -8.39955E-01 -6.99412E-01 -1.96458E-01  2.13681E-02
   3.93475E-01  6.46527E-01  8.23862E-01  1.07380E+00  9.77117E-01  1.19815E+00  1.01888E+00  1.21914E+00  1.10558E+00  1.21803E+00
   1.29380E+00  1.29920E+00  1.45763E+00  1.28618E+00  1.37174E+00  1.00436E+00  1.02518E+00  5.57669E-01  6.14505E-01  1.28343E-01
   3.05489E-01 -5.97516E-02  2.75404E-01  9.13003E-02  5.08232E-01  5.02625E-01  8.90382E-01  9.69412E-01  1.29988E+00  1.43231E+00
   1.68632E+00  1.85142E+00  2.07086E+00  2.23380E+00  2.39427E+00  2.52134E+00  2.64580E+00  2.76405E+00  2.88107E+00  3.01205E+00
   3.10509E+00  3.21440E+00  3.30650E+00  3.41556E+00  3.50399E+00  3.60547E+00  3.69614E+00  3.79633E+00  3.89823E+00  4.00349E+00
   4.12787E+00  4.25282E+00  4.40900E+00  4.56171E+00  4.75161E+00  4.95543E+00  5.25279E+00  5.53119E+00  5.90895E+00  6.48213E+00
   7.88182E+00  9.32745E+00  1.30297E+01  1.57953E+01  2.19715E+01  2.57607E+01  3.25841E+01  3.60003E+01  3.93741E+01  4.08115E+01
   3.88792E+01  3.81072E+01  3.28480E+01  3.09097E+01  2.52826E+01  2.31531E+01  1.81770E+01  1.63951E+01  1.30651E+01  1.17689E+01
   9.26555E+00  8.34087E+00  6.86007E+00  6.21304E+00  4.99956E+00  4.38055E+00  3.10489E+00  2.70854E+00  2.56668E+00  2.48089E+00
   2.42743E+00  2.39851E+00  2.39362E+00  2.40951E+00  2.44761E+00  2.50531E+00  2.58296E+00  2.67911E+00  2.79544E+00  2.93482E+00
   3.09603E+00  3.28841E+00  3.50794E+00  3.76851E+00  4.06682E+00  4.41620E+00  4.81494E+00  5.27705E+00  5.80211E+00  6.40180E+00
   7.07759E+00  7.83755E+00  8.68217E+00  9.61564E+00  1.06346E+01  1.17365E+01  1.29126E+01  1.41537E+01  1.54442E+01  1.67674E+01
   1.81027E+01  1.94280E+01  2.07196E+01  2.19545E+01  2.31098E+01  2.41655E+01  2.51044E+01  2.59138E+01  2.65855E+01  2.71164E+01
   2.75084E+01  2.77684E+01  2.79067E+01  2.79376E+01  2.78769E+01  2.77422E+01  2.75503E+01  2.73178E+01  2.70594E+01  2.67878E+01
   2.65130E+01  2.62426E+01  2.59817E+01  2.57336E+01  2.54995E+01  2.52800E+01  2.50741E+01  2.48812E+01  2.46998E+01  2.45294E+01
   2.43692E+01  2.42190E+01  2.40785E+01  2.39480E+01  2.38273E+01  2.37165E+01  2.36149E+01  2.35221E+01  2.34365E+01  2.33565E+01
   2.32798E+01  2.32039E+01  2.31259E+01  2.30429E+01  2.29518E+01  2.28499E+01  2.27346E+01  2.26042E+01  2.24568E+01  2.22920E+01
   2.21095E+01  2.19104E+01  2.16958E+01  2.14686E+01  2.12315E+01  2.09887E+01  2.07444E+01  2.05040E+01  2.02729E+01  2.00575E+01
   1.98636E+01  1.96981E+01  1.95670E+01  1.94771E+01  1.94338E+01  1.94428E+01  1.95084E+01  1.96343E+01  1.98223E+01  2.00734E+01
   2.03862E+01  2.07577E+01  2.11824E+01  2.16533E+01  2.21605E+01  2.26930E+01  2.32372E+01  2.37792E+01  2.43033E+01  2.47945E+01
   2.52376E+01  2.56191E+01  2.59265E+01  2.61504E+01  2.62835E+01  2.63223E+01  2.62657E+01  2.61167E+01  2.58802E+01  2.55646E+01
   2.51794E+01  2.47362E+01  2.42466E+01  2.37227E+01  2.31754E+01  2.26150E+01  2.20493E+01  2.14851E+01  2.09263E+01  2.03755E+01
   1.98328E+01  1.92971E+01  1.87655E+01  1.82349E+01  1.77009E+01  1.71596E+01  1.66068E+01  1.60393E+01  1.54542E+01  1.48501E+01
   1.42260E+01  1.35825E+01  1.29206E+01  1.22429E+01  1.15520E+01  1.08518E+01  1.01459E+01  9.43890E+00  8.73472E+00  8.03787E+00
   7.35201E+00  6.68105E+00  6.02790E+00  5.39561E+00  4.78612E+00  4.20146E+00  3.64260E+00  3.11060E+00  2.60552E+00  2.12766E+00
   1.67640E+00  1.25144E+00  8.51664E-01  4.76377E-01  1.24193E-01 -2.05770E-01 -5.15023E-01 -8.04519E-01 -1.07579E+00 -1.32977E+00
  -1.56790E+00 -1.79101E+00 -2.00047E+00 -2.19697E+00 -2.38177E+00 -2.55546E+00 -2.71913E+00 -2.87324E+00 -3.01878E+00 -3.15613E+00
  -3.28615E+00 -3.40911E+00 -3.52580E+00 -3.63637E+00 -3.74154E+00 -3.84143E+00 -3.93668E+00 -4.02732E+00 -4.11394E+00 -4.19652E+00
  -4.27562E+00 -4.35118E+00 -4.42371E+00 -4.49312E+00 -4.55987E+00 -4.62385E+00 -4.68552E+00 -4.74472E+00 -4.80189E+00 -4.85684E+00
  -4.91000E+00 -4.96117E+00 -5.01075E+00 -5.05856E+00 -5.10494E+00 -5.14971E+00 -5.19321E+00 -5.23524E+00 -5.27616E+00 -5.31573E+00
  -5.35428E+00 -5.39159E+00 -5.42799E+00 -5.46325E+00 -5.49769E+00 -5.53106E+00 -5.56366E+00 -5.59526E+00
 NY background values follow
     6.702E-01    6.575E-01    6.447E-01    6.319E-01    6.191E-01    6.063E-01    5.935E-01    5.807E-01    5.679E-01    5.551E-01
     5.423E-01    5.295E-01    5.167E-01    5.039E-01    4.911E-01    4.783E-01    4.655E-01    4.527E-01    4.399E-01    4.271E-01
     4.143E-01    4.015E-01    3.887E-01    3.758E-01    3.630E-01    3.502E-01    3.374E-01    3.246E-01    3.118E-01    2.989E-01
     2.861E-01    2.733E-01    2.605E-01    2.476E-01    2.348E-01    2.220E-01    2.091E-01    1.963E-01    1.835E-01    1.706E-01
     1.578E-01    1.450E-01    1.321E-01    1.193E-01    1.065E-01    9.363E-02    8.078E-02    6.794E-02    5.510E-02    4.225E-02
     2.941E-02    1.656E-02    3.716E-03   -9.133E-03   -2.198E-02   -3.483E-02   -4.768E-02   -6.054E-02   -7.339E-02   -8.624E-02
    -9.910E-02   -1.120E-01   -1.248E-01   -1.377E-01   -1.505E-01   -1.634E-01   -1.762E-01   -1.891E-01   -2.020E-01   -2.148E-01
    -2.277E-01   -2.406E-01   -2.534E-01   -2.663E-01   -2.792E-01   -2.920E-01   -3.049E-01   -3.178E-01   -3.306E-01   -3.435E-01
    -3.564E-01   -3.692E-01   -3.821E-01   -3.950E-01   -4.079E-01   -4.207E-01   -4.336E-01   -4.465E-01   -4.594E-01   -4.722E-01
    -4.851E-01   -4.980E-01   -5.109E-01   -5.238E-01   -5.366E-01   -5.495E-01   -5.624E-01   -5.753E-01   -5.882E-01   -6.010E-01
    -6.139E-01   -6.268E-01   -6.397E-01   -6.526E-01   -6.655E-01   -6.783E-01   -6.912E-01   -7.041E-01   -7.170E-01   -7.299E-01
    -7.428E-01   -7.557E-01   -7.686E-01   -7.814E-01   -7.943E-01   -8.072E-01   -8.201E-01   -8.330E-01   -8.459E-01   -8.588E-01
    -8.717E-01   -8.846E-01   -8.975E-01   -9.104E-01   -9.232E-01   -9.361E-01   -9.490E-01   -9.619E-01   -9.748E-01   -9.877E-01
    -1.001E+00   -1.013E+00   -1.026E+00   -1.039E+00   -1.052E+00   -1.065E+00   -1.078E+00   -1.091E+00   -1.104E+00   -1.117E+00
    -1.130E+00   -1.142E+00   -1.155E+00   -1.168E+00   -1.181E+00   -1.194E+00   -1.207E+00   -1.220E+00   -1.233E+00   -1.246E+00
    -1.259E+00   -1.271E+00   -1.284E+00   -1.297E+00   -1.310E+00   -1.323E+00   -1.336E+00   -1.349E+00   -1.362E+00   -1.375E+00
    -1.387E+00   -1.400E+00   -1.413E+00   -1.426E+00   -1.439E+00   -1.452E+00   -1.465E+00   -1.478E+00   -1.491E+00   -1.504E+00
    -1.516E+00   -1.529E+00   -1.542E+00   -1.555E+00   -1.568E+00   -1.581E+00   -1.594E+00   -1.607E+00   -1.620E+00   -1.632E+00
    -1.645E+00   -1.658E+00   -1.671E+00   -1.684E+00   -1.697E+00   -1.710E+00   -1.723E+00   -1.736E+00   -1.748E+00   -1.761E+00
    -1.774E+00   -1.787E+00   -1.800E+00   -1.813E+00   -1.826E+00   -1.839E+00   -1.852E+00   -1.864E+00   -1.877E+00   -1.890E+00
    -1.903E+00   -1.916E+00   -1.929E+00   -1.942E+00   -1.955E+00   -1.968E+00   -1.980E+00   -1.993E+00   -2.006E+00   -2.019E+00
    -2.032E+00   -2.045E+00   -2.058E+00   -2.071E+00   -2.083E+00   -2.096E+00   -2.109E+00   -2.122E+00   -2.135E+00   -2.148E+00
    -2.161E+00   -2.174E+00   -2.186E+00   -2.199E+00   -2.212E+00   -2.225E+00   -2.238E+00   -2.251E+00   -2.264E+00   -2.277E+00
    -2.289E+00   -2.302E+00   -2.315E+00   -2.328E+00   -2.341E+00   -2.354E+00   -2.367E+00   -2.379E+00   -2.392E+00   -2.405E+00
    -2.418E+00   -2.431E+00   -2.444E+00   -2.457E+00   -2.469E+00   -2.482E+00   -2.495E+00   -2.508E+00   -2.521E+00   -2.534E+00
    -2.547E+00   -2.559E+00   -2.572E+00   -2.585E+00   -2.598E+00   -2.611E+00   -2.624E+00   -2.637E+00   -2.649E+00   -2.662E+00
    -2.675E+00   -2.688E+00   -2.701E+00   -2.714E+00   -2.726E+00   -2.739E+00   -2.752E+00   -2.765E+00   -2.778E+00   -2.791E+00
    -2.803E+00   -2.816E+00   -2.829E+00   -2.842E+00   -2.855E+00   -2.867E+00   -2.880E+00   -2.893E+00   -2.906E+00   -2.919E+00
    -2.932E+00   -2.944E+00   -2.957E+00   -2.970E+00   -2.983E+00   -2.996E+00   -3.008E+00   -3.021E+00   -3.034E+00   -3.047E+00
    -3.060E+00   -3.072E+00   -3.085E+00   -3.098E+00   -3.111E+00   -3.124E+00   -3.136E+00   -3.149E+00   -3.162E+00   -3.175E+00
    -3.188E+00   -3.200E+00   -3.213E+00   -3.226E+00   -3.239E+00   -3.251E+00   -3.264E+00   -3.277E+00   -3.290E+00   -3.303E+00
    -3.315E+00   -3.328E+00   -3.341E+00   -3.354E+00   -3.366E+00   -3.379E+00   -3.392E+00   -3.405E+00   -3.417E+00   -3.430E+00
    -3.443E+00   -3.456E+00   -3.469E+00   -3.481E+00   -3.494E+00   -3.507E+00   -3.519E+00   -3.532E+00   -3.545E+00   -3.558E+00
    -3.570E+00   -3.583E+00   -3.596E+00   -3.609E+00   -3.621E+00   -3.634E+00   -3.647E+00   -3.660E+00   -3.672E+00   -3.685E+00
    -3.698E+00   -3.710E+00   -3.723E+00   -3.736E+00   -3.749E+00   -3.761E+00   -3.774E+00   -3.787E+00   -3.799E+00   -3.812E+00
    -3.825E+00   -3.838E+00   -3.850E+00   -3.863E+00   -3.876E+00   -3.888E+00   -3.901E+00   -3.914E+00   -3.926E+00   -3.939E+00
    -3.952E+00   -3.964E+00   -3.977E+00   -3.990E+00   -4.002E+00   -4.015E+00   -4.028E+00   -4.040E+00   -4.053E+00   -4.066E+00
    -4.078E+00   -4.091E+00   -4.104E+00   -4.116E+00   -4.129E+00   -4.142E+00   -4.154E+00   -4.167E+00   -4.180E+00   -4.192E+00
    -4.205E+00   -4.217E+00   -4.230E+00   -4.243E+00   -4.255E+00   -4.268E+00   -4.281E+00   -4.293E+00   -4.306E+00   -4.318E+00
    -4.331E+00   -4.344E+00   -4.356E+00   -4.369E+00   -4.381E+00   -4.394E+00   -4.407E+00   -4.419E+00   -4.432E+00   -4.444E+00
    -4.457E+00   -4.470E+00   -4.482E+00   -4.495E+00   -4.507E+00   -4.520E+00   -4.532E+00   -4.545E+00   -4.558E+00   -4.570E+00
    -4.583E+00   -4.595E+00   -4.608E+00   -4.620E+00   -4.633E+00   -4.645E+00   -4.658E+00   -4.671E+00   -4.683E+00   -4.696E+00
    -4.708E+00   -4.721E+00   -4.733E+00   -4.746E+00   -4.758E+00   -4.771E+00   -4.783E+00   -4.796E+00   -4.808E+00   -4.821E+00
    -4.833E+00   -4.846E+00   -4.858E+00   -4.871E+00   -4.883E+00   -4.896E+00   -4.908E+00   -4.921E+00   -4.933E+00   -4.946E+00
    -4.958E+00   -4.971E+00   -4.983E+00   -4.996E+00   -5.008E+00   -5.021E+00   -5.033E+00   -5.045E+00   -5.058E+00   -5.070E+00
    -5.083E+00   -5.095E+00   -5.108E+00   -5.120E+00   -5.133E+00   -5.145E+00   -5.157E+00   -5.170E+00   -5.182E+00   -5.195E+00
    -5.207E+00   -5.220E+00   -5.232E+00   -5.244E+00   -5.257E+00   -5.269E+00   -5.282E+00   -5.294E+00   -5.306E+00   -5.319E+00
    -5.331E+00   -5.343E+00   -5.356E+00   -5.368E+00   -5.381E+00   -5.393E+00   -5.405E+00   -5.418E+00   -5.430E+00   -5.442E+00
    -5.455E+00   -5.467E+00   -5.479E+00   -5.492E+00   -5.504E+00   -5.516E+00   -5.529E+00   -5.541E+00   -5.553E+00   -5.566E+00
    -5.578E+00   -5.590E+00   -5.603E+00   -5.615E+00   -5.627E+00   -5.640E+00   -5.652E+00   -5.664E+00
 Asp      Conc. = 1.14E+02
