 LCModel (Version 6.3-1L) Copyright: S.W. Provencher.          Ref.: Magn. Reson. Med. 30:672-679 (1993).                
 Slice#1 Row#9 Col#11  PD_24_press_2_raw_act
 36 lines in following concentration table = NCONC+1
    Conc.  %SD /Cr+PCr  Metabolite                                         
    0.000 999%   0.000 Ala                                                 
  868.412  47%   0.000 Asp                                                 
    0.000 999%   0.000 Cr                                                  
    0.000 999%   0.000 PCr                                                 
  172.540 158%   0.000 GABA                                                
  258.416 101%   0.000 Glc                                                 
 1.34E+04  12%   0.000 Gln                                                 
    0.000 999%   0.000 Glu                                                 
    0.000 999%   0.000 GPC                                                 
  151.604  40%   0.000 PCh                                                 
    0.000 999%   0.000 GSH                                                 
 2.67E+03  26%   0.000 Ins                                                 
    0.000 999%   0.000 Lac                                                 
 6.36E+03   5%   0.000 NAA                                                 
    0.000 999%   0.000 NAAG                                                
  156.660  40%   0.000 Scyllo                                              
  889.120  45%   0.000 Tau                                                 
    0.000 999%   0.000 -CrCH2                                              
  151.604  40%   0.000 GPC+PCh                                             
 6.36E+03   5%   0.000 NAA+NAAG                                            
    0.000 999%   0.000 Cr+PCr                                              
 1.34E+04  12%   0.000 Glu+Gln                                             
  893.884 172%   0.000 Lip13a                                              
  197.622 151%   0.000 Lip13b                                              
    0.000 999%   0.000 Lip09                                               
 1.02E+04   9%   0.000 MM09                                                
  917.921  66%   0.000 Lip20                                               
 1.54E+04   9%   0.000 MM20                                                
 3.08E+03   9%   0.000 MM12                                                
 7.67E+03   9%   0.000 MM14                                                
 3.83E+03   9%   0.000 MM17                                                
 1.09E+03 129%   0.000 Lip13a+Lip13b                                       
 1.18E+04  12%   0.000 MM14+Lip13a+Lip13b+MM12                             
 1.02E+04   9%   0.000 MM09+Lip09                                          
 1.63E+04   8%   0.000 MM20+Lip20                                          
   6 lines in following misc. output table
  FWHM = 0.153 ppm    S/N =  12                                            
  Data shift = 0.153 ppm                                                   
  Ph: -18 deg     151.9 deg/ppm                                            
  alphaB,S = 2.4E-01,   5.6E+02                                            
   13 spline knots.   Ns = 9(2)                                            
  (13) 2 infls.   ( 3) 1 extrs.                                            
  498 points on ppm-axis = NY
      4.000000     3.992357     3.984714     3.977070     3.969427     3.961784     3.954141     3.946497     3.938854     3.931211
      3.923568     3.915925     3.908281     3.900638     3.892995     3.885352     3.877708     3.870065     3.862422     3.854779
      3.847136     3.839492     3.831849     3.824206     3.816563     3.808919     3.801276     3.793633     3.785990     3.778347
      3.770703     3.763060     3.755417     3.747774     3.740130     3.732487     3.724844     3.717201     3.709558     3.701914
      3.694271     3.686628     3.678985     3.671341     3.663698     3.656055     3.648412     3.640769     3.633125     3.625482
      3.617839     3.610196     3.602552     3.594909     3.587266     3.579623     3.571980     3.564336     3.556693     3.549050
      3.541407     3.533763     3.526120     3.518477     3.510834     3.503191     3.495547     3.487904     3.480261     3.472618
      3.464974     3.457331     3.449688     3.442045     3.434402     3.426758     3.419115     3.411472     3.403829     3.396185
      3.388542     3.380899     3.373256     3.365613     3.357969     3.350326     3.342683     3.335040     3.327396     3.319753
      3.312110     3.304467     3.296824     3.289180     3.281537     3.273894     3.266251     3.258607     3.250964     3.243321
      3.235678     3.228034     3.220391     3.212748     3.205105     3.197462     3.189818     3.182175     3.174532     3.166889
      3.159245     3.151602     3.143959     3.136316     3.128673     3.121029     3.113386     3.105743     3.098100     3.090456
      3.082813     3.075170     3.067527     3.059884     3.052240     3.044597     3.036954     3.029311     3.021667     3.014024
      3.006381     2.998738     2.991095     2.983451     2.975808     2.968165     2.960522     2.952878     2.945235     2.937592
      2.929949     2.922306     2.914662     2.907019     2.899376     2.891733     2.884089     2.876446     2.868803     2.861160
      2.853517     2.845873     2.838230     2.830587     2.822944     2.815300     2.807657     2.800014     2.792371     2.784728
      2.777084     2.769441     2.761798     2.754155     2.746511     2.738868     2.731225     2.723582     2.715939     2.708295
      2.700652     2.693009     2.685366     2.677722     2.670079     2.662436     2.654793     2.647150     2.639506     2.631863
      2.624220     2.616577     2.608933     2.601290     2.593647     2.586004     2.578361     2.570717     2.563074     2.555431
      2.547788     2.540144     2.532501     2.524858     2.517215     2.509572     2.501928     2.494285     2.486642     2.478999
      2.471355     2.463712     2.456069     2.448426     2.440783     2.433139     2.425496     2.417853     2.410210     2.402566
      2.394923     2.387280     2.379637     2.371994     2.364350     2.356707     2.349064     2.341421     2.333777     2.326134
      2.318491     2.310848     2.303205     2.295561     2.287918     2.280275     2.272632     2.264988     2.257345     2.249702
      2.242059     2.234416     2.226772     2.219129     2.211486     2.203843     2.196199     2.188556     2.180913     2.173270
      2.165627     2.157983     2.150340     2.142697     2.135054     2.127410     2.119767     2.112124     2.104481     2.096838
      2.089194     2.081551     2.073908     2.066265     2.058621     2.050978     2.043335     2.035692     2.028049     2.020405
      2.012762     2.005119     1.997476     1.989833     1.982190     1.974546     1.966903     1.959260     1.951617     1.943974
      1.936331     1.928688     1.921045     1.913402     1.905759     1.898115     1.890472     1.882829     1.875186     1.867543
      1.859900     1.852257     1.844614     1.836971     1.829327     1.821684     1.814041     1.806398     1.798755     1.791112
      1.783469     1.775826     1.768183     1.760540     1.752896     1.745253     1.737610     1.729967     1.722324     1.714681
      1.707038     1.699395     1.691752     1.684108     1.676465     1.668822     1.661179     1.653536     1.645893     1.638250
      1.630607     1.622964     1.615321     1.607677     1.600034     1.592391     1.584748     1.577105     1.569462     1.561819
      1.554176     1.546533     1.538890     1.531246     1.523603     1.515960     1.508317     1.500674     1.493031     1.485388
      1.477745     1.470102     1.462458     1.454815     1.447172     1.439529     1.431886     1.424243     1.416600     1.408957
      1.401314     1.393671     1.386027     1.378384     1.370741     1.363098     1.355455     1.347812     1.340169     1.332526
      1.324883     1.317240     1.309596     1.301953     1.294310     1.286667     1.279024     1.271381     1.263738     1.256095
      1.248452     1.240808     1.233165     1.225522     1.217879     1.210236     1.202593     1.194950     1.187307     1.179664
      1.172021     1.164377     1.156734     1.149091     1.141448     1.133805     1.126162     1.118519     1.110876     1.103233
      1.095590     1.087946     1.080303     1.072660     1.065017     1.057374     1.049731     1.042088     1.034445     1.026802
      1.019158     1.011515     1.003872     0.996229     0.988586     0.980943     0.973300     0.965657     0.958014     0.950371
      0.942727     0.935084     0.927441     0.919798     0.912155     0.904512     0.896869     0.889226     0.881583     0.873940
      0.866296     0.858653     0.851010     0.843367     0.835724     0.828081     0.820438     0.812795     0.805152     0.797508
      0.789865     0.782222     0.774579     0.766936     0.759293     0.751650     0.744007     0.736364     0.728721     0.721077
      0.713434     0.705791     0.698148     0.690505     0.682862     0.675219     0.667576     0.659933     0.652290     0.644646
      0.637003     0.629360     0.621717     0.614074     0.606431     0.598788     0.591145     0.583502     0.575858     0.568215
      0.560572     0.552929     0.545286     0.537643     0.530000     0.522357     0.514714     0.507071     0.499427     0.491784
      0.484141     0.476498     0.468855     0.461212     0.453569     0.445925     0.438282     0.430639     0.422996     0.415353
      0.407710     0.400067     0.392424     0.384780     0.377137     0.369494     0.361851     0.354208     0.346565     0.338922
      0.331278     0.323635     0.315992     0.308349     0.300706     0.293063     0.285420     0.277777     0.270133     0.262490
      0.254847     0.247204     0.239561     0.231918     0.224275     0.216631     0.208988     0.201345
 NY phased data points follow
  -6.10684E+00 -1.04504E+01 -9.26864E+00 -1.02987E+01 -1.20272E+01 -1.04585E+01 -7.00992E+00 -1.04625E+01 -1.16725E+01 -1.03185E+01
  -8.81051E+00 -7.91062E+00 -1.08764E+01 -9.88295E+00 -8.25602E+00 -1.33462E+01 -1.12538E+01 -1.25833E+01 -9.01997E+00 -9.31799E+00
  -1.20330E+01 -1.25577E+01 -9.91959E+00 -1.15472E+01 -9.87151E+00 -1.32984E+01 -1.22935E+01 -1.34964E+01 -9.65418E+00 -1.51921E+01
  -1.20736E+01 -1.03777E+01 -1.07489E+01 -1.02377E+01 -1.05116E+01 -1.50474E+01 -1.42251E+01 -1.17637E+01 -1.16604E+01 -1.14397E+01
  -1.23911E+01 -1.41607E+01 -1.45003E+01 -1.27028E+01 -1.29845E+01 -1.26907E+01 -1.46440E+01 -1.37186E+01 -1.25300E+01 -1.34859E+01
  -1.34200E+01 -1.50285E+01 -1.65392E+01 -1.32880E+01 -1.58377E+01 -1.62064E+01 -1.04789E+01 -1.20064E+01 -1.56299E+01 -1.58226E+01
  -1.37212E+01 -1.26036E+01 -1.39805E+01 -1.59163E+01 -1.64246E+01 -1.82184E+01 -1.58910E+01 -1.52274E+01 -1.56714E+01 -2.12688E+01
  -1.49200E+01 -1.68586E+01 -1.82883E+01 -1.55101E+01 -1.71066E+01 -2.10520E+01 -1.55245E+01 -1.58261E+01 -1.92557E+01 -1.17542E+01
  -1.28669E+01 -1.17586E+01 -1.00653E+01 -1.30907E+01 -1.89092E+01 -1.53918E+01 -1.75962E+01 -1.22567E+01 -1.19473E+01 -1.46855E+01
  -1.52599E+01 -1.33469E+01 -1.84210E+01 -1.53194E+01 -1.78405E+01 -1.64061E+01 -1.67262E+01 -1.80305E+01 -1.72147E+01 -1.43076E+01
  -1.42200E+01 -1.40655E+01 -1.29009E+01 -9.95087E+00 -7.94240E+00 -5.16207E+00 -6.00314E+00 -3.43383E+00 -9.48166E+00 -7.69510E+00
  -9.55447E+00 -5.53866E+00 -1.92803E+00 -5.61262E+00 -7.41850E+00 -9.56916E+00 -9.05435E+00 -7.45546E+00 -7.16846E+00 -7.10569E+00
  -8.18893E+00 -6.92538E+00 -5.08968E+00 -7.98700E+00 -7.55030E+00 -6.93121E+00 -8.25800E+00 -1.09412E+01 -5.04308E+00 -5.64125E+00
  -6.40229E+00 -7.40752E+00 -6.18360E+00 -5.66206E+00 -5.07623E+00 -6.22413E+00 -2.85504E+00 -6.79551E+00 -8.10539E+00 -3.63391E+00
  -7.70104E+00 -5.29977E+00 -5.68078E+00 -4.67349E+00 -5.12947E+00 -5.68788E+00 -5.38565E+00 -9.22162E+00 -8.75922E+00 -7.79762E+00
  -6.29540E+00 -8.13266E+00 -8.86714E+00 -7.35101E+00 -9.60170E+00 -7.58230E+00 -8.81282E+00 -7.61833E+00 -7.74143E+00 -5.89263E+00
  -8.61584E+00 -4.50446E+00 -6.20666E+00 -6.07137E+00 -2.16960E+00 -2.52138E+00 -7.80879E-02 -8.73047E-01 -1.79534E+00 -2.38029E+00
  -5.90576E+00 -1.10170E+00 -2.47284E+00 -3.07346E+00 -2.92227E+00 -2.45728E+00 -6.07838E-02 -5.02781E-01  5.77934E+00  1.34327E+00
   8.84842E-01  2.52134E+00  1.76288E+00  5.68701E+00  6.59295E+00  2.78289E+00  7.99219E+00  8.84987E+00  8.22771E+00  8.24755E+00
   1.10247E+01  1.26488E+01  1.09543E+01  1.03123E+01  1.31527E+01  1.17641E+01  9.11437E+00  9.66303E+00  1.38855E+01  1.52646E+01
   1.24867E+01  1.46295E+01  1.56259E+01  1.42697E+01  1.53245E+01  1.81520E+01  1.76646E+01  2.07947E+01  2.18299E+01  2.38271E+01
   2.29840E+01  2.21202E+01  2.39969E+01  2.52463E+01  2.80208E+01  2.51937E+01  2.81248E+01  3.00792E+01  2.84274E+01  2.67974E+01
   3.44254E+01  3.53096E+01  3.62375E+01  3.48590E+01  3.62860E+01  3.80226E+01  3.93905E+01  4.39018E+01  4.86335E+01  5.23388E+01
   5.21556E+01  5.68710E+01  5.62205E+01  5.86683E+01  6.02449E+01  5.82789E+01  5.52360E+01  5.55726E+01  5.36129E+01  4.83342E+01
   4.87095E+01  4.82939E+01  5.16716E+01  5.29879E+01  5.15562E+01  5.05880E+01  4.94783E+01  5.60418E+01  6.10880E+01  6.29051E+01
   6.32241E+01  6.95819E+01  6.95931E+01  7.46913E+01  7.61786E+01  8.25078E+01  8.46540E+01  8.30059E+01  8.98615E+01  9.36511E+01
   9.74550E+01  1.02195E+02  9.89256E+01  9.75478E+01  9.65828E+01  9.66446E+01  9.15883E+01  8.20443E+01  7.67468E+01  6.87818E+01
   6.49130E+01  5.65113E+01  4.69019E+01  3.96292E+01  3.35522E+01  2.76924E+01  2.22762E+01  1.94932E+01  1.40892E+01  8.59324E+00
   5.34491E+00 -7.22080E-01 -2.27105E+00 -7.55592E+00 -9.57745E+00 -1.54832E+01 -1.91085E+01 -2.60292E+01 -2.81398E+01 -2.95031E+01
  -3.34773E+01 -3.94878E+01 -4.13180E+01 -4.30831E+01 -4.69699E+01 -4.94537E+01 -5.11616E+01 -5.54727E+01 -5.43354E+01 -5.47900E+01
  -5.52446E+01 -5.34258E+01 -5.54545E+01 -5.10210E+01 -5.58443E+01 -5.54658E+01 -5.43549E+01 -4.76133E+01 -4.78486E+01 -4.49299E+01
  -4.45585E+01 -4.55617E+01 -4.09027E+01 -3.89221E+01 -3.77391E+01 -3.91672E+01 -3.23870E+01 -3.25503E+01 -3.39947E+01 -2.96057E+01
  -3.17316E+01 -2.98305E+01 -2.70846E+01 -2.68068E+01 -2.53271E+01 -2.24362E+01 -2.55654E+01 -2.42814E+01 -2.50869E+01 -2.91777E+01
  -2.72354E+01 -2.36043E+01 -2.59399E+01 -2.41315E+01 -2.57941E+01 -2.46055E+01 -2.60496E+01 -2.62676E+01 -2.80531E+01 -2.77633E+01
  -3.08657E+01 -2.98136E+01 -3.01732E+01 -2.54534E+01 -2.91702E+01 -2.90689E+01 -3.00712E+01 -3.20417E+01 -2.82922E+01 -3.00595E+01
  -3.22426E+01 -3.08291E+01 -2.86018E+01 -3.15055E+01 -2.90830E+01 -3.14911E+01 -2.90347E+01 -2.75327E+01 -2.99014E+01 -3.29550E+01
  -3.22588E+01 -3.28203E+01 -3.18489E+01 -3.17593E+01 -3.23967E+01 -3.56279E+01 -3.23638E+01 -3.26229E+01 -3.46224E+01 -3.15698E+01
  -3.39408E+01 -3.34936E+01 -3.47450E+01 -3.40743E+01 -3.42741E+01 -3.36374E+01 -3.78715E+01 -3.44234E+01 -3.53791E+01 -3.39287E+01
  -3.24755E+01 -3.57619E+01 -3.40821E+01 -3.61152E+01 -3.31286E+01 -3.44757E+01 -3.52986E+01 -3.49391E+01 -3.36709E+01 -3.21759E+01
  -3.08155E+01 -3.12348E+01 -2.91571E+01 -3.16975E+01 -2.84831E+01 -3.04748E+01 -3.19254E+01 -2.69212E+01 -2.96443E+01 -2.60915E+01
  -3.14569E+01 -2.72773E+01 -2.57433E+01 -2.31044E+01 -2.36000E+01 -2.65569E+01 -2.47565E+01 -2.14909E+01 -1.84700E+01 -1.96084E+01
  -1.96124E+01 -2.09014E+01 -1.52685E+01 -1.39867E+01 -1.39885E+01 -1.37839E+01 -1.34483E+01 -1.34213E+01 -9.20996E+00 -9.38737E+00
  -1.17766E+01 -9.11979E+00 -6.74414E+00 -5.73001E+00 -8.08739E+00 -4.97132E+00 -4.64776E+00 -2.67128E+00 -4.04870E+00 -3.91882E+00
  -7.03418E-01 -1.46308E+00  1.48395E+00  4.68427E+00  3.29292E+00  4.35412E+00  3.24251E+00  4.25752E+00  5.86476E+00  6.83135E+00
   6.38776E+00  9.80042E+00  8.42848E+00  1.12238E+01  1.21726E+01  8.10464E+00  1.48586E+01  1.01141E+01  9.12002E+00  1.48893E+01
   1.56143E+01  1.50378E+01  1.35080E+01  1.66765E+01  1.63833E+01  1.27900E+01  1.31734E+01  1.82975E+01  1.81029E+01  1.89097E+01
   1.71896E+01  1.81448E+01  1.62302E+01  1.93622E+01  1.75359E+01  2.14923E+01  1.80056E+01  1.85022E+01  2.02893E+01  1.74632E+01
   1.96710E+01  2.32101E+01  1.94117E+01  2.20504E+01  1.99069E+01  2.14245E+01  2.04221E+01  2.07940E+01  2.40731E+01  2.13902E+01
   2.06950E+01  2.21414E+01  2.38530E+01  2.31707E+01  2.37950E+01  2.28768E+01  2.15547E+01  2.22412E+01  2.05252E+01  2.03786E+01
   2.43903E+01  2.24115E+01  2.09328E+01  2.22478E+01  1.93793E+01  2.18378E+01  2.09496E+01  2.03212E+01
 NY points of the fit to the data follow
  -7.07531E+00 -7.83355E+00 -8.47411E+00 -9.14999E+00 -9.64834E+00 -1.02065E+01 -1.05422E+01 -1.09814E+01 -1.12752E+01 -1.15529E+01
  -1.17608E+01 -1.18254E+01 -1.19442E+01 -1.16960E+01 -1.16309E+01 -1.11439E+01 -1.11404E+01 -1.05881E+01 -1.05194E+01 -1.01517E+01
  -1.00548E+01 -9.87606E+00 -9.74175E+00 -9.81009E+00 -9.60859E+00 -9.89130E+00 -9.58763E+00 -1.00549E+01 -9.59971E+00 -1.02042E+01
  -9.62387E+00 -1.03500E+01 -9.79303E+00 -1.05901E+01 -1.02181E+01 -1.09915E+01 -1.08246E+01 -1.14128E+01 -1.14646E+01 -1.18423E+01
  -1.21242E+01 -1.22818E+01 -1.26935E+01 -1.25666E+01 -1.30474E+01 -1.27990E+01 -1.35035E+01 -1.34382E+01 -1.49123E+01 -1.49577E+01
  -1.63420E+01 -1.60377E+01 -1.68352E+01 -1.59921E+01 -1.58690E+01 -1.57978E+01 -1.58837E+01 -1.64427E+01 -1.65044E+01 -1.73973E+01
  -1.71057E+01 -1.76628E+01 -1.72552E+01 -1.77462E+01 -1.73083E+01 -1.77156E+01 -1.72282E+01 -1.74323E+01 -1.67885E+01 -1.67303E+01
  -1.59946E+01 -1.60633E+01 -1.55810E+01 -1.58265E+01 -1.54733E+01 -1.58408E+01 -1.55548E+01 -1.60069E+01 -1.57199E+01 -1.61935E+01
  -1.58509E+01 -1.62751E+01 -1.58064E+01 -1.62459E+01 -1.57121E+01 -1.61840E+01 -1.56550E+01 -1.60819E+01 -1.55450E+01 -1.58108E+01
  -1.52868E+01 -1.53248E+01 -1.48666E+01 -1.46421E+01 -1.41813E+01 -1.37105E+01 -1.33486E+01 -1.26095E+01 -1.24493E+01 -1.16179E+01
  -1.16615E+01 -1.07690E+01 -1.09697E+01 -1.00068E+01 -1.02685E+01 -9.30602E+00 -9.55335E+00 -8.63403E+00 -8.75487E+00 -8.10562E+00
  -8.27710E+00 -7.82281E+00 -7.91209E+00 -7.57979E+00 -7.56553E+00 -7.38051E+00 -7.26503E+00 -7.15511E+00 -6.92602E+00 -6.86481E+00
  -6.55024E+00 -6.56512E+00 -6.26494E+00 -6.23368E+00 -5.88113E+00 -5.66765E+00 -5.40703E+00 -5.29047E+00 -5.14283E+00 -5.09416E+00
  -5.02828E+00 -5.05946E+00 -5.06123E+00 -5.14809E+00 -5.19345E+00 -5.31134E+00 -5.37789E+00 -5.50508E+00 -5.57528E+00 -5.69287E+00
  -5.75378E+00 -5.85325E+00 -5.89800E+00 -5.97455E+00 -6.00557E+00 -6.04920E+00 -6.05838E+00 -6.03678E+00 -6.02554E+00 -5.93230E+00
  -5.91427E+00 -5.74048E+00 -5.72173E+00 -5.47602E+00 -5.48097E+00 -5.17684E+00 -5.21490E+00 -4.86362E+00 -4.93405E+00 -4.56555E+00
  -4.63954E+00 -4.24684E+00 -4.32216E+00 -3.94244E+00 -4.02538E+00 -3.63147E+00 -3.65227E+00 -3.25309E+00 -3.20751E+00 -2.84550E+00
  -2.75770E+00 -2.36583E+00 -2.22082E+00 -1.75599E+00 -1.56341E+00 -9.92725E-01 -7.99762E-01 -8.81268E-02  4.12037E-02  8.79756E-01
   9.08279E-01  1.81441E+00  1.70219E+00  2.73588E+00  2.58970E+00  3.89478E+00  3.91676E+00  5.61380E+00  5.91210E+00  7.74038E+00
   8.18166E+00  9.90641E+00  1.01853E+01  1.17580E+01  1.19877E+01  1.32814E+01  1.33463E+01  1.43679E+01  1.43896E+01  1.51307E+01
   1.52734E+01  1.58809E+01  1.60818E+01  1.64741E+01  1.66500E+01  1.69205E+01  1.72392E+01  1.74067E+01  1.79248E+01  1.81332E+01
   1.91314E+01  1.97091E+01  2.14401E+01  2.23770E+01  2.46563E+01  2.57868E+01  2.81902E+01  2.92496E+01  3.13022E+01  3.21059E+01
   3.40713E+01  3.47373E+01  3.67154E+01  3.78767E+01  4.03484E+01  4.18756E+01  4.44499E+01  4.62143E+01  4.84796E+01  4.93894E+01
   5.05661E+01  4.99996E+01  4.95879E+01  4.83698E+01  4.89331E+01  4.73916E+01  4.87360E+01  4.69953E+01  4.92422E+01  4.71717E+01
   5.01583E+01  4.76369E+01  5.14013E+01  4.92087E+01  5.35944E+01  5.18849E+01  5.67888E+01  5.61148E+01  6.12987E+01  6.18023E+01
   6.69653E+01  6.86032E+01  7.34859E+01  7.60305E+01  8.02767E+01  8.32709E+01  8.63919E+01  8.91664E+01  9.02760E+01  9.27707E+01
   9.29711E+01  9.51825E+01  9.45054E+01  9.57962E+01  9.38690E+01  9.23923E+01  8.88466E+01  8.47127E+01  7.96006E+01  7.33313E+01
   6.72391E+01  5.94552E+01  5.28777E+01  4.46422E+01  3.81455E+01  2.98147E+01  2.34125E+01  1.49125E+01  8.54916E+00 -7.05996E-02
  -5.92273E+00 -1.32701E+01 -1.73626E+01 -2.01471E+01 -2.25051E+01 -2.46370E+01 -2.66182E+01 -2.84706E+01 -3.02361E+01 -3.19097E+01
  -3.35209E+01 -3.50614E+01 -3.65587E+01 -3.79856E+01 -3.93775E+01 -4.06961E+01 -4.19779E+01 -4.31778E+01 -4.43230E+01 -4.53652E+01
  -4.63326E+01 -4.71697E+01 -4.78917E+01 -4.84477E+01 -4.88411E+01 -4.90238E+01 -4.89931E+01 -4.87086E+01 -4.81686E+01 -4.73530E+01
  -4.62679E+01 -4.49172E+01 -4.33218E+01 -4.15175E+01 -3.95425E+01 -3.74553E+01 -3.53139E+01 -3.31871E+01 -3.11397E+01 -2.92382E+01
  -2.75386E+01 -2.60892E+01 -2.49233E+01 -2.40595E+01 -2.35005E+01 -2.32320E+01 -2.32272E+01 -2.34456E+01 -2.38396E+01 -2.43568E+01
  -2.49447E+01 -2.55537E+01 -2.61408E+01 -2.66715E+01 -2.71216E+01 -2.74778E+01 -2.77371E+01 -2.79059E+01 -2.79983E+01 -2.80336E+01
  -2.80345E+01 -2.80242E+01 -2.80238E+01 -2.80506E+01 -2.81159E+01 -2.82244E+01 -2.83730E+01 -2.85527E+01 -2.87492E+01 -2.89470E+01
  -2.91316E+01 -2.92941E+01 -2.94325E+01 -2.95534E+01 -2.96705E+01 -2.98018E+01 -2.99648E+01 -3.01725E+01 -3.04297E+01 -3.07314E+01
  -3.10639E+01 -3.14075E+01 -3.17408E+01 -3.20447E+01 -3.23056E+01 -3.25176E+01 -3.26821E+01 -3.28069E+01 -3.29040E+01 -3.29875E+01
  -3.30711E+01 -3.31669E+01 -3.32841E+01 -3.34287E+01 -3.36031E+01 -3.38069E+01 -3.40366E+01 -3.42868E+01 -3.45501E+01 -3.48181E+01
  -3.50819E+01 -3.53322E+01 -3.55599E+01 -3.57564E+01 -3.59139E+01 -3.60254E+01 -3.60850E+01 -3.60877E+01 -3.60296E+01 -3.59077E+01
  -3.57199E+01 -3.54648E+01 -3.51417E+01 -3.47505E+01 -3.42913E+01 -3.37649E+01 -3.31721E+01 -3.25142E+01 -3.17925E+01 -3.10085E+01
  -3.01641E+01 -2.92610E+01 -2.83016E+01 -2.72882E+01 -2.62237E+01 -2.51109E+01 -2.39535E+01 -2.27551E+01 -2.15199E+01 -2.02524E+01
  -1.89576E+01 -1.76405E+01 -1.63068E+01 -1.49621E+01 -1.36125E+01 -1.22638E+01 -1.09222E+01 -9.59370E+00 -8.28413E+00 -6.99912E+00
  -5.74399E+00 -4.52362E+00 -3.34244E+00 -2.20434E+00 -1.11261E+00 -6.99538E-02  9.21637E-01  1.86078E+00  2.74678E+00  3.57952E+00
   4.35951E+00  5.08779E+00  5.76593E+00  6.39589E+00  6.98004E+00  7.52100E+00  8.02166E+00  8.48506E+00  8.91435E+00  9.31274E+00
   9.68337E+00  1.00294E+01  1.03538E+01  1.06594E+01  1.09491E+01  1.12254E+01  1.14905E+01  1.17467E+01  1.19960E+01  1.22398E+01
   1.24798E+01  1.27170E+01  1.29526E+01  1.31872E+01  1.34218E+01  1.36567E+01  1.38925E+01  1.41295E+01  1.43679E+01  1.46078E+01
   1.48491E+01  1.50919E+01  1.53362E+01  1.55815E+01  1.58279E+01  1.60749E+01  1.63225E+01  1.65701E+01  1.68176E+01  1.70644E+01
   1.73104E+01  1.75550E+01  1.77980E+01  1.80388E+01  1.82772E+01  1.85127E+01  1.87449E+01  1.89735E+01  1.91979E+01  1.94179E+01
   1.96330E+01  1.98429E+01  2.00471E+01  2.02453E+01  2.04371E+01  2.06220E+01  2.07997E+01  2.09698E+01  2.11319E+01  2.12856E+01
   2.14305E+01  2.15661E+01  2.16919E+01  2.18075E+01  2.19124E+01  2.20059E+01  2.20873E+01  2.21560E+01
 NY background values follow
    -2.831E+01   -2.860E+01   -2.888E+01   -2.916E+01   -2.943E+01   -2.970E+01   -2.996E+01   -3.021E+01   -3.046E+01   -3.070E+01
    -3.093E+01   -3.116E+01   -3.138E+01   -3.159E+01   -3.180E+01   -3.200E+01   -3.220E+01   -3.239E+01   -3.257E+01   -3.275E+01
    -3.292E+01   -3.308E+01   -3.324E+01   -3.340E+01   -3.354E+01   -3.368E+01   -3.382E+01   -3.395E+01   -3.407E+01   -3.419E+01
    -3.430E+01   -3.441E+01   -3.451E+01   -3.461E+01   -3.470E+01   -3.478E+01   -3.486E+01   -3.493E+01   -3.500E+01   -3.506E+01
    -3.512E+01   -3.518E+01   -3.522E+01   -3.527E+01   -3.531E+01   -3.534E+01   -3.537E+01   -3.539E+01   -3.541E+01   -3.543E+01
    -3.544E+01   -3.544E+01   -3.544E+01   -3.544E+01   -3.543E+01   -3.542E+01   -3.540E+01   -3.538E+01   -3.536E+01   -3.533E+01
    -3.530E+01   -3.526E+01   -3.522E+01   -3.517E+01   -3.512E+01   -3.506E+01   -3.500E+01   -3.494E+01   -3.487E+01   -3.480E+01
    -3.472E+01   -3.464E+01   -3.456E+01   -3.447E+01   -3.437E+01   -3.428E+01   -3.417E+01   -3.407E+01   -3.396E+01   -3.384E+01
    -3.372E+01   -3.360E+01   -3.347E+01   -3.333E+01   -3.320E+01   -3.306E+01   -3.291E+01   -3.276E+01   -3.261E+01   -3.245E+01
    -3.228E+01   -3.211E+01   -3.194E+01   -3.176E+01   -3.158E+01   -3.140E+01   -3.121E+01   -3.101E+01   -3.081E+01   -3.061E+01
    -3.040E+01   -3.019E+01   -2.997E+01   -2.975E+01   -2.952E+01   -2.929E+01   -2.905E+01   -2.881E+01   -2.857E+01   -2.832E+01
    -2.806E+01   -2.780E+01   -2.754E+01   -2.727E+01   -2.700E+01   -2.673E+01   -2.645E+01   -2.616E+01   -2.587E+01   -2.558E+01
    -2.528E+01   -2.498E+01   -2.468E+01   -2.437E+01   -2.405E+01   -2.373E+01   -2.341E+01   -2.308E+01   -2.275E+01   -2.242E+01
    -2.208E+01   -2.173E+01   -2.139E+01   -2.104E+01   -2.068E+01   -2.032E+01   -1.996E+01   -1.959E+01   -1.922E+01   -1.884E+01
    -1.847E+01   -1.808E+01   -1.770E+01   -1.731E+01   -1.691E+01   -1.651E+01   -1.611E+01   -1.571E+01   -1.530E+01   -1.488E+01
    -1.447E+01   -1.405E+01   -1.362E+01   -1.320E+01   -1.277E+01   -1.234E+01   -1.191E+01   -1.148E+01   -1.104E+01   -1.061E+01
    -1.017E+01   -9.736E+00   -9.302E+00   -8.868E+00   -8.435E+00   -8.004E+00   -7.574E+00   -7.147E+00   -6.722E+00   -6.301E+00
    -5.882E+00   -5.468E+00   -5.057E+00   -4.651E+00   -4.250E+00   -3.854E+00   -3.464E+00   -3.080E+00   -2.702E+00   -2.331E+00
    -1.968E+00   -1.612E+00   -1.264E+00   -9.240E-01   -5.932E-01   -2.716E-01    4.048E-02    3.425E-01    6.342E-01    9.150E-01
     1.185E+00    1.443E+00    1.689E+00    1.922E+00    2.143E+00    2.351E+00    2.545E+00    2.725E+00    2.890E+00    3.041E+00
     3.176E+00    3.297E+00    3.402E+00    3.491E+00    3.565E+00    3.623E+00    3.665E+00    3.692E+00    3.702E+00    3.696E+00
     3.674E+00    3.636E+00    3.582E+00    3.510E+00    3.423E+00    3.318E+00    3.197E+00    3.060E+00    2.905E+00    2.733E+00
     2.545E+00    2.339E+00    2.116E+00    1.876E+00    1.618E+00    1.344E+00    1.052E+00    7.419E-01    4.149E-01    7.024E-02
    -2.920E-01   -6.718E-01   -1.069E+00   -1.485E+00   -1.918E+00   -2.368E+00   -2.837E+00   -3.323E+00   -3.828E+00   -4.350E+00
    -4.890E+00   -5.448E+00   -6.024E+00   -6.618E+00   -7.229E+00   -7.859E+00   -8.507E+00   -9.173E+00   -9.857E+00   -1.056E+01
    -1.128E+01   -1.201E+01   -1.277E+01   -1.353E+01   -1.432E+01   -1.512E+01   -1.593E+01   -1.675E+01   -1.759E+01   -1.844E+01
    -1.930E+01   -2.017E+01   -2.105E+01   -2.194E+01   -2.284E+01   -2.375E+01   -2.466E+01   -2.558E+01   -2.651E+01   -2.744E+01
    -2.837E+01   -2.931E+01   -3.026E+01   -3.120E+01   -3.215E+01   -3.310E+01   -3.405E+01   -3.500E+01   -3.595E+01   -3.689E+01
    -3.784E+01   -3.878E+01   -3.972E+01   -4.066E+01   -4.159E+01   -4.251E+01   -4.343E+01   -4.435E+01   -4.525E+01   -4.615E+01
    -4.704E+01   -4.792E+01   -4.879E+01   -4.965E+01   -5.050E+01   -5.134E+01   -5.217E+01   -5.298E+01   -5.378E+01   -5.457E+01
    -5.534E+01   -5.610E+01   -5.684E+01   -5.757E+01   -5.828E+01   -5.898E+01   -5.967E+01   -6.034E+01   -6.099E+01   -6.163E+01
    -6.225E+01   -6.286E+01   -6.345E+01   -6.403E+01   -6.459E+01   -6.514E+01   -6.567E+01   -6.618E+01   -6.668E+01   -6.716E+01
    -6.763E+01   -6.808E+01   -6.851E+01   -6.892E+01   -6.932E+01   -6.971E+01   -7.007E+01   -7.042E+01   -7.076E+01   -7.107E+01
    -7.137E+01   -7.165E+01   -7.192E+01   -7.217E+01   -7.240E+01   -7.261E+01   -7.281E+01   -7.299E+01   -7.316E+01   -7.330E+01
    -7.343E+01   -7.354E+01   -7.364E+01   -7.371E+01   -7.377E+01   -7.382E+01   -7.384E+01   -7.385E+01   -7.384E+01   -7.381E+01
    -7.377E+01   -7.371E+01   -7.363E+01   -7.354E+01   -7.343E+01   -7.331E+01   -7.317E+01   -7.301E+01   -7.284E+01   -7.265E+01
    -7.245E+01   -7.224E+01   -7.201E+01   -7.177E+01   -7.151E+01   -7.124E+01   -7.095E+01   -7.066E+01   -7.035E+01   -7.002E+01
    -6.969E+01   -6.934E+01   -6.898E+01   -6.861E+01   -6.823E+01   -6.783E+01   -6.743E+01   -6.701E+01   -6.659E+01   -6.615E+01
    -6.570E+01   -6.525E+01   -6.478E+01   -6.431E+01   -6.382E+01   -6.333E+01   -6.283E+01   -6.232E+01   -6.180E+01   -6.127E+01
    -6.074E+01   -6.020E+01   -5.965E+01   -5.909E+01   -5.853E+01   -5.796E+01   -5.738E+01   -5.680E+01   -5.621E+01   -5.562E+01
    -5.502E+01   -5.442E+01   -5.381E+01   -5.319E+01   -5.257E+01   -5.195E+01   -5.132E+01   -5.068E+01   -5.004E+01   -4.940E+01
    -4.875E+01   -4.810E+01   -4.745E+01   -4.679E+01   -4.612E+01   -4.546E+01   -4.479E+01   -4.412E+01   -4.344E+01   -4.276E+01
    -4.208E+01   -4.140E+01   -4.071E+01   -4.002E+01   -3.933E+01   -3.864E+01   -3.795E+01   -3.725E+01   -3.655E+01   -3.585E+01
    -3.515E+01   -3.445E+01   -3.375E+01   -3.305E+01   -3.234E+01   -3.164E+01   -3.094E+01   -3.023E+01   -2.953E+01   -2.883E+01
    -2.812E+01   -2.742E+01   -2.672E+01   -2.602E+01   -2.532E+01   -2.462E+01   -2.392E+01   -2.323E+01   -2.254E+01   -2.185E+01
    -2.116E+01   -2.047E+01   -1.979E+01   -1.911E+01   -1.843E+01   -1.776E+01   -1.709E+01   -1.643E+01   -1.577E+01   -1.511E+01
    -1.447E+01   -1.382E+01   -1.319E+01   -1.255E+01   -1.193E+01   -1.131E+01   -1.070E+01   -1.010E+01   -9.501E+00   -8.912E+00
    -8.331E+00   -7.758E+00   -7.193E+00   -6.637E+00   -6.089E+00   -5.550E+00   -5.020E+00   -4.500E+00   -3.988E+00   -3.487E+00
    -2.995E+00   -2.513E+00   -2.041E+00   -1.579E+00   -1.127E+00   -6.864E-01   -2.561E-01    1.634E-01    5.720E-01    9.696E-01
     1.356E+00    1.731E+00    2.095E+00    2.448E+00    2.789E+00    3.118E+00    3.436E+00    3.742E+00
 Asp      Conc. = 8.68E+02
