 LCModel (Version 6.3-1L) Copyright: S.W. Provencher.          Ref.: Magn. Reson. Med. 30:672-679 (1993).                
 Slice#2 Row#8 Col#2  PD_24_press_2_raw_act
 36 lines in following concentration table = NCONC+1
    Conc.  %SD /Cr+PCr  Metabolite                                         
    0.000 999%   0.000 Ala                                                 
    0.000 999%   0.000 Asp                                                 
 2.22E+03   5%   1.000 Cr                                                  
    0.000 999%   0.000 PCr                                                 
  326.298  98%   0.147 GABA                                                
  255.137 118%   0.115 Glc                                                 
 3.28E+03  32%   1.481 Gln                                                 
 3.97E+03  31%   1.791 Glu                                                 
  932.098   5%   0.420 GPC                                                 
    0.000 999%   0.000 PCh                                                 
 1.65E+03  13%   0.744 GSH                                                 
 3.38E+03  23%   1.523 Ins                                                 
  754.911  75%   0.340 Lac                                                 
 4.02E+03   4%   1.812 NAA                                                 
    0.000 999%   0.000 NAAG                                                
  394.606  16%   0.178 Scyllo                                              
  570.949  82%   0.257 Tau                                                 
   90.204 312% 4.1E-02 -CrCH2                                              
  932.098   5%   0.420 GPC+PCh                                             
 4.02E+03   4%   1.812 NAA+NAAG                                            
 2.22E+03   5%   1.000 Cr+PCr                                              
 7.26E+03  30%   3.272 Glu+Gln                                             
 1.60E+03  53%   0.723 Lip13a                                              
  366.454  88%   0.165 Lip13b                                              
    0.000 999%   0.000 Lip09                                               
 2.47E+03  14%   1.116 MM09                                                
  382.018  50%   0.172 Lip20                                               
 3.73E+03  14%   1.680 MM20                                                
  743.931  14%   0.335 MM12                                                
 1.94E+03  14%   0.877 MM14                                                
  950.516  15%   0.429 MM17                                                
 1.97E+03  34%   0.889 Lip13a+Lip13b                                       
 4.66E+03  16%   2.101 MM14+Lip13a+Lip13b+MM12                             
 2.47E+03  14%   1.116 MM09+Lip09                                          
 4.11E+03  13%   1.853 MM20+Lip20                                          
   6 lines in following misc. output table
  FWHM = 0.092 ppm    S/N =  10                                            
  Data shift =-0.015 ppm                                                   
  Ph: -54 deg     -22.2 deg/ppm                                            
  alphaB,S = 4.1E-01,   1.8E+02                                            
   14 spline knots.   Ns = 6(2)                                            
  ( 4) 2 infls.   ( 1) 1 extrs.                                            
  498 points on ppm-axis = NY
      4.000000     3.992357     3.984714     3.977070     3.969427     3.961784     3.954141     3.946497     3.938854     3.931211
      3.923568     3.915925     3.908281     3.900638     3.892995     3.885352     3.877708     3.870065     3.862422     3.854779
      3.847136     3.839492     3.831849     3.824206     3.816563     3.808919     3.801276     3.793633     3.785990     3.778347
      3.770703     3.763060     3.755417     3.747774     3.740130     3.732487     3.724844     3.717201     3.709558     3.701914
      3.694271     3.686628     3.678985     3.671341     3.663698     3.656055     3.648412     3.640769     3.633125     3.625482
      3.617839     3.610196     3.602552     3.594909     3.587266     3.579623     3.571980     3.564336     3.556693     3.549050
      3.541407     3.533763     3.526120     3.518477     3.510834     3.503191     3.495547     3.487904     3.480261     3.472618
      3.464974     3.457331     3.449688     3.442045     3.434402     3.426758     3.419115     3.411472     3.403829     3.396185
      3.388542     3.380899     3.373256     3.365613     3.357969     3.350326     3.342683     3.335040     3.327396     3.319753
      3.312110     3.304467     3.296824     3.289180     3.281537     3.273894     3.266251     3.258607     3.250964     3.243321
      3.235678     3.228034     3.220391     3.212748     3.205105     3.197462     3.189818     3.182175     3.174532     3.166889
      3.159245     3.151602     3.143959     3.136316     3.128673     3.121029     3.113386     3.105743     3.098100     3.090456
      3.082813     3.075170     3.067527     3.059884     3.052240     3.044597     3.036954     3.029311     3.021667     3.014024
      3.006381     2.998738     2.991095     2.983451     2.975808     2.968165     2.960522     2.952878     2.945235     2.937592
      2.929949     2.922306     2.914662     2.907019     2.899376     2.891733     2.884089     2.876446     2.868803     2.861160
      2.853517     2.845873     2.838230     2.830587     2.822944     2.815300     2.807657     2.800014     2.792371     2.784728
      2.777084     2.769441     2.761798     2.754155     2.746511     2.738868     2.731225     2.723582     2.715939     2.708295
      2.700652     2.693009     2.685366     2.677722     2.670079     2.662436     2.654793     2.647150     2.639506     2.631863
      2.624220     2.616577     2.608933     2.601290     2.593647     2.586004     2.578361     2.570717     2.563074     2.555431
      2.547788     2.540144     2.532501     2.524858     2.517215     2.509572     2.501928     2.494285     2.486642     2.478999
      2.471355     2.463712     2.456069     2.448426     2.440783     2.433139     2.425496     2.417853     2.410210     2.402566
      2.394923     2.387280     2.379637     2.371994     2.364350     2.356707     2.349064     2.341421     2.333777     2.326134
      2.318491     2.310848     2.303205     2.295561     2.287918     2.280275     2.272632     2.264988     2.257345     2.249702
      2.242059     2.234416     2.226772     2.219129     2.211486     2.203843     2.196199     2.188556     2.180913     2.173270
      2.165627     2.157983     2.150340     2.142697     2.135054     2.127410     2.119767     2.112124     2.104481     2.096838
      2.089194     2.081551     2.073908     2.066265     2.058621     2.050978     2.043335     2.035692     2.028049     2.020405
      2.012762     2.005119     1.997476     1.989833     1.982190     1.974546     1.966903     1.959260     1.951617     1.943974
      1.936331     1.928688     1.921045     1.913402     1.905759     1.898115     1.890472     1.882829     1.875186     1.867543
      1.859900     1.852257     1.844614     1.836971     1.829327     1.821684     1.814041     1.806398     1.798755     1.791112
      1.783469     1.775826     1.768183     1.760540     1.752896     1.745253     1.737610     1.729967     1.722324     1.714681
      1.707038     1.699395     1.691752     1.684108     1.676465     1.668822     1.661179     1.653536     1.645893     1.638250
      1.630607     1.622964     1.615321     1.607677     1.600034     1.592391     1.584748     1.577105     1.569462     1.561819
      1.554176     1.546533     1.538890     1.531246     1.523603     1.515960     1.508317     1.500674     1.493031     1.485388
      1.477745     1.470102     1.462458     1.454815     1.447172     1.439529     1.431886     1.424243     1.416600     1.408957
      1.401314     1.393671     1.386027     1.378384     1.370741     1.363098     1.355455     1.347812     1.340169     1.332526
      1.324883     1.317240     1.309596     1.301953     1.294310     1.286667     1.279024     1.271381     1.263738     1.256095
      1.248452     1.240808     1.233165     1.225522     1.217879     1.210236     1.202593     1.194950     1.187307     1.179664
      1.172021     1.164377     1.156734     1.149091     1.141448     1.133805     1.126162     1.118519     1.110876     1.103233
      1.095590     1.087946     1.080303     1.072660     1.065017     1.057374     1.049731     1.042088     1.034445     1.026802
      1.019158     1.011515     1.003872     0.996229     0.988586     0.980943     0.973300     0.965657     0.958014     0.950371
      0.942727     0.935084     0.927441     0.919798     0.912155     0.904512     0.896869     0.889226     0.881583     0.873940
      0.866296     0.858653     0.851010     0.843367     0.835724     0.828081     0.820438     0.812795     0.805152     0.797508
      0.789865     0.782222     0.774579     0.766936     0.759293     0.751650     0.744007     0.736364     0.728721     0.721077
      0.713434     0.705791     0.698148     0.690505     0.682862     0.675219     0.667576     0.659933     0.652290     0.644646
      0.637003     0.629360     0.621717     0.614074     0.606431     0.598788     0.591145     0.583502     0.575858     0.568215
      0.560572     0.552929     0.545286     0.537643     0.530000     0.522357     0.514714     0.507071     0.499427     0.491784
      0.484141     0.476498     0.468855     0.461212     0.453569     0.445925     0.438282     0.430639     0.422996     0.415353
      0.407710     0.400067     0.392424     0.384780     0.377137     0.369494     0.361851     0.354208     0.346565     0.338922
      0.331278     0.323635     0.315992     0.308349     0.300706     0.293063     0.285420     0.277777     0.270133     0.262490
      0.254847     0.247204     0.239561     0.231918     0.224275     0.216631     0.208988     0.201345
 NY phased data points follow
  -3.52624E+02 -3.43199E+02 -3.43622E+02 -3.28144E+02 -3.24909E+02 -3.09139E+02 -3.10614E+02 -3.04326E+02 -3.00957E+02 -2.89838E+02
  -2.92532E+02 -2.83309E+02 -2.91793E+02 -2.82485E+02 -2.88287E+02 -2.82607E+02 -2.91626E+02 -2.82996E+02 -2.85253E+02 -2.81420E+02
  -2.74828E+02 -2.75614E+02 -2.70778E+02 -2.64526E+02 -2.65665E+02 -2.55187E+02 -2.53737E+02 -2.53185E+02 -2.53805E+02 -2.39193E+02
  -2.50180E+02 -2.36600E+02 -2.42060E+02 -2.29565E+02 -2.37680E+02 -2.27753E+02 -2.27298E+02 -2.28239E+02 -2.29933E+02 -2.24754E+02
  -2.25242E+02 -2.19943E+02 -2.18287E+02 -2.14434E+02 -2.16722E+02 -2.10118E+02 -2.17939E+02 -2.09756E+02 -2.14038E+02 -2.01927E+02
  -2.05605E+02 -1.97450E+02 -2.03084E+02 -2.03753E+02 -2.01063E+02 -1.95800E+02 -2.02653E+02 -1.91185E+02 -1.93348E+02 -1.95794E+02
  -1.96522E+02 -1.88775E+02 -1.92264E+02 -1.90598E+02 -1.91335E+02 -1.84016E+02 -1.85698E+02 -1.80041E+02 -1.80059E+02 -1.74137E+02
  -1.73099E+02 -1.76552E+02 -1.74908E+02 -1.64423E+02 -1.71114E+02 -1.71652E+02 -1.64807E+02 -1.52549E+02 -1.63349E+02 -1.56807E+02
  -1.62477E+02 -1.50624E+02 -1.54850E+02 -1.50115E+02 -1.49538E+02 -1.49942E+02 -1.48465E+02 -1.43023E+02 -1.48300E+02 -1.40830E+02
  -1.36633E+02 -1.37043E+02 -1.36892E+02 -1.26298E+02 -1.30227E+02 -1.22508E+02 -1.25252E+02 -1.12985E+02 -1.08736E+02 -1.06027E+02
  -9.50430E+01 -9.37247E+01 -9.42044E+01 -9.07194E+01 -9.04182E+01 -9.07883E+01 -8.97092E+01 -8.71009E+01 -1.00147E+02 -1.04446E+02
  -1.09852E+02 -1.16974E+02 -1.20477E+02 -1.16748E+02 -1.19217E+02 -1.12474E+02 -1.13481E+02 -1.09694E+02 -1.06110E+02 -9.91658E+01
  -9.81074E+01 -8.73587E+01 -8.75025E+01 -8.25916E+01 -7.71040E+01 -7.55260E+01 -7.50451E+01 -7.14629E+01 -7.40551E+01 -6.77829E+01
  -7.31084E+01 -7.55356E+01 -7.99558E+01 -8.14591E+01 -9.90894E+01 -9.23662E+01 -1.04120E+02 -9.73927E+01 -9.87860E+01 -1.05949E+02
  -1.01665E+02 -1.00999E+02 -9.98080E+01 -9.12004E+01 -1.02109E+02 -1.00476E+02 -1.00600E+02 -9.30893E+01 -9.39320E+01 -9.67277E+01
  -9.64743E+01 -9.05142E+01 -9.91515E+01 -9.44160E+01 -9.25672E+01 -8.50694E+01 -9.49493E+01 -8.90316E+01 -9.43987E+01 -9.27649E+01
  -8.81764E+01 -9.21113E+01 -9.01417E+01 -8.91992E+01 -9.00239E+01 -8.96604E+01 -8.78381E+01 -8.72515E+01 -9.72180E+01 -8.78122E+01
  -9.48480E+01 -9.17465E+01 -1.00029E+02 -9.60525E+01 -9.81396E+01 -9.35912E+01 -9.40453E+01 -8.72322E+01 -9.21395E+01 -9.36691E+01
  -9.40739E+01 -8.83812E+01 -8.92385E+01 -8.58941E+01 -8.58357E+01 -8.66939E+01 -8.34255E+01 -7.66199E+01 -7.79626E+01 -6.98025E+01
  -7.49357E+01 -6.64022E+01 -6.66913E+01 -6.27180E+01 -6.01379E+01 -5.77124E+01 -6.06812E+01 -6.09974E+01 -6.14778E+01 -5.88819E+01
  -6.52726E+01 -5.86686E+01 -6.34599E+01 -5.70640E+01 -5.99279E+01 -6.21289E+01 -5.95590E+01 -5.65520E+01 -5.12373E+01 -5.38504E+01
  -5.33228E+01 -5.52604E+01 -4.91132E+01 -4.88508E+01 -4.46212E+01 -4.42056E+01 -4.63880E+01 -4.24640E+01 -4.50651E+01 -4.30360E+01
  -4.31692E+01 -4.69974E+01 -4.73679E+01 -4.32275E+01 -4.53650E+01 -3.66185E+01 -4.13145E+01 -4.02313E+01 -3.61333E+01 -3.23348E+01
  -3.04049E+01 -3.58089E+01 -2.83524E+01 -3.13887E+01 -3.42049E+01 -3.08429E+01 -3.41568E+01 -3.19797E+01 -3.65362E+01 -2.80017E+01
  -2.88122E+01 -3.02607E+01 -2.83422E+01 -2.89546E+01 -3.06499E+01 -2.67275E+01 -2.06377E+01 -2.02631E+01 -1.73682E+01 -1.33207E+01
  -2.91430E+00  1.99217E+00  2.31456E+00  1.60355E+01  2.13496E+01  2.67164E+01  3.53787E+01  4.52389E+01  4.37604E+01  4.52817E+01
   5.06333E+01  5.03118E+01  4.35267E+01  4.75761E+01  4.12270E+01  3.29497E+01  1.97284E+01  7.41416E+00 -8.61938E+00 -1.69531E+01
  -1.30559E+01 -1.43571E+01 -1.98346E+01 -1.59092E+01 -1.91838E+01 -2.24746E+01 -2.54711E+01 -2.26896E+01 -2.82479E+01 -3.03744E+01
  -3.08712E+01 -2.62984E+01 -2.68118E+01 -2.70905E+01 -2.71031E+01 -3.11601E+01 -3.02966E+01 -2.57911E+01 -2.77870E+01 -2.78759E+01
  -3.54134E+01 -2.86295E+01 -3.38816E+01 -2.73044E+01 -3.16798E+01 -3.34631E+01 -2.68537E+01 -3.54823E+01 -3.99116E+01 -3.13011E+01
  -3.98465E+01 -3.26768E+01 -4.06456E+01 -3.39895E+01 -2.82545E+01 -2.90254E+01 -2.95953E+01 -2.50920E+01 -3.10273E+01 -2.55784E+01
  -3.26817E+01 -2.35464E+01 -2.26288E+01 -2.59088E+01 -2.60808E+01 -2.10578E+01 -2.33044E+01 -2.10082E+01 -1.58139E+01 -1.75770E+01
  -1.33522E+01 -1.02770E+01 -1.10563E+01 -9.00233E+00 -8.69129E+00 -8.94492E+00 -7.13222E+00  1.54056E-01 -3.14900E+00 -3.18768E+00
  -8.35281E-01 -2.83364E+00 -1.48716E+00 -4.60851E-01  9.72396E-02  3.29291E+00  2.38486E+00  3.66077E-01 -6.42286E-01 -1.06315E+00
   1.44236E+00  3.19571E+00  5.49429E+00  3.13324E+00 -2.67313E-01  3.42142E+00  4.96691E+00  4.82367E-01  4.09332E+00  1.52640E+00
   2.54513E+00  2.07215E+00  7.15029E+00  1.83483E+00  1.37381E+00  7.11958E+00  4.43497E+00  6.51421E+00  4.22603E+00  1.00312E+01
   8.66854E+00  5.70042E+00  3.95057E+00  2.42397E+00  5.63618E+00  1.99854E+00 -1.53258E-01  6.89498E+00  2.16887E-01  2.09277E+00
   4.28782E+00  6.13177E+00  2.41831E+00  2.53886E+00  3.98805E+00  3.57712E+00  3.44046E+00  3.48973E+00  6.15474E+00  5.45535E+00
   4.85090E+00  1.04505E+01  8.88725E+00  1.02871E+01  5.56408E+00  1.14085E+01  9.55245E+00  1.07424E+01  1.23373E+01  1.26215E+01
   1.10051E+01  7.72862E+00  9.16182E+00  9.75539E+00  6.11059E+00  4.35597E+00  4.63116E+00  9.34783E+00  1.03662E+01  1.10239E+01
   6.45925E+00  8.30348E+00  1.14542E+01  1.46778E+01  1.01396E+01  1.26295E+01  9.11165E+00  1.10475E+01  1.34909E+01  1.06506E+01
   1.20518E+01  1.44269E+01  1.21125E+01  1.33522E+01  4.43822E+00  1.45624E+01  1.28303E+01  1.36569E+01  7.24771E+00  1.39309E+01
   1.07193E+01  1.52828E+01  1.14059E+01  1.03545E+01  1.57493E+01  7.35339E+00  2.25455E+01  1.52917E+01  1.24320E+01  1.73856E+01
   1.50376E+01  1.65630E+01  1.33753E+01  1.26741E+01  1.01368E+01  9.63585E+00  1.29127E+01  1.54383E+01  1.45367E+01  1.14961E+01
   1.47747E+01  8.02241E+00  1.22006E+01  1.30490E+01  1.30274E+01  1.21170E+01  1.24552E+01  1.36830E+01  1.11387E+01  1.55126E+01
   1.36812E+01  1.14797E+01  1.24718E+01  9.66692E+00  1.21503E+01  2.03025E+01  1.71909E+01  1.43441E+01  1.17180E+01  1.79506E+01
   1.87563E+01  1.88097E+01  1.64834E+01  1.64436E+01  1.55987E+01  1.00710E+01  1.20829E+01  1.41144E+01  1.59686E+01  1.69494E+01
   1.54653E+01  1.53396E+01  1.61951E+01  1.19151E+01  1.67156E+01  1.48173E+01  1.03657E+01  8.44058E+00  1.50688E+01  1.45810E+01
   1.50646E+01  9.58061E+00  1.35658E+01  1.17727E+01  1.68238E+01  1.48660E+01  1.57690E+01  1.33466E+01  1.70829E+01  1.86357E+01
   1.32591E+01  1.16023E+01  1.41967E+01  1.27816E+01  2.03102E+01  1.67711E+01  1.91842E+01  1.79822E+01
 NY points of the fit to the data follow
  -3.41463E+02 -3.36067E+02 -3.33073E+02 -3.26240E+02 -3.23482E+02 -3.15022E+02 -3.13407E+02 -3.03986E+02 -3.03814E+02 -2.94300E+02
  -2.95738E+02 -2.86626E+02 -2.89490E+02 -2.81847E+02 -2.86144E+02 -2.80689E+02 -2.85824E+02 -2.82480E+02 -2.85392E+02 -2.81078E+02
  -2.81514E+02 -2.75414E+02 -2.75021E+02 -2.67577E+02 -2.67572E+02 -2.59069E+02 -2.59178E+02 -2.49656E+02 -2.50704E+02 -2.41454E+02
  -2.43339E+02 -2.34953E+02 -2.37211E+02 -2.30562E+02 -2.32455E+02 -2.28000E+02 -2.29613E+02 -2.27913E+02 -2.28382E+02 -2.27677E+02
  -2.25832E+02 -2.24334E+02 -2.21107E+02 -2.19185E+02 -2.16166E+02 -2.14670E+02 -2.11934E+02 -2.10034E+02 -2.08030E+02 -2.06355E+02
  -2.05143E+02 -2.03974E+02 -2.03676E+02 -2.02776E+02 -2.02592E+02 -2.01197E+02 -2.00442E+02 -1.98193E+02 -1.97264E+02 -1.94526E+02
  -1.93801E+02 -1.90998E+02 -1.90354E+02 -1.87132E+02 -1.86689E+02 -1.83622E+02 -1.83252E+02 -1.80325E+02 -1.79788E+02 -1.76826E+02
  -1.76065E+02 -1.73210E+02 -1.72390E+02 -1.69997E+02 -1.68703E+02 -1.66027E+02 -1.64897E+02 -1.61990E+02 -1.61348E+02 -1.58033E+02
  -1.57959E+02 -1.53986E+02 -1.54693E+02 -1.50151E+02 -1.51610E+02 -1.46889E+02 -1.48908E+02 -1.44347E+02 -1.46768E+02 -1.42710E+02
  -1.44325E+02 -1.37832E+02 -1.38033E+02 -1.30987E+02 -1.29896E+02 -1.22465E+02 -1.20255E+02 -1.11896E+02 -1.09666E+02 -1.01670E+02
  -1.00319E+02 -9.39109E+01 -9.35921E+01 -8.91406E+01 -9.04194E+01 -8.88958E+01 -9.17693E+01 -9.40739E+01 -9.81980E+01 -1.03692E+02
  -1.07754E+02 -1.13099E+02 -1.15521E+02 -1.17719E+02 -1.16243E+02 -1.15022E+02 -1.12498E+02 -1.09404E+02 -1.06490E+02 -1.00226E+02
  -9.73541E+01 -8.94322E+01 -8.78230E+01 -7.92194E+01 -8.00270E+01 -7.18390E+01 -7.53471E+01 -6.83555E+01 -7.42361E+01 -6.92097E+01
  -7.72578E+01 -7.50282E+01 -8.40909E+01 -8.44933E+01 -9.15462E+01 -9.28843E+01 -9.62625E+01 -9.71757E+01 -9.86464E+01 -9.94219E+01
  -1.00077E+02 -1.00658E+02 -9.93928E+01 -9.91226E+01 -9.76862E+01 -9.73600E+01 -9.64894E+01 -9.63521E+01 -9.61712E+01 -9.62360E+01
  -9.60758E+01 -9.61188E+01 -9.58092E+01 -9.57101E+01 -9.54631E+01 -9.53416E+01 -9.50861E+01 -9.48609E+01 -9.44856E+01 -9.41100E+01
  -9.37497E+01 -9.33311E+01 -9.30448E+01 -9.26954E+01 -9.26175E+01 -9.22215E+01 -9.21432E+01 -9.16596E+01 -9.16310E+01 -9.13543E+01
  -9.12963E+01 -9.12463E+01 -9.08993E+01 -9.09078E+01 -9.03592E+01 -9.03955E+01 -8.96216E+01 -8.96029E+01 -8.84601E+01 -8.80639E+01
  -8.64117E+01 -8.56097E+01 -8.37788E+01 -8.27489E+01 -8.10673E+01 -7.97519E+01 -7.87003E+01 -7.70729E+01 -7.61766E+01 -7.40305E+01
  -7.31734E+01 -7.06912E+01 -6.97692E+01 -6.70635E+01 -6.61402E+01 -6.37287E+01 -6.32639E+01 -6.19608E+01 -6.19372E+01 -6.07270E+01
  -6.07470E+01 -5.95541E+01 -5.94179E+01 -5.81930E+01 -5.75140E+01 -5.63840E+01 -5.60199E+01 -5.50126E+01 -5.50236E+01 -5.40809E+01
  -5.43052E+01 -5.32640E+01 -5.28020E+01 -5.10784E+01 -5.00081E+01 -4.80934E+01 -4.67557E+01 -4.54641E+01 -4.46983E+01 -4.43469E+01
  -4.47266E+01 -4.42796E+01 -4.52865E+01 -4.44786E+01 -4.49926E+01 -4.32765E+01 -4.24277E+01 -3.95424E+01 -3.81579E+01 -3.52863E+01
  -3.47236E+01 -3.26072E+01 -3.27565E+01 -3.14158E+01 -3.18643E+01 -3.06397E+01 -3.10794E+01 -2.98994E+01 -3.04323E+01 -2.95226E+01
  -2.98871E+01 -2.90975E+01 -2.94256E+01 -2.89469E+01 -2.89654E+01 -2.84934E+01 -2.76180E+01 -2.53859E+01 -1.89249E+01 -1.38406E+01
  -5.51542E+00  6.85081E-01  8.87494E+00  1.56833E+01  2.36932E+01  3.07019E+01  3.69075E+01  4.30419E+01  4.57719E+01  5.00178E+01
   4.86902E+01  5.05901E+01  4.50595E+01  4.42109E+01  3.39142E+01  3.01818E+01  1.64213E+01  1.12072E+01 -1.14713E+00 -5.40990E+00
  -1.27332E+01 -1.53102E+01 -1.98578E+01 -2.17206E+01 -2.52763E+01 -2.64696E+01 -2.71640E+01 -2.75599E+01 -2.79471E+01 -2.83214E+01
  -2.86174E+01 -2.90452E+01 -2.93449E+01 -2.97169E+01 -2.99371E+01 -3.02108E+01 -3.03513E+01 -3.05167E+01 -3.06233E+01 -3.06999E+01
  -3.07628E+01 -3.07872E+01 -3.08187E+01 -3.08013E+01 -3.08071E+01 -3.07490E+01 -3.07218E+01 -3.06303E+01 -3.05550E+01 -3.04201E+01
  -3.02845E+01 -3.00925E+01 -2.98778E+01 -2.96096E+01 -2.93034E+01 -2.89344E+01 -2.85098E+01 -2.80142E+01 -2.74457E+01 -2.67955E+01
  -2.60610E+01 -2.52362E+01 -2.43228E+01 -2.33182E+01 -2.22305E+01 -2.10624E+01 -1.98281E+01 -1.85358E+01 -1.72044E+01 -1.58458E+01
  -1.44812E+01 -1.31229E+01 -1.17912E+01 -1.04961E+01 -9.25375E+00 -8.06946E+00 -6.95424E+00 -5.90809E+00 -4.93703E+00 -4.03600E+00
  -3.20569E+00 -2.43488E+00 -1.71527E+00 -1.01790E+00 -2.83969E-01  5.94183E-01  1.14168E+00  1.73224E+00  2.03969E+00  2.25313E+00
   2.32719E+00  2.11608E+00  1.91897E+00  1.66792E+00  1.53889E+00  1.25005E+00  1.29588E+00  1.06956E+00  1.36877E+00  1.35856E+00
   1.95900E+00  2.09569E+00  2.94051E+00  3.20390E+00  4.20240E+00  4.70343E+00  5.64283E+00  6.18956E+00  6.76260E+00  6.77994E+00
   6.87805E+00  6.26589E+00  6.01971E+00  5.33281E+00  4.89555E+00  4.35738E+00  4.03050E+00  3.67639E+00  3.46605E+00  3.15250E+00
   2.98035E+00  2.90456E+00  2.88569E+00  2.91555E+00  2.98449E+00  3.09517E+00  3.24285E+00  3.43242E+00  3.65993E+00  3.93017E+00
   4.23863E+00  4.58922E+00  4.97629E+00  5.40244E+00  5.86059E+00  6.35187E+00  6.86774E+00  7.40789E+00  7.96235E+00  8.52949E+00
   9.09817E+00  9.66582E+00  1.02207E+01  1.07598E+01  1.12715E+01  1.17533E+01  1.21941E+01  1.25929E+01  1.29403E+01  1.32371E+01
   1.34764E+01  1.36614E+01  1.37878E+01  1.38616E+01  1.38809E+01  1.38542E+01  1.37817E+01  1.36736E+01  1.35314E+01  1.33657E+01
   1.31784E+01  1.29800E+01  1.27721E+01  1.25648E+01  1.23587E+01  1.21628E+01  1.19765E+01  1.18075E+01  1.16537E+01  1.15214E+01
   1.14075E+01  1.13170E+01  1.12456E+01  1.11976E+01  1.11680E+01  1.11602E+01  1.11689E+01  1.11972E+01  1.12394E+01  1.12985E+01
   1.13687E+01  1.14530E+01  1.15456E+01  1.16497E+01  1.17595E+01  1.18782E+01  1.20003E+01  1.21291E+01  1.22591E+01  1.23938E+01
   1.25278E+01  1.26648E+01  1.27995E+01  1.29356E+01  1.30680E+01  1.32004E+01  1.33276E+01  1.34538E+01  1.35736E+01  1.36912E+01
   1.38015E+01  1.39085E+01  1.40071E+01  1.41017E+01  1.41879E+01  1.42703E+01  1.43445E+01  1.44154E+01  1.44786E+01  1.45388E+01
   1.45918E+01  1.46424E+01  1.46861E+01  1.47279E+01  1.47635E+01  1.47976E+01  1.48260E+01  1.48535E+01  1.48759E+01  1.48978E+01
   1.49153E+01  1.49329E+01  1.49466E+01  1.49611E+01  1.49721E+01  1.49846E+01  1.49944E+01  1.50061E+01  1.50157E+01  1.50279E+01
   1.50386E+01  1.50525E+01  1.50656E+01  1.50825E+01  1.50992E+01  1.51204E+01  1.51420E+01  1.51688E+01  1.51967E+01  1.52304E+01
   1.52658E+01  1.53078E+01  1.53521E+01  1.54037E+01  1.54585E+01  1.55211E+01  1.55876E+01  1.56629E+01
 NY background values follow
    -3.564E+02   -3.535E+02   -3.506E+02   -3.478E+02   -3.449E+02   -3.420E+02   -3.392E+02   -3.363E+02   -3.335E+02   -3.306E+02
    -3.278E+02   -3.250E+02   -3.221E+02   -3.193E+02   -3.165E+02   -3.137E+02   -3.109E+02   -3.081E+02   -3.054E+02   -3.026E+02
    -2.999E+02   -2.971E+02   -2.944E+02   -2.917E+02   -2.890E+02   -2.863E+02   -2.836E+02   -2.810E+02   -2.784E+02   -2.757E+02
    -2.731E+02   -2.705E+02   -2.680E+02   -2.654E+02   -2.629E+02   -2.604E+02   -2.579E+02   -2.554E+02   -2.529E+02   -2.505E+02
    -2.481E+02   -2.457E+02   -2.434E+02   -2.410E+02   -2.387E+02   -2.364E+02   -2.341E+02   -2.319E+02   -2.297E+02   -2.275E+02
    -2.253E+02   -2.232E+02   -2.210E+02   -2.189E+02   -2.169E+02   -2.148E+02   -2.128E+02   -2.108E+02   -2.088E+02   -2.068E+02
    -2.049E+02   -2.030E+02   -2.011E+02   -1.992E+02   -1.974E+02   -1.955E+02   -1.937E+02   -1.920E+02   -1.902E+02   -1.885E+02
    -1.867E+02   -1.850E+02   -1.834E+02   -1.817E+02   -1.801E+02   -1.785E+02   -1.769E+02   -1.753E+02   -1.737E+02   -1.722E+02
    -1.707E+02   -1.692E+02   -1.677E+02   -1.663E+02   -1.648E+02   -1.634E+02   -1.620E+02   -1.606E+02   -1.593E+02   -1.579E+02
    -1.566E+02   -1.553E+02   -1.540E+02   -1.528E+02   -1.515E+02   -1.503E+02   -1.490E+02   -1.478E+02   -1.466E+02   -1.455E+02
    -1.443E+02   -1.432E+02   -1.421E+02   -1.409E+02   -1.398E+02   -1.388E+02   -1.377E+02   -1.366E+02   -1.356E+02   -1.346E+02
    -1.336E+02   -1.326E+02   -1.316E+02   -1.306E+02   -1.296E+02   -1.287E+02   -1.277E+02   -1.268E+02   -1.259E+02   -1.250E+02
    -1.241E+02   -1.232E+02   -1.223E+02   -1.215E+02   -1.206E+02   -1.198E+02   -1.189E+02   -1.181E+02   -1.173E+02   -1.165E+02
    -1.157E+02   -1.149E+02   -1.141E+02   -1.133E+02   -1.125E+02   -1.117E+02   -1.110E+02   -1.102E+02   -1.095E+02   -1.087E+02
    -1.080E+02   -1.072E+02   -1.065E+02   -1.058E+02   -1.050E+02   -1.043E+02   -1.036E+02   -1.029E+02   -1.022E+02   -1.015E+02
    -1.008E+02   -1.001E+02   -9.938E+01   -9.868E+01   -9.799E+01   -9.730E+01   -9.660E+01   -9.591E+01   -9.522E+01   -9.453E+01
    -9.384E+01   -9.315E+01   -9.246E+01   -9.177E+01   -9.107E+01   -9.038E+01   -8.968E+01   -8.899E+01   -8.829E+01   -8.758E+01
    -8.688E+01   -8.617E+01   -8.546E+01   -8.475E+01   -8.403E+01   -8.331E+01   -8.259E+01   -8.186E+01   -8.113E+01   -8.039E+01
    -7.965E+01   -7.890E+01   -7.814E+01   -7.738E+01   -7.662E+01   -7.585E+01   -7.508E+01   -7.431E+01   -7.353E+01   -7.275E+01
    -7.197E+01   -7.119E+01   -7.041E+01   -6.963E+01   -6.885E+01   -6.807E+01   -6.729E+01   -6.651E+01   -6.574E+01   -6.497E+01
    -6.420E+01   -6.344E+01   -6.268E+01   -6.192E+01   -6.117E+01   -6.043E+01   -5.969E+01   -5.896E+01   -5.824E+01   -5.752E+01
    -5.682E+01   -5.612E+01   -5.543E+01   -5.475E+01   -5.408E+01   -5.343E+01   -5.278E+01   -5.214E+01   -5.152E+01   -5.091E+01
    -5.032E+01   -4.973E+01   -4.916E+01   -4.861E+01   -4.807E+01   -4.755E+01   -4.704E+01   -4.655E+01   -4.607E+01   -4.562E+01
    -4.517E+01   -4.475E+01   -4.433E+01   -4.393E+01   -4.355E+01   -4.318E+01   -4.282E+01   -4.248E+01   -4.215E+01   -4.183E+01
    -4.153E+01   -4.124E+01   -4.095E+01   -4.068E+01   -4.043E+01   -4.018E+01   -3.994E+01   -3.971E+01   -3.949E+01   -3.928E+01
    -3.908E+01   -3.889E+01   -3.871E+01   -3.854E+01   -3.837E+01   -3.821E+01   -3.806E+01   -3.791E+01   -3.777E+01   -3.764E+01
    -3.751E+01   -3.739E+01   -3.727E+01   -3.716E+01   -3.705E+01   -3.695E+01   -3.685E+01   -3.675E+01   -3.666E+01   -3.657E+01
    -3.648E+01   -3.639E+01   -3.631E+01   -3.623E+01   -3.615E+01   -3.607E+01   -3.599E+01   -3.591E+01   -3.583E+01   -3.575E+01
    -3.567E+01   -3.559E+01   -3.551E+01   -3.542E+01   -3.534E+01   -3.525E+01   -3.516E+01   -3.507E+01   -3.498E+01   -3.488E+01
    -3.478E+01   -3.467E+01   -3.456E+01   -3.445E+01   -3.433E+01   -3.421E+01   -3.408E+01   -3.395E+01   -3.381E+01   -3.366E+01
    -3.351E+01   -3.335E+01   -3.319E+01   -3.301E+01   -3.283E+01   -3.265E+01   -3.245E+01   -3.224E+01   -3.203E+01   -3.181E+01
    -3.158E+01   -3.133E+01   -3.108E+01   -3.082E+01   -3.055E+01   -3.027E+01   -2.997E+01   -2.967E+01   -2.935E+01   -2.902E+01
    -2.869E+01   -2.834E+01   -2.798E+01   -2.762E+01   -2.724E+01   -2.686E+01   -2.647E+01   -2.607E+01   -2.567E+01   -2.526E+01
    -2.484E+01   -2.442E+01   -2.399E+01   -2.356E+01   -2.313E+01   -2.269E+01   -2.224E+01   -2.180E+01   -2.135E+01   -2.090E+01
    -2.045E+01   -2.000E+01   -1.954E+01   -1.909E+01   -1.864E+01   -1.818E+01   -1.773E+01   -1.728E+01   -1.683E+01   -1.639E+01
    -1.594E+01   -1.550E+01   -1.507E+01   -1.463E+01   -1.421E+01   -1.378E+01   -1.336E+01   -1.295E+01   -1.255E+01   -1.215E+01
    -1.176E+01   -1.137E+01   -1.100E+01   -1.063E+01   -1.027E+01   -9.914E+00   -9.568E+00   -9.229E+00   -8.897E+00   -8.572E+00
    -8.253E+00   -7.940E+00   -7.632E+00   -7.330E+00   -7.034E+00   -6.742E+00   -6.455E+00   -6.172E+00   -5.894E+00   -5.620E+00
    -5.349E+00   -5.082E+00   -4.818E+00   -4.556E+00   -4.298E+00   -4.042E+00   -3.788E+00   -3.536E+00   -3.286E+00   -3.037E+00
    -2.789E+00   -2.542E+00   -2.296E+00   -2.050E+00   -1.804E+00   -1.558E+00   -1.312E+00   -1.065E+00   -8.168E-01   -5.677E-01
    -3.172E-01   -6.503E-02    1.891E-01    4.454E-01    7.041E-01    9.655E-01    1.230E+00    1.497E+00    1.768E+00    2.042E+00
     2.319E+00    2.598E+00    2.879E+00    3.162E+00    3.447E+00    3.733E+00    4.020E+00    4.308E+00    4.597E+00    4.886E+00
     5.175E+00    5.464E+00    5.752E+00    6.039E+00    6.325E+00    6.610E+00    6.894E+00    7.175E+00    7.455E+00    7.732E+00
     8.006E+00    8.277E+00    8.545E+00    8.810E+00    9.070E+00    9.327E+00    9.579E+00    9.827E+00    1.007E+01    1.031E+01
     1.054E+01    1.077E+01    1.099E+01    1.120E+01    1.141E+01    1.161E+01    1.181E+01    1.199E+01    1.217E+01    1.234E+01
     1.251E+01    1.266E+01    1.281E+01    1.295E+01    1.308E+01    1.320E+01    1.331E+01    1.341E+01    1.351E+01    1.361E+01
     1.369E+01    1.377E+01    1.384E+01    1.391E+01    1.397E+01    1.403E+01    1.408E+01    1.413E+01    1.418E+01    1.422E+01
     1.426E+01    1.429E+01    1.433E+01    1.436E+01    1.439E+01    1.442E+01    1.444E+01    1.447E+01    1.449E+01    1.452E+01
     1.454E+01    1.457E+01    1.460E+01    1.462E+01    1.465E+01    1.468E+01    1.472E+01    1.475E+01    1.479E+01    1.483E+01
     1.488E+01    1.493E+01    1.498E+01    1.504E+01    1.510E+01    1.517E+01    1.524E+01    1.532E+01
 Cr       Conc. = 2.22E+03
