 LCModel (Version 6.3-1L) Copyright: S.W. Provencher.          Ref.: Magn. Reson. Med. 30:672-679 (1993).                
 Slice#3 Row#7 Col#7  PD_24_press_2_raw_act
 Data of: Institute of Biomedical Engineering, Bogazici University, Istanbul
 07-January-2018  11:27
 36 lines in following concentration table = NCONC+1
    Conc.  %SD /Cr+PCr  Metabolite                                         
  183.334 117% 7.1E-02 Ala                                                 
    0.000 999%   0.000 Asp                                                 
    0.000 999%   0.000 Cr                                                  
 2.57E+03   5%   1.000 PCr                                                 
   93.943 260% 3.6E-02 GABA                                                
  429.219  57%   0.167 Glc                                                 
  659.231  67%   0.256 Gln                                                 
 1.95E+03  26%   0.757 Glu                                                 
  734.420  20%   0.285 GPC                                                 
  219.761  66% 8.5E-02 PCh                                                 
  753.760  21%   0.293 GSH                                                 
 2.93E+03  19%   1.139 Ins                                                 
    0.000 999%   0.000 Lac                                                 
 3.11E+03   5%   1.206 NAA                                                 
   47.901 377% 1.9E-02 NAAG                                                
  317.469  17%   0.123 Scyllo                                              
  780.916  47%   0.303 Tau                                                 
  548.125  40%   0.213 -CrCH2                                              
  954.181   5%   0.371 GPC+PCh                                             
 3.15E+03   5%   1.225 NAA+NAAG                                            
 2.57E+03   5%   1.000 Cr+PCr                                              
 2.61E+03  26%   1.013 Glu+Gln                                             
    0.000 999%   0.000 Lip13a                                              
 1.04E+03  24%   0.403 Lip13b                                              
  203.409 106% 7.9E-02 Lip09                                               
 1.00E+03  34%   0.389 MM09                                                
  176.038  86% 6.8E-02 Lip20                                               
 2.12E+03  29%   0.822 MM20                                                
  294.130  69%   0.114 MM12                                                
 1.09E+03  45%   0.422 MM14                                                
    0.000 999%   0.000 MM17                                                
 1.04E+03  24%   0.403 Lip13a+Lip13b                                       
 2.42E+03  25%   0.939 MM14+Lip13a+Lip13b+MM12                             
 1.21E+03  27%   0.468 MM09+Lip09                                          
 2.29E+03  27%   0.890 MM20+Lip20                                          
   6 lines in following misc. output table
  FWHM = 0.054 ppm    S/N =   7                                            
  Data shift = 0.015 ppm                                                   
  Ph: -50 deg     -19.0 deg/ppm                                            
  alphaB,S = 1.9E+00,   4.9E+01                                            
   14 spline knots.   Ns = 6(1)                                            
  ( 8) 2 infls.   ( 5) 1 extrs.                                            
  498 points on ppm-axis = NY
      4.000000     3.992357     3.984714     3.977070     3.969427     3.961784     3.954141     3.946497     3.938854     3.931211
      3.923568     3.915925     3.908281     3.900638     3.892995     3.885352     3.877708     3.870065     3.862422     3.854779
      3.847136     3.839492     3.831849     3.824206     3.816563     3.808919     3.801276     3.793633     3.785990     3.778347
      3.770703     3.763060     3.755417     3.747774     3.740130     3.732487     3.724844     3.717201     3.709558     3.701914
      3.694271     3.686628     3.678985     3.671341     3.663698     3.656055     3.648412     3.640769     3.633125     3.625482
      3.617839     3.610196     3.602552     3.594909     3.587266     3.579623     3.571980     3.564336     3.556693     3.549050
      3.541407     3.533763     3.526120     3.518477     3.510834     3.503191     3.495547     3.487904     3.480261     3.472618
      3.464974     3.457331     3.449688     3.442045     3.434402     3.426758     3.419115     3.411472     3.403829     3.396185
      3.388542     3.380899     3.373256     3.365613     3.357969     3.350326     3.342683     3.335040     3.327396     3.319753
      3.312110     3.304467     3.296824     3.289180     3.281537     3.273894     3.266251     3.258607     3.250964     3.243321
      3.235678     3.228034     3.220391     3.212748     3.205105     3.197462     3.189818     3.182175     3.174532     3.166889
      3.159245     3.151602     3.143959     3.136316     3.128673     3.121029     3.113386     3.105743     3.098100     3.090456
      3.082813     3.075170     3.067527     3.059884     3.052240     3.044597     3.036954     3.029311     3.021667     3.014024
      3.006381     2.998738     2.991095     2.983451     2.975808     2.968165     2.960522     2.952878     2.945235     2.937592
      2.929949     2.922306     2.914662     2.907019     2.899376     2.891733     2.884089     2.876446     2.868803     2.861160
      2.853517     2.845873     2.838230     2.830587     2.822944     2.815300     2.807657     2.800014     2.792371     2.784728
      2.777084     2.769441     2.761798     2.754155     2.746511     2.738868     2.731225     2.723582     2.715939     2.708295
      2.700652     2.693009     2.685366     2.677722     2.670079     2.662436     2.654793     2.647150     2.639506     2.631863
      2.624220     2.616577     2.608933     2.601290     2.593647     2.586004     2.578361     2.570717     2.563074     2.555431
      2.547788     2.540144     2.532501     2.524858     2.517215     2.509572     2.501928     2.494285     2.486642     2.478999
      2.471355     2.463712     2.456069     2.448426     2.440783     2.433139     2.425496     2.417853     2.410210     2.402566
      2.394923     2.387280     2.379637     2.371994     2.364350     2.356707     2.349064     2.341421     2.333777     2.326134
      2.318491     2.310848     2.303205     2.295561     2.287918     2.280275     2.272632     2.264988     2.257345     2.249702
      2.242059     2.234416     2.226772     2.219129     2.211486     2.203843     2.196199     2.188556     2.180913     2.173270
      2.165627     2.157983     2.150340     2.142697     2.135054     2.127410     2.119767     2.112124     2.104481     2.096838
      2.089194     2.081551     2.073908     2.066265     2.058621     2.050978     2.043335     2.035692     2.028049     2.020405
      2.012762     2.005119     1.997476     1.989833     1.982190     1.974546     1.966903     1.959260     1.951617     1.943974
      1.936331     1.928688     1.921045     1.913402     1.905759     1.898115     1.890472     1.882829     1.875186     1.867543
      1.859900     1.852257     1.844614     1.836971     1.829327     1.821684     1.814041     1.806398     1.798755     1.791112
      1.783469     1.775826     1.768183     1.760540     1.752896     1.745253     1.737610     1.729967     1.722324     1.714681
      1.707038     1.699395     1.691752     1.684108     1.676465     1.668822     1.661179     1.653536     1.645893     1.638250
      1.630607     1.622964     1.615321     1.607677     1.600034     1.592391     1.584748     1.577105     1.569462     1.561819
      1.554176     1.546533     1.538890     1.531246     1.523603     1.515960     1.508317     1.500674     1.493031     1.485388
      1.477745     1.470102     1.462458     1.454815     1.447172     1.439529     1.431886     1.424243     1.416600     1.408957
      1.401314     1.393671     1.386027     1.378384     1.370741     1.363098     1.355455     1.347812     1.340169     1.332526
      1.324883     1.317240     1.309596     1.301953     1.294310     1.286667     1.279024     1.271381     1.263738     1.256095
      1.248452     1.240808     1.233165     1.225522     1.217879     1.210236     1.202593     1.194950     1.187307     1.179664
      1.172021     1.164377     1.156734     1.149091     1.141448     1.133805     1.126162     1.118519     1.110876     1.103233
      1.095590     1.087946     1.080303     1.072660     1.065017     1.057374     1.049731     1.042088     1.034445     1.026802
      1.019158     1.011515     1.003872     0.996229     0.988586     0.980943     0.973300     0.965657     0.958014     0.950371
      0.942727     0.935084     0.927441     0.919798     0.912155     0.904512     0.896869     0.889226     0.881583     0.873940
      0.866296     0.858653     0.851010     0.843367     0.835724     0.828081     0.820438     0.812795     0.805152     0.797508
      0.789865     0.782222     0.774579     0.766936     0.759293     0.751650     0.744007     0.736364     0.728721     0.721077
      0.713434     0.705791     0.698148     0.690505     0.682862     0.675219     0.667576     0.659933     0.652290     0.644646
      0.637003     0.629360     0.621717     0.614074     0.606431     0.598788     0.591145     0.583502     0.575858     0.568215
      0.560572     0.552929     0.545286     0.537643     0.530000     0.522357     0.514714     0.507071     0.499427     0.491784
      0.484141     0.476498     0.468855     0.461212     0.453569     0.445925     0.438282     0.430639     0.422996     0.415353
      0.407710     0.400067     0.392424     0.384780     0.377137     0.369494     0.361851     0.354208     0.346565     0.338922
      0.331278     0.323635     0.315992     0.308349     0.300706     0.293063     0.285420     0.277777     0.270133     0.262490
      0.254847     0.247204     0.239561     0.231918     0.224275     0.216631     0.208988     0.201345
 NY phased data points follow
  -1.26272E+02 -1.22493E+02 -1.33632E+02 -1.14746E+02 -1.02080E+02 -8.48880E+01 -7.72021E+01 -6.09055E+01 -6.09375E+01 -5.08617E+01
  -4.16226E+01 -5.18086E+01 -5.75701E+01 -8.02122E+01 -8.15240E+01 -8.67495E+01 -9.64865E+01 -9.51649E+01 -9.92974E+01 -9.21548E+01
  -1.03063E+02 -1.03022E+02 -9.81125E+01 -7.24915E+01 -7.53886E+01 -7.13005E+01 -7.92799E+01 -7.40487E+01 -6.10771E+01 -5.95410E+01
  -6.08540E+01 -5.84136E+01 -5.42638E+01 -6.04788E+01 -6.64842E+01 -6.18402E+01 -5.71473E+01 -5.73739E+01 -6.62151E+01 -5.75063E+01
  -5.79773E+01 -6.63144E+01 -6.31214E+01 -4.22342E+01 -4.92022E+01 -3.85382E+01 -4.24115E+01 -3.27572E+01 -4.18522E+01 -3.48213E+01
  -5.85984E+01 -4.94771E+01 -6.18340E+01 -4.66389E+01 -5.12917E+01 -4.17562E+01 -4.28201E+01 -3.31695E+01 -3.48604E+01 -3.33017E+01
  -4.81746E+01 -5.15748E+01 -3.83330E+01 -4.70930E+01 -5.07422E+01 -4.76050E+01 -4.95421E+01 -4.88934E+01 -4.21711E+01 -3.69091E+01
  -4.34819E+01 -4.36696E+01 -4.49823E+01 -2.54508E+01 -2.82063E+01 -2.93397E+01 -4.40704E+01 -3.40779E+01 -3.06764E+01 -1.77202E+01
  -3.88178E+01 -1.86826E+01 -3.06184E+01 -2.09080E+01 -2.10936E+01 -1.46561E+01 -2.26832E+01 -9.13540E+00 -1.47777E+01 -1.38807E+01
  -1.90465E+01 -6.40498E+00 -1.58287E+01 -1.65653E+01 -8.89126E+00 -2.09713E+01 -7.44923E+00 -4.97711E+00  1.28036E+00  1.68434E+01
   3.04749E+01  4.86600E+01  7.75606E+01  8.74885E+01  6.25489E+01  5.34674E+01  2.87646E+01  1.38295E+01  5.37601E+00  4.35928E+00
  -2.86943E+00 -5.32849E+00 -1.34800E+01 -1.36470E+01 -6.60761E+00 -4.38629E-01 -8.08518E+00  1.30803E+01 -1.00610E+01 -4.99184E+00
  -3.45455E+00  1.43726E+01  2.03010E+01  2.95073E+01  4.73057E+01  6.72653E+01  6.34424E+01  8.87233E+01  8.43181E+01  6.57845E+01
   5.82197E+01  3.57054E+01  2.53560E+01  1.18006E+01  8.20864E+00  1.44605E+01  2.26910E+00  7.92735E-01  1.62752E+00 -8.13610E+00
   5.50674E+00 -3.54463E+00  1.04746E-01 -9.07034E+00  1.08186E+01  1.04612E+01  9.76562E+00 -3.87159E+00 -9.55952E+00  1.90255E+01
   1.53753E+00  4.28860E+00  5.43893E+00  7.82377E+00  7.99958E+00  1.20767E+01 -3.12967E+00  1.47447E+00  1.21573E-01  1.62835E+01
   4.85848E+00  1.57429E+01  1.18859E+01  1.21285E+01  1.18577E+01  1.99730E+01  1.64557E+01  7.68760E+00  1.26585E+01 -6.63621E+00
   1.04039E+01  7.08281E+00  2.46062E-01 -1.35480E+00 -2.67856E+00  4.94151E+00  5.75866E+00 -9.69188E+00  6.57766E-01  5.43503E+00
  -4.25290E-01  8.87889E-01  1.44419E+00 -1.15143E+01  7.07498E+00  9.21449E+00 -1.05024E+01  6.51611E+00  7.47464E+00  2.05595E+01
   1.69916E+01  2.15483E+01  2.52200E+01  1.92300E+01  3.09662E+01  2.25877E+01  2.71889E+01  2.16111E+01  1.03479E+01  1.29129E+01
   1.79895E+01  9.21742E+00  1.35579E+01  3.03503E+01  1.92802E+01  2.76236E+01  2.69710E+01  2.08970E+01  7.18165E+00  1.14968E+01
   7.36449E+00  1.74708E+01  3.37922E+01  2.53397E+01  2.38431E+01  3.49275E+01  3.64351E+01  4.91725E+01  3.16805E+01  2.37186E+01
   2.20419E+01  1.20353E+01  1.81168E+01  2.10680E+01  2.70774E+01  2.17736E+01  4.43239E+01  3.30043E+01  3.54067E+01  3.35870E+01
   4.43914E+01  4.22187E+01  3.04576E+01  2.40656E+01  3.98311E+01  4.46656E+01  3.63239E+01  4.16913E+01  3.41007E+01  3.64782E+01
   3.54576E+01  2.24620E+01  3.34575E+01  3.37491E+01  2.11442E+01  3.91529E+01  3.21439E+01  3.68474E+01  3.85965E+01  4.29695E+01
   5.27144E+01  5.02802E+01  4.77998E+01  6.26475E+01  5.66327E+01  5.40439E+01  7.21263E+01  8.16468E+01  1.03863E+02  1.29059E+02
   1.40019E+02  1.55794E+02  1.60161E+02  1.26943E+02  1.01303E+02  8.39377E+01  5.30402E+01  5.27879E+01  4.61279E+01  4.84758E+01
   4.66536E+01  5.18823E+01  4.48288E+01  3.91206E+01  4.38205E+01  3.80763E+01  4.28971E+01  4.41172E+01  4.02667E+01  5.21793E+01
   4.27697E+01  3.56129E+01  4.30921E+01  2.06737E+01  2.95033E+01  3.18682E+01  5.70407E+01  4.51898E+01  4.10863E+01  3.26680E+01
   4.01082E+01  4.47183E+01  4.90874E+01  4.69683E+01  5.28158E+01  5.06650E+01  4.59241E+01  3.34877E+01  3.79049E+01  4.27627E+01
   3.75967E+01  4.10437E+01  3.96215E+01  3.99258E+01  2.87623E+01  3.83499E+01  3.80422E+01  3.19579E+01  3.44918E+01  4.02242E+01
   3.94412E+01  4.98698E+01  4.59243E+01  3.95731E+01  2.86058E+01  5.06349E+01  5.27715E+01  5.68509E+01  4.58536E+01  5.28825E+01
   4.79954E+01  4.63053E+01  5.41741E+01  4.30676E+01  4.62696E+01  5.12789E+01  5.70559E+01  4.62634E+01  6.18183E+01  5.41875E+01
   4.71985E+01  3.99693E+01  5.10950E+01  3.93512E+01  4.09299E+01  6.59839E+01  5.32805E+01  4.48106E+01  5.45162E+01  4.13892E+01
   5.07072E+01  3.36791E+01  5.04430E+01  5.32176E+01  5.05652E+01  5.17322E+01  5.71441E+01  5.29683E+01  4.86761E+01  6.26853E+01
   5.69817E+01  5.57829E+01  5.57394E+01  6.37645E+01  6.82510E+01  4.48361E+01  6.31617E+01  6.00509E+01  5.87471E+01  6.04143E+01
   5.60008E+01  5.39773E+01  6.14910E+01  6.08218E+01  6.15511E+01  4.96807E+01  3.47287E+01  4.60759E+01  4.66121E+01  5.56271E+01
   3.97401E+01  5.07878E+01  5.66954E+01  4.76684E+01  4.45625E+01  5.41721E+01  5.49717E+01  3.44578E+01  4.26467E+01  4.41885E+01
   5.40935E+01  3.90627E+01  5.58418E+01  4.53080E+01  6.13137E+01  4.93038E+01  5.43347E+01  4.40755E+01  4.81437E+01  4.72091E+01
   5.27837E+01  4.81364E+01  5.19481E+01  5.51485E+01  4.77113E+01  5.23357E+01  5.10267E+01  3.91361E+01  4.94311E+01  5.52304E+01
   5.07817E+01  5.64180E+01  5.55946E+01  5.83571E+01  4.19975E+01  5.20755E+01  5.82510E+01  6.06076E+01  5.98034E+01  6.42003E+01
   5.46798E+01  5.78264E+01  6.18072E+01  5.43390E+01  5.64072E+01  5.33490E+01  4.95737E+01  5.24760E+01  4.15316E+01  4.74635E+01
   5.38383E+01  5.62123E+01  4.64541E+01  4.66703E+01  4.72907E+01  5.07365E+01  4.90782E+01  5.39851E+01  5.48289E+01  4.60523E+01
   3.40284E+01  3.69544E+01  4.85396E+01  5.41509E+01  5.18374E+01  5.49932E+01  5.15706E+01  4.25051E+01  4.61418E+01  5.07659E+01
   4.96463E+01  3.81047E+01  5.76491E+01  5.09115E+01  4.91556E+01  3.56355E+01  4.86146E+01  5.37061E+01  6.38498E+01  4.42305E+01
   5.87673E+01  4.75287E+01  5.41178E+01  5.16914E+01  4.31716E+01  3.82204E+01  3.99774E+01  4.45469E+01  4.50323E+01  5.27417E+01
   5.68047E+01  4.80826E+01  5.02380E+01  6.11400E+01  4.51483E+01  4.18545E+01  4.02535E+01  4.69988E+01  7.03734E+01  4.36287E+01
   4.64226E+01  4.88532E+01  4.84122E+01  4.92394E+01  4.15371E+01  4.57542E+01  4.66780E+01  5.10855E+01  5.05177E+01  4.55225E+01
   4.32028E+01  4.50648E+01  4.98709E+01  4.91459E+01  4.60781E+01  4.32980E+01  5.54670E+01  4.53871E+01  5.01424E+01  4.00600E+01
   3.99514E+01  4.57591E+01  3.97837E+01  3.10544E+01  4.09767E+01  3.53208E+01  3.66902E+01  5.13913E+01
 NY points of the fit to the data follow
  -1.07481E+02 -1.06987E+02 -1.05149E+02 -1.00295E+02 -9.35850E+01 -8.57274E+01 -7.62970E+01 -6.60289E+01 -5.63895E+01 -4.91381E+01
  -4.76865E+01 -5.34001E+01 -6.29348E+01 -7.21842E+01 -7.89480E+01 -8.31596E+01 -8.58473E+01 -8.67883E+01 -8.67940E+01 -8.64369E+01
  -8.57329E+01 -8.48264E+01 -8.40395E+01 -8.32989E+01 -8.18541E+01 -7.97971E+01 -7.72522E+01 -7.37520E+01 -6.92349E+01 -6.39148E+01
  -5.82381E+01 -5.37485E+01 -5.22698E+01 -5.36619E+01 -5.66012E+01 -5.99878E+01 -6.33318E+01 -6.63870E+01 -6.85144E+01 -6.92841E+01
  -6.81429E+01 -6.49611E+01 -6.05215E+01 -5.55020E+01 -5.03236E+01 -4.52102E+01 -4.07793E+01 -3.84593E+01 -3.96231E+01 -4.39084E+01
  -4.92317E+01 -5.36182E+01 -5.60724E+01 -5.66044E+01 -5.56191E+01 -5.34167E+01 -5.06953E+01 -4.80089E+01 -4.55447E+01 -4.35910E+01
  -4.25771E+01 -4.26864E+01 -4.37378E+01 -4.49816E+01 -4.56299E+01 -4.52709E+01 -4.39207E+01 -4.19329E+01 -3.99172E+01 -3.79928E+01
  -3.61490E+01 -3.45357E+01 -3.31862E+01 -3.21283E+01 -3.13439E+01 -3.07053E+01 -3.02401E+01 -3.03172E+01 -3.10850E+01 -3.19879E+01
  -3.21705E+01 -3.07721E+01 -2.85630E+01 -2.58749E+01 -2.27412E+01 -1.96903E+01 -1.70848E+01 -1.53142E+01 -1.56029E+01 -1.79275E+01
  -2.07064E+01 -2.28671E+01 -2.40333E+01 -2.44983E+01 -2.48331E+01 -2.38176E+01 -1.86413E+01 -9.30043E+00  3.01250E+00  1.84765E+01
   3.64236E+01  5.45781E+01  7.00325E+01  7.71532E+01  7.11372E+01  5.43330E+01  3.40041E+01  1.64838E+01  4.05209E+00 -4.39556E+00
  -9.21713E+00 -1.12567E+01 -1.19479E+01 -1.21478E+01 -1.21599E+01 -1.20967E+01 -1.19250E+01 -1.16489E+01 -1.12022E+01 -1.02329E+01
  -6.83122E+00  1.70865E+00  1.28237E+01  2.61488E+01  4.25149E+01  6.02773E+01  7.66288E+01  8.75983E+01  8.64104E+01  7.20359E+01
   5.20606E+01  3.39261E+01  2.07998E+01  1.18599E+01  5.37036E+00  1.78303E+00 -3.87777E-01 -1.63399E+00 -1.71919E+00 -6.49617E-01
   1.16231E+00  3.07306E+00  4.63251E+00  5.48008E+00  5.57430E+00  5.25953E+00  4.84783E+00  4.52305E+00  4.36141E+00  4.29187E+00
   4.32435E+00  4.39721E+00  4.50081E+00  4.67418E+00  4.93327E+00  5.16778E+00  5.32992E+00  5.49351E+00  5.58280E+00  5.60258E+00
   5.56603E+00  5.45055E+00  5.53324E+00  6.07781E+00  6.95401E+00  7.77278E+00  8.11877E+00  7.81509E+00  7.19877E+00  6.63824E+00
   6.19322E+00  5.82693E+00  5.60148E+00  5.47583E+00  5.37096E+00  5.21640E+00  5.12976E+00  5.39246E+00  6.13806E+00  7.04677E+00
   7.64294E+00  7.72151E+00  7.53848E+00  7.70084E+00  8.31330E+00  9.13362E+00  1.02618E+01  1.18676E+01  1.40716E+01  1.68373E+01
   1.95433E+01  2.14920E+01  2.22115E+01  2.17773E+01  2.06570E+01  1.93774E+01  1.83750E+01  1.80335E+01  1.85540E+01  1.99722E+01
   2.21269E+01  2.45471E+01  2.66815E+01  2.81577E+01  2.85662E+01  2.79793E+01  2.63380E+01  2.37165E+01  2.08620E+01  1.87657E+01
   1.81636E+01  1.92175E+01  2.17780E+01  2.53231E+01  2.91138E+01  3.23663E+01  3.41131E+01  3.34655E+01  3.02903E+01  2.58408E+01
   2.15306E+01  1.84068E+01  1.70726E+01  1.78567E+01  2.10251E+01  2.56444E+01  2.99363E+01  3.29275E+01  3.44514E+01  3.47673E+01
   3.42808E+01  3.35639E+01  3.32593E+01  3.37901E+01  3.50478E+01  3.66016E+01  3.79351E+01  3.86463E+01  3.86780E+01  3.78499E+01
   3.62872E+01  3.46569E+01  3.37094E+01  3.37305E+01  3.47191E+01  3.65749E+01  3.87878E+01  4.06525E+01  4.17926E+01  4.23337E+01
   4.26534E+01  4.30076E+01  4.37093E+01  4.53636E+01  5.03434E+01  6.12526E+01  7.44786E+01  8.96701E+01  1.07885E+02  1.27270E+02
   1.44648E+02  1.55129E+02  1.50452E+02  1.30146E+02  1.03924E+02  8.06747E+01  6.40410E+01  5.29927E+01  4.56612E+01  4.26673E+01
   4.15575E+01  4.10132E+01  4.08275E+01  4.09201E+01  4.11473E+01  4.13703E+01  4.14656E+01  4.13934E+01  4.11820E+01  4.09057E+01
   4.06221E+01  4.03750E+01  4.02142E+01  4.01539E+01  4.01693E+01  4.02288E+01  4.03076E+01  4.03896E+01  4.04638E+01  4.05249E+01
   4.05845E+01  4.06498E+01  4.07210E+01  4.07979E+01  4.08811E+01  4.09706E+01  4.10666E+01  4.11700E+01  4.12823E+01  4.14022E+01
   4.15292E+01  4.16648E+01  4.18085E+01  4.19598E+01  4.21173E+01  4.22791E+01  4.24452E+01  4.26174E+01  4.27982E+01  4.29897E+01
   4.31926E+01  4.34076E+01  4.36360E+01  4.38793E+01  4.41396E+01  4.44184E+01  4.47176E+01  4.50403E+01  4.53921E+01  4.57838E+01
   4.62414E+01  4.68109E+01  4.74054E+01  4.79200E+01  4.83762E+01  4.87165E+01  4.88306E+01  4.86363E+01  4.80440E+01  4.72080E+01
   4.65701E+01  4.63530E+01  4.66005E+01  4.72544E+01  4.81790E+01  4.93189E+01  5.05028E+01  5.13379E+01  5.16514E+01  5.15733E+01
   5.13286E+01  5.10969E+01  5.09332E+01  5.08729E+01  5.09991E+01  5.13083E+01  5.18068E+01  5.25082E+01  5.34164E+01  5.45146E+01
   5.57588E+01  5.70753E+01  5.83645E+01  5.95102E+01  6.03949E+01  6.09180E+01  6.10133E+01  6.06611E+01  5.98919E+01  5.87804E+01
   5.74324E+01  5.59672E+01  5.44994E+01  5.31247E+01  5.19103E+01  5.08922E+01  5.00785E+01  4.94565E+01  4.90006E+01  4.86797E+01
   4.84631E+01  4.83231E+01  4.82379E+01  4.81914E+01  4.81728E+01  4.81757E+01  4.81963E+01  4.82327E+01  4.82846E+01  4.83525E+01
   4.84381E+01  4.85432E+01  4.86693E+01  4.88183E+01  4.89920E+01  4.91925E+01  4.94217E+01  4.96812E+01  4.99718E+01  5.02939E+01
   5.06471E+01  5.10305E+01  5.14418E+01  5.18776E+01  5.23326E+01  5.28004E+01  5.32736E+01  5.37436E+01  5.42006E+01  5.46339E+01
   5.50326E+01  5.53859E+01  5.56843E+01  5.59189E+01  5.60825E+01  5.61698E+01  5.61777E+01  5.61059E+01  5.59566E+01  5.57344E+01
   5.54458E+01  5.50990E+01  5.47037E+01  5.42707E+01  5.38111E+01  5.33358E+01  5.28549E+01  5.23775E+01  5.19119E+01  5.14650E+01
   5.10421E+01  5.06470E+01  5.02819E+01  4.99480E+01  4.96456E+01  4.93742E+01  4.91323E+01  4.89180E+01  4.87288E+01  4.85625E+01
   4.84168E+01  4.82895E+01  4.81784E+01  4.80811E+01  4.79956E+01  4.79205E+01  4.78543E+01  4.77957E+01  4.77436E+01  4.76968E+01
   4.76544E+01  4.76159E+01  4.75807E+01  4.75483E+01  4.75182E+01  4.74897E+01  4.74627E+01  4.74370E+01  4.74124E+01  4.73887E+01
   4.73655E+01  4.73425E+01  4.73198E+01  4.72975E+01  4.72754E+01  4.72532E+01  4.72309E+01  4.72084E+01  4.71859E+01  4.71633E+01
   4.71406E+01  4.71176E+01  4.70942E+01  4.70705E+01  4.70467E+01  4.70227E+01  4.69985E+01  4.69739E+01  4.69488E+01  4.69235E+01
   4.68981E+01  4.68725E+01  4.68466E+01  4.68202E+01  4.67936E+01  4.67669E+01  4.67401E+01  4.67131E+01  4.66858E+01  4.66582E+01
   4.66304E+01  4.66027E+01  4.65749E+01  4.65471E+01  4.65190E+01  4.64907E+01  4.64626E+01  4.64346E+01  4.64066E+01  4.63787E+01
   4.63507E+01  4.63228E+01  4.62952E+01  4.62680E+01  4.62410E+01  4.62142E+01  4.61877E+01  4.61617E+01
 NY background values follow
    -1.119E+02   -1.110E+02   -1.100E+02   -1.091E+02   -1.081E+02   -1.071E+02   -1.062E+02   -1.052E+02   -1.042E+02   -1.033E+02
    -1.023E+02   -1.014E+02   -1.004E+02   -9.944E+01   -9.848E+01   -9.752E+01   -9.656E+01   -9.561E+01   -9.465E+01   -9.369E+01
    -9.274E+01   -9.179E+01   -9.083E+01   -8.988E+01   -8.893E+01   -8.798E+01   -8.703E+01   -8.609E+01   -8.514E+01   -8.420E+01
    -8.326E+01   -8.232E+01   -8.138E+01   -8.045E+01   -7.951E+01   -7.858E+01   -7.765E+01   -7.672E+01   -7.580E+01   -7.487E+01
    -7.395E+01   -7.304E+01   -7.212E+01   -7.121E+01   -7.030E+01   -6.939E+01   -6.849E+01   -6.759E+01   -6.669E+01   -6.579E+01
    -6.490E+01   -6.401E+01   -6.313E+01   -6.225E+01   -6.137E+01   -6.049E+01   -5.962E+01   -5.875E+01   -5.789E+01   -5.702E+01
    -5.617E+01   -5.531E+01   -5.446E+01   -5.362E+01   -5.277E+01   -5.194E+01   -5.110E+01   -5.027E+01   -4.944E+01   -4.862E+01
    -4.780E+01   -4.699E+01   -4.618E+01   -4.538E+01   -4.458E+01   -4.378E+01   -4.299E+01   -4.220E+01   -4.142E+01   -4.064E+01
    -3.987E+01   -3.910E+01   -3.834E+01   -3.758E+01   -3.683E+01   -3.608E+01   -3.534E+01   -3.460E+01   -3.387E+01   -3.314E+01
    -3.242E+01   -3.170E+01   -3.099E+01   -3.029E+01   -2.959E+01   -2.889E+01   -2.820E+01   -2.752E+01   -2.684E+01   -2.617E+01
    -2.550E+01   -2.483E+01   -2.418E+01   -2.352E+01   -2.288E+01   -2.224E+01   -2.160E+01   -2.097E+01   -2.034E+01   -1.972E+01
    -1.911E+01   -1.850E+01   -1.789E+01   -1.729E+01   -1.670E+01   -1.611E+01   -1.552E+01   -1.494E+01   -1.437E+01   -1.380E+01
    -1.323E+01   -1.268E+01   -1.212E+01   -1.157E+01   -1.103E+01   -1.049E+01   -9.957E+00   -9.428E+00   -8.904E+00   -8.386E+00
    -7.872E+00   -7.364E+00   -6.860E+00   -6.362E+00   -5.868E+00   -5.379E+00   -4.896E+00   -4.417E+00   -3.943E+00   -3.474E+00
    -3.009E+00   -2.549E+00   -2.094E+00   -1.643E+00   -1.196E+00   -7.543E-01   -3.165E-01    1.172E-01    5.466E-01    9.721E-01
     1.393E+00    1.811E+00    2.225E+00    2.634E+00    3.041E+00    3.443E+00    3.842E+00    4.237E+00    4.629E+00    5.018E+00
     5.403E+00    5.785E+00    6.164E+00    6.540E+00    6.912E+00    7.282E+00    7.649E+00    8.013E+00    8.374E+00    8.733E+00
     9.089E+00    9.443E+00    9.794E+00    1.014E+01    1.049E+01    1.083E+01    1.117E+01    1.151E+01    1.185E+01    1.219E+01
     1.252E+01    1.285E+01    1.318E+01    1.351E+01    1.384E+01    1.416E+01    1.449E+01    1.481E+01    1.513E+01    1.545E+01
     1.576E+01    1.608E+01    1.639E+01    1.670E+01    1.701E+01    1.732E+01    1.762E+01    1.793E+01    1.823E+01    1.853E+01
     1.883E+01    1.912E+01    1.942E+01    1.971E+01    2.000E+01    2.029E+01    2.058E+01    2.087E+01    2.115E+01    2.144E+01
     2.172E+01    2.200E+01    2.227E+01    2.255E+01    2.282E+01    2.310E+01    2.337E+01    2.364E+01    2.391E+01    2.417E+01
     2.444E+01    2.470E+01    2.496E+01    2.522E+01    2.548E+01    2.573E+01    2.599E+01    2.624E+01    2.649E+01    2.674E+01
     2.699E+01    2.723E+01    2.748E+01    2.772E+01    2.796E+01    2.820E+01    2.844E+01    2.867E+01    2.891E+01    2.914E+01
     2.937E+01    2.960E+01    2.983E+01    3.005E+01    3.028E+01    3.050E+01    3.072E+01    3.094E+01    3.115E+01    3.137E+01
     3.158E+01    3.179E+01    3.200E+01    3.221E+01    3.242E+01    3.262E+01    3.283E+01    3.303E+01    3.323E+01    3.342E+01
     3.362E+01    3.382E+01    3.401E+01    3.420E+01    3.439E+01    3.457E+01    3.476E+01    3.494E+01    3.512E+01    3.530E+01
     3.548E+01    3.566E+01    3.583E+01    3.601E+01    3.618E+01    3.635E+01    3.651E+01    3.668E+01    3.684E+01    3.701E+01
     3.717E+01    3.733E+01    3.748E+01    3.764E+01    3.779E+01    3.794E+01    3.809E+01    3.824E+01    3.839E+01    3.854E+01
     3.868E+01    3.882E+01    3.896E+01    3.910E+01    3.924E+01    3.937E+01    3.951E+01    3.964E+01    3.977E+01    3.990E+01
     4.003E+01    4.016E+01    4.028E+01    4.041E+01    4.053E+01    4.065E+01    4.077E+01    4.089E+01    4.100E+01    4.112E+01
     4.123E+01    4.134E+01    4.145E+01    4.156E+01    4.167E+01    4.178E+01    4.188E+01    4.199E+01    4.209E+01    4.219E+01
     4.229E+01    4.239E+01    4.248E+01    4.258E+01    4.267E+01    4.277E+01    4.286E+01    4.295E+01    4.304E+01    4.313E+01
     4.321E+01    4.330E+01    4.339E+01    4.347E+01    4.355E+01    4.363E+01    4.371E+01    4.379E+01    4.387E+01    4.395E+01
     4.402E+01    4.410E+01    4.417E+01    4.424E+01    4.431E+01    4.438E+01    4.445E+01    4.452E+01    4.459E+01    4.465E+01
     4.472E+01    4.478E+01    4.484E+01    4.491E+01    4.497E+01    4.503E+01    4.509E+01    4.515E+01    4.520E+01    4.526E+01
     4.532E+01    4.537E+01    4.542E+01    4.548E+01    4.553E+01    4.558E+01    4.563E+01    4.568E+01    4.573E+01    4.578E+01
     4.583E+01    4.587E+01    4.592E+01    4.596E+01    4.601E+01    4.605E+01    4.609E+01    4.614E+01    4.618E+01    4.622E+01
     4.626E+01    4.630E+01    4.634E+01    4.637E+01    4.641E+01    4.645E+01    4.648E+01    4.652E+01    4.655E+01    4.659E+01
     4.662E+01    4.665E+01    4.668E+01    4.672E+01    4.675E+01    4.678E+01    4.681E+01    4.684E+01    4.686E+01    4.689E+01
     4.692E+01    4.695E+01    4.697E+01    4.700E+01    4.702E+01    4.705E+01    4.707E+01    4.710E+01    4.712E+01    4.714E+01
     4.716E+01    4.718E+01    4.721E+01    4.723E+01    4.725E+01    4.727E+01    4.728E+01    4.730E+01    4.732E+01    4.734E+01
     4.735E+01    4.737E+01    4.739E+01    4.740E+01    4.741E+01    4.743E+01    4.744E+01    4.745E+01    4.746E+01    4.747E+01
     4.748E+01    4.749E+01    4.750E+01    4.751E+01    4.752E+01    4.752E+01    4.753E+01    4.753E+01    4.754E+01    4.754E+01
     4.754E+01    4.754E+01    4.754E+01    4.754E+01    4.754E+01    4.754E+01    4.754E+01    4.754E+01    4.753E+01    4.753E+01
     4.752E+01    4.751E+01    4.751E+01    4.750E+01    4.749E+01    4.748E+01    4.747E+01    4.745E+01    4.744E+01    4.743E+01
     4.741E+01    4.740E+01    4.738E+01    4.736E+01    4.735E+01    4.733E+01    4.731E+01    4.729E+01    4.727E+01    4.725E+01
     4.723E+01    4.721E+01    4.718E+01    4.716E+01    4.714E+01    4.711E+01    4.709E+01    4.706E+01    4.704E+01    4.701E+01
     4.699E+01    4.696E+01    4.693E+01    4.691E+01    4.688E+01    4.685E+01    4.683E+01    4.680E+01    4.677E+01    4.674E+01
     4.671E+01    4.668E+01    4.666E+01    4.663E+01    4.660E+01    4.657E+01    4.654E+01    4.651E+01
