 LCModel (Version 6.3-1L) Copyright: S.W. Provencher.          Ref.: Magn. Reson. Med. 30:672-679 (1993).                
 Slice#2 Row#9 Col#10  PD_24_press_2_raw_act
 36 lines in following concentration table = NCONC+1
    Conc.  %SD /Cr+PCr  Metabolite                                         
   35.429 473% 1.7E-02 Ala                                                 
    0.000 999%   0.000 Asp                                                 
  740.490  51%   0.353 Cr                                                  
 1.35E+03  28%   0.647 PCr                                                 
    0.000 999%   0.000 GABA                                                
    0.000 999%   0.000 Glc                                                 
 1.55E+03  25%   0.738 Gln                                                 
 1.87E+03  23%   0.892 Glu                                                 
  669.640   4%   0.320 GPC                                                 
    0.000 999%   0.000 PCh                                                 
  533.932  18%   0.255 GSH                                                 
 2.04E+03  17%   0.975 Ins                                                 
  111.163 177% 5.3E-02 Lac                                                 
 3.00E+03   6%   1.434 NAA                                                 
   45.746 451% 2.2E-02 NAAG                                                
  240.521  15%   0.115 Scyllo                                              
    0.000 999%   0.000 Tau                                                 
  867.253  16%   0.414 -CrCH2                                              
  669.640   4%   0.320 GPC+PCh                                             
 3.05E+03   4%   1.455 NAA+NAAG                                            
 2.10E+03   3%   1.000 Cr+PCr                                              
 3.42E+03  21%   1.631 Glu+Gln                                             
 3.21E+03  23%   1.532 Lip13a                                              
    0.000 999%   0.000 Lip13b                                              
    0.000 999%   0.000 Lip09                                               
 2.29E+03  12%   1.093 MM09                                                
  745.357  37%   0.356 Lip20                                               
 5.84E+03   9%   2.787 MM20                                                
  883.114  28%   0.422 MM12                                                
 1.76E+03  28%   0.840 MM14                                                
  376.109  66%   0.180 MM17                                                
 3.21E+03  23%   1.532 Lip13a+Lip13b                                       
 5.85E+03  11%   2.793 MM14+Lip13a+Lip13b+MM12                             
 2.29E+03  12%   1.093 MM09+Lip09                                          
 6.58E+03   8%   3.143 MM20+Lip20                                          
   6 lines in following misc. output table
  FWHM = 0.076 ppm    S/N =  14                                            
  Data shift = 0.000 ppm                                                   
  Ph: -29 deg      -7.4 deg/ppm                                            
  alphaB,S = 5.8E-01,   1.8E+02                                            
   14 spline knots.   Ns = 9(1)                                            
  (17) 5 infls.   (15) 1 extrs.                                            
  498 points on ppm-axis = NY
      4.000000     3.992357     3.984714     3.977070     3.969427     3.961784     3.954141     3.946497     3.938854     3.931211
      3.923568     3.915925     3.908281     3.900638     3.892995     3.885352     3.877708     3.870065     3.862422     3.854779
      3.847136     3.839492     3.831849     3.824206     3.816563     3.808919     3.801276     3.793633     3.785990     3.778347
      3.770703     3.763060     3.755417     3.747774     3.740130     3.732487     3.724844     3.717201     3.709558     3.701914
      3.694271     3.686628     3.678985     3.671341     3.663698     3.656055     3.648412     3.640769     3.633125     3.625482
      3.617839     3.610196     3.602552     3.594909     3.587266     3.579623     3.571980     3.564336     3.556693     3.549050
      3.541407     3.533763     3.526120     3.518477     3.510834     3.503191     3.495547     3.487904     3.480261     3.472618
      3.464974     3.457331     3.449688     3.442045     3.434402     3.426758     3.419115     3.411472     3.403829     3.396185
      3.388542     3.380899     3.373256     3.365613     3.357969     3.350326     3.342683     3.335040     3.327396     3.319753
      3.312110     3.304467     3.296824     3.289180     3.281537     3.273894     3.266251     3.258607     3.250964     3.243321
      3.235678     3.228034     3.220391     3.212748     3.205105     3.197462     3.189818     3.182175     3.174532     3.166889
      3.159245     3.151602     3.143959     3.136316     3.128673     3.121029     3.113386     3.105743     3.098100     3.090456
      3.082813     3.075170     3.067527     3.059884     3.052240     3.044597     3.036954     3.029311     3.021667     3.014024
      3.006381     2.998738     2.991095     2.983451     2.975808     2.968165     2.960522     2.952878     2.945235     2.937592
      2.929949     2.922306     2.914662     2.907019     2.899376     2.891733     2.884089     2.876446     2.868803     2.861160
      2.853517     2.845873     2.838230     2.830587     2.822944     2.815300     2.807657     2.800014     2.792371     2.784728
      2.777084     2.769441     2.761798     2.754155     2.746511     2.738868     2.731225     2.723582     2.715939     2.708295
      2.700652     2.693009     2.685366     2.677722     2.670079     2.662436     2.654793     2.647150     2.639506     2.631863
      2.624220     2.616577     2.608933     2.601290     2.593647     2.586004     2.578361     2.570717     2.563074     2.555431
      2.547788     2.540144     2.532501     2.524858     2.517215     2.509572     2.501928     2.494285     2.486642     2.478999
      2.471355     2.463712     2.456069     2.448426     2.440783     2.433139     2.425496     2.417853     2.410210     2.402566
      2.394923     2.387280     2.379637     2.371994     2.364350     2.356707     2.349064     2.341421     2.333777     2.326134
      2.318491     2.310848     2.303205     2.295561     2.287918     2.280275     2.272632     2.264988     2.257345     2.249702
      2.242059     2.234416     2.226772     2.219129     2.211486     2.203843     2.196199     2.188556     2.180913     2.173270
      2.165627     2.157983     2.150340     2.142697     2.135054     2.127410     2.119767     2.112124     2.104481     2.096838
      2.089194     2.081551     2.073908     2.066265     2.058621     2.050978     2.043335     2.035692     2.028049     2.020405
      2.012762     2.005119     1.997476     1.989833     1.982190     1.974546     1.966903     1.959260     1.951617     1.943974
      1.936331     1.928688     1.921045     1.913402     1.905759     1.898115     1.890472     1.882829     1.875186     1.867543
      1.859900     1.852257     1.844614     1.836971     1.829327     1.821684     1.814041     1.806398     1.798755     1.791112
      1.783469     1.775826     1.768183     1.760540     1.752896     1.745253     1.737610     1.729967     1.722324     1.714681
      1.707038     1.699395     1.691752     1.684108     1.676465     1.668822     1.661179     1.653536     1.645893     1.638250
      1.630607     1.622964     1.615321     1.607677     1.600034     1.592391     1.584748     1.577105     1.569462     1.561819
      1.554176     1.546533     1.538890     1.531246     1.523603     1.515960     1.508317     1.500674     1.493031     1.485388
      1.477745     1.470102     1.462458     1.454815     1.447172     1.439529     1.431886     1.424243     1.416600     1.408957
      1.401314     1.393671     1.386027     1.378384     1.370741     1.363098     1.355455     1.347812     1.340169     1.332526
      1.324883     1.317240     1.309596     1.301953     1.294310     1.286667     1.279024     1.271381     1.263738     1.256095
      1.248452     1.240808     1.233165     1.225522     1.217879     1.210236     1.202593     1.194950     1.187307     1.179664
      1.172021     1.164377     1.156734     1.149091     1.141448     1.133805     1.126162     1.118519     1.110876     1.103233
      1.095590     1.087946     1.080303     1.072660     1.065017     1.057374     1.049731     1.042088     1.034445     1.026802
      1.019158     1.011515     1.003872     0.996229     0.988586     0.980943     0.973300     0.965657     0.958014     0.950371
      0.942727     0.935084     0.927441     0.919798     0.912155     0.904512     0.896869     0.889226     0.881583     0.873940
      0.866296     0.858653     0.851010     0.843367     0.835724     0.828081     0.820438     0.812795     0.805152     0.797508
      0.789865     0.782222     0.774579     0.766936     0.759293     0.751650     0.744007     0.736364     0.728721     0.721077
      0.713434     0.705791     0.698148     0.690505     0.682862     0.675219     0.667576     0.659933     0.652290     0.644646
      0.637003     0.629360     0.621717     0.614074     0.606431     0.598788     0.591145     0.583502     0.575858     0.568215
      0.560572     0.552929     0.545286     0.537643     0.530000     0.522357     0.514714     0.507071     0.499427     0.491784
      0.484141     0.476498     0.468855     0.461212     0.453569     0.445925     0.438282     0.430639     0.422996     0.415353
      0.407710     0.400067     0.392424     0.384780     0.377137     0.369494     0.361851     0.354208     0.346565     0.338922
      0.331278     0.323635     0.315992     0.308349     0.300706     0.293063     0.285420     0.277777     0.270133     0.262490
      0.254847     0.247204     0.239561     0.231918     0.224275     0.216631     0.208988     0.201345
 NY phased data points follow
   2.53166E+01  2.45585E+01  2.62558E+01  2.95796E+01  2.47604E+01  2.99241E+01  3.12691E+01  3.45704E+01  3.62008E+01  4.16514E+01
   4.24604E+01  4.08798E+01  3.77670E+01  3.72592E+01  3.44342E+01  3.16722E+01  2.63920E+01  2.36484E+01  2.52699E+01  2.31763E+01
   2.33691E+01  2.14603E+01  2.52353E+01  2.51196E+01  2.33727E+01  2.08864E+01  2.47645E+01  2.41822E+01  2.57376E+01  2.68365E+01
   2.19102E+01  2.22720E+01  2.58907E+01  2.87014E+01  2.48057E+01  2.62098E+01  2.30311E+01  2.33069E+01  2.11972E+01  2.11107E+01
   2.29090E+01  2.53468E+01  2.37020E+01  2.54432E+01  2.53341E+01  2.86100E+01  2.44536E+01  2.47191E+01  2.93704E+01  2.84205E+01
   2.92980E+01  2.70173E+01  2.37237E+01  1.94908E+01  2.22009E+01  2.15103E+01  2.00624E+01  2.39252E+01  1.71070E+01  1.79244E+01
   1.62603E+01  1.47692E+01  1.52197E+01  1.25495E+01  1.29352E+01  9.81847E+00  1.10632E+01  9.32702E+00  9.37440E+00  8.79551E+00
   1.23260E+01  8.25644E+00  1.14691E+01  1.19256E+01  1.62968E+01  1.30632E+01  1.17894E+01  9.71344E+00  1.25228E+01  1.08602E+01
   1.29434E+01  1.29228E+01  1.21753E+01  1.15399E+01  1.24305E+01  1.47431E+01  1.76151E+01  1.39849E+01  1.65270E+01  1.89107E+01
   1.75723E+01  1.72796E+01  1.98751E+01  1.76344E+01  2.11604E+01  2.43644E+01  2.74231E+01  2.88413E+01  3.57726E+01  3.81806E+01
   4.68990E+01  4.87224E+01  4.95694E+01  4.44912E+01  4.73527E+01  4.54791E+01  3.87393E+01  4.13919E+01  2.38401E+01  2.15762E+01
   2.13090E+01  1.80419E+01  1.73794E+01  1.24666E+01  1.35581E+01  1.46617E+01  1.56483E+01  1.48458E+01  1.34323E+01  2.13808E+01
   2.22779E+01  3.04112E+01  3.69199E+01  4.37276E+01  4.84326E+01  5.38015E+01  5.83876E+01  5.80437E+01  6.27295E+01  5.41574E+01
   4.81913E+01  3.94416E+01  2.69189E+01  2.34038E+01  2.00109E+01  1.60356E+01  1.72218E+01  1.32638E+01  1.17362E+01  8.32735E+00
   8.32835E+00  1.16448E+01  7.83611E+00  8.39081E+00  9.55707E+00  6.92859E+00  6.52607E+00  6.00215E+00  8.63475E+00  9.96196E+00
   7.23081E+00  5.57622E+00  3.01236E+00  2.44536E+00  8.26349E+00  2.95365E+00  7.81238E+00  5.65598E+00  3.62323E+00  4.84366E+00
   4.90694E+00  7.75278E+00  5.46251E+00  2.14629E+00  9.27294E-01 -2.72457E+00 -3.31175E-01 -2.78376E+00 -3.62346E+00 -3.65019E+00
  -6.00203E+00 -9.01885E+00 -1.19036E+01 -1.06947E+01 -9.70405E+00 -1.18675E+01 -1.14884E+01 -1.11295E+01 -1.20627E+01 -1.01412E+01
  -8.44455E+00 -7.45629E+00 -8.79722E+00 -9.13690E+00 -6.21446E+00 -3.65356E+00 -6.32602E+00 -7.35424E+00 -2.52806E+00 -7.30120E+00
  -2.94324E+00 -1.40792E-01 -1.57176E+00 -3.12322E-01 -1.70145E+00 -1.42839E+00 -3.21564E-01 -2.92140E+00 -1.34174E+00 -2.58500E+00
   2.08911E+00  3.21719E-01  1.48681E+00  4.26407E+00  2.79972E+00  8.50208E-01  7.12871E+00  4.80959E+00  4.82026E+00  6.39024E+00
   2.68982E+00  9.03178E+00  4.92100E+00  1.09436E+01  1.06595E+01  1.08371E+01  1.32764E+01  1.16703E+01  1.18296E+01  1.20830E+01
   6.30337E+00  8.13081E+00  5.64236E+00  3.01682E+00  7.00284E+00  9.53880E+00  9.09967E+00  1.08345E+01  1.55716E+01  1.35878E+01
   1.58616E+01  1.19625E+01  1.39261E+01  1.51903E+01  1.01183E+01  1.25923E+01  1.40710E+01  1.52661E+01  9.67792E+00  1.58359E+01
   1.17507E+01  1.40908E+01  1.66597E+01  1.10039E+01  1.47789E+01  1.34530E+01  1.78155E+01  1.98051E+01  2.12449E+01  2.40271E+01
   2.94255E+01  2.95682E+01  3.57979E+01  3.92270E+01  5.13061E+01  5.90805E+01  6.63392E+01  7.99491E+01  8.31201E+01  8.85777E+01
   9.29406E+01  8.75355E+01  8.65633E+01  8.14761E+01  6.78133E+01  5.15382E+01  4.14613E+01  3.21726E+01  2.47851E+01  2.34400E+01
   1.88537E+01  1.63959E+01  1.44976E+01  1.39248E+01  1.58020E+01  9.64788E+00  1.17287E+01  5.68282E+00  7.06840E+00  6.87366E+00
   7.14575E+00  1.00486E+01  6.17145E+00  8.37629E+00  3.74856E-01  3.63507E+00  6.21560E+00  5.93339E+00  6.35610E+00  2.31814E+00
   2.34864E+00  2.41905E+00  3.17096E+00  2.23434E+00  7.17836E+00  5.49546E+00  3.33085E+00  3.65113E+00  5.15438E+00  3.78062E+00
   4.85149E+00  8.10001E-01  3.11438E+00  6.13346E+00  2.10121E+00  3.33216E+00  6.75753E+00  3.60574E+00  2.69779E+00  3.91585E-01
   3.21700E+00  1.39484E+00  4.35171E+00  5.70048E+00  5.61722E+00  1.84686E+00  1.69498E-02  3.10213E+00  5.52540E+00  1.84674E+00
   5.22655E+00  4.97246E+00  3.11774E+00  2.54575E+00  1.05699E+01  3.93193E+00  7.11995E+00  8.83393E+00  9.59296E+00  6.28000E+00
   9.46838E+00  1.04247E+01  1.01980E+01  1.10617E+01  1.44578E+01  1.33803E+01  1.59642E+01  1.24273E+01  1.76291E+01  1.19585E+01
   1.43314E+01  1.81419E+01  2.08040E+01  1.99073E+01  1.87756E+01  2.04359E+01  2.18931E+01  1.89299E+01  2.06003E+01  2.02874E+01
   1.62432E+01  1.88708E+01  1.63100E+01  1.83991E+01  1.91736E+01  1.89826E+01  1.86404E+01  1.76930E+01  1.72338E+01  1.81602E+01
   1.82858E+01  1.68866E+01  1.47540E+01  1.68950E+01  1.49781E+01  1.65659E+01  1.92395E+01  1.41649E+01  1.73190E+01  1.64468E+01
   1.60673E+01  1.41975E+01  1.36668E+01  1.15871E+01  1.30530E+01  1.00691E+01  1.05822E+01  1.15982E+01  8.92192E+00  1.14581E+01
   1.09374E+01  1.28541E+01  1.00956E+01  7.74926E+00  8.00392E+00  7.84939E+00  8.51655E+00  7.95431E+00  1.13889E+01  1.19908E+01
   1.41857E+01  1.08105E+01  9.76595E+00  9.20781E+00  9.67485E+00  7.98441E+00  1.30233E+01  1.19263E+01  1.56633E+01  1.17677E+01
   1.25645E+01  1.31698E+01  1.38229E+01  1.38499E+01  1.35738E+01  1.90504E+01  1.74876E+01  1.62200E+01  1.68319E+01  1.56885E+01
   1.65153E+01  1.26859E+01  1.34454E+01  1.15732E+01  1.45326E+01  9.07219E+00  1.15478E+01  1.37058E+01  9.21402E+00  7.41212E+00
   1.07826E+01  1.04840E+01  6.38208E+00  6.41350E+00  6.25746E+00  6.25348E+00  4.91253E+00  5.92156E+00  4.68523E+00  5.13101E+00
   4.36410E+00  3.25659E+00  1.93995E+00  4.05609E+00  3.04001E+00  2.69711E+00  3.21342E+00  5.25973E+00  1.39964E+00  2.33787E+00
   2.76105E+00 -9.44977E-01  4.55809E+00  1.20189E+00  6.04305E+00  2.53467E+00  3.83743E+00  3.38933E+00  3.22676E+00  3.42786E+00
   2.84688E+00  1.26106E+00  2.64768E+00 -1.33871E+00  1.87342E+00  2.02866E+00  4.39872E+00  2.10349E+00  4.15229E+00  7.83960E-01
   2.73463E+00  1.90232E-01  2.28974E+00  8.95311E-01  2.36949E-01  1.76967E+00  2.20394E+00  1.49243E+00  2.45200E+00  2.99602E+00
   3.18492E+00 -6.83436E-02  1.51346E+00  1.44384E-01  4.06611E+00  3.89598E+00  2.10403E+00  2.68348E+00  5.16851E+00  1.52123E-01
   2.05190E+00  3.27106E+00  3.40866E+00 -4.79823E-01  3.72770E+00  2.30888E+00  3.60592E+00  2.34618E+00  4.49637E+00  2.24517E+00
   3.29560E+00  8.60237E-01  4.19417E+00  1.70072E+00  1.98905E+00  2.65228E+00  2.69985E+00  5.75198E+00
 NY points of the fit to the data follow
   2.37933E+01  2.41416E+01  2.52137E+01  2.68654E+01  2.89162E+01  3.11603E+01  3.34410E+01  3.57002E+01  3.76860E+01  3.91091E+01
   3.98090E+01  3.96683E+01  3.86621E+01  3.68556E+01  3.44270E+01  3.17109E+01  2.91094E+01  2.68571E+01  2.50315E+01  2.34552E+01
   2.21293E+01  2.12098E+01  2.09833E+01  2.13059E+01  2.19153E+01  2.27914E+01  2.38992E+01  2.50507E+01  2.61615E+01  2.72313E+01
   2.81549E+01  2.87936E+01  2.89246E+01  2.83415E+01  2.69998E+01  2.50744E+01  2.30728E+01  2.15219E+01  2.08067E+01  2.07774E+01
   2.11354E+01  2.18938E+01  2.28493E+01  2.39404E+01  2.50294E+01  2.59706E+01  2.65895E+01  2.67065E+01  2.63375E+01  2.55551E+01
   2.43300E+01  2.26374E+01  2.06431E+01  1.88511E+01  1.76903E+01  1.71543E+01  1.69252E+01  1.66900E+01  1.64408E+01  1.63217E+01
   1.62797E+01  1.61704E+01  1.59026E+01  1.55303E+01  1.50328E+01  1.44690E+01  1.40144E+01  1.38220E+01  1.38908E+01  1.40461E+01
   1.41809E+01  1.42568E+01  1.42302E+01  1.41393E+01  1.39619E+01  1.36853E+01  1.33155E+01  1.28878E+01  1.25976E+01  1.28625E+01
   1.33432E+01  1.37478E+01  1.41460E+01  1.46940E+01  1.53584E+01  1.60003E+01  1.64700E+01  1.67360E+01  1.68144E+01  1.66671E+01
   1.61957E+01  1.53410E+01  1.44143E+01  1.47300E+01  1.75078E+01  2.13306E+01  2.53350E+01  2.95996E+01  3.42523E+01  3.93778E+01
   4.41159E+01  4.77209E+01  4.99814E+01  5.08866E+01  5.02116E+01  4.72545E+01  4.16104E+01  3.41648E+01  2.68609E+01  2.14026E+01
   1.80009E+01  1.54716E+01  1.25969E+01  9.91868E+00  8.84336E+00  8.63333E+00  8.91774E+00  1.06748E+01  1.50125E+01  2.01365E+01
   2.52524E+01  3.08285E+01  3.70795E+01  4.36014E+01  4.95791E+01  5.42531E+01  5.72124E+01  5.84288E+01  5.77831E+01  5.45386E+01
   4.82353E+01  3.97605E+01  3.12684E+01  2.48228E+01  2.07289E+01  1.76510E+01  1.41044E+01  1.06281E+01  9.04881E+00  8.53493E+00
   8.42545E+00  8.48359E+00  8.50340E+00  8.35997E+00  8.07447E+00  7.70978E+00  7.26790E+00  6.81676E+00  6.40829E+00  6.01882E+00
   5.64659E+00  5.25992E+00  4.79235E+00  4.32297E+00  3.90547E+00  3.55580E+00  3.29321E+00  3.01052E+00  2.66588E+00  2.32356E+00
   2.01559E+00  1.71117E+00  1.37485E+00  1.02547E+00  7.19684E-01  4.61395E-01  1.51443E-01 -3.80996E-01 -1.15377E+00 -1.95199E+00
  -2.61801E+00 -3.11073E+00 -3.59550E+00 -4.07828E+00 -4.48786E+00 -4.80784E+00 -5.01953E+00 -5.20132E+00 -5.39174E+00 -5.42707E+00
  -5.23063E+00 -4.93104E+00 -4.64053E+00 -4.32222E+00 -3.85478E+00 -3.14810E+00 -2.27347E+00 -1.49495E+00 -8.94880E-01 -4.06483E-01
   9.96442E-02  6.27969E-01  1.01311E+00  1.15206E+00  1.14077E+00  1.28836E+00  1.75471E+00  2.51033E+00  3.37070E+00  4.18636E+00
   4.76805E+00  4.95313E+00  4.96596E+00  4.69851E+00  3.83688E+00  2.52125E+00  1.13384E+00  1.19266E-01 -4.27846E-01 -7.02799E-01
  -5.02980E-01  3.91391E-01  1.98191E+00  3.80022E+00  5.26431E+00  6.26084E+00  6.79618E+00  6.82589E+00  6.42204E+00  5.66264E+00
   4.61597E+00  3.54852E+00  3.07274E+00  3.34928E+00  4.19245E+00  5.42399E+00  6.80714E+00  8.34101E+00  9.88413E+00  1.10346E+01
   1.17401E+01  1.23095E+01  1.29941E+01  1.36057E+01  1.39827E+01  1.43345E+01  1.48226E+01  1.53137E+01  1.56967E+01  1.59944E+01
   1.62160E+01  1.63391E+01  1.62985E+01  1.61846E+01  1.63607E+01  1.70421E+01  1.81111E+01  1.94138E+01  2.08930E+01  2.23581E+01
   2.42182E+01  2.88820E+01  3.65347E+01  4.42626E+01  5.17566E+01  5.98295E+01  6.85253E+01  7.69147E+01  8.37220E+01  8.81686E+01
   9.01457E+01  8.98261E+01  8.67197E+01  7.95838E+01  6.82707E+01  5.48412E+01  4.26925E+01  3.41346E+01  2.86676E+01  2.38455E+01
   1.81581E+01  1.37691E+01  1.19470E+01  1.08991E+01  1.00782E+01  9.41302E+00  8.84415E+00  8.27789E+00  7.71469E+00  7.15973E+00
   6.63336E+00  6.16007E+00  5.74467E+00  5.36699E+00  5.02648E+00  4.73946E+00  4.50524E+00  4.30896E+00  4.14137E+00  4.00325E+00
   3.89881E+00  3.82478E+00  3.76989E+00  3.73252E+00  3.71161E+00  3.70369E+00  3.70421E+00  3.70961E+00  3.71739E+00  3.72454E+00
   3.72854E+00  3.72825E+00  3.72245E+00  3.71034E+00  3.69211E+00  3.66849E+00  3.64109E+00  3.61208E+00  3.58454E+00  3.56197E+00
   3.54832E+00  3.54806E+00  3.56576E+00  3.60544E+00  3.67165E+00  3.76908E+00  3.90298E+00  4.08045E+00  4.31030E+00  4.58044E+00
   4.87966E+00  5.21534E+00  5.59102E+00  6.00183E+00  6.43920E+00  6.89646E+00  7.38660E+00  7.92294E+00  8.49433E+00  9.09104E+00
   9.71285E+00  1.03686E+01  1.10688E+01  1.18123E+01  1.25815E+01  1.33505E+01  1.41026E+01  1.48416E+01  1.55876E+01  1.62867E+01
   1.68649E+01  1.73476E+01  1.77678E+01  1.81229E+01  1.83823E+01  1.85186E+01  1.85937E+01  1.86575E+01  1.86853E+01  1.86686E+01
   1.86215E+01  1.85841E+01  1.86068E+01  1.87131E+01  1.88774E+01  1.90364E+01  1.91371E+01  1.91616E+01  1.91194E+01  1.89749E+01
   1.86826E+01  1.82884E+01  1.78554E+01  1.74098E+01  1.69293E+01  1.63798E+01  1.57995E+01  1.52251E+01  1.46486E+01  1.40689E+01
   1.34903E+01  1.29181E+01  1.23587E+01  1.18185E+01  1.13039E+01  1.08208E+01  1.03749E+01  9.97098E+00  9.61382E+00  9.30731E+00
   9.05498E+00  8.85955E+00  8.72342E+00  8.64826E+00  8.63548E+00  8.68568E+00  8.79906E+00  8.97484E+00  9.21171E+00  9.50727E+00
   9.85836E+00  1.02604E+01  1.07078E+01  1.11932E+01  1.17084E+01  1.22436E+01  1.27878E+01  1.33290E+01  1.38545E+01  1.43508E+01
   1.48049E+01  1.52039E+01  1.55363E+01  1.57914E+01  1.59608E+01  1.60381E+01  1.60197E+01  1.59044E+01  1.56939E+01  1.53923E+01
   1.50064E+01  1.45446E+01  1.40174E+01  1.34363E+01  1.28136E+01  1.21613E+01  1.14917E+01  1.08161E+01  1.01450E+01  9.48734E+00
   8.85091E+00  8.24177E+00  7.66475E+00  7.12304E+00  6.61881E+00  6.15281E+00  5.72503E+00  5.33446E+00  4.97977E+00  4.65896E+00
   4.36997E+00  4.11030E+00  3.87763E+00  3.66943E+00  3.48354E+00  3.31767E+00  3.16990E+00  3.03821E+00  2.92101E+00  2.81663E+00
   2.72387E+00  2.64139E+00  2.56821E+00  2.50322E+00  2.44570E+00  2.39478E+00  2.34997E+00  2.31054E+00  2.27611E+00  2.24605E+00
   2.22011E+00  2.19782E+00  2.17902E+00  2.16327E+00  2.15043E+00  2.14013E+00  2.13233E+00  2.12670E+00  2.12325E+00  2.12166E+00
   2.12190E+00  2.12372E+00  2.12717E+00  2.13202E+00  2.13831E+00  2.14579E+00  2.15451E+00  2.16427E+00  2.17517E+00  2.18700E+00
   2.19985E+00  2.21350E+00  2.22803E+00  2.24327E+00  2.25936E+00  2.27611E+00  2.29360E+00  2.31165E+00  2.33036E+00  2.34959E+00
   2.36947E+00  2.38983E+00  2.41075E+00  2.43207E+00  2.45392E+00  2.47618E+00  2.49897E+00  2.52211E+00  2.54572E+00  2.56964E+00
   2.59404E+00  2.61878E+00  2.64399E+00  2.66951E+00  2.69546E+00  2.72173E+00  2.74849E+00  2.77562E+00
 NY background values follow
     1.625E+01    1.615E+01    1.604E+01    1.594E+01    1.583E+01    1.573E+01    1.562E+01    1.552E+01    1.541E+01    1.531E+01
     1.520E+01    1.509E+01    1.499E+01    1.488E+01    1.478E+01    1.467E+01    1.457E+01    1.446E+01    1.436E+01    1.425E+01
     1.415E+01    1.404E+01    1.394E+01    1.383E+01    1.373E+01    1.362E+01    1.352E+01    1.341E+01    1.331E+01    1.320E+01
     1.309E+01    1.299E+01    1.288E+01    1.278E+01    1.267E+01    1.257E+01    1.246E+01    1.236E+01    1.225E+01    1.215E+01
     1.204E+01    1.194E+01    1.183E+01    1.173E+01    1.162E+01    1.152E+01    1.141E+01    1.131E+01    1.120E+01    1.110E+01
     1.099E+01    1.089E+01    1.078E+01    1.068E+01    1.057E+01    1.047E+01    1.036E+01    1.026E+01    1.015E+01    1.005E+01
     9.941E+00    9.836E+00    9.731E+00    9.626E+00    9.522E+00    9.417E+00    9.313E+00    9.208E+00    9.104E+00    9.000E+00
     8.895E+00    8.791E+00    8.687E+00    8.583E+00    8.479E+00    8.375E+00    8.272E+00    8.168E+00    8.064E+00    7.961E+00
     7.858E+00    7.754E+00    7.651E+00    7.548E+00    7.445E+00    7.342E+00    7.240E+00    7.137E+00    7.035E+00    6.932E+00
     6.830E+00    6.728E+00    6.626E+00    6.524E+00    6.423E+00    6.321E+00    6.220E+00    6.119E+00    6.018E+00    5.917E+00
     5.816E+00    5.716E+00    5.615E+00    5.515E+00    5.415E+00    5.315E+00    5.215E+00    5.116E+00    5.017E+00    4.918E+00
     4.819E+00    4.720E+00    4.622E+00    4.523E+00    4.425E+00    4.327E+00    4.230E+00    4.132E+00    4.035E+00    3.938E+00
     3.842E+00    3.745E+00    3.649E+00    3.553E+00    3.457E+00    3.362E+00    3.267E+00    3.172E+00    3.077E+00    2.983E+00
     2.888E+00    2.795E+00    2.701E+00    2.608E+00    2.515E+00    2.422E+00    2.329E+00    2.237E+00    2.146E+00    2.054E+00
     1.963E+00    1.873E+00    1.782E+00    1.693E+00    1.604E+00    1.515E+00    1.428E+00    1.340E+00    1.254E+00    1.168E+00
     1.083E+00    9.985E-01    9.149E-01    8.322E-01    7.504E-01    6.695E-01    5.895E-01    5.105E-01    4.325E-01    3.555E-01
     2.796E-01    2.047E-01    1.310E-01    5.851E-02   -1.281E-02   -8.291E-02   -1.517E-01   -2.193E-01   -2.855E-01   -3.503E-01
    -4.138E-01   -4.758E-01   -5.363E-01   -5.954E-01   -6.529E-01   -7.089E-01   -7.633E-01   -8.161E-01   -8.672E-01   -9.166E-01
    -9.643E-01   -1.010E+00   -1.054E+00   -1.097E+00   -1.138E+00   -1.177E+00   -1.214E+00   -1.250E+00   -1.284E+00   -1.317E+00
    -1.349E+00   -1.379E+00   -1.407E+00   -1.434E+00   -1.460E+00   -1.485E+00   -1.508E+00   -1.531E+00   -1.552E+00   -1.572E+00
    -1.591E+00   -1.609E+00   -1.626E+00   -1.642E+00   -1.657E+00   -1.671E+00   -1.684E+00   -1.697E+00   -1.709E+00   -1.720E+00
    -1.730E+00   -1.740E+00   -1.749E+00   -1.758E+00   -1.766E+00   -1.774E+00   -1.781E+00   -1.788E+00   -1.794E+00   -1.800E+00
    -1.806E+00   -1.811E+00   -1.817E+00   -1.822E+00   -1.827E+00   -1.832E+00   -1.837E+00   -1.842E+00   -1.847E+00   -1.851E+00
    -1.856E+00   -1.861E+00   -1.866E+00   -1.870E+00   -1.875E+00   -1.880E+00   -1.884E+00   -1.889E+00   -1.893E+00   -1.897E+00
    -1.902E+00   -1.906E+00   -1.910E+00   -1.914E+00   -1.918E+00   -1.922E+00   -1.925E+00   -1.929E+00   -1.933E+00   -1.936E+00
    -1.940E+00   -1.943E+00   -1.946E+00   -1.949E+00   -1.952E+00   -1.954E+00   -1.957E+00   -1.959E+00   -1.962E+00   -1.964E+00
    -1.966E+00   -1.968E+00   -1.970E+00   -1.971E+00   -1.972E+00   -1.974E+00   -1.975E+00   -1.975E+00   -1.976E+00   -1.977E+00
    -1.977E+00   -1.977E+00   -1.977E+00   -1.976E+00   -1.976E+00   -1.975E+00   -1.974E+00   -1.973E+00   -1.972E+00   -1.970E+00
    -1.968E+00   -1.966E+00   -1.964E+00   -1.962E+00   -1.959E+00   -1.956E+00   -1.953E+00   -1.950E+00   -1.946E+00   -1.943E+00
    -1.939E+00   -1.934E+00   -1.930E+00   -1.925E+00   -1.920E+00   -1.915E+00   -1.910E+00   -1.904E+00   -1.899E+00   -1.893E+00
    -1.886E+00   -1.880E+00   -1.873E+00   -1.866E+00   -1.859E+00   -1.851E+00   -1.843E+00   -1.835E+00   -1.827E+00   -1.819E+00
    -1.810E+00   -1.801E+00   -1.792E+00   -1.782E+00   -1.772E+00   -1.762E+00   -1.752E+00   -1.742E+00   -1.731E+00   -1.720E+00
    -1.709E+00   -1.697E+00   -1.685E+00   -1.673E+00   -1.661E+00   -1.648E+00   -1.636E+00   -1.623E+00   -1.610E+00   -1.596E+00
    -1.583E+00   -1.569E+00   -1.555E+00   -1.541E+00   -1.527E+00   -1.512E+00   -1.497E+00   -1.482E+00   -1.467E+00   -1.452E+00
    -1.437E+00   -1.421E+00   -1.406E+00   -1.390E+00   -1.374E+00   -1.357E+00   -1.341E+00   -1.325E+00   -1.308E+00   -1.291E+00
    -1.275E+00   -1.258E+00   -1.241E+00   -1.223E+00   -1.206E+00   -1.189E+00   -1.171E+00   -1.154E+00   -1.136E+00   -1.118E+00
    -1.100E+00   -1.082E+00   -1.064E+00   -1.046E+00   -1.028E+00   -1.010E+00   -9.917E-01   -9.733E-01   -9.548E-01   -9.362E-01
    -9.176E-01   -8.989E-01   -8.800E-01   -8.611E-01   -8.421E-01   -8.229E-01   -8.037E-01   -7.843E-01   -7.649E-01   -7.453E-01
    -7.257E-01   -7.059E-01   -6.860E-01   -6.659E-01   -6.458E-01   -6.255E-01   -6.051E-01   -5.846E-01   -5.640E-01   -5.432E-01
    -5.222E-01   -5.012E-01   -4.800E-01   -4.586E-01   -4.372E-01   -4.155E-01   -3.937E-01   -3.718E-01   -3.497E-01   -3.275E-01
    -3.051E-01   -2.825E-01   -2.598E-01   -2.369E-01   -2.138E-01   -1.906E-01   -1.672E-01   -1.437E-01   -1.199E-01   -9.599E-02
    -7.190E-02   -4.764E-02   -2.320E-02    1.397E-03    2.617E-02    5.110E-02    7.621E-02    1.015E-01    1.269E-01    1.525E-01
     1.782E-01    2.042E-01    2.302E-01    2.564E-01    2.828E-01    3.094E-01    3.360E-01    3.629E-01    3.899E-01    4.170E-01
     4.443E-01    4.717E-01    4.993E-01    5.271E-01    5.549E-01    5.829E-01    6.111E-01    6.394E-01    6.678E-01    6.964E-01
     7.251E-01    7.539E-01    7.829E-01    8.120E-01    8.413E-01    8.706E-01    9.001E-01    9.297E-01    9.595E-01    9.894E-01
     1.019E+00    1.050E+00    1.080E+00    1.110E+00    1.141E+00    1.171E+00    1.202E+00    1.233E+00    1.264E+00    1.295E+00
     1.326E+00    1.357E+00    1.388E+00    1.420E+00    1.451E+00    1.483E+00    1.515E+00    1.546E+00    1.578E+00    1.610E+00
     1.642E+00    1.674E+00    1.706E+00    1.738E+00    1.771E+00    1.803E+00    1.835E+00    1.868E+00    1.900E+00    1.933E+00
     1.965E+00    1.998E+00    2.030E+00    2.063E+00    2.096E+00    2.129E+00    2.161E+00    2.194E+00    2.227E+00    2.260E+00
     2.293E+00    2.325E+00    2.358E+00    2.391E+00    2.424E+00    2.457E+00    2.490E+00    2.523E+00
 Ala      Conc. = 3.54E+01
