 LCModel (Version 6.3-1L) Copyright: S.W. Provencher.          Ref.: Magn. Reson. Med. 30:672-679 (1993).                
 Slice#2 Row#3 Col#12  PD_24_press_2_raw_act
 36 lines in following concentration table = NCONC+1
    Conc.  %SD /Cr+PCr  Metabolite                                         
   99.517  72%   2.980 Ala                                                 
   20.498  73%   0.614 Asp                                                 
   33.390 101%   1.000 Cr                                                  
    0.000 999%   0.000 PCr                                                 
   12.213  74%   0.366 GABA                                                
   12.720  71%   0.381 Glc                                                 
    0.000 999%   0.000 Gln                                                 
  372.975  47%  11.170 Glu                                                 
    0.000 999%   0.000 GPC                                                 
   55.704  31%   1.668 PCh                                                 
   60.277  81%   1.805 GSH                                                 
    0.000 999%   0.000 Ins                                                 
   63.936 117%   1.915 Lac                                                 
    0.000 999%   0.000 NAA                                                 
  202.857  32%   6.075 NAAG                                                
    4.833  62%   0.145 Scyllo                                              
   21.565  69%   0.646 Tau                                                 
   15.982  96%   0.479 -CrCH2                                              
   55.704  31%   1.668 GPC+PCh                                             
  202.857  32%   6.075 NAA+NAAG                                            
   33.390 101%   1.000 Cr+PCr                                              
  372.975  47%  11.170 Glu+Gln                                             
    0.000 999%   0.000 Lip13a                                              
    0.000 999%   0.000 Lip13b                                              
 2.95E-03 999% 8.8E-05 Lip09                                               
 1.63E+03  10%  48.941 MM09                                                
 7.81E-04 999% 2.3E-05 Lip20                                               
  564.710  54%  16.913 MM20                                                
  199.457  86%   5.974 MM12                                                
    0.000 999%   0.000 MM14                                                
 2.21E+03   9%  66.282 MM17                                                
    0.000 999%   0.000 Lip13a+Lip13b                                       
  199.457  86%   5.974 MM14+Lip13a+Lip13b+MM12                             
 1.63E+03  10%  48.941 MM09+Lip09                                          
  564.710  54%  16.913 MM20+Lip20                                          
   6 lines in following misc. output table
  FWHM = 0.076 ppm    S/N =   2                                            
  Data shift = 0.084 ppm                                                   
  Ph:  35 deg       9.2 deg/ppm                                            
  alphaB,S = 7.4E+01,   7.3E+00                                            
   11 spline knots.   Ns = 9(2)                                            
   5 inflections.     4 extrema                                            
  498 points on ppm-axis = NY
      4.000000     3.992357     3.984714     3.977070     3.969427     3.961784     3.954141     3.946497     3.938854     3.931211
      3.923568     3.915925     3.908281     3.900638     3.892995     3.885352     3.877708     3.870065     3.862422     3.854779
      3.847136     3.839492     3.831849     3.824206     3.816563     3.808919     3.801276     3.793633     3.785990     3.778347
      3.770703     3.763060     3.755417     3.747774     3.740130     3.732487     3.724844     3.717201     3.709558     3.701914
      3.694271     3.686628     3.678985     3.671341     3.663698     3.656055     3.648412     3.640769     3.633125     3.625482
      3.617839     3.610196     3.602552     3.594909     3.587266     3.579623     3.571980     3.564336     3.556693     3.549050
      3.541407     3.533763     3.526120     3.518477     3.510834     3.503191     3.495547     3.487904     3.480261     3.472618
      3.464974     3.457331     3.449688     3.442045     3.434402     3.426758     3.419115     3.411472     3.403829     3.396185
      3.388542     3.380899     3.373256     3.365613     3.357969     3.350326     3.342683     3.335040     3.327396     3.319753
      3.312110     3.304467     3.296824     3.289180     3.281537     3.273894     3.266251     3.258607     3.250964     3.243321
      3.235678     3.228034     3.220391     3.212748     3.205105     3.197462     3.189818     3.182175     3.174532     3.166889
      3.159245     3.151602     3.143959     3.136316     3.128673     3.121029     3.113386     3.105743     3.098100     3.090456
      3.082813     3.075170     3.067527     3.059884     3.052240     3.044597     3.036954     3.029311     3.021667     3.014024
      3.006381     2.998738     2.991095     2.983451     2.975808     2.968165     2.960522     2.952878     2.945235     2.937592
      2.929949     2.922306     2.914662     2.907019     2.899376     2.891733     2.884089     2.876446     2.868803     2.861160
      2.853517     2.845873     2.838230     2.830587     2.822944     2.815300     2.807657     2.800014     2.792371     2.784728
      2.777084     2.769441     2.761798     2.754155     2.746511     2.738868     2.731225     2.723582     2.715939     2.708295
      2.700652     2.693009     2.685366     2.677722     2.670079     2.662436     2.654793     2.647150     2.639506     2.631863
      2.624220     2.616577     2.608933     2.601290     2.593647     2.586004     2.578361     2.570717     2.563074     2.555431
      2.547788     2.540144     2.532501     2.524858     2.517215     2.509572     2.501928     2.494285     2.486642     2.478999
      2.471355     2.463712     2.456069     2.448426     2.440783     2.433139     2.425496     2.417853     2.410210     2.402566
      2.394923     2.387280     2.379637     2.371994     2.364350     2.356707     2.349064     2.341421     2.333777     2.326134
      2.318491     2.310848     2.303205     2.295561     2.287918     2.280275     2.272632     2.264988     2.257345     2.249702
      2.242059     2.234416     2.226772     2.219129     2.211486     2.203843     2.196199     2.188556     2.180913     2.173270
      2.165627     2.157983     2.150340     2.142697     2.135054     2.127410     2.119767     2.112124     2.104481     2.096838
      2.089194     2.081551     2.073908     2.066265     2.058621     2.050978     2.043335     2.035692     2.028049     2.020405
      2.012762     2.005119     1.997476     1.989833     1.982190     1.974546     1.966903     1.959260     1.951617     1.943974
      1.936331     1.928688     1.921045     1.913402     1.905759     1.898115     1.890472     1.882829     1.875186     1.867543
      1.859900     1.852257     1.844614     1.836971     1.829327     1.821684     1.814041     1.806398     1.798755     1.791112
      1.783469     1.775826     1.768183     1.760540     1.752896     1.745253     1.737610     1.729967     1.722324     1.714681
      1.707038     1.699395     1.691752     1.684108     1.676465     1.668822     1.661179     1.653536     1.645893     1.638250
      1.630607     1.622964     1.615321     1.607677     1.600034     1.592391     1.584748     1.577105     1.569462     1.561819
      1.554176     1.546533     1.538890     1.531246     1.523603     1.515960     1.508317     1.500674     1.493031     1.485388
      1.477745     1.470102     1.462458     1.454815     1.447172     1.439529     1.431886     1.424243     1.416600     1.408957
      1.401314     1.393671     1.386027     1.378384     1.370741     1.363098     1.355455     1.347812     1.340169     1.332526
      1.324883     1.317240     1.309596     1.301953     1.294310     1.286667     1.279024     1.271381     1.263738     1.256095
      1.248452     1.240808     1.233165     1.225522     1.217879     1.210236     1.202593     1.194950     1.187307     1.179664
      1.172021     1.164377     1.156734     1.149091     1.141448     1.133805     1.126162     1.118519     1.110876     1.103233
      1.095590     1.087946     1.080303     1.072660     1.065017     1.057374     1.049731     1.042088     1.034445     1.026802
      1.019158     1.011515     1.003872     0.996229     0.988586     0.980943     0.973300     0.965657     0.958014     0.950371
      0.942727     0.935084     0.927441     0.919798     0.912155     0.904512     0.896869     0.889226     0.881583     0.873940
      0.866296     0.858653     0.851010     0.843367     0.835724     0.828081     0.820438     0.812795     0.805152     0.797508
      0.789865     0.782222     0.774579     0.766936     0.759293     0.751650     0.744007     0.736364     0.728721     0.721077
      0.713434     0.705791     0.698148     0.690505     0.682862     0.675219     0.667576     0.659933     0.652290     0.644646
      0.637003     0.629360     0.621717     0.614074     0.606431     0.598788     0.591145     0.583502     0.575858     0.568215
      0.560572     0.552929     0.545286     0.537643     0.530000     0.522357     0.514714     0.507071     0.499427     0.491784
      0.484141     0.476498     0.468855     0.461212     0.453569     0.445925     0.438282     0.430639     0.422996     0.415353
      0.407710     0.400067     0.392424     0.384780     0.377137     0.369494     0.361851     0.354208     0.346565     0.338922
      0.331278     0.323635     0.315992     0.308349     0.300706     0.293063     0.285420     0.277777     0.270133     0.262490
      0.254847     0.247204     0.239561     0.231918     0.224275     0.216631     0.208988     0.201345
 NY phased data points follow
  -9.86413E+00 -1.91506E+01 -1.00346E+01 -1.58668E+01 -1.44528E+01 -1.13466E+01 -9.53827E+00 -1.31189E+01 -1.09513E+01 -1.39472E+01
  -8.19527E+00 -2.17377E+01 -1.09762E+01 -1.42629E+01 -9.03131E+00 -1.57987E+01 -2.03438E+01 -1.07286E+01 -1.23822E+01 -9.38441E+00
  -1.23174E+01 -6.84309E+00 -1.17211E+01 -1.61620E+01 -1.12075E+01 -1.35009E+01 -4.97774E+00 -1.89627E+00 -6.69654E-01 -9.83142E+00
  -1.19364E+01 -1.23558E+01 -1.38241E+01 -1.08631E+01 -8.05335E+00 -4.68329E+00 -1.38699E+01 -1.53136E+01 -1.37788E+01 -1.23822E+01
  -9.92272E+00 -1.22541E+01 -1.07345E+01 -7.77021E+00 -7.05784E+00 -8.16249E+00 -6.96813E+00 -1.35743E+01 -6.87732E+00 -1.41148E+01
  -4.61247E+00 -6.27533E+00 -4.90689E+00 -1.05583E+01 -2.55848E+00 -8.30433E+00 -8.50655E+00 -1.10173E+01 -1.06602E+01 -1.34183E+01
  -5.59264E+00 -1.36871E+01 -1.11256E+01 -7.05178E+00 -9.55310E+00 -8.44066E+00 -7.60661E+00 -7.34027E+00 -1.18905E+01 -5.21367E+00
  -6.75386E+00 -8.71912E+00 -5.82708E+00 -5.82948E+00 -6.13688E+00 -1.13330E+00 -5.93413E+00 -7.43370E+00 -3.06377E+00 -7.98211E+00
  -5.55388E+00 -5.53626E+00 -4.18222E+00 -2.47432E+00 -1.37275E+00  4.04688E+00 -7.62036E+00 -1.16055E+01 -4.48306E+00 -1.24663E+01
  -4.11328E+00 -1.11834E+01 -1.13284E+01 -1.31316E+01 -3.64357E+00  1.40291E+00  5.05654E+00 -2.62849E+00 -1.22852E+00 -1.91921E+00
  -9.26977E-01 -1.57744E+00  2.95268E-01 -5.00186E+00  1.95328E+00 -8.52812E+00 -4.61112E+00 -5.87856E+00 -2.91455E+00 -3.98200E+00
  -8.37528E+00 -3.36188E+00 -6.80024E+00 -4.27782E+00 -4.61883E+00 -1.00971E+01 -1.16757E+01 -7.83973E+00 -1.11933E+01 -4.07642E+00
   2.29597E-01 -7.47610E+00 -6.19115E+00 -3.32647E+00 -1.41293E+00 -7.26287E+00 -2.28223E+00 -3.26169E+00  5.21230E+00 -8.68107E+00
  -1.45885E+00 -6.54828E+00 -1.93416E+00 -5.48602E+00  1.28128E-01 -5.09055E+00 -1.25920E+01  8.06441E-01 -3.07410E+00 -3.19764E+00
  -3.74791E+00 -4.59266E+00 -2.71966E+00 -5.11102E+00 -6.06844E+00 -5.24867E+00 -2.21062E+00  2.08642E-01 -8.41890E+00  1.73366E-01
  -5.12949E+00 -4.69533E+00 -7.49647E+00 -1.66940E+00 -2.14016E+00 -3.22184E+00 -9.95635E+00 -7.29125E+00 -4.60124E+00 -3.00777E+00
  -2.92091E+00  3.43266E-01 -8.99679E+00 -5.71762E+00  6.05141E-01 -3.05313E-01 -3.24035E+00 -3.66034E+00 -4.01595E+00 -2.19259E+00
  -6.49208E+00 -8.12260E+00 -1.06152E-01 -4.74849E+00 -5.80538E+00 -8.53496E+00 -6.65071E+00 -2.37471E+00 -6.30499E+00 -5.74767E+00
  -1.07882E+00 -1.82810E+00  1.66295E-01 -2.52558E+00 -2.93515E+00 -8.52445E-01  1.89714E-01 -3.06816E+00 -5.08426E+00  3.46501E+00
  -2.25577E+00 -2.66669E+00 -5.23494E+00 -5.47585E+00 -6.68541E+00  1.43948E+00 -1.03315E+00  2.32526E+00 -9.31210E-01 -3.32658E+00
  -7.11820E-01 -3.72230E+00 -5.91489E+00  2.84446E+00 -6.16769E+00 -4.20891E+00 -2.12540E+00 -2.69397E+00 -1.40727E+00  3.69313E+00
   4.31677E+00  4.78229E+00  8.92510E-01  2.08447E+00 -1.14827E+00 -2.47294E+00 -2.12087E+00 -2.31113E+00 -9.57581E+00 -5.77885E+00
  -4.01016E+00 -5.03019E-01 -2.60199E+00 -4.59801E+00 -1.04948E+01 -3.61839E-01 -1.04805E+01 -2.53751E+00 -5.51909E+00 -6.73606E+00
  -3.98513E+00 -1.41826E-02 -3.70753E+00 -3.46856E+00 -3.04538E+00 -1.49853E+00 -5.50465E-01 -1.52238E+00 -7.26431E+00 -6.22939E+00
  -2.11284E+00 -2.04731E+00 -7.33491E+00 -9.95177E+00 -5.79700E+00 -9.88032E+00 -6.83067E+00 -2.88290E+00  7.67837E+00  4.24046E+00
   3.58611E+00 -1.63589E+00  1.04619E+01  8.05995E+00  7.56622E+00  7.84790E+00  4.30637E+00 -5.65425E-01  3.70418E+00  3.71084E+00
  -7.93030E-01 -3.21330E+00 -1.19477E+00  2.87453E+00 -2.77604E+00 -1.61405E+00 -2.30736E+00  4.96276E+00  1.82967E+00 -4.42314E+00
  -1.08036E+00 -1.62582E-01  3.05567E+00 -6.30039E+00 -3.48631E+00 -8.57317E+00 -1.61347E+00 -6.75282E+00 -3.42159E-01 -3.39609E+00
  -1.03075E+00 -4.22762E+00  1.25824E+00 -4.74992E+00 -4.33724E+00 -1.09799E+01 -3.13630E+00  4.46090E-01 -1.61286E+00  6.16788E+00
  -3.68046E+00  1.99291E+00  4.78107E-01 -4.57022E+00  1.37016E+00  5.64439E+00  2.73052E+00  4.13845E+00  1.52605E+00  1.04748E+01
   8.99436E+00  1.23946E+01  1.21317E+01  8.29995E+00  1.79849E+01  1.94469E+01  1.79130E+01  1.60907E+01  2.20207E+01  1.52804E+01
   9.03644E+00  1.02609E+01  1.43397E+01  1.09464E+01  9.85338E+00  1.20192E+01  1.36315E+01  1.34925E+01  1.65602E+01  1.47336E+01
   7.65930E+00  1.31846E+01  3.27937E+00  2.23047E+00  8.59449E+00  2.77830E+00  8.91046E+00  2.69543E-01  8.23626E-01  5.36006E-01
   1.20990E+00 -6.32881E+00  4.06591E+00 -7.51075E+00 -8.72888E-01  1.56491E+00  2.83343E+00  2.45172E+00  4.83894E+00  1.22513E+00
  -3.00557E+00 -2.11969E+00 -2.40686E+00 -4.26092E+00 -4.59582E+00  7.86498E-01 -5.98371E-01 -8.18304E+00 -1.85810E+00 -1.91194E+00
  -8.41354E+00 -1.17784E+00 -1.05229E+01 -8.05204E-01 -5.88542E+00  5.09032E-01 -4.81807E+00 -2.33325E-01  3.30533E-02 -1.61223E+00
  -4.53647E+00 -1.10509E+01  8.38322E-01  3.52531E+00  1.57219E-01  2.56332E+00 -8.77441E-01  3.75451E+00  4.70522E+00  8.94244E+00
   6.16571E+00  6.73050E-02  6.42074E+00  3.72016E+00  2.10814E+00 -1.03768E+00  4.81299E+00  7.40077E+00  2.60900E+00  1.10057E+01
   1.78796E+00 -1.90678E+00  1.07494E+01  1.29004E+01  3.91369E+00  1.37428E+01  3.65311E+00  1.01080E+01  9.55135E+00  1.20191E+01
   7.89048E+00  1.37601E+01  5.81462E+00  1.08913E+01  1.19755E+01  1.64045E+01  1.54971E+01  1.07144E+01  1.34936E+01  1.69011E+01
   1.17273E+01  1.46244E+01  1.48629E+01  1.34428E+01  1.06087E+01  5.85691E+00  6.85219E+00 -1.83654E+00  1.08506E+01  1.18822E+01
   1.08531E+01  9.13155E+00  1.37711E+01  1.70516E+01  4.16737E+00  7.89281E+00  6.45532E+00  1.63369E+00  6.94503E+00  4.36516E+00
   5.22540E+00  5.72904E+00  4.94433E+00  6.89242E+00  7.29758E+00  8.29936E+00  4.51274E-01 -7.17553E-02  1.84838E+00  5.76065E+00
  -7.90417E-01  6.88794E+00  2.81913E+00  2.10908E+00  6.06569E+00  7.38177E+00  2.59507E+00  5.59390E+00  2.48758E+00  4.14015E+00
   5.32051E-01  3.23714E+00  3.65099E+00  1.96215E+00  3.39001E-01  2.83363E+00  3.35419E+00  3.78368E+00  3.20502E+00  4.74837E+00
   2.20347E+00  1.01007E+00  2.56607E+00  1.16890E+01  8.16721E+00 -1.55219E+00  3.79376E+00  1.89148E+00  1.84160E+00  6.96433E-02
  -2.17675E+00 -1.36804E+00  4.59794E+00  1.28658E+00  3.76423E+00  3.98184E+00 -3.04386E+00  5.12888E+00  1.07096E+00  6.23498E+00
   1.13417E+00  4.86514E+00  4.51413E+00  4.50293E-01 -2.76646E+00  1.34732E+00  4.11776E+00  1.78951E+00 -2.89973E+00  4.32116E-01
   9.31412E+00 -1.71068E+00 -3.36118E-01 -2.46167E+00 -3.63983E+00  3.45672E+00  3.25501E+00  8.73706E-02  3.65762E+00  6.96866E-01
  -2.96822E+00  1.34240E+00  1.45421E-01 -4.54788E+00  2.68292E+00  3.65217E+00  2.74942E+00  2.13968E+00
 NY points of the fit to the data follow
  -1.02528E+01 -1.00764E+01 -9.96772E+00 -9.64325E+00 -9.30173E+00 -9.31384E+00 -9.01033E+00 -9.14554E+00 -8.93133E+00 -9.23018E+00
  -9.12583E+00 -9.42558E+00 -9.16035E+00 -9.39741E+00 -9.20550E+00 -9.17281E+00 -9.25040E+00 -9.00165E+00 -9.48676E+00 -9.22245E+00
  -9.57637E+00 -9.25922E+00 -8.64841E+00 -8.53846E+00 -7.78243E+00 -7.44479E+00 -6.70195E+00 -6.63279E+00 -6.57839E+00 -6.89465E+00
  -7.13702E+00 -7.40325E+00 -7.57707E+00 -7.75949E+00 -8.06049E+00 -8.23340E+00 -8.33713E+00 -8.47396E+00 -8.40313E+00 -8.40954E+00
  -8.17391E+00 -8.21756E+00 -8.21782E+00 -8.22580E+00 -8.31697E+00 -8.36015E+00 -8.37187E+00 -8.47810E+00 -8.48388E+00 -8.40275E+00
  -8.19366E+00 -8.17404E+00 -8.20226E+00 -8.20258E+00 -8.16938E+00 -8.18191E+00 -8.12474E+00 -8.08381E+00 -8.07543E+00 -8.09399E+00
  -8.08287E+00 -8.06954E+00 -8.09446E+00 -8.04317E+00 -8.06307E+00 -7.96269E+00 -7.94869E+00 -7.81993E+00 -7.78492E+00 -7.73902E+00
  -7.79354E+00 -7.80519E+00 -7.87997E+00 -7.88154E+00 -7.88857E+00 -7.85078E+00 -7.74033E+00 -7.65650E+00 -7.43905E+00 -7.36254E+00
  -7.21646E+00 -7.16829E+00 -7.07298E+00 -7.08927E+00 -7.08328E+00 -7.16442E+00 -7.49153E+00 -8.57087E+00 -9.18026E+00 -1.07046E+01
  -1.10584E+01 -1.16057E+01 -1.10789E+01 -9.23338E+00 -7.78525E+00 -4.17331E+00 -2.99668E+00 -1.27854E+00 -8.85688E-01 -9.62018E-02
  -1.68237E-01 -3.68358E-01 -8.56915E-01 -1.95338E+00 -2.64457E+00 -3.86064E+00 -4.37426E+00 -5.19890E+00 -5.44085E+00 -5.65180E+00
  -5.74340E+00 -5.85430E+00 -6.01654E+00 -6.26473E+00 -6.67085E+00 -7.46556E+00 -7.74865E+00 -7.56973E+00 -7.30369E+00 -6.27755E+00
  -5.84688E+00 -5.63214E+00 -5.19892E+00 -4.64779E+00 -4.24678E+00 -4.26420E+00 -4.17630E+00 -4.67506E+00 -4.84218E+00 -5.33585E+00
  -5.52849E+00 -5.74521E+00 -5.78994E+00 -5.79233E+00 -5.71250E+00 -5.65734E+00 -5.51828E+00 -5.46489E+00 -5.29378E+00 -5.39454E+00
  -5.31688E+00 -5.34218E+00 -5.36244E+00 -5.38885E+00 -5.50833E+00 -5.71801E+00 -5.84594E+00 -5.87294E+00 -5.76578E+00 -5.70943E+00
  -5.58885E+00 -5.57647E+00 -5.58412E+00 -5.57729E+00 -5.57116E+00 -5.56232E+00 -5.59524E+00 -5.63381E+00 -5.75643E+00 -5.79255E+00
  -5.94685E+00 -5.92665E+00 -6.00279E+00 -5.89630E+00 -5.80793E+00 -5.73893E+00 -5.62531E+00 -5.58120E+00 -5.59075E+00 -5.47963E+00
  -5.61404E+00 -5.55486E+00 -5.74268E+00 -5.73714E+00 -5.91592E+00 -5.99354E+00 -6.01665E+00 -6.08413E+00 -5.98604E+00 -5.94291E+00
  -5.63033E+00 -5.38406E+00 -4.83509E+00 -4.62143E+00 -4.24108E+00 -4.29263E+00 -4.28057E+00 -4.45369E+00 -4.59798E+00 -4.81883E+00
  -5.00827E+00 -4.99833E+00 -4.97510E+00 -4.84972E+00 -4.55000E+00 -4.32827E+00 -3.84170E+00 -3.65427E+00 -3.31415E+00 -3.46893E+00
  -3.97422E+00 -4.41669E+00 -5.41926E+00 -5.78713E+00 -6.19262E+00 -5.85069E+00 -4.83776E+00 -3.62703E+00 -2.01196E+00 -9.45571E-01
  -5.34933E-01 -5.14852E-01 -1.26892E+00 -2.28547E+00 -3.77029E+00 -4.77436E+00 -5.76884E+00 -5.79376E+00 -6.32124E+00 -5.88143E+00
  -5.81642E+00 -5.28170E+00 -4.79318E+00 -4.32273E+00 -3.79966E+00 -3.18441E+00 -2.69754E+00 -2.08444E+00 -2.05532E+00 -1.69796E+00
  -1.93883E+00 -1.88010E+00 -2.28244E+00 -2.46961E+00 -2.74135E+00 -2.72757E+00 -2.49343E+00 -2.45438E+00 -2.08689E+00 -2.73085E+00
  -3.47401E+00 -4.18874E+00 -6.04681E+00 -6.02048E+00 -7.06780E+00 -5.36136E+00 -3.69014E+00 -1.39349E+00  2.60227E+00  3.29281E+00
   5.79920E+00  5.35632E+00  7.49098E+00  6.41695E+00  7.65963E+00  6.03581E+00  5.94088E+00  4.24410E+00  3.33713E+00  2.14545E+00
   1.23950E+00  6.99642E-01  3.12899E-01  1.58693E-01  1.48772E-01  8.09383E-02  6.56630E-02 -4.26052E-01 -1.35917E+00 -1.54017E+00
  -1.88708E+00 -1.69989E+00 -1.47747E+00 -1.56118E+00 -1.91895E+00 -1.80888E+00 -1.59386E+00 -1.56305E+00 -1.55691E+00 -1.61270E+00
  -1.56990E+00 -1.58999E+00 -1.52114E+00 -1.49906E+00 -1.33885E+00 -1.27271E+00 -1.11296E+00 -9.75637E-01 -7.28286E-01 -4.72076E-01
  -9.29255E-02  2.97396E-01  8.21503E-01  1.39340E+00  2.11297E+00  2.89916E+00  3.80936E+00  4.79200E+00  5.88837E+00  7.05763E+00
   8.28466E+00  9.52341E+00  1.07648E+01  1.19554E+01  1.30473E+01  1.40174E+01  1.48233E+01  1.54402E+01  1.58458E+01  1.60101E+01
   1.58742E+01  1.54064E+01  1.48696E+01  1.41270E+01  1.34239E+01  1.28415E+01  1.21422E+01  1.19306E+01  1.12091E+01  1.07350E+01
   9.41535E+00  7.93275E+00  6.18295E+00  4.56122E+00  2.74733E+00  1.38395E+00  2.64567E-01 -5.51058E-01 -4.06459E-01 -9.74171E-01
  -5.35152E-01 -9.66388E-01 -2.11973E-01 -4.61246E-01  4.77588E-01  3.81796E-01  1.22682E+00  1.36424E+00  1.75636E+00  1.65609E+00
   1.41779E+00  1.01149E+00  6.56234E-01  2.18771E-01 -1.67135E-01 -4.48204E-01 -5.71430E-01 -2.32759E-01 -4.26671E-01 -7.69549E-02
  -1.81658E-01  3.76389E-01  5.08361E-01  9.88220E-01  9.51463E-01  1.26731E+00  1.25317E+00  1.34098E+00  1.22991E+00  1.15673E+00
   1.19713E+00  1.27868E+00  1.39491E+00  1.57888E+00  1.64056E+00  1.78033E+00  1.89470E+00  1.92073E+00  1.95482E+00  1.94950E+00
   2.02970E+00  2.16005E+00  2.27948E+00  2.35411E+00  2.49657E+00  2.68877E+00  2.89159E+00  3.11717E+00  3.37139E+00  3.65955E+00
   3.98419E+00  4.34898E+00  4.75500E+00  5.20417E+00  5.69529E+00  6.22752E+00  6.79651E+00  7.39796E+00  8.02387E+00  8.66617E+00
   9.31312E+00  9.95328E+00  1.05722E+01  1.11565E+01  1.16910E+01  1.21626E+01  1.25578E+01  1.28663E+01  1.30787E+01  1.31901E+01
   1.31968E+01  1.31004E+01  1.29035E+01  1.26140E+01  1.22402E+01  1.17946E+01  1.12893E+01  1.07390E+01  1.01568E+01  9.55728E+00
   8.95238E+00  8.35447E+00  7.77250E+00  7.21544E+00  6.68860E+00  6.19732E+00  5.74349E+00  5.32933E+00  4.95397E+00  4.61731E+00
   4.31671E+00  4.05079E+00  3.81603E+00  3.61055E+00  3.43059E+00  3.27426E+00  3.13802E+00  3.02035E+00  2.91814E+00  2.83030E+00
   2.75413E+00  2.68898E+00  2.63258E+00  2.58471E+00  2.54344E+00  2.50880E+00  2.47911E+00  2.45464E+00  2.43394E+00  2.41746E+00
   2.40387E+00  2.39371E+00  2.38575E+00  2.38064E+00  2.37723E+00  2.37626E+00  2.37660E+00  2.37901E+00  2.38241E+00  2.38762E+00
   2.39361E+00  2.40121E+00  2.40938E+00  2.41896E+00  2.42896E+00  2.44024E+00  2.45183E+00  2.46459E+00  2.47754E+00  2.49154E+00
   2.50565E+00  2.52075E+00  2.53590E+00  2.55198E+00  2.56802E+00  2.58491E+00  2.60173E+00  2.61938E+00  2.63693E+00  2.65524E+00
   2.67339E+00  2.69227E+00  2.71097E+00  2.73040E+00  2.74961E+00  2.76950E+00  2.78913E+00  2.80943E+00  2.82947E+00  2.85017E+00
   2.87058E+00  2.89161E+00  2.91233E+00  2.93366E+00  2.95469E+00  2.97632E+00  2.99762E+00  3.01949E+00  3.04101E+00  3.06312E+00
   3.08488E+00  3.10721E+00  3.12917E+00  3.15166E+00  3.17379E+00  3.19646E+00  3.21876E+00  3.24157E+00
 NY background values follow
    -9.792E+00   -9.766E+00   -9.741E+00   -9.715E+00   -9.689E+00   -9.664E+00   -9.638E+00   -9.612E+00   -9.586E+00   -9.561E+00
    -9.535E+00   -9.509E+00   -9.484E+00   -9.458E+00   -9.432E+00   -9.407E+00   -9.381E+00   -9.355E+00   -9.329E+00   -9.304E+00
    -9.278E+00   -9.252E+00   -9.227E+00   -9.201E+00   -9.175E+00   -9.149E+00   -9.124E+00   -9.098E+00   -9.072E+00   -9.047E+00
    -9.021E+00   -8.995E+00   -8.969E+00   -8.944E+00   -8.918E+00   -8.892E+00   -8.866E+00   -8.841E+00   -8.815E+00   -8.789E+00
    -8.764E+00   -8.738E+00   -8.712E+00   -8.686E+00   -8.661E+00   -8.635E+00   -8.609E+00   -8.583E+00   -8.558E+00   -8.532E+00
    -8.506E+00   -8.481E+00   -8.455E+00   -8.429E+00   -8.403E+00   -8.378E+00   -8.352E+00   -8.326E+00   -8.300E+00   -8.275E+00
    -8.249E+00   -8.223E+00   -8.197E+00   -8.172E+00   -8.146E+00   -8.120E+00   -8.094E+00   -8.069E+00   -8.043E+00   -8.017E+00
    -7.991E+00   -7.966E+00   -7.940E+00   -7.914E+00   -7.888E+00   -7.863E+00   -7.837E+00   -7.811E+00   -7.785E+00   -7.760E+00
    -7.734E+00   -7.708E+00   -7.682E+00   -7.657E+00   -7.631E+00   -7.605E+00   -7.579E+00   -7.554E+00   -7.528E+00   -7.502E+00
    -7.476E+00   -7.451E+00   -7.425E+00   -7.399E+00   -7.373E+00   -7.348E+00   -7.322E+00   -7.296E+00   -7.270E+00   -7.245E+00
    -7.219E+00   -7.193E+00   -7.167E+00   -7.142E+00   -7.116E+00   -7.090E+00   -7.064E+00   -7.039E+00   -7.013E+00   -6.987E+00
    -6.961E+00   -6.936E+00   -6.910E+00   -6.884E+00   -6.858E+00   -6.832E+00   -6.807E+00   -6.781E+00   -6.755E+00   -6.729E+00
    -6.704E+00   -6.678E+00   -6.652E+00   -6.626E+00   -6.601E+00   -6.575E+00   -6.549E+00   -6.523E+00   -6.497E+00   -6.472E+00
    -6.446E+00   -6.420E+00   -6.394E+00   -6.369E+00   -6.343E+00   -6.317E+00   -6.291E+00   -6.266E+00   -6.240E+00   -6.214E+00
    -6.188E+00   -6.162E+00   -6.137E+00   -6.111E+00   -6.085E+00   -6.059E+00   -6.034E+00   -6.008E+00   -5.982E+00   -5.956E+00
    -5.930E+00   -5.905E+00   -5.879E+00   -5.853E+00   -5.827E+00   -5.802E+00   -5.776E+00   -5.750E+00   -5.724E+00   -5.698E+00
    -5.673E+00   -5.647E+00   -5.621E+00   -5.595E+00   -5.570E+00   -5.544E+00   -5.518E+00   -5.492E+00   -5.466E+00   -5.441E+00
    -5.415E+00   -5.389E+00   -5.363E+00   -5.338E+00   -5.312E+00   -5.286E+00   -5.260E+00   -5.234E+00   -5.209E+00   -5.183E+00
    -5.157E+00   -5.131E+00   -5.105E+00   -5.080E+00   -5.054E+00   -5.028E+00   -5.002E+00   -4.977E+00   -4.951E+00   -4.925E+00
    -4.899E+00   -4.873E+00   -4.848E+00   -4.822E+00   -4.796E+00   -4.770E+00   -4.745E+00   -4.719E+00   -4.693E+00   -4.667E+00
    -4.641E+00   -4.616E+00   -4.590E+00   -4.564E+00   -4.538E+00   -4.512E+00   -4.487E+00   -4.461E+00   -4.435E+00   -4.409E+00
    -4.383E+00   -4.358E+00   -4.332E+00   -4.306E+00   -4.280E+00   -4.255E+00   -4.229E+00   -4.203E+00   -4.177E+00   -4.151E+00
    -4.126E+00   -4.100E+00   -4.074E+00   -4.048E+00   -4.022E+00   -3.997E+00   -3.971E+00   -3.945E+00   -3.919E+00   -3.894E+00
    -3.868E+00   -3.842E+00   -3.816E+00   -3.790E+00   -3.765E+00   -3.739E+00   -3.713E+00   -3.687E+00   -3.661E+00   -3.636E+00
    -3.610E+00   -3.584E+00   -3.558E+00   -3.532E+00   -3.507E+00   -3.481E+00   -3.455E+00   -3.429E+00   -3.404E+00   -3.378E+00
    -3.352E+00   -3.326E+00   -3.300E+00   -3.275E+00   -3.249E+00   -3.223E+00   -3.197E+00   -3.171E+00   -3.146E+00   -3.120E+00
    -3.094E+00   -3.068E+00   -3.042E+00   -3.017E+00   -2.991E+00   -2.965E+00   -2.939E+00   -2.913E+00   -2.888E+00   -2.862E+00
    -2.836E+00   -2.810E+00   -2.785E+00   -2.759E+00   -2.733E+00   -2.707E+00   -2.681E+00   -2.656E+00   -2.630E+00   -2.604E+00
    -2.578E+00   -2.552E+00   -2.527E+00   -2.501E+00   -2.475E+00   -2.449E+00   -2.423E+00   -2.398E+00   -2.372E+00   -2.346E+00
    -2.320E+00   -2.295E+00   -2.269E+00   -2.243E+00   -2.217E+00   -2.191E+00   -2.166E+00   -2.140E+00   -2.114E+00   -2.088E+00
    -2.062E+00   -2.037E+00   -2.011E+00   -1.985E+00   -1.959E+00   -1.933E+00   -1.908E+00   -1.882E+00   -1.856E+00   -1.830E+00
    -1.805E+00   -1.779E+00   -1.753E+00   -1.727E+00   -1.701E+00   -1.676E+00   -1.650E+00   -1.624E+00   -1.598E+00   -1.572E+00
    -1.547E+00   -1.521E+00   -1.495E+00   -1.469E+00   -1.444E+00   -1.418E+00   -1.392E+00   -1.366E+00   -1.340E+00   -1.315E+00
    -1.289E+00   -1.263E+00   -1.237E+00   -1.211E+00   -1.186E+00   -1.160E+00   -1.134E+00   -1.108E+00   -1.083E+00   -1.057E+00
    -1.031E+00   -1.005E+00   -9.794E-01   -9.536E-01   -9.278E-01   -9.020E-01   -8.762E-01   -8.505E-01   -8.247E-01   -7.989E-01
    -7.731E-01   -7.473E-01   -7.215E-01   -6.958E-01   -6.700E-01   -6.442E-01   -6.184E-01   -5.926E-01   -5.669E-01   -5.411E-01
    -5.153E-01   -4.895E-01   -4.637E-01   -4.380E-01   -4.122E-01   -3.864E-01   -3.606E-01   -3.348E-01   -3.091E-01   -2.833E-01
    -2.575E-01   -2.317E-01   -2.059E-01   -1.802E-01   -1.544E-01   -1.286E-01   -1.028E-01   -7.706E-02   -5.129E-02   -2.551E-02
     2.653E-04    2.604E-02    5.182E-02    7.759E-02    1.034E-01    1.291E-01    1.549E-01    1.807E-01    2.065E-01    2.322E-01
     2.580E-01    2.838E-01    3.096E-01    3.353E-01    3.611E-01    3.869E-01    4.126E-01    4.384E-01    4.642E-01    4.899E-01
     5.157E-01    5.415E-01    5.673E-01    5.930E-01    6.188E-01    6.446E-01    6.703E-01    6.961E-01    7.219E-01    7.476E-01
     7.734E-01    7.992E-01    8.249E-01    8.507E-01    8.765E-01    9.022E-01    9.280E-01    9.538E-01    9.795E-01    1.005E+00
     1.031E+00    1.057E+00    1.083E+00    1.108E+00    1.134E+00    1.160E+00    1.186E+00    1.211E+00    1.237E+00    1.263E+00
     1.289E+00    1.314E+00    1.340E+00    1.366E+00    1.392E+00    1.417E+00    1.443E+00    1.469E+00    1.495E+00    1.520E+00
     1.546E+00    1.572E+00    1.598E+00    1.623E+00    1.649E+00    1.675E+00    1.701E+00    1.726E+00    1.752E+00    1.778E+00
     1.804E+00    1.829E+00    1.855E+00    1.881E+00    1.907E+00    1.932E+00    1.958E+00    1.984E+00    2.010E+00    2.035E+00
     2.061E+00    2.087E+00    2.113E+00    2.138E+00    2.164E+00    2.190E+00    2.216E+00    2.241E+00    2.267E+00    2.293E+00
     2.319E+00    2.344E+00    2.370E+00    2.396E+00    2.422E+00    2.447E+00    2.473E+00    2.499E+00    2.525E+00    2.550E+00
     2.576E+00    2.602E+00    2.628E+00    2.653E+00    2.679E+00    2.705E+00    2.730E+00    2.756E+00    2.782E+00    2.808E+00
     2.833E+00    2.859E+00    2.885E+00    2.911E+00    2.936E+00    2.962E+00    2.988E+00    3.013E+00
 Ala      Conc. = 9.95E+01
