 LCModel (Version 6.3-1L) Copyright: S.W. Provencher.          Ref.: Magn. Reson. Med. 30:672-679 (1993).                
 Slice#1 Row#10 Col#12  PD_24_press_2_raw_act
 36 lines in following concentration table = NCONC+1
    Conc.  %SD /Cr+PCr  Metabolite                                         
  209.246  15%  10.166 Ala                                                 
  131.123  17%   6.370 Asp                                                 
   20.584  18%   1.000 Cr                                                  
    0.000 999%   0.000 PCr                                                 
    0.000 999%   0.000 GABA                                                
    9.388 235%   0.456 Glc                                                 
  216.953  15%  10.540 Gln                                                 
    0.000 999%   0.000 Glu                                                 
    0.000 999%   0.000 GPC                                                 
    0.000 999%   0.000 PCh                                                 
 1.29E-03 999% 6.3E-05 GSH                                                 
  240.124  12%  11.666 Ins                                                 
    0.000 999%   0.000 Lac                                                 
   86.051   8%   4.181 NAA                                                 
    0.000 999%   0.000 NAAG                                                
   30.324   8%   1.473 Scyllo                                              
  399.155   9%  19.392 Tau                                                 
    0.000 999%   0.000 -CrCH2                                              
    0.000 999%   0.000 GPC+PCh                                             
   86.051   8%   4.181 NAA+NAAG                                            
   20.584  18%   1.000 Cr+PCr                                              
  216.953  15%  10.540 Glu+Gln                                             
 1.51E+05   5% 7.3E+03 Lip13a                                              
  485.865  34%  23.604 Lip13b                                              
 4.60E+04   8% 2.2E+03 Lip09                                               
    0.000 999%   0.000 MM09                                                
 1.69E+04  10% 821.260 Lip20                                               
 2.76E+04   4% 1.3E+03 MM20                                                
    0.000 999%   0.000 MM12                                                
 3.63E+04   9% 1.8E+03 MM14                                                
 2.41E+04  10% 1.2E+03 MM17                                                
 1.52E+05   5% 7.4E+03 Lip13a+Lip13b                                       
 1.88E+05   4% 9.1E+03 MM14+Lip13a+Lip13b+MM12                             
 4.60E+04   8% 2.2E+03 MM09+Lip09                                          
 4.45E+04   4% 2.2E+03 MM20+Lip20                                          
   6 lines in following misc. output table
  FWHM = 0.107 ppm    S/N =  57                                            
  Data shift = 0.298 ppm                                                   
  Ph: 126 deg      80.4 deg/ppm                                            
  alphaB,S = 3.6E-01,   3.3E+00                                            
    7 spline knots.   Ns = 9(2)                                            
   2 inflections.     2 extrema                                            
  498 points on ppm-axis = NY
      4.000000     3.992357     3.984714     3.977070     3.969427     3.961784     3.954141     3.946497     3.938854     3.931211
      3.923568     3.915925     3.908281     3.900638     3.892995     3.885352     3.877708     3.870065     3.862422     3.854779
      3.847136     3.839492     3.831849     3.824206     3.816563     3.808919     3.801276     3.793633     3.785990     3.778347
      3.770703     3.763060     3.755417     3.747774     3.740130     3.732487     3.724844     3.717201     3.709558     3.701914
      3.694271     3.686628     3.678985     3.671341     3.663698     3.656055     3.648412     3.640769     3.633125     3.625482
      3.617839     3.610196     3.602552     3.594909     3.587266     3.579623     3.571980     3.564336     3.556693     3.549050
      3.541407     3.533763     3.526120     3.518477     3.510834     3.503191     3.495547     3.487904     3.480261     3.472618
      3.464974     3.457331     3.449688     3.442045     3.434402     3.426758     3.419115     3.411472     3.403829     3.396185
      3.388542     3.380899     3.373256     3.365613     3.357969     3.350326     3.342683     3.335040     3.327396     3.319753
      3.312110     3.304467     3.296824     3.289180     3.281537     3.273894     3.266251     3.258607     3.250964     3.243321
      3.235678     3.228034     3.220391     3.212748     3.205105     3.197462     3.189818     3.182175     3.174532     3.166889
      3.159245     3.151602     3.143959     3.136316     3.128673     3.121029     3.113386     3.105743     3.098100     3.090456
      3.082813     3.075170     3.067527     3.059884     3.052240     3.044597     3.036954     3.029311     3.021667     3.014024
      3.006381     2.998738     2.991095     2.983451     2.975808     2.968165     2.960522     2.952878     2.945235     2.937592
      2.929949     2.922306     2.914662     2.907019     2.899376     2.891733     2.884089     2.876446     2.868803     2.861160
      2.853517     2.845873     2.838230     2.830587     2.822944     2.815300     2.807657     2.800014     2.792371     2.784728
      2.777084     2.769441     2.761798     2.754155     2.746511     2.738868     2.731225     2.723582     2.715939     2.708295
      2.700652     2.693009     2.685366     2.677722     2.670079     2.662436     2.654793     2.647150     2.639506     2.631863
      2.624220     2.616577     2.608933     2.601290     2.593647     2.586004     2.578361     2.570717     2.563074     2.555431
      2.547788     2.540144     2.532501     2.524858     2.517215     2.509572     2.501928     2.494285     2.486642     2.478999
      2.471355     2.463712     2.456069     2.448426     2.440783     2.433139     2.425496     2.417853     2.410210     2.402566
      2.394923     2.387280     2.379637     2.371994     2.364350     2.356707     2.349064     2.341421     2.333777     2.326134
      2.318491     2.310848     2.303205     2.295561     2.287918     2.280275     2.272632     2.264988     2.257345     2.249702
      2.242059     2.234416     2.226772     2.219129     2.211486     2.203843     2.196199     2.188556     2.180913     2.173270
      2.165627     2.157983     2.150340     2.142697     2.135054     2.127410     2.119767     2.112124     2.104481     2.096838
      2.089194     2.081551     2.073908     2.066265     2.058621     2.050978     2.043335     2.035692     2.028049     2.020405
      2.012762     2.005119     1.997476     1.989833     1.982190     1.974546     1.966903     1.959260     1.951617     1.943974
      1.936331     1.928688     1.921045     1.913402     1.905759     1.898115     1.890472     1.882829     1.875186     1.867543
      1.859900     1.852257     1.844614     1.836971     1.829327     1.821684     1.814041     1.806398     1.798755     1.791112
      1.783469     1.775826     1.768183     1.760540     1.752896     1.745253     1.737610     1.729967     1.722324     1.714681
      1.707038     1.699395     1.691752     1.684108     1.676465     1.668822     1.661179     1.653536     1.645893     1.638250
      1.630607     1.622964     1.615321     1.607677     1.600034     1.592391     1.584748     1.577105     1.569462     1.561819
      1.554176     1.546533     1.538890     1.531246     1.523603     1.515960     1.508317     1.500674     1.493031     1.485388
      1.477745     1.470102     1.462458     1.454815     1.447172     1.439529     1.431886     1.424243     1.416600     1.408957
      1.401314     1.393671     1.386027     1.378384     1.370741     1.363098     1.355455     1.347812     1.340169     1.332526
      1.324883     1.317240     1.309596     1.301953     1.294310     1.286667     1.279024     1.271381     1.263738     1.256095
      1.248452     1.240808     1.233165     1.225522     1.217879     1.210236     1.202593     1.194950     1.187307     1.179664
      1.172021     1.164377     1.156734     1.149091     1.141448     1.133805     1.126162     1.118519     1.110876     1.103233
      1.095590     1.087946     1.080303     1.072660     1.065017     1.057374     1.049731     1.042088     1.034445     1.026802
      1.019158     1.011515     1.003872     0.996229     0.988586     0.980943     0.973300     0.965657     0.958014     0.950371
      0.942727     0.935084     0.927441     0.919798     0.912155     0.904512     0.896869     0.889226     0.881583     0.873940
      0.866296     0.858653     0.851010     0.843367     0.835724     0.828081     0.820438     0.812795     0.805152     0.797508
      0.789865     0.782222     0.774579     0.766936     0.759293     0.751650     0.744007     0.736364     0.728721     0.721077
      0.713434     0.705791     0.698148     0.690505     0.682862     0.675219     0.667576     0.659933     0.652290     0.644646
      0.637003     0.629360     0.621717     0.614074     0.606431     0.598788     0.591145     0.583502     0.575858     0.568215
      0.560572     0.552929     0.545286     0.537643     0.530000     0.522357     0.514714     0.507071     0.499427     0.491784
      0.484141     0.476498     0.468855     0.461212     0.453569     0.445925     0.438282     0.430639     0.422996     0.415353
      0.407710     0.400067     0.392424     0.384780     0.377137     0.369494     0.361851     0.354208     0.346565     0.338922
      0.331278     0.323635     0.315992     0.308349     0.300706     0.293063     0.285420     0.277777     0.270133     0.262490
      0.254847     0.247204     0.239561     0.231918     0.224275     0.216631     0.208988     0.201345
 NY phased data points follow
   2.37285E+00  1.47435E+00  2.49248E-01 -2.17788E+00 -3.24893E-01  2.33087E+00  4.72273E-01  9.63598E-01  1.26841E+00  1.72633E+00
   2.44620E+00  2.23714E+00  2.51694E+00  3.24577E-01  8.73395E-01 -1.36462E+00  1.14998E+00  2.57040E+00 -3.99410E-01  2.80628E+00
   2.70578E+00  1.67506E+00  2.12409E+00  2.08928E+00  1.61229E+00  4.21138E+00 -2.03248E-02  2.98403E+00  2.07467E+00  1.88247E+00
   3.37434E+00  8.66512E-01  3.95494E+00  4.45755E+00  1.70750E+00  3.02272E+00  5.73273E+00  3.94275E+00  3.42695E+00  5.23384E+00
   4.49512E+00  3.18181E+00  3.79757E+00  4.61415E+00  4.22405E+00  3.85679E+00  5.57752E+00  3.78534E+00  5.80144E+00  3.66599E+00
   6.98484E+00  7.15053E+00  4.91091E+00  6.27576E+00  7.50003E+00  5.28325E+00  5.65527E+00  7.76780E+00  7.05146E+00  7.51245E+00
   6.03958E+00  7.42180E+00  5.47346E+00  5.73899E+00  7.49810E+00  5.85448E+00  6.18144E+00  9.21611E+00  8.04989E+00  7.88111E+00
   9.13991E+00  7.71088E+00  7.07090E+00  9.49749E+00  1.05852E+01  1.03580E+01  9.14271E+00  9.61922E+00  9.30869E+00  1.25944E+01
   1.02968E+01  7.76640E+00  9.75082E+00  9.36412E+00  8.57419E+00  8.92835E+00  8.23201E+00  9.77728E+00  8.41517E+00  8.60030E+00
   1.04513E+01  1.33227E+01  1.18479E+01  1.22189E+01  1.24932E+01  1.04687E+01  1.30863E+01  1.38190E+01  1.09637E+01  1.30679E+01
   1.09651E+01  1.43243E+01  1.14511E+01  1.27752E+01  1.27194E+01  1.48273E+01  1.33421E+01  1.41888E+01  1.34589E+01  1.42662E+01
   1.25127E+01  1.26803E+01  1.74950E+01  1.49186E+01  1.47445E+01  1.52155E+01  1.72991E+01  1.60169E+01  1.52419E+01  1.83165E+01
   1.73262E+01  1.91295E+01  1.84004E+01  1.81760E+01  2.07877E+01  1.88069E+01  1.66014E+01  1.93816E+01  1.96289E+01  2.03247E+01
   2.14568E+01  2.13188E+01  2.14849E+01  1.94955E+01  1.98249E+01  2.14202E+01  2.25078E+01  2.18973E+01  2.33829E+01  2.20468E+01
   2.34949E+01  2.44747E+01  2.53982E+01  2.42637E+01  2.74201E+01  2.81963E+01  2.66410E+01  2.66737E+01  2.79768E+01  2.55352E+01
   2.73839E+01  2.81309E+01  3.11541E+01  2.83937E+01  3.30001E+01  2.95826E+01  3.04516E+01  3.24444E+01  3.15641E+01  3.24529E+01
   3.30763E+01  3.32945E+01  3.63648E+01  3.32862E+01  3.55148E+01  3.68355E+01  3.54721E+01  3.73404E+01  3.59425E+01  3.66114E+01
   3.64472E+01  3.71108E+01  3.66549E+01  3.70240E+01  3.89568E+01  3.84225E+01  4.02114E+01  4.14593E+01  4.00432E+01  4.16400E+01
   4.25549E+01  4.20041E+01  4.33962E+01  4.35237E+01  4.55266E+01  4.48762E+01  4.72780E+01  4.67663E+01  4.76521E+01  4.81443E+01
   4.80137E+01  4.95624E+01  5.10510E+01  5.08341E+01  5.26496E+01  5.18418E+01  5.28262E+01  5.54832E+01  5.50107E+01  5.59835E+01
   5.74184E+01  5.94644E+01  6.09659E+01  6.22108E+01  6.39588E+01  6.47983E+01  6.51999E+01  6.42919E+01  6.78552E+01  6.84454E+01
   7.12384E+01  7.11073E+01  7.16278E+01  7.36640E+01  7.53025E+01  7.63613E+01  7.85564E+01  8.17728E+01  8.66927E+01  8.77227E+01
   8.93842E+01  9.13281E+01  9.45431E+01  9.73449E+01  1.02104E+02  1.05159E+02  1.07826E+02  1.09704E+02  1.09540E+02  1.18179E+02
   1.19233E+02  1.24415E+02  1.31188E+02  1.34624E+02  1.37803E+02  1.43051E+02  1.51079E+02  1.56017E+02  1.62656E+02  1.67995E+02
   1.74396E+02  1.80854E+02  1.85180E+02  1.88386E+02  1.85901E+02  1.87269E+02  1.86826E+02  1.85288E+02  1.78286E+02  1.71675E+02
   1.65389E+02  1.59766E+02  1.50761E+02  1.41958E+02  1.34280E+02  1.27311E+02  1.22447E+02  1.16745E+02  1.09910E+02  1.03462E+02
   9.95563E+01  9.32814E+01  8.58688E+01  7.73530E+01  7.39328E+01  6.51454E+01  5.64771E+01  4.98031E+01  4.17638E+01  3.30615E+01
   2.45093E+01  1.54298E+01  4.90958E+00 -4.97217E+00 -1.43884E+01 -2.45337E+01 -3.87656E+01 -4.91187E+01 -5.73300E+01 -6.63358E+01
  -7.48977E+01 -8.42876E+01 -8.94298E+01 -9.78818E+01 -1.04748E+02 -1.10011E+02 -1.17127E+02 -1.25663E+02 -1.26873E+02 -1.29807E+02
  -1.33675E+02 -1.35462E+02 -1.35814E+02 -1.38562E+02 -1.39298E+02 -1.40422E+02 -1.36978E+02 -1.36591E+02 -1.33646E+02 -1.31329E+02
  -1.29630E+02 -1.26440E+02 -1.27117E+02 -1.24299E+02 -1.21398E+02 -1.14719E+02 -1.15737E+02 -1.11868E+02 -1.09079E+02 -1.05038E+02
  -1.05724E+02 -1.04363E+02 -9.85351E+01 -9.48339E+01 -9.50457E+01 -9.54940E+01 -9.23110E+01 -8.87813E+01 -8.71081E+01 -8.56264E+01
  -8.55112E+01 -8.17807E+01 -8.31550E+01 -7.72453E+01 -7.69973E+01 -7.69429E+01 -7.50608E+01 -7.40052E+01 -7.36084E+01 -7.12029E+01
  -7.03693E+01 -7.01062E+01 -6.78909E+01 -7.01887E+01 -6.50327E+01 -6.39674E+01 -6.38641E+01 -6.29136E+01 -6.38806E+01 -6.19300E+01
  -6.19967E+01 -6.28727E+01 -5.80082E+01 -5.79989E+01 -5.61669E+01 -5.69620E+01 -5.49493E+01 -5.92696E+01 -5.46369E+01 -5.54708E+01
  -5.35773E+01 -5.30679E+01 -5.24058E+01 -5.10082E+01 -5.19968E+01 -5.28307E+01 -4.88810E+01 -4.87589E+01 -4.95661E+01 -4.77220E+01
  -4.64405E+01 -4.54762E+01 -4.85175E+01 -4.70563E+01 -4.59003E+01 -4.33626E+01 -4.20903E+01 -4.01927E+01 -4.29587E+01 -4.24621E+01
  -4.17111E+01 -4.02311E+01 -4.11026E+01 -4.22808E+01 -4.00282E+01 -3.93135E+01 -3.74347E+01 -3.88281E+01 -3.69065E+01 -3.68110E+01
  -3.67029E+01 -3.74242E+01 -3.60589E+01 -3.77459E+01 -3.69975E+01 -3.48365E+01 -3.57497E+01 -3.53465E+01 -3.73378E+01 -3.35969E+01
  -3.46247E+01 -3.42790E+01 -3.40946E+01 -3.29377E+01 -3.19714E+01 -3.27496E+01 -3.11418E+01 -3.37385E+01 -2.86695E+01 -3.01718E+01
  -3.07674E+01 -2.85996E+01 -3.16707E+01 -2.87220E+01 -2.75079E+01 -2.86701E+01 -2.86053E+01 -2.84333E+01 -2.76193E+01 -2.69031E+01
  -2.67349E+01 -2.89873E+01 -2.51428E+01 -2.85614E+01 -2.75512E+01 -2.51242E+01 -2.66992E+01 -2.53796E+01 -2.69318E+01 -2.62761E+01
  -2.32140E+01 -2.31693E+01 -2.45375E+01 -2.50451E+01 -2.42933E+01 -2.37258E+01 -2.38544E+01 -2.39102E+01 -2.35955E+01 -2.52447E+01
  -2.05441E+01 -2.15244E+01 -1.84263E+01 -2.08001E+01 -2.10241E+01 -2.13214E+01 -1.91377E+01 -1.85182E+01 -2.14859E+01 -1.79499E+01
  -1.89555E+01 -1.81387E+01 -1.90799E+01 -1.82818E+01 -1.67909E+01 -1.67647E+01 -1.77293E+01 -1.78778E+01 -1.74404E+01 -1.61596E+01
  -1.63915E+01 -1.60812E+01 -1.62895E+01 -1.52745E+01 -1.32560E+01 -1.46295E+01 -1.60874E+01 -1.32439E+01 -1.38615E+01 -1.33667E+01
  -1.37722E+01 -1.41429E+01 -1.18705E+01 -1.59939E+01 -1.29064E+01 -1.21502E+01 -8.85972E+00 -1.23565E+01 -1.07075E+01 -1.01887E+01
  -9.93211E+00 -9.86504E+00 -1.02108E+01 -1.15872E+01 -9.41473E+00 -8.83338E+00 -1.14158E+01 -1.06857E+01 -1.00018E+01 -8.33716E+00
  -7.79417E+00 -8.16810E+00 -8.83548E+00 -6.74984E+00 -7.66065E+00 -7.24535E+00 -7.85484E+00 -7.27863E+00 -8.35326E+00 -5.40414E+00
  -7.98293E+00 -7.61213E+00 -7.62239E+00 -6.74679E+00 -6.45270E+00 -7.11178E+00 -5.60969E+00 -5.22194E+00
 NY points of the fit to the data follow
   2.81473E+00  3.29986E+00  2.70255E+00  2.24298E+00  1.28132E+00  5.57370E-01 -3.96842E-01 -7.24020E-01  7.43891E-03 -5.40766E-01
   6.65843E-01 -5.01875E-01  1.19047E+00 -5.28709E-01  6.87909E-01 -5.90884E-01  1.72188E+00  5.96486E-01  2.70704E+00  1.92461E+00
   2.74750E+00  1.74281E+00  2.49545E+00  2.26554E+00  2.45023E+00  2.87263E+00  2.66343E+00  3.89410E+00  3.69781E+00  4.59451E+00
   2.64576E+00  2.54235E+00  9.73135E-01  2.37371E+00  1.65566E+00  2.86391E+00  2.33386E+00  3.55128E+00  3.59273E+00  4.78564E+00
   5.19113E+00  5.99137E+00  6.17194E+00  6.64980E+00  6.51617E+00  6.65559E+00  6.68234E+00  7.27676E+00  6.69949E+00  6.99539E+00
   7.07626E+00  6.42118E+00  5.99769E+00  5.67468E+00  5.54175E+00  2.94009E+00  4.41448E+00  2.97121E+00  5.28612E+00  3.92725E+00
   6.77366E+00  4.16628E+00  6.17670E+00  4.48192E+00  6.91476E+00  6.70228E+00  8.72261E+00  9.02938E+00  8.18354E+00  7.14485E+00
   7.29808E+00  7.62080E+00  7.45565E+00  8.99624E+00  8.53139E+00  9.18655E+00  9.02790E+00  9.16471E+00  7.13349E+00  8.25248E+00
   8.13021E+00  8.72115E+00  9.01768E+00  1.01345E+01  9.49040E+00  1.03219E+01  1.05120E+01  9.74894E+00  1.02104E+01  1.01292E+01
   1.07834E+01  1.11521E+01  1.15501E+01  1.07176E+01  1.06891E+01  1.12018E+01  1.09098E+01  1.11500E+01  1.02189E+01  1.05173E+01
   9.46167E+00  1.06305E+01  1.04143E+01  1.24618E+01  1.16967E+01  1.39507E+01  1.26744E+01  1.42511E+01  1.35267E+01  1.57727E+01
   1.37664E+01  1.64600E+01  1.55938E+01  1.74035E+01  1.63164E+01  1.73151E+01  1.56344E+01  1.65288E+01  1.70861E+01  1.79233E+01
   1.84993E+01  1.94361E+01  2.01059E+01  2.04045E+01  2.16688E+01  2.15969E+01  2.24128E+01  2.22498E+01  2.29450E+01  2.28705E+01
   2.34187E+01  2.31839E+01  2.35236E+01  2.31597E+01  2.31558E+01  2.28304E+01  2.24996E+01  2.23263E+01  2.18543E+01  2.19852E+01
   2.16640E+01  2.22378E+01  2.21635E+01  2.29398E+01  2.34593E+01  2.43852E+01  2.53032E+01  2.61412E+01  2.69451E+01  2.76145E+01
   2.91644E+01  2.96227E+01  3.11642E+01  3.12251E+01  3.25187E+01  3.22765E+01  3.33171E+01  3.28928E+01  3.37225E+01  3.34166E+01
   3.39114E+01  3.38728E+01  3.43271E+01  3.45011E+01  3.47215E+01  3.50487E+01  3.47543E+01  3.53822E+01  3.52459E+01  3.60702E+01
   3.60151E+01  3.68022E+01  3.67441E+01  3.75787E+01  3.78979E+01  3.88783E+01  3.93055E+01  4.01786E+01  4.09825E+01  4.19832E+01
   4.27753E+01  4.37215E+01  4.42962E+01  4.48042E+01  4.47691E+01  4.51834E+01  4.47915E+01  4.47356E+01  4.44978E+01  4.47908E+01
   4.49847E+01  4.62045E+01  4.79970E+01  4.85797E+01  4.98628E+01  5.06238E+01  5.25748E+01  5.35323E+01  5.59304E+01  5.67161E+01
   5.88930E+01  5.97422E+01  6.16667E+01  6.22862E+01  6.34524E+01  6.41895E+01  6.52328E+01  6.64658E+01  6.73858E+01  6.89343E+01
   6.96867E+01  7.16718E+01  7.25527E+01  7.47288E+01  7.54686E+01  7.77670E+01  7.89593E+01  8.20645E+01  8.48561E+01  8.78618E+01
   9.07516E+01  9.33002E+01  9.59442E+01  9.80098E+01  1.01439E+02  1.03994E+02  1.06931E+02  1.10129E+02  1.13292E+02  1.17146E+02
   1.20727E+02  1.25344E+02  1.28275E+02  1.33879E+02  1.37851E+02  1.44650E+02  1.49425E+02  1.56914E+02  1.62355E+02  1.69552E+02
   1.74593E+02  1.80690E+02  1.83829E+02  1.84423E+02  1.85894E+02  1.85042E+02  1.84892E+02  1.81180E+02  1.78679E+02  1.71534E+02
   1.67097E+02  1.58495E+02  1.52576E+02  1.43493E+02  1.36899E+02  1.28830E+02  1.22644E+02  1.16027E+02  1.09443E+02  1.03555E+02
   9.69065E+01  9.13377E+01  8.44619E+01  7.89207E+01  7.16493E+01  6.57205E+01  5.79448E+01  5.09224E+01  4.21931E+01  3.34970E+01
   2.39690E+01  1.39218E+01  3.91783E+00 -6.64281E+00 -1.66971E+01 -2.78440E+01 -3.75011E+01 -4.74915E+01 -5.63368E+01 -6.53702E+01
  -7.36237E+01 -8.29180E+01 -9.03323E+01 -9.68707E+01 -1.02914E+02 -1.08546E+02 -1.13774E+02 -1.18604E+02 -1.23021E+02 -1.27006E+02
  -1.30529E+02 -1.33558E+02 -1.36056E+02 -1.37986E+02 -1.39314E+02 -1.40007E+02 -1.40048E+02 -1.39424E+02 -1.38143E+02 -1.36221E+02
  -1.33710E+02 -1.30667E+02 -1.27187E+02 -1.23377E+02 -1.19381E+02 -1.15359E+02 -1.11531E+02 -1.08228E+02 -1.06204E+02 -1.06047E+02
  -1.03279E+02 -1.02034E+02 -9.92646E+01 -9.83265E+01 -9.56724E+01 -9.44695E+01 -9.01261E+01 -8.99889E+01 -8.81675E+01 -8.73457E+01
  -8.56137E+01 -8.32524E+01 -8.17009E+01 -7.87828E+01 -7.87762E+01 -7.54860E+01 -7.63959E+01 -7.28368E+01 -7.45567E+01 -7.09808E+01
  -7.23255E+01 -6.81401E+01 -6.88887E+01 -6.54101E+01 -6.58373E+01 -6.37312E+01 -6.34341E+01 -6.28416E+01 -6.23097E+01 -6.25677E+01
  -6.11042E+01 -6.21523E+01 -5.93135E+01 -6.01349E+01 -5.70590E+01 -5.83284E+01 -5.58709E+01 -5.79266E+01 -5.49028E+01 -5.53083E+01
  -5.34334E+01 -5.37624E+01 -5.21334E+01 -5.18029E+01 -4.99330E+01 -5.00786E+01 -5.01412E+01 -4.97477E+01 -4.91411E+01 -4.84638E+01
  -4.77870E+01 -4.71362E+01 -4.65072E+01 -4.58809E+01 -4.52347E+01 -4.45515E+01 -4.38251E+01 -4.30605E+01 -4.22726E+01 -4.14822E+01
  -4.07123E+01 -3.99843E+01 -3.93156E+01 -3.87185E+01 -3.82002E+01 -3.77643E+01 -3.74099E+01 -3.71324E+01 -3.69242E+01 -3.67753E+01
  -3.66747E+01 -3.66104E+01 -3.65702E+01 -3.65420E+01 -3.65140E+01 -3.64758E+01 -3.64175E+01 -3.63308E+01 -3.62087E+01 -3.60457E+01
  -3.58379E+01 -3.55827E+01 -3.52791E+01 -3.49278E+01 -3.45302E+01 -3.40893E+01 -3.36090E+01 -3.30939E+01 -3.25495E+01 -3.19816E+01
  -3.13965E+01 -3.08004E+01 -3.01998E+01 -2.96007E+01 -2.90090E+01 -2.84302E+01 -2.78694E+01 -2.73307E+01 -2.68179E+01 -2.63342E+01
  -2.58817E+01 -2.54622E+01 -2.50765E+01 -2.47249E+01 -2.44072E+01 -2.41224E+01 -2.38692E+01 -2.36456E+01 -2.34494E+01 -2.32782E+01
  -2.31291E+01 -2.29992E+01 -2.28857E+01 -2.27852E+01 -2.26948E+01 -2.26114E+01 -2.25323E+01 -2.24546E+01 -2.23757E+01 -2.22932E+01
  -2.22050E+01 -2.21090E+01 -2.20035E+01 -2.18870E+01 -2.17581E+01 -2.16160E+01 -2.14596E+01 -2.12885E+01 -2.11021E+01 -2.09002E+01
  -2.06827E+01 -2.04498E+01 -2.02018E+01 -1.99389E+01 -1.96618E+01 -1.93709E+01 -1.90670E+01 -1.87510E+01 -1.84236E+01 -1.80859E+01
  -1.77386E+01 -1.73830E+01 -1.70198E+01 -1.66503E+01 -1.62755E+01 -1.58964E+01 -1.55142E+01 -1.51298E+01 -1.47444E+01 -1.43590E+01
  -1.39746E+01 -1.35921E+01 -1.32126E+01 -1.28369E+01 -1.24660E+01 -1.21007E+01 -1.17419E+01 -1.13902E+01 -1.10465E+01 -1.07115E+01
  -1.03857E+01 -1.00699E+01 -9.76450E+00 -9.47005E+00 -9.18700E+00 -8.91577E+00 -8.65675E+00 -8.41015E+00 -8.17630E+00 -7.95531E+00
  -7.74740E+00 -7.55260E+00 -7.37092E+00 -7.20230E+00 -7.04664E+00 -6.90377E+00 -6.77339E+00 -6.65519E+00 -6.54868E+00 -6.45332E+00
  -6.36844E+00 -6.29327E+00 -6.22678E+00 -6.16779E+00 -6.11477E+00 -6.06585E+00 -6.01860E+00 -5.96979E+00
 NY background values follow
    -7.491E+01   -7.407E+01   -7.325E+01   -7.245E+01   -7.167E+01   -7.090E+01   -7.015E+01   -6.943E+01   -6.872E+01   -6.803E+01
    -6.736E+01   -6.671E+01   -6.609E+01   -6.548E+01   -6.489E+01   -6.432E+01   -6.378E+01   -6.326E+01   -6.275E+01   -6.227E+01
    -6.181E+01   -6.137E+01   -6.095E+01   -6.055E+01   -6.018E+01   -5.982E+01   -5.949E+01   -5.918E+01   -5.889E+01   -5.862E+01
    -5.837E+01   -5.814E+01   -5.794E+01   -5.775E+01   -5.758E+01   -5.744E+01   -5.731E+01   -5.721E+01   -5.712E+01   -5.705E+01
    -5.701E+01   -5.698E+01   -5.697E+01   -5.698E+01   -5.701E+01   -5.705E+01   -5.711E+01   -5.719E+01   -5.729E+01   -5.740E+01
    -5.753E+01   -5.768E+01   -5.784E+01   -5.801E+01   -5.820E+01   -5.841E+01   -5.863E+01   -5.886E+01   -5.910E+01   -5.936E+01
    -5.962E+01   -5.990E+01   -6.019E+01   -6.049E+01   -6.080E+01   -6.112E+01   -6.144E+01   -6.178E+01   -6.212E+01   -6.246E+01
    -6.282E+01   -6.318E+01   -6.354E+01   -6.391E+01   -6.428E+01   -6.466E+01   -6.503E+01   -6.541E+01   -6.579E+01   -6.617E+01
    -6.655E+01   -6.692E+01   -6.730E+01   -6.767E+01   -6.804E+01   -6.840E+01   -6.876E+01   -6.912E+01   -6.946E+01   -6.980E+01
    -7.013E+01   -7.045E+01   -7.077E+01   -7.107E+01   -7.136E+01   -7.163E+01   -7.190E+01   -7.215E+01   -7.238E+01   -7.260E+01
    -7.280E+01   -7.299E+01   -7.316E+01   -7.330E+01   -7.343E+01   -7.354E+01   -7.362E+01   -7.368E+01   -7.372E+01   -7.373E+01
    -7.372E+01   -7.368E+01   -7.361E+01   -7.351E+01   -7.339E+01   -7.323E+01   -7.305E+01   -7.283E+01   -7.257E+01   -7.229E+01
    -7.197E+01   -7.161E+01   -7.121E+01   -7.078E+01   -7.031E+01   -6.980E+01   -6.924E+01   -6.865E+01   -6.802E+01   -6.736E+01
    -6.665E+01   -6.592E+01   -6.514E+01   -6.434E+01   -6.349E+01   -6.262E+01   -6.172E+01   -6.078E+01   -5.982E+01   -5.882E+01
    -5.780E+01   -5.675E+01   -5.568E+01   -5.458E+01   -5.345E+01   -5.231E+01   -5.114E+01   -4.994E+01   -4.873E+01   -4.750E+01
    -4.625E+01   -4.499E+01   -4.371E+01   -4.241E+01   -4.110E+01   -3.977E+01   -3.843E+01   -3.708E+01   -3.573E+01   -3.436E+01
    -3.298E+01   -3.160E+01   -3.021E+01   -2.882E+01   -2.742E+01   -2.602E+01   -2.462E+01   -2.322E+01   -2.182E+01   -2.042E+01
    -1.903E+01   -1.764E+01   -1.625E+01   -1.487E+01   -1.350E+01   -1.214E+01   -1.078E+01   -9.440E+00   -8.109E+00   -6.792E+00
    -5.488E+00   -4.200E+00   -2.929E+00   -1.675E+00   -4.408E-01    7.739E-01    1.967E+00    3.139E+00    4.286E+00    5.409E+00
     6.507E+00    7.577E+00    8.620E+00    9.633E+00    1.062E+01    1.157E+01    1.249E+01    1.337E+01    1.422E+01    1.504E+01
     1.581E+01    1.655E+01    1.725E+01    1.791E+01    1.853E+01    1.910E+01    1.963E+01    2.012E+01    2.055E+01    2.095E+01
     2.129E+01    2.158E+01    2.183E+01    2.202E+01    2.216E+01    2.225E+01    2.228E+01    2.225E+01    2.217E+01    2.203E+01
     2.183E+01    2.157E+01    2.126E+01    2.087E+01    2.043E+01    1.992E+01    1.935E+01    1.871E+01    1.800E+01    1.723E+01
     1.638E+01    1.547E+01    1.449E+01    1.343E+01    1.230E+01    1.110E+01    9.823E+00    8.471E+00    7.043E+00    5.538E+00
     3.955E+00    2.293E+00    5.509E-01   -1.271E+00   -3.175E+00   -5.160E+00   -7.229E+00   -9.381E+00   -1.162E+01   -1.394E+01
    -1.635E+01   -1.884E+01   -2.141E+01   -2.405E+01   -2.678E+01   -2.958E+01   -3.246E+01   -3.540E+01   -3.842E+01   -4.150E+01
    -4.465E+01   -4.786E+01   -5.113E+01   -5.446E+01   -5.785E+01   -6.130E+01   -6.480E+01   -6.835E+01   -7.195E+01   -7.560E+01
    -7.930E+01   -8.304E+01   -8.682E+01   -9.064E+01   -9.450E+01   -9.840E+01   -1.023E+02   -1.063E+02   -1.103E+02   -1.143E+02
    -1.184E+02   -1.224E+02   -1.265E+02   -1.306E+02   -1.348E+02   -1.389E+02   -1.431E+02   -1.473E+02   -1.515E+02   -1.557E+02
    -1.599E+02   -1.641E+02   -1.683E+02   -1.725E+02   -1.767E+02   -1.810E+02   -1.852E+02   -1.894E+02   -1.936E+02   -1.978E+02
    -2.019E+02   -2.061E+02   -2.103E+02   -2.144E+02   -2.185E+02   -2.226E+02   -2.267E+02   -2.307E+02   -2.348E+02   -2.387E+02
    -2.427E+02   -2.467E+02   -2.506E+02   -2.544E+02   -2.583E+02   -2.621E+02   -2.658E+02   -2.696E+02   -2.732E+02   -2.769E+02
    -2.805E+02   -2.840E+02   -2.875E+02   -2.909E+02   -2.943E+02   -2.977E+02   -3.010E+02   -3.042E+02   -3.074E+02   -3.105E+02
    -3.135E+02   -3.165E+02   -3.195E+02   -3.223E+02   -3.251E+02   -3.279E+02   -3.306E+02   -3.332E+02   -3.357E+02   -3.381E+02
    -3.405E+02   -3.428E+02   -3.451E+02   -3.472E+02   -3.493E+02   -3.513E+02   -3.533E+02   -3.551E+02   -3.569E+02   -3.585E+02
    -3.601E+02   -3.617E+02   -3.631E+02   -3.644E+02   -3.657E+02   -3.669E+02   -3.679E+02   -3.689E+02   -3.698E+02   -3.706E+02
    -3.713E+02   -3.720E+02   -3.725E+02   -3.729E+02   -3.733E+02   -3.735E+02   -3.737E+02   -3.737E+02   -3.737E+02   -3.736E+02
    -3.733E+02   -3.730E+02   -3.726E+02   -3.720E+02   -3.714E+02   -3.707E+02   -3.699E+02   -3.689E+02   -3.680E+02   -3.669E+02
    -3.657E+02   -3.644E+02   -3.631E+02   -3.617E+02   -3.602E+02   -3.587E+02   -3.570E+02   -3.553E+02   -3.536E+02   -3.517E+02
    -3.499E+02   -3.479E+02   -3.459E+02   -3.438E+02   -3.417E+02   -3.395E+02   -3.373E+02   -3.351E+02   -3.327E+02   -3.304E+02
    -3.280E+02   -3.256E+02   -3.231E+02   -3.206E+02   -3.180E+02   -3.155E+02   -3.129E+02   -3.102E+02   -3.076E+02   -3.049E+02
    -3.022E+02   -2.994E+02   -2.967E+02   -2.939E+02   -2.912E+02   -2.884E+02   -2.856E+02   -2.827E+02   -2.799E+02   -2.771E+02
    -2.742E+02   -2.714E+02   -2.685E+02   -2.657E+02   -2.628E+02   -2.600E+02   -2.571E+02   -2.543E+02   -2.515E+02   -2.486E+02
    -2.458E+02   -2.430E+02   -2.402E+02   -2.374E+02   -2.346E+02   -2.319E+02   -2.291E+02   -2.264E+02   -2.237E+02   -2.210E+02
    -2.183E+02   -2.156E+02   -2.130E+02   -2.104E+02   -2.078E+02   -2.052E+02   -2.027E+02   -2.002E+02   -1.977E+02   -1.952E+02
    -1.928E+02   -1.904E+02   -1.880E+02   -1.857E+02   -1.833E+02   -1.810E+02   -1.788E+02   -1.766E+02   -1.744E+02   -1.722E+02
    -1.701E+02   -1.680E+02   -1.659E+02   -1.639E+02   -1.619E+02   -1.600E+02   -1.580E+02   -1.562E+02   -1.543E+02   -1.525E+02
    -1.507E+02   -1.490E+02   -1.473E+02   -1.456E+02   -1.439E+02   -1.423E+02   -1.408E+02   -1.392E+02   -1.377E+02   -1.363E+02
    -1.348E+02   -1.334E+02   -1.321E+02   -1.307E+02   -1.294E+02   -1.282E+02   -1.269E+02   -1.257E+02   -1.245E+02   -1.234E+02
    -1.223E+02   -1.212E+02   -1.201E+02   -1.191E+02   -1.181E+02   -1.171E+02   -1.161E+02   -1.152E+02
 Ala      Conc. = 2.09E+02
