 LCModel (Version 6.3-1L) Copyright: S.W. Provencher.          Ref.: Magn. Reson. Med. 30:672-679 (1993).                
 Slice#3 Row#5 Col#8  PD_24_press_2_raw_act
 36 lines in following concentration table = NCONC+1
    Conc.  %SD /Cr+PCr  Metabolite                                         
    0.000 999%   0.000 Ala                                                 
   66.445 310% 8.7E-02 Asp                                                 
    0.000 999%   0.000 Cr                                                  
  761.154  15%   1.000 PCr                                                 
  111.692 113%   0.147 GABA                                                
  208.331  60%   0.274 Glc                                                 
   22.768 999% 3.0E-02 Gln                                                 
    0.000 999%   0.000 Glu                                                 
    0.000 999%   0.000 GPC                                                 
  473.676  10%   0.622 PCh                                                 
  171.840  90%   0.226 GSH                                                 
 1.57E+03  35%   2.061 Ins                                                 
    0.000 999%   0.000 Lac                                                 
 1.40E+03  13%   1.838 NAA                                                 
  130.626 138%   0.172 NAAG                                                
   64.910  55% 8.5E-02 Scyllo                                              
  446.668  45%   0.587 Tau                                                 
 1.15E+03  16%   1.516 -CrCH2                                              
  473.676  10%   0.622 GPC+PCh                                             
 1.53E+03  11%   2.009 NAA+NAAG                                            
  761.154  15%   1.000 Cr+PCr                                              
   22.768 999% 3.0E-02 Glu+Gln                                             
 3.61E+03  23%   4.746 Lip13a                                              
    0.000 999%   0.000 Lip13b                                              
 1.13E+03  36%   1.485 Lip09                                               
  799.482  52%   1.050 MM09                                                
  542.552  51%   0.713 Lip20                                               
 1.13E+03  64%   1.483 MM20                                                
  268.770 134%   0.353 MM12                                                
  822.680  68%   1.081 MM14                                                
    0.000 999%   0.000 MM17                                                
 3.61E+03  23%   4.746 Lip13a+Lip13b                                       
 4.70E+03  16%   6.180 MM14+Lip13a+Lip13b+MM12                             
 1.93E+03  17%   2.535 MM09+Lip09                                          
 1.67E+03  42%   2.195 MM20+Lip20                                          
   6 lines in following misc. output table
  FWHM = 0.076 ppm    S/N =   3                                            
  Data shift =-0.008 ppm                                                   
  Ph: -47 deg       2.4 deg/ppm                                            
  alphaB,S = 1.6E+00,   2.6E+01                                            
   14 spline knots.   Ns = 8(1)                                            
  (12) 5 infls.   (15) 4 extrs.                                            
  498 points on ppm-axis = NY
      4.000000     3.992357     3.984714     3.977070     3.969427     3.961784     3.954141     3.946497     3.938854     3.931211
      3.923568     3.915925     3.908281     3.900638     3.892995     3.885352     3.877708     3.870065     3.862422     3.854779
      3.847136     3.839492     3.831849     3.824206     3.816563     3.808919     3.801276     3.793633     3.785990     3.778347
      3.770703     3.763060     3.755417     3.747774     3.740130     3.732487     3.724844     3.717201     3.709558     3.701914
      3.694271     3.686628     3.678985     3.671341     3.663698     3.656055     3.648412     3.640769     3.633125     3.625482
      3.617839     3.610196     3.602552     3.594909     3.587266     3.579623     3.571980     3.564336     3.556693     3.549050
      3.541407     3.533763     3.526120     3.518477     3.510834     3.503191     3.495547     3.487904     3.480261     3.472618
      3.464974     3.457331     3.449688     3.442045     3.434402     3.426758     3.419115     3.411472     3.403829     3.396185
      3.388542     3.380899     3.373256     3.365613     3.357969     3.350326     3.342683     3.335040     3.327396     3.319753
      3.312110     3.304467     3.296824     3.289180     3.281537     3.273894     3.266251     3.258607     3.250964     3.243321
      3.235678     3.228034     3.220391     3.212748     3.205105     3.197462     3.189818     3.182175     3.174532     3.166889
      3.159245     3.151602     3.143959     3.136316     3.128673     3.121029     3.113386     3.105743     3.098100     3.090456
      3.082813     3.075170     3.067527     3.059884     3.052240     3.044597     3.036954     3.029311     3.021667     3.014024
      3.006381     2.998738     2.991095     2.983451     2.975808     2.968165     2.960522     2.952878     2.945235     2.937592
      2.929949     2.922306     2.914662     2.907019     2.899376     2.891733     2.884089     2.876446     2.868803     2.861160
      2.853517     2.845873     2.838230     2.830587     2.822944     2.815300     2.807657     2.800014     2.792371     2.784728
      2.777084     2.769441     2.761798     2.754155     2.746511     2.738868     2.731225     2.723582     2.715939     2.708295
      2.700652     2.693009     2.685366     2.677722     2.670079     2.662436     2.654793     2.647150     2.639506     2.631863
      2.624220     2.616577     2.608933     2.601290     2.593647     2.586004     2.578361     2.570717     2.563074     2.555431
      2.547788     2.540144     2.532501     2.524858     2.517215     2.509572     2.501928     2.494285     2.486642     2.478999
      2.471355     2.463712     2.456069     2.448426     2.440783     2.433139     2.425496     2.417853     2.410210     2.402566
      2.394923     2.387280     2.379637     2.371994     2.364350     2.356707     2.349064     2.341421     2.333777     2.326134
      2.318491     2.310848     2.303205     2.295561     2.287918     2.280275     2.272632     2.264988     2.257345     2.249702
      2.242059     2.234416     2.226772     2.219129     2.211486     2.203843     2.196199     2.188556     2.180913     2.173270
      2.165627     2.157983     2.150340     2.142697     2.135054     2.127410     2.119767     2.112124     2.104481     2.096838
      2.089194     2.081551     2.073908     2.066265     2.058621     2.050978     2.043335     2.035692     2.028049     2.020405
      2.012762     2.005119     1.997476     1.989833     1.982190     1.974546     1.966903     1.959260     1.951617     1.943974
      1.936331     1.928688     1.921045     1.913402     1.905759     1.898115     1.890472     1.882829     1.875186     1.867543
      1.859900     1.852257     1.844614     1.836971     1.829327     1.821684     1.814041     1.806398     1.798755     1.791112
      1.783469     1.775826     1.768183     1.760540     1.752896     1.745253     1.737610     1.729967     1.722324     1.714681
      1.707038     1.699395     1.691752     1.684108     1.676465     1.668822     1.661179     1.653536     1.645893     1.638250
      1.630607     1.622964     1.615321     1.607677     1.600034     1.592391     1.584748     1.577105     1.569462     1.561819
      1.554176     1.546533     1.538890     1.531246     1.523603     1.515960     1.508317     1.500674     1.493031     1.485388
      1.477745     1.470102     1.462458     1.454815     1.447172     1.439529     1.431886     1.424243     1.416600     1.408957
      1.401314     1.393671     1.386027     1.378384     1.370741     1.363098     1.355455     1.347812     1.340169     1.332526
      1.324883     1.317240     1.309596     1.301953     1.294310     1.286667     1.279024     1.271381     1.263738     1.256095
      1.248452     1.240808     1.233165     1.225522     1.217879     1.210236     1.202593     1.194950     1.187307     1.179664
      1.172021     1.164377     1.156734     1.149091     1.141448     1.133805     1.126162     1.118519     1.110876     1.103233
      1.095590     1.087946     1.080303     1.072660     1.065017     1.057374     1.049731     1.042088     1.034445     1.026802
      1.019158     1.011515     1.003872     0.996229     0.988586     0.980943     0.973300     0.965657     0.958014     0.950371
      0.942727     0.935084     0.927441     0.919798     0.912155     0.904512     0.896869     0.889226     0.881583     0.873940
      0.866296     0.858653     0.851010     0.843367     0.835724     0.828081     0.820438     0.812795     0.805152     0.797508
      0.789865     0.782222     0.774579     0.766936     0.759293     0.751650     0.744007     0.736364     0.728721     0.721077
      0.713434     0.705791     0.698148     0.690505     0.682862     0.675219     0.667576     0.659933     0.652290     0.644646
      0.637003     0.629360     0.621717     0.614074     0.606431     0.598788     0.591145     0.583502     0.575858     0.568215
      0.560572     0.552929     0.545286     0.537643     0.530000     0.522357     0.514714     0.507071     0.499427     0.491784
      0.484141     0.476498     0.468855     0.461212     0.453569     0.445925     0.438282     0.430639     0.422996     0.415353
      0.407710     0.400067     0.392424     0.384780     0.377137     0.369494     0.361851     0.354208     0.346565     0.338922
      0.331278     0.323635     0.315992     0.308349     0.300706     0.293063     0.285420     0.277777     0.270133     0.262490
      0.254847     0.247204     0.239561     0.231918     0.224275     0.216631     0.208988     0.201345
 NY phased data points follow
  -1.50248E+02 -1.51753E+02 -1.31884E+02 -1.43002E+02 -1.23063E+02 -1.32494E+02 -1.21051E+02 -1.21849E+02 -1.22980E+02 -1.28708E+02
  -1.10649E+02 -1.06394E+02 -1.08940E+02 -1.17705E+02 -1.19625E+02 -1.12599E+02 -1.30675E+02 -1.33945E+02 -1.07911E+02 -1.15411E+02
  -1.10133E+02 -1.01854E+02 -1.02508E+02 -1.09389E+02 -1.05145E+02 -1.03124E+02 -1.03136E+02 -1.01739E+02 -8.99483E+01 -9.63176E+01
  -9.32340E+01 -9.57158E+01 -1.09262E+02 -1.07988E+02 -1.00852E+02 -9.52341E+01 -8.95168E+01 -9.80471E+01 -9.83260E+01 -1.05444E+02
  -9.37539E+01 -1.02609E+02 -9.94347E+01 -9.42527E+01 -8.01446E+01 -1.04931E+02 -8.97017E+01 -8.50141E+01 -8.13159E+01 -8.91542E+01
  -8.12401E+01 -9.63094E+01 -8.47648E+01 -8.55771E+01 -7.79516E+01 -8.87417E+01 -8.77031E+01 -8.12471E+01 -8.42676E+01 -9.20829E+01
  -7.88128E+01 -8.94616E+01 -8.51672E+01 -9.96587E+01 -8.73020E+01 -8.62133E+01 -8.33404E+01 -9.10376E+01 -7.90099E+01 -8.84137E+01
  -7.50517E+01 -6.86720E+01 -7.16584E+01 -7.31083E+01 -6.17818E+01 -7.90281E+01 -6.87609E+01 -7.52574E+01 -6.41457E+01 -7.68424E+01
  -7.12114E+01 -8.06431E+01 -7.98544E+01 -8.36329E+01 -7.36659E+01 -7.77307E+01 -7.50267E+01 -7.21969E+01 -7.04065E+01 -7.72487E+01
  -6.80832E+01 -7.20970E+01 -5.79518E+01 -6.59006E+01 -5.98423E+01 -6.94890E+01 -5.49353E+01 -5.19382E+01 -5.66887E+01 -5.38618E+01
  -4.97024E+01 -4.17840E+01 -3.32475E+01 -3.37927E+01 -3.89810E+01 -2.48696E+01 -4.40923E+01 -4.67336E+01 -5.47872E+01 -7.23104E+01
  -6.33450E+01 -6.88238E+01 -6.16550E+01 -6.27507E+01 -6.76486E+01 -5.94543E+01 -5.52057E+01 -6.73398E+01 -6.02585E+01 -7.34723E+01
  -5.24181E+01 -4.97247E+01 -5.39172E+01 -5.93825E+01 -5.15528E+01 -4.12655E+01 -4.17857E+01 -4.43522E+01 -4.24536E+01 -3.86871E+01
  -4.47667E+01 -4.46786E+01 -5.36461E+01 -6.91745E+01 -6.80307E+01 -6.25900E+01 -4.90219E+01 -6.01013E+01 -5.72471E+01 -5.71792E+01
  -4.84147E+01 -6.75251E+01 -5.51190E+01 -5.69856E+01 -6.12820E+01 -5.99632E+01 -6.43244E+01 -6.66322E+01 -5.82837E+01 -6.04720E+01
  -4.97855E+01 -6.45747E+01 -5.43569E+01 -5.91712E+01 -5.91759E+01 -6.04206E+01 -4.81792E+01 -5.19348E+01 -4.96961E+01 -4.57587E+01
  -4.55883E+01 -6.05338E+01 -5.54601E+01 -5.59765E+01 -4.50589E+01 -5.32768E+01 -4.84040E+01 -6.16873E+01 -5.26490E+01 -4.88398E+01
  -5.89394E+01 -6.50547E+01 -5.47798E+01 -5.50225E+01 -5.13844E+01 -6.19027E+01 -5.84753E+01 -6.10139E+01 -5.04233E+01 -5.20007E+01
  -5.19082E+01 -6.44631E+01 -6.11882E+01 -4.40987E+01 -5.95197E+01 -4.78950E+01 -5.81116E+01 -4.70640E+01 -5.42275E+01 -5.09244E+01
  -4.19455E+01 -4.49292E+01 -4.64052E+01 -4.18608E+01 -4.91662E+01 -4.60323E+01 -3.85567E+01 -5.48349E+01 -4.08748E+01 -4.69223E+01
  -4.47997E+01 -4.95416E+01 -4.24441E+01 -4.34234E+01 -4.96276E+01 -5.12848E+01 -4.45149E+01 -5.70976E+01 -4.56937E+01 -4.98708E+01
  -5.43735E+01 -4.59314E+01 -3.90993E+01 -4.19880E+01 -4.42096E+01 -4.83594E+01 -3.79118E+01 -4.10566E+01 -3.52304E+01 -2.71115E+01
  -4.76969E+01 -3.65223E+01 -3.00929E+01 -4.96484E+01 -4.57671E+01 -4.11358E+01 -3.74337E+01 -3.40313E+01 -3.13034E+01 -4.18099E+01
  -3.60973E+01 -4.43381E+01 -3.53174E+01 -3.55311E+01 -2.76664E+01 -4.11327E+01 -3.51957E+01 -3.98956E+01 -3.17501E+01 -3.48337E+01
  -3.03670E+01 -3.93697E+01 -3.77863E+01 -4.85572E+01 -2.28199E+01 -3.25397E+01 -2.63316E+01 -3.39419E+01 -2.95580E+01 -3.33955E+01
  -2.51514E+01 -3.00710E+01 -2.49265E+01 -2.02163E+01 -6.29323E+00 -3.18747E+00  4.82464E+00 -6.76352E-01  8.88442E+00  6.65764E+00
   1.13565E+00  8.21273E+00  9.28631E+00 -9.43098E+00 -4.01889E+00 -1.74874E+01 -3.61753E+01 -4.19003E+01 -3.24909E+01 -3.59037E+01
  -3.95332E+01 -2.76706E+01 -3.08628E+01 -1.88569E+01 -3.30976E+01 -3.27854E+01 -3.00935E+01 -3.23226E+01 -4.19515E+01 -3.26834E+01
  -3.14206E+01 -3.70658E+01 -3.50537E+01 -3.02233E+01 -2.38550E+01 -3.42773E+01 -4.16783E+01 -4.09626E+01 -3.30176E+01 -4.36698E+01
  -3.47578E+01 -3.14063E+01 -2.49768E+01 -2.39444E+01 -3.12288E+01 -3.75407E+01 -2.54918E+01 -3.16429E+01 -3.70107E+01 -3.58486E+01
  -3.00546E+01 -3.29333E+01 -3.73956E+01 -4.44327E+01 -2.21898E+01 -3.14409E+01 -2.29820E+01 -2.38923E+01 -1.81511E+01 -2.18456E+01
  -2.42625E+01 -2.35464E+01 -3.54242E+01 -2.82708E+01 -3.18838E+01 -3.25757E+01 -2.15278E+01 -1.98351E+01 -3.15428E+01 -2.98120E+01
  -1.82778E+01 -2.99378E+01 -1.86030E+01 -2.38262E+01 -2.36212E+01 -1.76576E+01 -2.24504E+01 -2.70504E+01 -2.16609E+01 -2.21662E+01
  -2.75668E+01 -1.18763E+01 -1.17484E+01 -1.23918E+01 -1.40298E+01 -2.13910E+01 -1.52419E+01 -9.94040E+00 -1.89484E+01 -2.09689E+01
  -2.92646E+01 -1.72514E+01 -1.87345E+01 -3.08494E+01 -1.33148E+01 -6.04530E+00 -1.29816E+01 -2.87889E+00 -1.16780E+01 -7.80255E+00
  -1.73485E+01 -1.90049E+01 -4.13217E+00 -1.05122E+01 -2.28367E+00 -1.61000E+01 -9.17872E+00 -2.18578E+01  3.61732E+00 -1.72238E+01
  -5.35279E+00 -1.43019E+01 -2.22648E+01 -1.08582E+01 -1.30295E+01 -5.93132E+00 -2.04016E+00 -2.07763E+01 -1.35527E+01 -9.15644E+00
  -8.64728E+00 -9.18201E+00 -1.95562E+01 -1.32904E+01 -1.98161E+01 -8.00210E+00 -2.05604E+01 -1.61216E+01 -9.15925E+00 -1.70429E+01
  -1.34558E+01 -1.52641E+01 -3.94629E+00 -1.47240E+01 -1.34449E+01 -9.33863E+00 -9.38832E+00 -1.61178E+01 -5.98833E+00 -1.10038E+01
  -6.26498E+00 -1.19313E+00 -1.67175E+01 -1.18358E+01  1.02582E+01 -9.44248E+00 -2.31914E+01 -2.52237E+01 -1.62647E+01 -1.97481E+01
  -9.83265E+00 -1.71488E+01 -9.09060E+00 -1.80545E+01 -4.57454E+00 -1.07543E+01 -2.42020E+00  2.22804E+00  1.06114E+00 -9.08714E+00
  -6.44350E+00 -1.48234E+01 -1.28781E+01 -1.30233E+01 -8.63748E+00 -1.83137E+01 -1.45761E+01 -7.29456E+00 -1.51502E+01 -7.16934E+00
  -1.14087E+01 -1.26772E+01 -7.05160E+00 -1.17358E+01 -1.42061E+00 -1.21278E+01 -5.83123E+00 -1.77963E+01 -6.64355E+00 -6.02522E+00
  -1.37177E+01 -2.13399E+01 -1.03106E+01 -9.29559E+00 -2.38557E+01 -1.22039E+01 -2.15978E+01 -1.58326E+01 -1.52480E+01 -1.01220E+01
  -1.51946E+01 -2.81002E+01 -9.95401E+00 -2.55914E+01 -1.32126E+01 -2.27999E+01 -1.62176E+01 -2.34207E+01 -1.23414E+01 -1.92728E+01
  -2.10286E+01 -1.98803E+01 -2.25709E+01 -1.56089E+01 -2.03569E+01 -1.19828E+01 -1.90442E+01 -1.71885E+01 -6.33935E+00 -2.59720E+01
  -2.07262E+01 -1.23476E+01 -1.15910E+01 -2.92651E+01 -1.83462E+01 -1.79937E+01 -2.10420E+01 -2.19290E+01 -1.33438E+01 -1.38048E+01
  -1.72709E+01 -1.80138E+01 -7.49653E+00 -2.31600E+01 -3.12569E+01 -2.14723E+01 -1.81571E+01 -1.94329E+01 -2.05030E+01 -2.03378E+01
  -2.87623E+01 -2.53502E+01 -2.77707E+01 -1.12321E+01 -2.21016E+01 -2.35380E+01 -1.65633E+01 -2.34028E+01 -3.52764E+01 -3.45592E+01
  -1.61322E+01 -1.86694E+01 -1.51246E+01 -1.78726E+01 -1.72067E+01 -1.46906E+01 -3.48070E+01 -1.79902E+01
 NY points of the fit to the data follow
  -1.25767E+02 -1.28649E+02 -1.27088E+02 -1.24429E+02 -1.24077E+02 -1.25347E+02 -1.25607E+02 -1.24686E+02 -1.24099E+02 -1.22167E+02
  -1.17037E+02 -1.11659E+02 -1.08343E+02 -1.06737E+02 -1.07591E+02 -1.10965E+02 -1.13396E+02 -1.12352E+02 -1.10544E+02 -1.09828E+02
  -1.09182E+02 -1.08187E+02 -1.06666E+02 -1.05149E+02 -1.04190E+02 -1.03523E+02 -1.02763E+02 -1.01785E+02 -1.00798E+02 -9.97603E+01
  -9.85933E+01 -9.79638E+01 -9.83646E+01 -9.91158E+01 -9.96793E+01 -1.00080E+02 -1.00188E+02 -9.97289E+01 -9.87858E+01 -9.73492E+01
  -9.53563E+01 -9.37256E+01 -9.31229E+01 -9.29284E+01 -9.21159E+01 -9.05163E+01 -8.90215E+01 -8.80086E+01 -8.72644E+01 -8.74411E+01
  -8.90548E+01 -9.11510E+01 -9.26482E+01 -9.31029E+01 -9.21878E+01 -9.02522E+01 -8.83600E+01 -8.71774E+01 -8.64778E+01 -8.57113E+01
  -8.48914E+01 -8.42762E+01 -8.41089E+01 -8.43273E+01 -8.45439E+01 -8.45686E+01 -8.42823E+01 -8.33447E+01 -8.17984E+01 -8.02754E+01
  -7.93036E+01 -7.89399E+01 -7.87194E+01 -7.84321E+01 -7.81885E+01 -7.79239E+01 -7.76556E+01 -7.75424E+01 -7.74923E+01 -7.74193E+01
  -7.76968E+01 -7.82843E+01 -7.83426E+01 -7.75571E+01 -7.66183E+01 -7.61531E+01 -7.60271E+01 -7.62307E+01 -7.67616E+01 -7.71940E+01
  -7.71818E+01 -7.65962E+01 -7.55636E+01 -7.42073E+01 -7.24650E+01 -6.86474E+01 -6.01847E+01 -5.24067E+01 -4.90279E+01 -4.74447E+01
  -4.45485E+01 -4.04695E+01 -3.73894E+01 -3.53156E+01 -3.33417E+01 -3.43973E+01 -4.10182E+01 -5.03612E+01 -6.00789E+01 -6.83702E+01
  -7.21830E+01 -7.07799E+01 -6.79816E+01 -6.77304E+01 -6.78239E+01 -6.76191E+01 -6.72819E+01 -6.68578E+01 -6.60466E+01 -6.33662E+01
  -5.80114E+01 -5.36907E+01 -5.19066E+01 -5.07979E+01 -4.87417E+01 -4.59441E+01 -4.38196E+01 -4.23828E+01 -4.12370E+01 -4.23040E+01
  -4.66411E+01 -5.21336E+01 -5.75290E+01 -6.18692E+01 -6.34110E+01 -6.21936E+01 -6.07655E+01 -6.07698E+01 -6.06075E+01 -6.01382E+01
  -5.94982E+01 -5.88281E+01 -5.83110E+01 -5.80235E+01 -5.79039E+01 -5.78797E+01 -5.78565E+01 -5.77646E+01 -5.75970E+01 -5.73566E+01
  -5.70964E+01 -5.68610E+01 -5.66591E+01 -5.66043E+01 -5.66456E+01 -5.65727E+01 -5.63108E+01 -5.58955E+01 -5.55677E+01 -5.54656E+01
  -5.54659E+01 -5.54859E+01 -5.54662E+01 -5.52946E+01 -5.49711E+01 -5.45757E+01 -5.42500E+01 -5.42318E+01 -5.45936E+01 -5.50991E+01
  -5.52685E+01 -5.50360E+01 -5.46820E+01 -5.45167E+01 -5.45924E+01 -5.45503E+01 -5.43118E+01 -5.40524E+01 -5.37528E+01 -5.34317E+01
  -5.30973E+01 -5.26021E+01 -5.20526E+01 -5.15669E+01 -5.10784E+01 -5.04656E+01 -4.97204E+01 -4.90668E+01 -4.84957E+01 -4.78307E+01
  -4.71565E+01 -4.66228E+01 -4.62568E+01 -4.61582E+01 -4.63777E+01 -4.66611E+01 -4.65613E+01 -4.61771E+01 -4.58799E+01 -4.56715E+01
  -4.54033E+01 -4.50818E+01 -4.47852E+01 -4.44739E+01 -4.41502E+01 -4.40902E+01 -4.43723E+01 -4.46115E+01 -4.47579E+01 -4.49380E+01
  -4.50811E+01 -4.50073E+01 -4.47315E+01 -4.44812E+01 -4.41963E+01 -4.36882E+01 -4.29841E+01 -4.22498E+01 -4.15739E+01 -4.10223E+01
  -4.06557E+01 -4.04178E+01 -4.01792E+01 -4.00034E+01 -3.99018E+01 -3.97401E+01 -3.95471E+01 -3.93977E+01 -3.92909E+01 -3.91136E+01
  -3.88054E+01 -3.84864E+01 -3.81713E+01 -3.77318E+01 -3.71833E+01 -3.66581E+01 -3.62413E+01 -3.59329E+01 -3.57382E+01 -3.56849E+01
  -3.56727E+01 -3.55647E+01 -3.53155E+01 -3.48990E+01 -3.43248E+01 -3.36419E+01 -3.29587E+01 -3.22295E+01 -3.11086E+01 -2.99359E+01
  -2.91137E+01 -2.79774E+01 -2.33572E+01 -1.38102E+01 -6.18280E+00 -3.28204E+00 -1.67773E+00  1.35152E+00  4.98598E+00  7.04755E+00
   8.17423E+00  9.05380E+00  6.25154E+00 -1.83529E+00 -1.18601E+01 -2.21337E+01 -3.06990E+01 -3.41864E+01 -3.24885E+01 -3.03004E+01
  -3.07423E+01 -3.11497E+01 -3.12787E+01 -3.13365E+01 -3.13730E+01 -3.14040E+01 -3.14518E+01 -3.15284E+01 -3.16157E+01 -3.16920E+01
  -3.17557E+01 -3.17972E+01 -3.18038E+01 -3.17688E+01 -3.16960E+01 -3.16044E+01 -3.15038E+01 -3.13962E+01 -3.12939E+01 -3.11990E+01
  -3.11045E+01 -3.10163E+01 -3.09273E+01 -3.08210E+01 -3.07050E+01 -3.05926E+01 -3.04784E+01 -3.03584E+01 -3.02341E+01 -3.01021E+01
  -2.99574E+01 -2.98032E+01 -2.96434E+01 -2.94761E+01 -2.93019E+01 -2.91228E+01 -2.89405E+01 -2.87531E+01 -2.85564E+01 -2.83501E+01
  -2.81339E+01 -2.79064E+01 -2.76671E+01 -2.74152E+01 -2.71499E+01 -2.68706E+01 -2.65762E+01 -2.62657E+01 -2.59389E+01 -2.55955E+01
  -2.52355E+01 -2.48592E+01 -2.44670E+01 -2.40593E+01 -2.36371E+01 -2.32016E+01 -2.27542E+01 -2.22961E+01 -2.18288E+01 -2.13540E+01
  -2.08732E+01 -2.03878E+01 -1.98990E+01 -1.94077E+01 -1.89146E+01 -1.84203E+01 -1.79251E+01 -1.74293E+01 -1.69328E+01 -1.64356E+01
  -1.59376E+01 -1.54394E+01 -1.49416E+01 -1.44453E+01 -1.39523E+01 -1.34646E+01 -1.29854E+01 -1.25182E+01 -1.20673E+01 -1.16373E+01
  -1.12333E+01 -1.08605E+01 -1.05243E+01 -1.02299E+01 -9.98200E+00 -9.78466E+00 -9.64105E+00 -9.55354E+00 -9.52337E+00 -9.55072E+00
  -9.63441E+00 -9.77215E+00 -9.96047E+00 -1.01951E+01 -1.04709E+01 -1.07820E+01 -1.11220E+01 -1.14841E+01 -1.18615E+01 -1.22474E+01
  -1.26352E+01 -1.30187E+01 -1.33917E+01 -1.37489E+01 -1.40852E+01 -1.43964E+01 -1.46782E+01 -1.49274E+01 -1.51405E+01 -1.53151E+01
  -1.54485E+01 -1.55388E+01 -1.55840E+01 -1.55824E+01 -1.55323E+01 -1.54328E+01 -1.52828E+01 -1.50821E+01 -1.48306E+01 -1.45292E+01
  -1.41794E+01 -1.37841E+01 -1.33469E+01 -1.28730E+01 -1.23686E+01 -1.18414E+01 -1.13003E+01 -1.07553E+01 -1.02173E+01 -9.69771E+00
  -9.20807E+00 -8.75992E+00 -8.36387E+00 -8.02985E+00 -7.76591E+00 -7.57860E+00 -7.47200E+00 -7.44837E+00 -7.50734E+00 -7.64669E+00
  -7.86167E+00 -8.14611E+00 -8.49198E+00 -8.89060E+00 -9.33220E+00 -9.80713E+00 -1.03053E+01 -1.08176E+01 -1.13349E+01 -1.18497E+01
  -1.23552E+01 -1.28457E+01 -1.33166E+01 -1.37646E+01 -1.41870E+01 -1.45827E+01 -1.49508E+01 -1.52915E+01 -1.56050E+01 -1.58926E+01
  -1.61553E+01 -1.63949E+01 -1.66127E+01 -1.68107E+01 -1.69902E+01 -1.71531E+01 -1.73008E+01 -1.74349E+01 -1.75566E+01 -1.76674E+01
  -1.77680E+01 -1.78599E+01 -1.79436E+01 -1.80204E+01 -1.80907E+01 -1.81553E+01 -1.82147E+01 -1.82695E+01 -1.83202E+01 -1.83672E+01
  -1.84108E+01 -1.84514E+01 -1.84892E+01 -1.85246E+01 -1.85577E+01 -1.85890E+01 -1.86182E+01 -1.86458E+01 -1.86718E+01 -1.86966E+01
  -1.87199E+01 -1.87422E+01 -1.87633E+01 -1.87835E+01 -1.88026E+01 -1.88211E+01 -1.88386E+01 -1.88556E+01 -1.88717E+01 -1.88873E+01
  -1.89021E+01 -1.89167E+01 -1.89305E+01 -1.89440E+01 -1.89568E+01 -1.89694E+01 -1.89814E+01 -1.89932E+01 -1.90044E+01 -1.90155E+01
  -1.90259E+01 -1.90363E+01 -1.90461E+01 -1.90558E+01 -1.90650E+01 -1.90741E+01 -1.90826E+01 -1.90911E+01 -1.90991E+01 -1.91070E+01
  -1.91145E+01 -1.91218E+01 -1.91286E+01 -1.91354E+01 -1.91417E+01 -1.91479E+01 -1.91536E+01 -1.91592E+01
 NY background values follow
    -1.210E+02   -1.205E+02   -1.200E+02   -1.195E+02   -1.190E+02   -1.185E+02   -1.180E+02   -1.175E+02   -1.170E+02   -1.165E+02
    -1.160E+02   -1.155E+02   -1.150E+02   -1.144E+02   -1.139E+02   -1.134E+02   -1.129E+02   -1.124E+02   -1.119E+02   -1.114E+02
    -1.109E+02   -1.104E+02   -1.099E+02   -1.094E+02   -1.089E+02   -1.084E+02   -1.079E+02   -1.074E+02   -1.069E+02   -1.064E+02
    -1.059E+02   -1.054E+02   -1.049E+02   -1.044E+02   -1.039E+02   -1.034E+02   -1.030E+02   -1.025E+02   -1.020E+02   -1.015E+02
    -1.010E+02   -1.005E+02   -1.000E+02   -9.954E+01   -9.906E+01   -9.857E+01   -9.809E+01   -9.761E+01   -9.713E+01   -9.666E+01
    -9.618E+01   -9.571E+01   -9.523E+01   -9.476E+01   -9.429E+01   -9.382E+01   -9.336E+01   -9.289E+01   -9.243E+01   -9.196E+01
    -9.150E+01   -9.104E+01   -9.059E+01   -9.013E+01   -8.967E+01   -8.922E+01   -8.877E+01   -8.832E+01   -8.787E+01   -8.743E+01
    -8.699E+01   -8.654E+01   -8.610E+01   -8.567E+01   -8.523E+01   -8.480E+01   -8.436E+01   -8.393E+01   -8.351E+01   -8.308E+01
    -8.266E+01   -8.224E+01   -8.182E+01   -8.140E+01   -8.098E+01   -8.057E+01   -8.016E+01   -7.975E+01   -7.935E+01   -7.894E+01
    -7.854E+01   -7.814E+01   -7.775E+01   -7.735E+01   -7.696E+01   -7.657E+01   -7.619E+01   -7.580E+01   -7.542E+01   -7.504E+01
    -7.466E+01   -7.429E+01   -7.392E+01   -7.355E+01   -7.318E+01   -7.281E+01   -7.245E+01   -7.209E+01   -7.173E+01   -7.138E+01
    -7.102E+01   -7.067E+01   -7.032E+01   -6.997E+01   -6.963E+01   -6.929E+01   -6.895E+01   -6.861E+01   -6.827E+01   -6.794E+01
    -6.761E+01   -6.728E+01   -6.695E+01   -6.663E+01   -6.630E+01   -6.598E+01   -6.567E+01   -6.535E+01   -6.504E+01   -6.473E+01
    -6.442E+01   -6.411E+01   -6.380E+01   -6.350E+01   -6.320E+01   -6.290E+01   -6.260E+01   -6.231E+01   -6.202E+01   -6.173E+01
    -6.144E+01   -6.115E+01   -6.087E+01   -6.059E+01   -6.031E+01   -6.003E+01   -5.975E+01   -5.948E+01   -5.920E+01   -5.893E+01
    -5.866E+01   -5.840E+01   -5.813E+01   -5.787E+01   -5.761E+01   -5.735E+01   -5.709E+01   -5.683E+01   -5.658E+01   -5.633E+01
    -5.607E+01   -5.582E+01   -5.558E+01   -5.533E+01   -5.509E+01   -5.484E+01   -5.460E+01   -5.436E+01   -5.412E+01   -5.388E+01
    -5.365E+01   -5.342E+01   -5.318E+01   -5.295E+01   -5.272E+01   -5.249E+01   -5.227E+01   -5.204E+01   -5.182E+01   -5.159E+01
    -5.137E+01   -5.115E+01   -5.093E+01   -5.071E+01   -5.050E+01   -5.028E+01   -5.007E+01   -4.985E+01   -4.964E+01   -4.943E+01
    -4.922E+01   -4.901E+01   -4.881E+01   -4.860E+01   -4.840E+01   -4.819E+01   -4.799E+01   -4.779E+01   -4.759E+01   -4.739E+01
    -4.719E+01   -4.700E+01   -4.680E+01   -4.661E+01   -4.641E+01   -4.622E+01   -4.603E+01   -4.584E+01   -4.565E+01   -4.546E+01
    -4.528E+01   -4.509E+01   -4.491E+01   -4.472E+01   -4.454E+01   -4.436E+01   -4.418E+01   -4.400E+01   -4.382E+01   -4.364E+01
    -4.347E+01   -4.329E+01   -4.312E+01   -4.294E+01   -4.277E+01   -4.260E+01   -4.243E+01   -4.226E+01   -4.209E+01   -4.192E+01
    -4.175E+01   -4.159E+01   -4.142E+01   -4.126E+01   -4.109E+01   -4.093E+01   -4.077E+01   -4.061E+01   -4.045E+01   -4.029E+01
    -4.013E+01   -3.997E+01   -3.981E+01   -3.966E+01   -3.950E+01   -3.935E+01   -3.919E+01   -3.904E+01   -3.889E+01   -3.873E+01
    -3.858E+01   -3.843E+01   -3.828E+01   -3.813E+01   -3.798E+01   -3.783E+01   -3.769E+01   -3.754E+01   -3.739E+01   -3.725E+01
    -3.710E+01   -3.696E+01   -3.681E+01   -3.667E+01   -3.653E+01   -3.638E+01   -3.624E+01   -3.610E+01   -3.596E+01   -3.582E+01
    -3.568E+01   -3.554E+01   -3.540E+01   -3.526E+01   -3.512E+01   -3.498E+01   -3.485E+01   -3.471E+01   -3.457E+01   -3.444E+01
    -3.430E+01   -3.417E+01   -3.403E+01   -3.390E+01   -3.376E+01   -3.363E+01   -3.350E+01   -3.336E+01   -3.323E+01   -3.310E+01
    -3.297E+01   -3.284E+01   -3.271E+01   -3.258E+01   -3.245E+01   -3.232E+01   -3.219E+01   -3.206E+01   -3.194E+01   -3.181E+01
    -3.168E+01   -3.156E+01   -3.143E+01   -3.131E+01   -3.118E+01   -3.106E+01   -3.094E+01   -3.081E+01   -3.069E+01   -3.057E+01
    -3.045E+01   -3.033E+01   -3.021E+01   -3.009E+01   -2.997E+01   -2.985E+01   -2.973E+01   -2.961E+01   -2.950E+01   -2.938E+01
    -2.926E+01   -2.915E+01   -2.903E+01   -2.892E+01   -2.881E+01   -2.869E+01   -2.858E+01   -2.847E+01   -2.836E+01   -2.824E+01
    -2.813E+01   -2.802E+01   -2.792E+01   -2.781E+01   -2.770E+01   -2.759E+01   -2.748E+01   -2.738E+01   -2.727E+01   -2.717E+01
    -2.706E+01   -2.696E+01   -2.686E+01   -2.676E+01   -2.665E+01   -2.655E+01   -2.645E+01   -2.635E+01   -2.625E+01   -2.616E+01
    -2.606E+01   -2.596E+01   -2.587E+01   -2.577E+01   -2.568E+01   -2.558E+01   -2.549E+01   -2.540E+01   -2.531E+01   -2.522E+01
    -2.513E+01   -2.504E+01   -2.495E+01   -2.486E+01   -2.477E+01   -2.469E+01   -2.460E+01   -2.452E+01   -2.443E+01   -2.435E+01
    -2.427E+01   -2.419E+01   -2.411E+01   -2.403E+01   -2.395E+01   -2.387E+01   -2.379E+01   -2.372E+01   -2.364E+01   -2.357E+01
    -2.349E+01   -2.342E+01   -2.335E+01   -2.328E+01   -2.320E+01   -2.313E+01   -2.307E+01   -2.300E+01   -2.293E+01   -2.286E+01
    -2.280E+01   -2.273E+01   -2.267E+01   -2.261E+01   -2.255E+01   -2.249E+01   -2.243E+01   -2.237E+01   -2.231E+01   -2.225E+01
    -2.219E+01   -2.214E+01   -2.208E+01   -2.203E+01   -2.198E+01   -2.193E+01   -2.187E+01   -2.182E+01   -2.178E+01   -2.173E+01
    -2.168E+01   -2.163E+01   -2.159E+01   -2.154E+01   -2.150E+01   -2.146E+01   -2.142E+01   -2.137E+01   -2.133E+01   -2.129E+01
    -2.126E+01   -2.122E+01   -2.118E+01   -2.115E+01   -2.111E+01   -2.108E+01   -2.104E+01   -2.101E+01   -2.098E+01   -2.095E+01
    -2.092E+01   -2.089E+01   -2.086E+01   -2.083E+01   -2.080E+01   -2.077E+01   -2.075E+01   -2.072E+01   -2.070E+01   -2.067E+01
    -2.065E+01   -2.063E+01   -2.060E+01   -2.058E+01   -2.056E+01   -2.054E+01   -2.052E+01   -2.050E+01   -2.048E+01   -2.047E+01
    -2.045E+01   -2.043E+01   -2.042E+01   -2.040E+01   -2.039E+01   -2.037E+01   -2.036E+01   -2.034E+01   -2.033E+01   -2.032E+01
    -2.031E+01   -2.030E+01   -2.028E+01   -2.027E+01   -2.026E+01   -2.025E+01   -2.024E+01   -2.024E+01   -2.023E+01   -2.022E+01
    -2.021E+01   -2.020E+01   -2.019E+01   -2.019E+01   -2.018E+01   -2.017E+01   -2.017E+01   -2.016E+01   -2.015E+01   -2.015E+01
    -2.014E+01   -2.014E+01   -2.013E+01   -2.012E+01   -2.012E+01   -2.011E+01   -2.011E+01   -2.010E+01   -2.010E+01   -2.009E+01
    -2.009E+01   -2.008E+01   -2.008E+01   -2.007E+01   -2.007E+01   -2.006E+01   -2.005E+01   -2.005E+01
 Asp      Conc. = 6.64E+01
