 LCModel (Version 6.3-1L) Copyright: S.W. Provencher.          Ref.: Magn. Reson. Med. 30:672-679 (1993).                
 Slice#1 Row#1 Col#7  PD_24_press_2_raw_act
 36 lines in following concentration table = NCONC+1
    Conc.  %SD /Cr+PCr  Metabolite                                         
    0.000 999%   0.000 Ala                                                 
   38.160 118%   0.129 Asp                                                 
    0.000 999%   0.000 Cr                                                  
  296.804  42%   1.000 PCr                                                 
   23.357 116% 7.9E-02 GABA                                                
   25.307 107% 8.5E-02 Glc                                                 
 1.16E+03  92%   3.921 Gln                                                 
 3.95E+03  30%  13.310 Glu                                                 
    0.000 999%   0.000 GPC                                                 
    0.000 999%   0.000 PCh                                                 
  160.497 131%   0.541 GSH                                                 
  283.771 192%   0.956 Ins                                                 
 1.36E+03  41%   4.586 Lac                                                 
  507.765  27%   1.711 NAA                                                 
    0.000 999%   0.000 NAAG                                                
    8.584 105% 2.9E-02 Scyllo                                              
   39.194 115%   0.132 Tau                                                 
   12.054 445% 4.1E-02 -CrCH2                                              
    0.000 999%   0.000 GPC+PCh                                             
  507.765  27%   1.711 NAA+NAAG                                            
  296.804  42%   1.000 Cr+PCr                                              
 5.11E+03  39%  17.231 Glu+Gln                                             
  113.040 915%   0.381 Lip13a                                              
   41.531 999%   0.140 Lip13b                                              
   41.272 431%   0.139 Lip09                                               
   20.169 361% 6.8E-02 MM09                                                
   22.938 437% 7.7E-02 Lip20                                               
    0.000 999%   0.000 MM20                                                
    5.299 697% 1.8E-02 MM12                                                
  119.540 118%   0.403 MM14                                                
    0.173 999% 5.8E-04 MM17                                                
  154.571 430%   0.521 Lip13a+Lip13b                                       
  279.410 234%   0.941 MM14+Lip13a+Lip13b+MM12                             
   61.441 292%   0.207 MM09+Lip09                                          
   22.938 437% 7.7E-02 MM20+Lip20                                          
   6 lines in following misc. output table
  FWHM = 0.092 ppm    S/N =   1                                            
  Data shift = 0.367 ppm                                                   
  Ph: 148 deg      -1.4 deg/ppm                                            
  alphaB,S = 8.5E+01,   1.0E+02                                            
   14 spline knots.   Ns = 9(1)                                            
   2 inflections.     1 extrema                                            
  498 points on ppm-axis = NY
      4.000000     3.992357     3.984714     3.977070     3.969427     3.961784     3.954141     3.946497     3.938854     3.931211
      3.923568     3.915925     3.908281     3.900638     3.892995     3.885352     3.877708     3.870065     3.862422     3.854779
      3.847136     3.839492     3.831849     3.824206     3.816563     3.808919     3.801276     3.793633     3.785990     3.778347
      3.770703     3.763060     3.755417     3.747774     3.740130     3.732487     3.724844     3.717201     3.709558     3.701914
      3.694271     3.686628     3.678985     3.671341     3.663698     3.656055     3.648412     3.640769     3.633125     3.625482
      3.617839     3.610196     3.602552     3.594909     3.587266     3.579623     3.571980     3.564336     3.556693     3.549050
      3.541407     3.533763     3.526120     3.518477     3.510834     3.503191     3.495547     3.487904     3.480261     3.472618
      3.464974     3.457331     3.449688     3.442045     3.434402     3.426758     3.419115     3.411472     3.403829     3.396185
      3.388542     3.380899     3.373256     3.365613     3.357969     3.350326     3.342683     3.335040     3.327396     3.319753
      3.312110     3.304467     3.296824     3.289180     3.281537     3.273894     3.266251     3.258607     3.250964     3.243321
      3.235678     3.228034     3.220391     3.212748     3.205105     3.197462     3.189818     3.182175     3.174532     3.166889
      3.159245     3.151602     3.143959     3.136316     3.128673     3.121029     3.113386     3.105743     3.098100     3.090456
      3.082813     3.075170     3.067527     3.059884     3.052240     3.044597     3.036954     3.029311     3.021667     3.014024
      3.006381     2.998738     2.991095     2.983451     2.975808     2.968165     2.960522     2.952878     2.945235     2.937592
      2.929949     2.922306     2.914662     2.907019     2.899376     2.891733     2.884089     2.876446     2.868803     2.861160
      2.853517     2.845873     2.838230     2.830587     2.822944     2.815300     2.807657     2.800014     2.792371     2.784728
      2.777084     2.769441     2.761798     2.754155     2.746511     2.738868     2.731225     2.723582     2.715939     2.708295
      2.700652     2.693009     2.685366     2.677722     2.670079     2.662436     2.654793     2.647150     2.639506     2.631863
      2.624220     2.616577     2.608933     2.601290     2.593647     2.586004     2.578361     2.570717     2.563074     2.555431
      2.547788     2.540144     2.532501     2.524858     2.517215     2.509572     2.501928     2.494285     2.486642     2.478999
      2.471355     2.463712     2.456069     2.448426     2.440783     2.433139     2.425496     2.417853     2.410210     2.402566
      2.394923     2.387280     2.379637     2.371994     2.364350     2.356707     2.349064     2.341421     2.333777     2.326134
      2.318491     2.310848     2.303205     2.295561     2.287918     2.280275     2.272632     2.264988     2.257345     2.249702
      2.242059     2.234416     2.226772     2.219129     2.211486     2.203843     2.196199     2.188556     2.180913     2.173270
      2.165627     2.157983     2.150340     2.142697     2.135054     2.127410     2.119767     2.112124     2.104481     2.096838
      2.089194     2.081551     2.073908     2.066265     2.058621     2.050978     2.043335     2.035692     2.028049     2.020405
      2.012762     2.005119     1.997476     1.989833     1.982190     1.974546     1.966903     1.959260     1.951617     1.943974
      1.936331     1.928688     1.921045     1.913402     1.905759     1.898115     1.890472     1.882829     1.875186     1.867543
      1.859900     1.852257     1.844614     1.836971     1.829327     1.821684     1.814041     1.806398     1.798755     1.791112
      1.783469     1.775826     1.768183     1.760540     1.752896     1.745253     1.737610     1.729967     1.722324     1.714681
      1.707038     1.699395     1.691752     1.684108     1.676465     1.668822     1.661179     1.653536     1.645893     1.638250
      1.630607     1.622964     1.615321     1.607677     1.600034     1.592391     1.584748     1.577105     1.569462     1.561819
      1.554176     1.546533     1.538890     1.531246     1.523603     1.515960     1.508317     1.500674     1.493031     1.485388
      1.477745     1.470102     1.462458     1.454815     1.447172     1.439529     1.431886     1.424243     1.416600     1.408957
      1.401314     1.393671     1.386027     1.378384     1.370741     1.363098     1.355455     1.347812     1.340169     1.332526
      1.324883     1.317240     1.309596     1.301953     1.294310     1.286667     1.279024     1.271381     1.263738     1.256095
      1.248452     1.240808     1.233165     1.225522     1.217879     1.210236     1.202593     1.194950     1.187307     1.179664
      1.172021     1.164377     1.156734     1.149091     1.141448     1.133805     1.126162     1.118519     1.110876     1.103233
      1.095590     1.087946     1.080303     1.072660     1.065017     1.057374     1.049731     1.042088     1.034445     1.026802
      1.019158     1.011515     1.003872     0.996229     0.988586     0.980943     0.973300     0.965657     0.958014     0.950371
      0.942727     0.935084     0.927441     0.919798     0.912155     0.904512     0.896869     0.889226     0.881583     0.873940
      0.866296     0.858653     0.851010     0.843367     0.835724     0.828081     0.820438     0.812795     0.805152     0.797508
      0.789865     0.782222     0.774579     0.766936     0.759293     0.751650     0.744007     0.736364     0.728721     0.721077
      0.713434     0.705791     0.698148     0.690505     0.682862     0.675219     0.667576     0.659933     0.652290     0.644646
      0.637003     0.629360     0.621717     0.614074     0.606431     0.598788     0.591145     0.583502     0.575858     0.568215
      0.560572     0.552929     0.545286     0.537643     0.530000     0.522357     0.514714     0.507071     0.499427     0.491784
      0.484141     0.476498     0.468855     0.461212     0.453569     0.445925     0.438282     0.430639     0.422996     0.415353
      0.407710     0.400067     0.392424     0.384780     0.377137     0.369494     0.361851     0.354208     0.346565     0.338922
      0.331278     0.323635     0.315992     0.308349     0.300706     0.293063     0.285420     0.277777     0.270133     0.262490
      0.254847     0.247204     0.239561     0.231918     0.224275     0.216631     0.208988     0.201345
 NY phased data points follow
  -3.52519E+00 -8.40484E+00  1.27578E+01 -9.49658E+00 -1.50897E-01  2.90041E+00  4.99379E+00  8.70621E+00 -3.58516E-01  1.47614E+01
   8.43506E+00  1.30563E+00  1.50950E+01  4.62049E+00  1.53114E+01  1.57122E+00  3.16043E-01  5.24672E+00  5.53927E+00  9.20870E-01
  -1.48667E+01 -4.31252E+00 -8.81417E-03 -7.51166E+00  1.18390E+01  4.20716E+00  7.37979E+00  7.40424E+00  8.32103E+00  1.85134E+01
   6.92771E+00  7.04235E-01 -5.12867E+00 -1.72359E+00 -2.73696E+00  3.78519E+00  1.56454E+01  9.04850E+00 -1.22293E+00  1.17471E+01
   8.94066E-01  2.08227E+00  8.24437E+00  4.41161E-01  2.17693E+00 -1.11441E+01  7.90758E+00 -1.17342E+00  5.64530E-01  3.31039E+00
   7.36616E+00 -1.27070E+01 -8.71657E+00 -1.30246E+01  8.42267E+00  5.44461E+00  1.48889E+01  1.20574E+01  6.50677E+00  1.23382E+01
   9.43495E-01 -5.84718E+00 -5.83074E+00 -2.26923E+01  8.38184E+00 -3.33372E+00  9.79370E+00  2.42293E+00  1.20740E+01  2.55030E+00
   1.28249E+01 -1.70891E+01 -7.91754E-01  6.74844E+00  1.22887E+01 -2.32903E+00 -2.42799E+00 -1.19534E+01 -9.03924E-01 -9.23173E+00
   1.40943E+01  1.01823E+01  8.53393E+00  2.67874E+00  4.95339E+00 -1.42654E+01  6.97810E+00 -8.07734E-01 -3.22352E+00 -1.95994E+00
   1.02975E+01 -1.21321E+01 -2.84094E+00  7.92609E+00 -1.66358E+01 -4.09172E+00 -1.40907E+01 -6.53688E+00 -1.47718E+00  4.29527E+00
   1.37049E+01 -1.09087E+01  4.66311E+00 -1.48331E+01  8.47612E+00 -2.07601E+01 -3.14120E+00 -9.94893E+00  4.13460E+00 -1.03649E+00
  -7.95954E+00  2.74883E+00  1.84921E-01 -1.94049E-01 -8.39240E+00  1.60870E+01  1.05769E+01 -1.05236E+01 -3.56718E+00 -5.21976E+00
   4.62808E+00  8.42800E-01  3.18871E+00 -6.72259E+00  1.07377E+01  1.12030E+01  4.24148E+00  4.62640E-01 -3.64668E+00  9.53984E-01
   1.41024E+01  7.93628E+00 -4.61833E+00 -4.54564E+00  3.37908E+00 -2.22502E+00 -3.70779E+00 -1.04804E+01 -8.45720E+00 -7.94478E+00
  -8.15680E+00 -1.55253E+00  8.18833E+00 -3.84354E+00  1.34338E+01 -3.38961E+00 -3.55724E+00  5.84722E+00  1.34411E+01 -5.59396E+00
   1.12453E+01 -6.98462E+00 -3.76080E+00  9.92322E+00 -4.29666E+00  4.24268E+00  4.20734E+00 -4.89297E-01 -1.72571E+00  2.67696E+00
   3.96121E+00 -2.48840E+00  5.91597E+00 -1.28459E+01  4.54893E+00 -4.69992E+00  8.57880E-01  4.44104E+00  1.56016E+00  3.47379E+00
   1.71675E+01 -9.48754E+00  2.72556E+00 -2.34301E+01  2.11021E+00  5.02005E+00 -7.52604E+00 -3.57341E+00 -4.30408E+00 -1.18369E+01
   1.06142E-01  1.60862E+01 -7.24291E+00  4.18245E+00  6.96346E+00 -4.16432E+00 -6.56743E+00 -5.30506E+00  5.46267E+00  6.87859E+00
   1.30373E-01  1.61795E+01  5.89254E+00  5.10541E+00 -1.21439E+01 -5.19109E+00 -4.05954E+00 -4.99281E+00 -4.50044E+00 -3.85869E+00
   1.06738E+01 -5.56558E+00  1.42775E+00 -1.70831E+00 -8.07595E-01  4.98706E+00  4.63471E+00 -3.09034E+00 -3.01844E+00 -1.36956E+01
   6.14561E+00 -3.40611E+00  5.55219E+00 -1.02612E+00  7.01726E+00  8.30049E+00  1.66796E+01 -3.25245E+00  7.00451E+00 -1.28914E+01
  -7.85761E+00  1.69445E+00 -8.00146E-01 -5.38486E+00 -3.01695E+00 -1.63755E+01 -7.32076E+00 -2.38988E+01 -6.04076E+00  3.84837E+00
   6.11447E+00  3.34187E+00  6.53118E+00  3.34226E+00 -7.07303E-01  3.11069E+00 -9.25451E+00 -1.03506E+01 -3.68261E+00 -7.01003E+00
  -3.62555E+00 -1.41266E+01  6.42965E+00  8.17322E+00 -3.53951E+00 -8.30891E+00 -6.43044E+00  3.53281E-01 -1.40099E+01 -3.36902E+00
  -6.92791E-02 -2.11994E+00  4.06137E-01 -8.55826E-01  7.94559E-01  1.11102E+01  9.25877E+00  4.75160E+00  7.43323E+00  1.69759E+01
   1.02884E+01  1.27390E+01  1.80899E+01  2.31336E+01  1.27668E+01  1.58031E+00  1.69811E+01  2.29389E+00  4.21118E+00  5.58479E+00
   1.86179E+01 -6.45522E+00 -1.41766E+00  4.03947E-01 -1.30168E+00  7.01387E+00  1.01100E+01  1.60010E+01  3.30231E+00 -7.45252E+00
  -7.07803E+00  2.06743E+00  2.78070E+00  4.18518E-01  1.63858E+00  8.35992E+00  9.72027E+00  1.28573E+00  1.26784E+01 -1.43724E+00
  -4.18542E+00 -2.31500E+00  1.11740E+01  1.52286E+01 -8.11486E+00  2.23447E+00 -1.00339E+01 -8.19658E+00  1.58267E+00  5.75100E+00
  -4.91500E+00 -5.69240E+00 -1.16792E+01  4.09080E+00  5.40083E+00  4.40030E+00  3.02255E+00  1.35106E+01 -1.39008E+00 -5.95593E+00
   8.35906E+00 -7.87783E+00 -1.69600E+00 -1.04472E+00  6.86872E+00 -3.33695E+00  5.58388E+00  2.55040E+00  5.21798E+00 -7.09918E+00
   7.71089E+00 -8.44824E-02  1.18986E+01  4.19743E+00  1.20926E+01  1.14240E+01 -2.24294E+00  9.18425E+00  1.43165E+01  1.94363E+01
   9.80382E+00  2.22514E+01  4.85348E+00  1.10355E+01  4.43391E+00  2.13815E+01  1.39664E+01  6.64779E+00  1.35758E+01  1.27084E+01
   2.25733E+01 -1.19745E+01  7.39442E+00 -3.18882E+00  1.61437E+01  3.55010E+00  7.73267E+00 -7.88959E+00 -5.94299E+00  3.58882E+00
   4.23917E-01 -2.35328E+00  1.53319E+01 -9.41840E+00  1.82394E-01  1.36662E+00  1.09094E+01  3.28668E+00  4.93636E+00  4.01202E-01
   1.12493E+01  2.11075E+00  1.42668E+01  9.51335E+00  1.78094E+01 -4.34725E+00  3.56951E+00  1.70242E+00  1.18133E+01 -7.52473E+00
   3.22492E+00  8.54971E+00  8.31188E-01  9.52073E+00  3.40621E+00  7.52452E-01 -3.29006E+00 -5.92960E+00 -2.37738E+00 -6.05715E+00
  -7.01888E+00 -4.64853E+00  9.21638E+00 -4.51224E+00  4.26969E+00 -1.95021E+00 -9.50415E-01  4.35142E-01 -8.37548E+00  3.93880E+00
  -9.08886E-02  6.45156E+00 -6.49672E+00  3.23802E+00 -8.33973E+00  4.69136E+00  8.01658E+00  3.03505E+00 -1.35414E+00  4.90921E+00
   8.93039E-01  7.97938E+00  1.18361E+00  9.92841E+00  1.04398E+00  4.49650E+00  4.99113E+00  2.98128E+00  6.46525E+00 -1.57673E+01
   3.14717E+00 -1.72609E+00  8.42933E+00 -9.88650E-01 -4.13958E+00  3.56573E+00 -5.85765E+00  2.32827E+00  2.37177E+01 -6.98175E+00
   2.17080E+00 -2.41770E+00  1.02367E+00  1.97671E+00 -5.19564E+00 -1.49298E+01  3.70758E+00  5.18089E+00  7.65743E+00  1.72364E+01
   6.79879E+00  9.43696E+00  1.87023E+00 -1.18518E+00  1.11236E+01  1.45481E+01 -5.77478E+00  6.70877E-01  5.59000E+00  2.10515E+00
   6.12903E+00  8.04598E+00 -1.62739E+00  9.07892E+00  6.05174E+00  4.84511E+00  7.27664E+00  7.14098E-01 -3.53360E+00  6.87302E+00
   1.12915E+01  1.13367E+01 -6.30077E+00 -2.04065E+00  3.73384E+00 -1.00323E+01  5.19360E+00  5.56811E+00  2.68057E-01 -1.57411E+01
   2.51678E+00  1.35847E+00  3.30720E+00  4.47979E+00 -3.96486E-01 -5.03905E+00 -8.26752E-01  8.13064E+00  9.07229E-01 -3.46632E+00
   1.27607E+01  1.65936E+00  3.09983E+00  1.81507E+00 -8.09622E-01 -2.10644E+00  9.69506E+00  2.25857E+00 -8.32249E+00  6.31159E-02
  -3.12092E+00  1.41603E+01  6.66732E+00 -7.93345E+00  8.40325E+00  4.04487E-01 -5.57743E+00 -1.51405E+01 -2.66737E+00 -4.02683E+00
   8.33041E+00 -3.80635E+00  5.94149E+00  2.57541E+00  7.80163E+00  2.00785E+00 -8.80217E+00  3.18968E+00
 NY points of the fit to the data follow
   9.71238E-02  6.69354E-02  3.34044E-01  8.25959E-01  1.44400E+00  2.08613E+00  2.67141E+00  3.14359E+00  3.46642E+00  3.65524E+00
   3.76953E+00  3.81978E+00  3.78542E+00  3.65126E+00  3.41599E+00  3.10814E+00  2.81987E+00  2.64012E+00  2.60811E+00  2.61441E+00
   2.57773E+00  2.43843E+00  2.20103E+00  2.03929E+00  2.16021E+00  2.66896E+00  3.56061E+00  4.62205E+00  5.57476E+00  6.14294E+00
   6.18718E+00  5.83450E+00  5.33556E+00  4.92795E+00  4.76843E+00  4.83039E+00  4.94518E+00  4.87212E+00  4.41426E+00  3.49861E+00
   2.37479E+00  1.42797E+00  9.22147E-01  9.96830E-01  1.56891E+00  2.34560E+00  3.00701E+00  3.30377E+00  3.21159E+00  2.81040E+00
   2.26080E+00  1.75741E+00  1.35353E+00  1.00852E+00  6.99965E-01  4.30681E-01  2.14642E-01  6.54991E-02 -6.76909E-03 -1.54636E-02
   4.42634E-03  2.39100E-02  3.31062E-02  3.50835E-02  2.76599E-02  6.08588E-03 -2.68418E-02 -6.13966E-02 -9.02214E-02 -1.07533E-01
  -1.06498E-01 -8.91840E-02 -6.65514E-02 -4.80425E-02 -4.35740E-02 -5.63570E-02 -8.25795E-02 -1.12315E-01 -1.45288E-01 -1.89719E-01
  -2.51056E-01 -3.30565E-01 -4.21543E-01 -5.11117E-01 -5.95087E-01 -6.69338E-01 -7.27846E-01 -7.68758E-01 -8.00385E-01 -8.32145E-01
  -8.67005E-01 -9.06288E-01 -9.46094E-01 -9.78019E-01 -9.98471E-01 -1.00918E+00 -1.01221E+00 -1.01030E+00 -1.01625E+00 -1.03585E+00
  -1.06465E+00 -1.09461E+00 -1.12009E+00 -1.13735E+00 -1.14507E+00 -1.14222E+00 -1.12762E+00 -1.10052E+00 -1.06399E+00 -1.02239E+00
  -9.79330E-01 -9.42778E-01 -9.15393E-01 -8.95979E-01 -8.82914E-01 -8.68718E-01 -8.33436E-01 -7.05152E-01 -3.22533E-01  3.26035E-01
   1.15690E+00  2.07147E+00  2.97889E+00  3.80835E+00  4.50576E+00  5.03884E+00  5.40216E+00  5.61529E+00  5.69567E+00  5.61173E+00
   5.31201E+00  4.76594E+00  3.97194E+00  2.98834E+00  1.94324E+00  9.76409E-01  1.95562E-01 -3.11569E-01 -5.19036E-01 -5.96536E-01
  -6.41091E-01 -6.55591E-01 -6.34409E-01 -5.80072E-01 -5.04913E-01 -4.35573E-01 -4.06999E-01 -4.29871E-01 -4.94553E-01 -5.83499E-01
  -6.73988E-01 -7.51840E-01 -8.21041E-01 -8.84615E-01 -9.48411E-01 -1.00942E+00 -1.05735E+00 -1.09001E+00 -1.11123E+00 -1.12407E+00
  -1.13208E+00 -1.14160E+00 -1.15896E+00 -1.18545E+00 -1.21643E+00 -1.24607E+00 -1.27152E+00 -1.29805E+00 -1.33471E+00 -1.38089E+00
  -1.43587E+00 -1.50026E+00 -1.57751E+00 -1.65727E+00 -1.72364E+00 -1.76826E+00 -1.79369E+00 -1.81583E+00 -1.84402E+00 -1.86761E+00
  -1.86900E+00 -1.83403E+00 -1.75332E+00 -1.62540E+00 -1.46218E+00 -1.29430E+00 -1.14594E+00 -1.05099E+00 -1.02904E+00 -1.07769E+00
  -1.17705E+00 -1.29031E+00 -1.35623E+00 -1.30308E+00 -1.09415E+00 -7.35531E-01 -2.28069E-01  4.11570E-01  1.10817E+00  1.75378E+00
   2.25699E+00  2.39676E+00  2.11809E+00  1.50817E+00  6.68273E-01 -2.31945E-01 -9.55358E-01 -1.14590E+00 -6.50140E-01  3.27143E-01
   1.52300E+00  2.66289E+00  3.54395E+00  3.92411E+00  3.58692E+00  2.67932E+00  1.62548E+00  6.34770E-01 -3.15600E-01 -1.34100E+00
  -2.53153E+00 -3.98975E+00 -5.58257E+00 -7.07573E+00 -8.15924E+00 -8.44305E+00 -7.64510E+00 -5.72549E+00 -3.05048E+00 -1.76458E-01
   2.46910E+00  4.50558E+00  5.67345E+00  5.87395E+00  5.21465E+00  4.16554E+00  3.12220E+00  2.20106E+00  1.47023E+00  9.79398E-01
   7.09401E-01  5.70206E-01  4.08392E-01  1.02697E-01 -3.25648E-01 -7.72901E-01 -1.13274E+00 -1.31989E+00 -1.21925E+00 -8.52109E-01
  -3.41083E-01  3.86325E-01  1.48334E+00  2.87458E+00  4.40824E+00  6.10642E+00  7.94169E+00  9.72609E+00  1.12521E+01  1.23919E+01
   1.31022E+01  1.34149E+01  1.33975E+01  1.30707E+01  1.24539E+01  1.15210E+01  1.02114E+01  8.57146E+00  6.79405E+00  5.07911E+00
   3.66216E+00  2.81252E+00  2.48306E+00  2.35772E+00  2.33185E+00  2.39249E+00  2.50135E+00  2.60565E+00  2.71700E+00  2.80500E+00
   2.83223E+00  2.78407E+00  2.66690E+00  2.49976E+00  2.32726E+00  2.19022E+00  2.09764E+00  2.04077E+00  2.00871E+00  1.99071E+00
   1.97676E+00  1.95734E+00  1.92700E+00  1.89299E+00  1.86104E+00  1.83371E+00  1.81204E+00  1.79637E+00  1.78618E+00  1.77977E+00
   1.77588E+00  1.77472E+00  1.77563E+00  1.77776E+00  1.78140E+00  1.78674E+00  1.79383E+00  1.80265E+00  1.81311E+00  1.82509E+00
   1.83862E+00  1.85399E+00  1.87163E+00  1.89210E+00  1.91621E+00  1.94449E+00  1.97692E+00  2.01363E+00  2.05477E+00  2.10058E+00
   2.15133E+00  2.20737E+00  2.26902E+00  2.33669E+00  2.41088E+00  2.49229E+00  2.58182E+00  2.68066E+00  2.79039E+00  2.91313E+00
   3.05193E+00  3.21117E+00  3.39722E+00  3.61953E+00  3.89299E+00  4.24292E+00  4.71854E+00  5.43720E+00  6.58064E+00  7.93905E+00
   9.13414E+00  9.90395E+00  1.00831E+01  9.58731E+00  8.36157E+00  6.49070E+00  4.50548E+00  2.84516E+00  1.67353E+00  9.15366E-01
   4.04284E-01  3.50618E-02 -2.42280E-01 -3.91533E-01 -2.18868E-01  4.92662E-01  1.86986E+00  3.86248E+00  6.16192E+00  8.10646E+00
   9.28271E+00  9.60076E+00  9.13357E+00  8.08079E+00  6.69944E+00  5.34090E+00  4.40505E+00  3.82255E+00  3.41697E+00  3.11411E+00
   2.87852E+00  2.69001E+00  2.53598E+00  2.40811E+00  2.30070E+00  2.20966E+00  2.13199E+00  2.06545E+00  2.00834E+00  1.95937E+00
   1.91755E+00  1.88206E+00  1.85223E+00  1.82750E+00  1.80745E+00  1.79175E+00  1.78010E+00  1.77223E+00  1.76788E+00  1.76684E+00
   1.76887E+00  1.77376E+00  1.78123E+00  1.79096E+00  1.80261E+00  1.81580E+00  1.83010E+00  1.84506E+00  1.86017E+00  1.87490E+00
   1.88874E+00  1.90119E+00  1.91179E+00  1.92012E+00  1.92583E+00  1.92865E+00  1.92842E+00  1.92509E+00  1.91871E+00  1.90940E+00
   1.89740E+00  1.88301E+00  1.86660E+00  1.84860E+00  1.82942E+00  1.80949E+00  1.78923E+00  1.76903E+00  1.74923E+00  1.73014E+00
   1.71200E+00  1.69498E+00  1.67922E+00  1.66479E+00  1.65176E+00  1.64012E+00  1.62983E+00  1.62084E+00  1.61307E+00  1.60646E+00
   1.60091E+00  1.59633E+00  1.59262E+00  1.58969E+00  1.58747E+00  1.58588E+00  1.58486E+00  1.58435E+00  1.58429E+00  1.58462E+00
   1.58531E+00  1.58632E+00  1.58762E+00  1.58917E+00  1.59094E+00  1.59293E+00  1.59511E+00  1.59746E+00  1.59998E+00  1.60263E+00
   1.60541E+00  1.60831E+00  1.61133E+00  1.61446E+00  1.61768E+00  1.62098E+00  1.62437E+00  1.62784E+00  1.63138E+00  1.63501E+00
   1.63869E+00  1.64244E+00  1.64624E+00  1.65011E+00  1.65402E+00  1.65798E+00  1.66199E+00  1.66603E+00  1.67013E+00  1.67427E+00
   1.67846E+00  1.68268E+00  1.68695E+00  1.69124E+00  1.69558E+00  1.69996E+00  1.70438E+00  1.70883E+00  1.71332E+00  1.71784E+00
   1.72240E+00  1.72699E+00  1.73162E+00  1.73627E+00  1.74095E+00  1.74567E+00  1.75043E+00  1.75522E+00  1.76004E+00  1.76490E+00
   1.76980E+00  1.77475E+00  1.77974E+00  1.78478E+00  1.78987E+00  1.79502E+00  1.80023E+00  1.80552E+00
 NY background values follow
    -1.318E+00   -1.312E+00   -1.306E+00   -1.300E+00   -1.294E+00   -1.288E+00   -1.282E+00   -1.276E+00   -1.270E+00   -1.264E+00
    -1.258E+00   -1.252E+00   -1.245E+00   -1.239E+00   -1.233E+00   -1.227E+00   -1.221E+00   -1.215E+00   -1.209E+00   -1.203E+00
    -1.197E+00   -1.191E+00   -1.185E+00   -1.179E+00   -1.173E+00   -1.167E+00   -1.161E+00   -1.155E+00   -1.149E+00   -1.143E+00
    -1.137E+00   -1.130E+00   -1.124E+00   -1.118E+00   -1.112E+00   -1.106E+00   -1.100E+00   -1.094E+00   -1.088E+00   -1.082E+00
    -1.076E+00   -1.070E+00   -1.064E+00   -1.058E+00   -1.052E+00   -1.046E+00   -1.040E+00   -1.034E+00   -1.028E+00   -1.022E+00
    -1.015E+00   -1.009E+00   -1.003E+00   -9.973E-01   -9.913E-01   -9.852E-01   -9.792E-01   -9.731E-01   -9.670E-01   -9.610E-01
    -9.549E-01   -9.489E-01   -9.428E-01   -9.368E-01   -9.307E-01   -9.247E-01   -9.186E-01   -9.126E-01   -9.065E-01   -9.005E-01
    -8.944E-01   -8.884E-01   -8.823E-01   -8.762E-01   -8.702E-01   -8.641E-01   -8.581E-01   -8.520E-01   -8.460E-01   -8.399E-01
    -8.339E-01   -8.278E-01   -8.218E-01   -8.157E-01   -8.097E-01   -8.036E-01   -7.976E-01   -7.915E-01   -7.855E-01   -7.794E-01
    -7.733E-01   -7.673E-01   -7.612E-01   -7.552E-01   -7.491E-01   -7.431E-01   -7.370E-01   -7.310E-01   -7.249E-01   -7.189E-01
    -7.128E-01   -7.068E-01   -7.007E-01   -6.947E-01   -6.886E-01   -6.825E-01   -6.765E-01   -6.704E-01   -6.644E-01   -6.583E-01
    -6.523E-01   -6.462E-01   -6.402E-01   -6.341E-01   -6.281E-01   -6.220E-01   -6.160E-01   -6.099E-01   -6.038E-01   -5.978E-01
    -5.917E-01   -5.857E-01   -5.796E-01   -5.736E-01   -5.675E-01   -5.615E-01   -5.554E-01   -5.494E-01   -5.433E-01   -5.373E-01
    -5.312E-01   -5.252E-01   -5.191E-01   -5.130E-01   -5.070E-01   -5.009E-01   -4.949E-01   -4.888E-01   -4.828E-01   -4.767E-01
    -4.707E-01   -4.646E-01   -4.586E-01   -4.525E-01   -4.465E-01   -4.404E-01   -4.344E-01   -4.283E-01   -4.222E-01   -4.162E-01
    -4.101E-01   -4.041E-01   -3.980E-01   -3.920E-01   -3.859E-01   -3.799E-01   -3.738E-01   -3.678E-01   -3.617E-01   -3.557E-01
    -3.496E-01   -3.436E-01   -3.375E-01   -3.314E-01   -3.254E-01   -3.193E-01   -3.133E-01   -3.072E-01   -3.012E-01   -2.951E-01
    -2.891E-01   -2.830E-01   -2.770E-01   -2.709E-01   -2.649E-01   -2.588E-01   -2.527E-01   -2.467E-01   -2.406E-01   -2.346E-01
    -2.285E-01   -2.225E-01   -2.164E-01   -2.104E-01   -2.043E-01   -1.983E-01   -1.922E-01   -1.862E-01   -1.801E-01   -1.741E-01
    -1.680E-01   -1.619E-01   -1.559E-01   -1.498E-01   -1.438E-01   -1.377E-01   -1.317E-01   -1.256E-01   -1.196E-01   -1.135E-01
    -1.075E-01   -1.014E-01   -9.535E-02   -8.930E-02   -8.325E-02   -7.719E-02   -7.114E-02   -6.509E-02   -5.903E-02   -5.298E-02
    -4.693E-02   -4.087E-02   -3.482E-02   -2.876E-02   -2.271E-02   -1.666E-02   -1.060E-02   -4.549E-03    1.504E-03    7.558E-03
     1.361E-02    1.967E-02    2.572E-02    3.177E-02    3.783E-02    4.388E-02    4.993E-02    5.599E-02    6.204E-02    6.810E-02
     7.415E-02    8.020E-02    8.626E-02    9.231E-02    9.836E-02    1.044E-01    1.105E-01    1.165E-01    1.226E-01    1.286E-01
     1.347E-01    1.407E-01    1.468E-01    1.528E-01    1.589E-01    1.650E-01    1.710E-01    1.771E-01    1.831E-01    1.892E-01
     1.952E-01    2.013E-01    2.073E-01    2.134E-01    2.194E-01    2.255E-01    2.315E-01    2.376E-01    2.437E-01    2.497E-01
     2.558E-01    2.618E-01    2.679E-01    2.739E-01    2.800E-01    2.860E-01    2.921E-01    2.981E-01    3.042E-01    3.102E-01
     3.163E-01    3.224E-01    3.284E-01    3.345E-01    3.405E-01    3.466E-01    3.526E-01    3.587E-01    3.647E-01    3.708E-01
     3.768E-01    3.829E-01    3.889E-01    3.950E-01    4.011E-01    4.071E-01    4.132E-01    4.192E-01    4.253E-01    4.313E-01
     4.374E-01    4.434E-01    4.495E-01    4.555E-01    4.616E-01    4.676E-01    4.737E-01    4.798E-01    4.858E-01    4.919E-01
     4.979E-01    5.040E-01    5.100E-01    5.161E-01    5.221E-01    5.282E-01    5.342E-01    5.403E-01    5.463E-01    5.524E-01
     5.585E-01    5.645E-01    5.706E-01    5.766E-01    5.827E-01    5.887E-01    5.948E-01    6.008E-01    6.069E-01    6.129E-01
     6.190E-01    6.251E-01    6.311E-01    6.372E-01    6.432E-01    6.493E-01    6.553E-01    6.614E-01    6.674E-01    6.735E-01
     6.795E-01    6.856E-01    6.916E-01    6.977E-01    7.038E-01    7.098E-01    7.159E-01    7.219E-01    7.280E-01    7.340E-01
     7.401E-01    7.461E-01    7.522E-01    7.582E-01    7.643E-01    7.703E-01    7.764E-01    7.825E-01    7.885E-01    7.946E-01
     8.006E-01    8.067E-01    8.127E-01    8.188E-01    8.248E-01    8.309E-01    8.369E-01    8.430E-01    8.490E-01    8.551E-01
     8.612E-01    8.672E-01    8.733E-01    8.793E-01    8.854E-01    8.914E-01    8.975E-01    9.035E-01    9.096E-01    9.156E-01
     9.217E-01    9.277E-01    9.338E-01    9.399E-01    9.459E-01    9.520E-01    9.580E-01    9.641E-01    9.701E-01    9.762E-01
     9.822E-01    9.883E-01    9.943E-01    1.000E+00    1.006E+00    1.012E+00    1.019E+00    1.025E+00    1.031E+00    1.037E+00
     1.043E+00    1.049E+00    1.055E+00    1.061E+00    1.067E+00    1.073E+00    1.079E+00    1.085E+00    1.091E+00    1.097E+00
     1.103E+00    1.109E+00    1.115E+00    1.121E+00    1.128E+00    1.134E+00    1.140E+00    1.146E+00    1.152E+00    1.158E+00
     1.164E+00    1.170E+00    1.176E+00    1.182E+00    1.188E+00    1.194E+00    1.200E+00    1.206E+00    1.212E+00    1.218E+00
     1.224E+00    1.230E+00    1.236E+00    1.243E+00    1.249E+00    1.255E+00    1.261E+00    1.267E+00    1.273E+00    1.279E+00
     1.285E+00    1.291E+00    1.297E+00    1.303E+00    1.309E+00    1.315E+00    1.321E+00    1.327E+00    1.333E+00    1.339E+00
     1.345E+00    1.352E+00    1.358E+00    1.364E+00    1.370E+00    1.376E+00    1.382E+00    1.388E+00    1.394E+00    1.400E+00
     1.406E+00    1.412E+00    1.418E+00    1.424E+00    1.430E+00    1.436E+00    1.442E+00    1.448E+00    1.454E+00    1.460E+00
     1.467E+00    1.473E+00    1.479E+00    1.485E+00    1.491E+00    1.497E+00    1.503E+00    1.509E+00    1.515E+00    1.521E+00
     1.527E+00    1.533E+00    1.539E+00    1.545E+00    1.551E+00    1.557E+00    1.563E+00    1.569E+00    1.575E+00    1.582E+00
     1.588E+00    1.594E+00    1.600E+00    1.606E+00    1.612E+00    1.618E+00    1.624E+00    1.630E+00    1.636E+00    1.642E+00
     1.648E+00    1.654E+00    1.660E+00    1.666E+00    1.672E+00    1.678E+00    1.684E+00    1.691E+00
 Asp      Conc. = 3.82E+01
