 LCModel (Version 6.3-1L) Copyright: S.W. Provencher.          Ref.: Magn. Reson. Med. 30:672-679 (1993).                
 Slice#2 Row#9 Col#5  PD_24_press_2_raw_act
 36 lines in following concentration table = NCONC+1
    Conc.  %SD /Cr+PCr  Metabolite                                         
    0.000 999%   0.000 Ala                                                 
    0.000 999%   0.000 Asp                                                 
 2.06E+03  16%   0.609 Cr                                                  
 1.32E+03  25%   0.391 PCr                                                 
    0.000 999%   0.000 GABA                                                
    0.000 999%   0.000 Glc                                                 
 1.57E+03  23%   0.464 Gln                                                 
 2.89E+03  14%   0.853 Glu                                                 
  798.397   4%   0.236 GPC                                                 
    0.000 999%   0.000 PCh                                                 
 1.08E+03  10%   0.319 GSH                                                 
 2.51E+03  15%   0.741 Ins                                                 
  148.307 126% 4.4E-02 Lac                                                 
 5.11E+03   5%   1.509 NAA                                                 
   72.983 334% 2.2E-02 NAAG                                                
  152.435  25% 4.5E-02 Scyllo                                              
    0.000 999%   0.000 Tau                                                 
    0.000 999%   0.000 -CrCH2                                              
  798.397   4%   0.236 GPC+PCh                                             
 5.18E+03   3%   1.531 NAA+NAAG                                            
 3.39E+03   3%   1.000 Cr+PCr                                              
 4.46E+03  13%   1.318 Glu+Gln                                             
 4.43E+03  26%   1.309 Lip13a                                              
    0.000 999%   0.000 Lip13b                                              
  323.208 186% 9.5E-02 Lip09                                               
 3.10E+03  21%   0.915 MM09                                                
  383.388 107%   0.113 Lip20                                               
 5.60E+03  12%   1.653 MM20                                                
 1.27E+03  33%   0.376 MM12                                                
 4.06E+03  19%   1.198 MM14                                                
 3.05E+03   8%   0.899 MM17                                                
 4.43E+03  26%   1.309 Lip13a+Lip13b                                       
 9.76E+03   8%   2.884 MM14+Lip13a+Lip13b+MM12                             
 3.42E+03  10%   1.011 MM09+Lip09                                          
 5.98E+03  11%   1.767 MM20+Lip20                                          
   6 lines in following misc. output table
  FWHM = 0.061 ppm    S/N =  19                                            
  Data shift = 0.015 ppm                                                   
  Ph:  -3 deg       1.7 deg/ppm                                            
  alphaB,S = 1.4E+00,   2.3E+01                                            
   14 spline knots.   Ns = 8(1)                                            
  (14) 9 infls.   (15) 5 extrs.                                            
  498 points on ppm-axis = NY
      4.000000     3.992357     3.984714     3.977070     3.969427     3.961784     3.954141     3.946497     3.938854     3.931211
      3.923568     3.915925     3.908281     3.900638     3.892995     3.885352     3.877708     3.870065     3.862422     3.854779
      3.847136     3.839492     3.831849     3.824206     3.816563     3.808919     3.801276     3.793633     3.785990     3.778347
      3.770703     3.763060     3.755417     3.747774     3.740130     3.732487     3.724844     3.717201     3.709558     3.701914
      3.694271     3.686628     3.678985     3.671341     3.663698     3.656055     3.648412     3.640769     3.633125     3.625482
      3.617839     3.610196     3.602552     3.594909     3.587266     3.579623     3.571980     3.564336     3.556693     3.549050
      3.541407     3.533763     3.526120     3.518477     3.510834     3.503191     3.495547     3.487904     3.480261     3.472618
      3.464974     3.457331     3.449688     3.442045     3.434402     3.426758     3.419115     3.411472     3.403829     3.396185
      3.388542     3.380899     3.373256     3.365613     3.357969     3.350326     3.342683     3.335040     3.327396     3.319753
      3.312110     3.304467     3.296824     3.289180     3.281537     3.273894     3.266251     3.258607     3.250964     3.243321
      3.235678     3.228034     3.220391     3.212748     3.205105     3.197462     3.189818     3.182175     3.174532     3.166889
      3.159245     3.151602     3.143959     3.136316     3.128673     3.121029     3.113386     3.105743     3.098100     3.090456
      3.082813     3.075170     3.067527     3.059884     3.052240     3.044597     3.036954     3.029311     3.021667     3.014024
      3.006381     2.998738     2.991095     2.983451     2.975808     2.968165     2.960522     2.952878     2.945235     2.937592
      2.929949     2.922306     2.914662     2.907019     2.899376     2.891733     2.884089     2.876446     2.868803     2.861160
      2.853517     2.845873     2.838230     2.830587     2.822944     2.815300     2.807657     2.800014     2.792371     2.784728
      2.777084     2.769441     2.761798     2.754155     2.746511     2.738868     2.731225     2.723582     2.715939     2.708295
      2.700652     2.693009     2.685366     2.677722     2.670079     2.662436     2.654793     2.647150     2.639506     2.631863
      2.624220     2.616577     2.608933     2.601290     2.593647     2.586004     2.578361     2.570717     2.563074     2.555431
      2.547788     2.540144     2.532501     2.524858     2.517215     2.509572     2.501928     2.494285     2.486642     2.478999
      2.471355     2.463712     2.456069     2.448426     2.440783     2.433139     2.425496     2.417853     2.410210     2.402566
      2.394923     2.387280     2.379637     2.371994     2.364350     2.356707     2.349064     2.341421     2.333777     2.326134
      2.318491     2.310848     2.303205     2.295561     2.287918     2.280275     2.272632     2.264988     2.257345     2.249702
      2.242059     2.234416     2.226772     2.219129     2.211486     2.203843     2.196199     2.188556     2.180913     2.173270
      2.165627     2.157983     2.150340     2.142697     2.135054     2.127410     2.119767     2.112124     2.104481     2.096838
      2.089194     2.081551     2.073908     2.066265     2.058621     2.050978     2.043335     2.035692     2.028049     2.020405
      2.012762     2.005119     1.997476     1.989833     1.982190     1.974546     1.966903     1.959260     1.951617     1.943974
      1.936331     1.928688     1.921045     1.913402     1.905759     1.898115     1.890472     1.882829     1.875186     1.867543
      1.859900     1.852257     1.844614     1.836971     1.829327     1.821684     1.814041     1.806398     1.798755     1.791112
      1.783469     1.775826     1.768183     1.760540     1.752896     1.745253     1.737610     1.729967     1.722324     1.714681
      1.707038     1.699395     1.691752     1.684108     1.676465     1.668822     1.661179     1.653536     1.645893     1.638250
      1.630607     1.622964     1.615321     1.607677     1.600034     1.592391     1.584748     1.577105     1.569462     1.561819
      1.554176     1.546533     1.538890     1.531246     1.523603     1.515960     1.508317     1.500674     1.493031     1.485388
      1.477745     1.470102     1.462458     1.454815     1.447172     1.439529     1.431886     1.424243     1.416600     1.408957
      1.401314     1.393671     1.386027     1.378384     1.370741     1.363098     1.355455     1.347812     1.340169     1.332526
      1.324883     1.317240     1.309596     1.301953     1.294310     1.286667     1.279024     1.271381     1.263738     1.256095
      1.248452     1.240808     1.233165     1.225522     1.217879     1.210236     1.202593     1.194950     1.187307     1.179664
      1.172021     1.164377     1.156734     1.149091     1.141448     1.133805     1.126162     1.118519     1.110876     1.103233
      1.095590     1.087946     1.080303     1.072660     1.065017     1.057374     1.049731     1.042088     1.034445     1.026802
      1.019158     1.011515     1.003872     0.996229     0.988586     0.980943     0.973300     0.965657     0.958014     0.950371
      0.942727     0.935084     0.927441     0.919798     0.912155     0.904512     0.896869     0.889226     0.881583     0.873940
      0.866296     0.858653     0.851010     0.843367     0.835724     0.828081     0.820438     0.812795     0.805152     0.797508
      0.789865     0.782222     0.774579     0.766936     0.759293     0.751650     0.744007     0.736364     0.728721     0.721077
      0.713434     0.705791     0.698148     0.690505     0.682862     0.675219     0.667576     0.659933     0.652290     0.644646
      0.637003     0.629360     0.621717     0.614074     0.606431     0.598788     0.591145     0.583502     0.575858     0.568215
      0.560572     0.552929     0.545286     0.537643     0.530000     0.522357     0.514714     0.507071     0.499427     0.491784
      0.484141     0.476498     0.468855     0.461212     0.453569     0.445925     0.438282     0.430639     0.422996     0.415353
      0.407710     0.400067     0.392424     0.384780     0.377137     0.369494     0.361851     0.354208     0.346565     0.338922
      0.331278     0.323635     0.315992     0.308349     0.300706     0.293063     0.285420     0.277777     0.270133     0.262490
      0.254847     0.247204     0.239561     0.231918     0.224275     0.216631     0.208988     0.201345
 NY phased data points follow
   2.98202E+01  3.74831E+01  3.90835E+01  4.49480E+01  4.39218E+01  5.15897E+01  5.41301E+01  7.55043E+01  7.26844E+01  8.93199E+01
   9.52032E+01  9.91307E+01  9.23303E+01  9.73715E+01  8.08931E+01  8.30739E+01  6.38259E+01  5.90117E+01  4.82095E+01  5.31207E+01
   4.34434E+01  4.60977E+01  3.69026E+01  4.39961E+01  3.83802E+01  4.40423E+01  4.58678E+01  4.79332E+01  4.25352E+01  5.31129E+01
   5.08748E+01  5.57240E+01  5.19876E+01  5.48511E+01  3.90394E+01  4.37217E+01  3.72446E+01  4.40123E+01  3.35361E+01  3.72582E+01
   3.88736E+01  3.73335E+01  3.87728E+01  4.04170E+01  3.96758E+01  4.86725E+01  4.15834E+01  4.23832E+01  4.32754E+01  4.01276E+01
   4.07305E+01  3.65862E+01  3.68476E+01  3.39618E+01  3.04646E+01  3.20492E+01  2.81423E+01  3.29768E+01  3.11172E+01  3.72923E+01
   3.32630E+01  2.81303E+01  2.37589E+01  2.37557E+01  1.70401E+01  1.91838E+01  2.49235E+01  1.17426E+01  1.44325E+01  1.70219E+01
   1.35296E+01  1.88702E+01  2.27406E+01  2.02175E+01  1.96485E+01  1.97751E+01  2.01408E+01  2.15228E+01  1.57017E+01  1.51750E+01
   1.39131E+01  1.10378E+01  1.32360E+01  2.45835E+01  1.68216E+01  1.89453E+01  1.71647E+01  2.31440E+01  1.61236E+01  1.72708E+01
   2.09160E+01  1.51859E+01  1.77271E+01  1.57236E+01  1.88494E+01  1.40394E+01  1.32913E+01  2.23331E+01  1.99229E+01  3.67075E+01
   4.12572E+01  5.48749E+01  6.15642E+01  7.22159E+01  7.10235E+01  7.26499E+01  6.69866E+01  5.94691E+01  4.69185E+01  3.82051E+01
   2.37124E+01  2.85052E+01  2.27543E+01  2.42456E+01  1.96293E+01  1.37047E+01  1.82865E+01  1.56053E+01  1.05290E+01  1.75273E+01
   1.92002E+01  2.15094E+01  2.94974E+01  4.56756E+01  5.44523E+01  8.22824E+01  9.25820E+01  1.14214E+02  1.07648E+02  1.05300E+02
   8.85670E+01  8.07539E+01  6.31217E+01  5.12274E+01  3.62955E+01  2.44544E+01  2.06310E+01  2.34636E+01  1.65321E+01  1.67130E+01
   9.36922E+00  1.33998E+01  5.83726E+00  1.30849E+01  4.29141E+00  4.48723E+00  5.01355E+00  4.84990E+00  5.05765E+00  6.79314E+00
  -1.32497E+00  3.98278E+00  1.08588E+00  1.15807E+00  1.66644E+00  3.57679E+00  1.31866E+00  2.28238E+00  1.15141E+00  2.43576E+00
   4.01516E+00  4.89816E+00  2.52123E+00  4.06216E+00 -6.07034E+00 -2.95964E+00 -2.47721E+00 -5.52054E+00 -1.18543E+01  7.49446E-02
  -6.93920E+00 -6.87482E+00 -1.39302E+01 -1.20756E+01 -1.22942E+01 -1.78806E+01 -1.48476E+01 -1.48503E+01 -1.29550E+01 -1.37880E+01
  -1.17385E+01 -1.64136E+01 -1.68740E+01 -1.48125E+01 -1.39621E+01 -1.06594E+01 -1.20702E+01 -6.26915E+00 -8.22197E+00  2.25026E+00
   3.89732E-01  5.38643E+00  4.86573E+00  6.66766E+00  9.43725E+00  8.78426E+00  5.87242E+00  5.08264E+00 -1.14280E+00 -4.80522E-01
   3.81108E+00 -2.63617E-01  2.86135E+00  1.08905E+01  6.41000E+00  6.40705E+00  6.73922E+00  5.34696E-01 -4.54820E+00 -5.92416E-01
  -3.35200E+00 -7.43482E-01 -2.09860E-01  1.22220E+01  6.22740E+00  1.82911E+01  1.56343E+01  1.33631E+01  1.19882E+01  5.36966E+00
  -1.01772E+00  3.03054E+00 -6.54370E-01 -1.87712E+00  1.70241E+00  6.84809E+00  7.33868E+00  1.05549E+01  1.36657E+01  1.75696E+01
   1.09716E+01  1.56928E+01  1.23655E+01  1.83036E+01  1.08584E+01  1.23758E+01  7.05038E+00  1.71388E+01  1.17201E+01  1.23604E+01
   6.03034E+00  1.01919E+01  4.36359E+00  9.81670E+00  9.76259E+00  1.58939E+01  1.08676E+01  1.62140E+01  1.92774E+01  2.11213E+01
   1.93585E+01  2.72615E+01  3.39296E+01  4.07731E+01  4.50981E+01  5.65042E+01  7.10820E+01  9.75047E+01  1.21562E+02  1.57270E+02
   1.64624E+02  1.59728E+02  1.49613E+02  1.31367E+02  1.04017E+02  8.99160E+01  6.36674E+01  4.64536E+01  2.80096E+01  2.45368E+01
   1.51671E+01  1.76341E+01  1.46521E+01  9.36290E+00  6.65699E+00  9.74402E+00  1.05492E+01  5.45467E+00  1.73624E+00  5.07524E+00
   4.39243E-01  1.73592E+00 -2.78337E+00  5.24532E+00  1.72442E+00 -2.00156E-01  1.16546E+00 -1.41371E+00 -8.89154E-01  1.37532E-01
  -1.72576E+00  3.91797E-01 -1.03536E+00 -4.72986E-01  4.29630E+00  5.74541E+00  1.02082E+00  7.74722E+00  5.44922E-01  9.93259E+00
   1.07767E+01  1.37039E+01  1.30151E+01  1.36418E+01  1.55414E+01  2.24891E+01  2.81308E+01  2.12237E+01  2.69556E+01  2.87921E+01
   3.14858E+01  2.70551E+01  3.50649E+01  2.23431E+01  3.16777E+01  3.01890E+01  2.04542E+01  2.34061E+01  1.68474E+01  2.00361E+01
   1.44489E+01  1.99965E+01  2.11494E+01  1.94614E+01  1.62230E+01  1.53230E+01  1.23036E+01  2.41598E+01  2.61364E+01  2.47233E+01
   2.10602E+01  2.19049E+01  2.80987E+01  2.69832E+01  2.13924E+01  3.06715E+01  2.66594E+01  3.09391E+01  2.96085E+01  2.58372E+01
   3.00382E+01  2.92103E+01  2.66340E+01  2.78017E+01  3.40254E+01  3.07226E+01  3.02316E+01  2.74350E+01  2.70206E+01  2.83015E+01
   2.13108E+01  2.35620E+01  3.02371E+01  3.03889E+01  2.61302E+01  2.30648E+01  2.78909E+01  2.63123E+01  2.69931E+01  1.90827E+01
   2.78283E+01  2.66380E+01  2.74082E+01  1.91957E+01  2.54808E+01  2.30431E+01  2.24111E+01  2.72694E+01  2.07462E+01  2.40825E+01
   1.71956E+01  2.07895E+01  1.76693E+01  1.97762E+01  1.30311E+01  1.48532E+01  9.49961E+00  1.51146E+01  1.32838E+01  1.02197E+01
   6.83091E+00  9.87917E+00  1.20059E+01  9.39766E+00  7.61654E+00  1.08252E+01  1.51739E+01  1.21591E+01  9.52654E+00  1.19929E+01
   1.02461E+01  1.49814E+01  1.38206E+01  1.63662E+01  1.84456E+01  1.70248E+01  1.77934E+01  1.99606E+01  1.65423E+01  1.91079E+01
   2.31878E+01  2.54562E+01  2.05086E+01  2.43398E+01  2.62535E+01  2.69712E+01  2.31529E+01  2.68069E+01  2.38283E+01  2.24699E+01
   2.54262E+01  2.32393E+01  2.32245E+01  1.84044E+01  1.83397E+01  2.53418E+01  1.06168E+01  1.37826E+01  1.51553E+01  8.70791E+00
   1.22279E+01  8.47657E+00  1.13803E+01  1.13081E+01  9.50469E+00  3.41046E+00  6.40104E+00  1.04302E+01  5.45851E+00  5.44926E+00
   2.89143E+00  3.12522E+00  7.83360E-02  6.82106E+00  2.20167E+00  7.38436E-01  2.92170E-01  5.17448E+00  1.09167E+01  4.77351E+00
   6.58540E+00  3.88434E+00  5.76432E+00  3.52254E+00  6.25283E+00  5.83517E+00  2.06692E+00  2.21256E+00  5.88906E+00 -6.97703E-01
   6.92302E+00  1.08737E+00  5.72957E+00  7.33565E+00  2.68678E+00  1.64360E+00  1.14750E+00  5.16081E+00  4.14476E+00 -1.08758E+00
   6.87464E+00  5.53854E+00  2.16886E+00  3.91251E+00  5.20763E+00  4.60510E+00  1.65416E+00  4.84475E+00 -4.15749E-01  4.71147E+00
   5.76694E+00  4.35062E+00 -4.34259E+00  3.90563E+00  4.50106E+00  1.20926E+01  2.78800E+00  1.11036E+01  7.49624E-02  8.90007E+00
   1.68572E+00  4.25984E+00  7.16891E+00  2.22140E+00  2.30114E+00  7.14422E-02  1.24570E+00 -1.64572E+00  2.89978E+00  5.46704E+00
   4.56081E-01  1.96904E-01  3.26017E+00  3.31906E+00  1.56679E+00 -2.33515E-01 -1.51168E-02  8.24142E+00
 NY points of the fit to the data follow
   3.90574E+01  3.89909E+01  3.98453E+01  4.13182E+01  4.57149E+01  5.03212E+01  5.64079E+01  6.63505E+01  7.69026E+01  8.72684E+01
   9.48719E+01  9.90979E+01  9.69242E+01  9.17017E+01  8.43014E+01  7.56547E+01  6.67264E+01  5.95584E+01  5.27835E+01  4.64886E+01
   4.36478E+01  4.06995E+01  3.89621E+01  3.76432E+01  3.79584E+01  3.90160E+01  4.10118E+01  4.46755E+01  4.92264E+01  5.31702E+01
   5.50271E+01  5.55923E+01  5.42569E+01  5.12446E+01  4.69511E+01  4.24152E+01  3.76404E+01  3.47026E+01  3.32615E+01  3.22373E+01
   3.22390E+01  3.27227E+01  3.45570E+01  3.69839E+01  3.97262E+01  4.28081E+01  4.44847E+01  4.39024E+01  4.21973E+01  3.93834E+01
   3.61730E+01  3.33937E+01  3.09536E+01  2.86742E+01  2.73254E+01  2.71874E+01  2.72119E+01  2.72957E+01  2.78581E+01  2.83271E+01
   2.80313E+01  2.70620E+01  2.57072E+01  2.44861E+01  2.34833E+01  2.25508E+01  2.22131E+01  2.22732E+01  2.24729E+01  2.28521E+01
   2.32000E+01  2.32843E+01  2.31299E+01  2.27385E+01  2.22013E+01  2.16062E+01  2.09737E+01  2.03736E+01  1.98643E+01  1.97442E+01
   1.92154E+01  1.89346E+01  1.90711E+01  1.91528E+01  1.94722E+01  1.95931E+01  1.92551E+01  1.82533E+01  1.74643E+01  1.65743E+01
   1.59168E+01  1.55764E+01  1.53548E+01  1.50847E+01  1.52131E+01  1.67663E+01  1.98608E+01  2.11402E+01  2.40342E+01  3.11369E+01
   3.99568E+01  5.21983E+01  6.51147E+01  7.44034E+01  7.56579E+01  7.26199E+01  6.59481E+01  5.71494E+01  4.79935E+01  3.90870E+01
   2.98122E+01  2.34337E+01  2.08335E+01  1.59401E+01  1.28014E+01  1.20130E+01  1.18260E+01  1.19227E+01  1.26440E+01  1.62846E+01
   2.24713E+01  2.53407E+01  3.21704E+01  4.45064E+01  5.91438E+01  7.85926E+01  9.73391E+01  1.08709E+02  1.08575E+02  1.03400E+02
   9.27332E+01  7.96403E+01  6.57238E+01  5.12867E+01  3.62999E+01  2.68701E+01  2.19225E+01  1.40004E+01  1.07540E+01  1.04235E+01
   1.08566E+01  1.13362E+01  1.13415E+01  1.09747E+01  1.06039E+01  9.98171E+00  9.21883E+00  8.48689E+00  7.60961E+00  6.86992E+00
   6.09740E+00  5.39205E+00  4.81237E+00  4.17159E+00  3.77816E+00  3.54906E+00  3.15877E+00  2.78487E+00  1.92811E+00  8.69606E-01
   1.40482E-01 -1.29480E-01 -3.53069E-02  1.98200E-01  2.49105E-01 -3.04948E-01 -1.12082E+00 -1.97236E+00 -3.03705E+00 -4.25490E+00
  -4.99606E+00 -6.01290E+00 -7.20078E+00 -8.25092E+00 -9.42704E+00 -9.99733E+00 -1.00136E+01 -9.74567E+00 -9.72363E+00 -9.96874E+00
  -1.00599E+01 -9.71487E+00 -9.47360E+00 -9.19234E+00 -8.94385E+00 -8.31874E+00 -6.66737E+00 -4.25269E+00 -1.62636E+00  5.93981E-01
   2.34674E+00  3.39425E+00  3.35918E+00  2.72844E+00  1.86108E+00  7.07149E-01  5.28771E-01  9.12414E-01  1.83194E+00  3.42148E+00
   5.47905E+00  7.28570E+00  8.63416E+00  9.85832E+00  9.22532E+00  6.82139E+00  3.75857E+00  3.64684E-01 -2.61490E+00 -4.76597E+00
  -5.17539E+00 -3.88383E+00 -1.04890E+00  2.95229E+00  6.58823E+00  9.23617E+00  1.01989E+01  8.86470E+00  5.46318E+00  2.09459E+00
  -1.81299E+00 -5.09267E+00 -5.96309E+00 -4.67653E+00 -1.69134E+00  1.21843E+00  4.23590E+00  6.85580E+00  8.89122E+00  1.02872E+01
   1.03912E+01  1.05056E+01  1.13933E+01  1.20467E+01  1.24266E+01  1.32896E+01  1.44846E+01  1.50152E+01  1.48580E+01  1.39773E+01
   1.29061E+01  1.18628E+01  1.13430E+01  1.15130E+01  1.23169E+01  1.39649E+01  1.53499E+01  1.65815E+01  1.78829E+01  1.93007E+01
   2.04950E+01  2.29845E+01  3.13061E+01  4.05923E+01  4.48620E+01  5.69344E+01  7.54973E+01  9.76588E+01  1.26517E+02  1.52590E+02
   1.64704E+02  1.60490E+02  1.49387E+02  1.30228E+02  1.08598E+02  8.72966E+01  6.56941E+01  4.51785E+01  3.48686E+01  2.70192E+01
   1.47375E+01  1.01275E+01  8.63368E+00  7.65446E+00  6.93333E+00  6.41578E+00  5.82026E+00  5.21680E+00  4.61314E+00  3.99191E+00
   3.37421E+00  2.86928E+00  2.43536E+00  2.03144E+00  1.69254E+00  1.43336E+00  1.25061E+00  1.14509E+00  1.10326E+00  1.15067E+00
   1.32020E+00  1.60222E+00  2.01480E+00  2.57352E+00  3.29634E+00  4.19461E+00  5.26987E+00  6.52984E+00  7.97161E+00  9.57811E+00
   1.13318E+01  1.32014E+01  1.51442E+01  1.71092E+01  1.90410E+01  2.08810E+01  2.25694E+01  2.40512E+01  2.52796E+01  2.62153E+01
   2.68339E+01  2.71286E+01  2.71055E+01  2.67888E+01  2.62174E+01  2.54409E+01  2.45189E+01  2.35159E+01  2.24979E+01  2.15275E+01
   2.06609E+01  1.99447E+01  1.94150E+01  1.90951E+01  1.89960E+01  1.91158E+01  1.94414E+01  1.99507E+01  2.06145E+01  2.13989E+01
   2.22668E+01  2.31804E+01  2.41033E+01  2.50027E+01  2.58508E+01  2.66256E+01  2.73122E+01  2.79051E+01  2.84150E+01  2.88647E+01
   2.91464E+01  2.93109E+01  2.95069E+01  2.96122E+01  2.96188E+01  2.94950E+01  2.91320E+01  2.85950E+01  2.79301E+01  2.72474E+01
   2.67014E+01  2.63347E+01  2.62068E+01  2.63255E+01  2.66579E+01  2.70125E+01  2.71572E+01  2.71421E+01  2.70469E+01  2.67805E+01
   2.63684E+01  2.57757E+01  2.50540E+01  2.43690E+01  2.35667E+01  2.26564E+01  2.17501E+01  2.08291E+01  1.98899E+01  1.89395E+01
   1.79882E+01  1.70477E+01  1.61303E+01  1.52482E+01  1.44129E+01  1.36348E+01  1.29234E+01  1.22871E+01  1.17336E+01  1.12692E+01
   1.08997E+01  1.06295E+01  1.04624E+01  1.04018E+01  1.04501E+01  1.06095E+01  1.08806E+01  1.12632E+01  1.17559E+01  1.23558E+01
   1.30580E+01  1.38553E+01  1.47380E+01  1.56933E+01  1.67057E+01  1.77569E+01  1.88258E+01  1.98889E+01  2.09207E+01  2.18949E+01
   2.27850E+01  2.35659E+01  2.42142E+01  2.47095E+01  2.50355E+01  2.51807E+01  2.51393E+01  2.49112E+01  2.45017E+01  2.39214E+01
   2.31859E+01  2.23145E+01  2.13299E+01  2.02564E+01  1.91190E+01  1.79423E+01  1.67497E+01  1.55630E+01  1.44009E+01  1.32796E+01
   1.22114E+01  1.12059E+01  1.02696E+01  9.40618E+00  8.61715E+00  7.90167E+00  7.25731E+00  6.68051E+00  6.16697E+00  5.71195E+00
   5.31036E+00  4.95700E+00  4.64682E+00  4.37510E+00  4.13758E+00  3.93034E+00  3.74974E+00  3.59247E+00  3.45565E+00  3.33683E+00
   3.23394E+00  3.14513E+00  3.06866E+00  3.00302E+00  2.94695E+00  2.89947E+00  2.85972E+00  2.82686E+00  2.80009E+00  2.77870E+00
   2.76220E+00  2.75021E+00  2.74234E+00  2.73816E+00  2.73725E+00  2.73929E+00  2.74412E+00  2.75157E+00  2.76143E+00  2.77342E+00
   2.78732E+00  2.80299E+00  2.82039E+00  2.83946E+00  2.86003E+00  2.88190E+00  2.90496E+00  2.92917E+00  2.95455E+00  2.98103E+00
   3.00848E+00  3.03676E+00  3.06583E+00  3.09574E+00  3.12649E+00  3.15801E+00  3.19017E+00  3.22290E+00  3.25620E+00  3.29015E+00
   3.32473E+00  3.35985E+00  3.39541E+00  3.43139E+00  3.46786E+00  3.50486E+00  3.54236E+00  3.58026E+00  3.61851E+00  3.65714E+00
   3.69622E+00  3.73578E+00  3.77577E+00  3.81611E+00  3.85680E+00  3.89791E+00  3.93952E+00  3.98166E+00
 NY background values follow
     3.136E+01    3.114E+01    3.092E+01    3.069E+01    3.047E+01    3.025E+01    3.003E+01    2.980E+01    2.958E+01    2.936E+01
     2.914E+01    2.891E+01    2.869E+01    2.847E+01    2.824E+01    2.802E+01    2.780E+01    2.757E+01    2.735E+01    2.713E+01
     2.691E+01    2.668E+01    2.646E+01    2.624E+01    2.601E+01    2.579E+01    2.557E+01    2.534E+01    2.512E+01    2.490E+01
     2.468E+01    2.445E+01    2.423E+01    2.401E+01    2.379E+01    2.356E+01    2.334E+01    2.312E+01    2.290E+01    2.267E+01
     2.245E+01    2.223E+01    2.201E+01    2.179E+01    2.156E+01    2.134E+01    2.112E+01    2.090E+01    2.068E+01    2.046E+01
     2.024E+01    2.001E+01    1.979E+01    1.957E+01    1.935E+01    1.913E+01    1.891E+01    1.870E+01    1.848E+01    1.826E+01
     1.804E+01    1.782E+01    1.760E+01    1.739E+01    1.717E+01    1.696E+01    1.674E+01    1.652E+01    1.631E+01    1.610E+01
     1.588E+01    1.567E+01    1.546E+01    1.525E+01    1.503E+01    1.482E+01    1.461E+01    1.440E+01    1.420E+01    1.399E+01
     1.378E+01    1.357E+01    1.337E+01    1.316E+01    1.296E+01    1.276E+01    1.255E+01    1.235E+01    1.215E+01    1.195E+01
     1.175E+01    1.156E+01    1.136E+01    1.116E+01    1.097E+01    1.077E+01    1.058E+01    1.039E+01    1.020E+01    1.001E+01
     9.816E+00    9.628E+00    9.441E+00    9.255E+00    9.070E+00    8.886E+00    8.702E+00    8.521E+00    8.340E+00    8.160E+00
     7.981E+00    7.803E+00    7.627E+00    7.452E+00    7.277E+00    7.104E+00    6.932E+00    6.761E+00    6.592E+00    6.423E+00
     6.256E+00    6.090E+00    5.925E+00    5.761E+00    5.599E+00    5.438E+00    5.278E+00    5.119E+00    4.962E+00    4.805E+00
     4.650E+00    4.497E+00    4.344E+00    4.193E+00    4.043E+00    3.895E+00    3.748E+00    3.602E+00    3.458E+00    3.315E+00
     3.173E+00    3.032E+00    2.893E+00    2.756E+00    2.619E+00    2.484E+00    2.351E+00    2.218E+00    2.087E+00    1.958E+00
     1.830E+00    1.703E+00    1.578E+00    1.454E+00    1.331E+00    1.210E+00    1.090E+00    9.717E-01    8.547E-01    7.392E-01
     6.250E-01    5.123E-01    4.009E-01    2.911E-01    1.826E-01    7.555E-02   -3.005E-02   -1.342E-01   -2.369E-01   -3.382E-01
    -4.380E-01   -5.364E-01   -6.333E-01   -7.288E-01   -8.228E-01   -9.153E-01   -1.006E+00   -1.096E+00   -1.184E+00   -1.271E+00
    -1.356E+00   -1.439E+00   -1.522E+00   -1.602E+00   -1.682E+00   -1.760E+00   -1.836E+00   -1.911E+00   -1.985E+00   -2.057E+00
    -2.128E+00   -2.198E+00   -2.267E+00   -2.334E+00   -2.400E+00   -2.465E+00   -2.528E+00   -2.591E+00   -2.652E+00   -2.712E+00
    -2.771E+00   -2.830E+00   -2.886E+00   -2.942E+00   -2.997E+00   -3.051E+00   -3.104E+00   -3.156E+00   -3.207E+00   -3.258E+00
    -3.307E+00   -3.355E+00   -3.403E+00   -3.450E+00   -3.496E+00   -3.541E+00   -3.585E+00   -3.629E+00   -3.672E+00   -3.714E+00
    -3.756E+00   -3.797E+00   -3.837E+00   -3.877E+00   -3.916E+00   -3.954E+00   -3.992E+00   -4.030E+00   -4.067E+00   -4.103E+00
    -4.139E+00   -4.174E+00   -4.209E+00   -4.243E+00   -4.277E+00   -4.310E+00   -4.343E+00   -4.374E+00   -4.406E+00   -4.437E+00
    -4.467E+00   -4.496E+00   -4.525E+00   -4.554E+00   -4.581E+00   -4.608E+00   -4.635E+00   -4.661E+00   -4.686E+00   -4.711E+00
    -4.735E+00   -4.758E+00   -4.780E+00   -4.802E+00   -4.824E+00   -4.844E+00   -4.864E+00   -4.884E+00   -4.902E+00   -4.920E+00
    -4.937E+00   -4.954E+00   -4.970E+00   -4.985E+00   -4.999E+00   -5.013E+00   -5.025E+00   -5.038E+00   -5.049E+00   -5.060E+00
    -5.070E+00   -5.079E+00   -5.087E+00   -5.095E+00   -5.102E+00   -5.108E+00   -5.113E+00   -5.118E+00   -5.122E+00   -5.125E+00
    -5.128E+00   -5.130E+00   -5.131E+00   -5.131E+00   -5.130E+00   -5.129E+00   -5.128E+00   -5.125E+00   -5.122E+00   -5.118E+00
    -5.113E+00   -5.108E+00   -5.102E+00   -5.095E+00   -5.088E+00   -5.080E+00   -5.071E+00   -5.062E+00   -5.052E+00   -5.041E+00
    -5.030E+00   -5.018E+00   -5.005E+00   -4.992E+00   -4.978E+00   -4.964E+00   -4.949E+00   -4.933E+00   -4.916E+00   -4.899E+00
    -4.882E+00   -4.864E+00   -4.845E+00   -4.825E+00   -4.805E+00   -4.784E+00   -4.763E+00   -4.741E+00   -4.719E+00   -4.696E+00
    -4.672E+00   -4.648E+00   -4.624E+00   -4.598E+00   -4.573E+00   -4.546E+00   -4.519E+00   -4.492E+00   -4.464E+00   -4.436E+00
    -4.407E+00   -4.377E+00   -4.347E+00   -4.317E+00   -4.286E+00   -4.255E+00   -4.223E+00   -4.191E+00   -4.158E+00   -4.125E+00
    -4.091E+00   -4.057E+00   -4.023E+00   -3.988E+00   -3.953E+00   -3.917E+00   -3.881E+00   -3.844E+00   -3.807E+00   -3.770E+00
    -3.732E+00   -3.694E+00   -3.656E+00   -3.617E+00   -3.578E+00   -3.539E+00   -3.499E+00   -3.459E+00   -3.418E+00   -3.378E+00
    -3.337E+00   -3.295E+00   -3.254E+00   -3.212E+00   -3.169E+00   -3.127E+00   -3.084E+00   -3.041E+00   -2.997E+00   -2.954E+00
    -2.910E+00   -2.866E+00   -2.821E+00   -2.776E+00   -2.731E+00   -2.686E+00   -2.641E+00   -2.595E+00   -2.549E+00   -2.502E+00
    -2.456E+00   -2.409E+00   -2.362E+00   -2.315E+00   -2.267E+00   -2.220E+00   -2.172E+00   -2.123E+00   -2.075E+00   -2.026E+00
    -1.978E+00   -1.928E+00   -1.879E+00   -1.830E+00   -1.780E+00   -1.730E+00   -1.680E+00   -1.630E+00   -1.579E+00   -1.528E+00
    -1.478E+00   -1.426E+00   -1.375E+00   -1.324E+00   -1.272E+00   -1.220E+00   -1.168E+00   -1.116E+00   -1.064E+00   -1.011E+00
    -9.586E-01   -9.058E-01   -8.528E-01   -7.997E-01   -7.465E-01   -6.932E-01   -6.398E-01   -5.862E-01   -5.326E-01   -4.789E-01
    -4.250E-01   -3.711E-01   -3.172E-01   -2.631E-01   -2.090E-01   -1.549E-01   -1.007E-01   -4.646E-02    7.798E-03    6.208E-02
     1.164E-01    1.707E-01    2.250E-01    2.793E-01    3.336E-01    3.879E-01    4.421E-01    4.964E-01    5.506E-01    6.047E-01
     6.588E-01    7.128E-01    7.668E-01    8.207E-01    8.745E-01    9.282E-01    9.818E-01    1.035E+00    1.089E+00    1.142E+00
     1.195E+00    1.248E+00    1.301E+00    1.354E+00    1.407E+00    1.459E+00    1.512E+00    1.564E+00    1.616E+00    1.668E+00
     1.720E+00    1.772E+00    1.823E+00    1.875E+00    1.926E+00    1.978E+00    2.029E+00    2.080E+00    2.131E+00    2.182E+00
     2.233E+00    2.283E+00    2.334E+00    2.385E+00    2.435E+00    2.486E+00    2.536E+00    2.586E+00    2.636E+00    2.687E+00
     2.737E+00    2.787E+00    2.837E+00    2.887E+00    2.936E+00    2.986E+00    3.036E+00    3.086E+00    3.135E+00    3.185E+00
     3.235E+00    3.284E+00    3.334E+00    3.383E+00    3.433E+00    3.482E+00    3.532E+00    3.581E+00
 Cr       Conc. = 2.06E+03
