 LCModel (Version 6.3-1L) Copyright: S.W. Provencher.          Ref.: Magn. Reson. Med. 30:672-679 (1993).                
 Slice#3 Row#12 Col#10  PD_24_press_2_raw_act
 36 lines in following concentration table = NCONC+1
    Conc.  %SD /Cr+PCr  Metabolite                                         
   94.519  35%  28.200 Ala                                                 
    6.440 105%   1.921 Asp                                                 
    0.000 999%   0.000 Cr                                                  
    3.352 420%   1.000 PCr                                                 
    3.638 111%   1.085 GABA                                                
    4.040 100%   1.205 Glc                                                 
   26.616 245%   7.941 Gln                                                 
  125.210  58%  37.356 Glu                                                 
    7.048 466%   2.103 GPC                                                 
    1.344 999%   0.401 PCh                                                 
    6.225 354%   1.857 GSH                                                 
    0.000 999%   0.000 Ins                                                 
   36.280  99%  10.824 Lac                                                 
   69.994  31%  20.883 NAA                                                 
   30.884  74%   9.214 NAAG                                                
    1.027 130%   0.307 Scyllo                                              
    6.433 104%   1.919 Tau                                                 
    0.000 999%   0.000 -CrCH2                                              
    8.391  66%   2.503 GPC+PCh                                             
  100.877  20%  30.097 NAA+NAAG                                            
    3.352 420%   1.000 Cr+PCr                                              
  151.826  64%  45.297 Glu+Gln                                             
    0.000 999%   0.000 Lip13a                                              
   76.170  68%  22.725 Lip13b                                              
   17.847  86%   5.325 Lip09                                               
  103.979  41%  31.022 MM09                                                
   11.582  78%   3.456 Lip20                                               
  168.262  40%  50.201 MM20                                                
   31.150  48%   9.294 MM12                                                
  124.042  35%  37.008 MM14                                                
   52.645  51%  15.706 MM17                                                
   76.170  68%  22.725 Lip13a+Lip13b                                       
  231.361  26%  69.027 MM14+Lip13a+Lip13b+MM12                             
  121.826  33%  36.347 MM09+Lip09                                          
  179.844  36%  53.656 MM20+Lip20                                          
   6 lines in following misc. output table
  FWHM = 0.046 ppm    S/N =   1                                            
  Data shift =-0.031 ppm                                                   
  Ph: -24 deg     -34.2 deg/ppm                                            
  alphaB,S = 8.5E+01,   5.1E+01                                            
   14 spline knots.   Ns = 5(1)                                            
  ( 6) 2 infls.   ( 7) 1 extrs.                                            
  498 points on ppm-axis = NY
      4.000000     3.992357     3.984714     3.977070     3.969427     3.961784     3.954141     3.946497     3.938854     3.931211
      3.923568     3.915925     3.908281     3.900638     3.892995     3.885352     3.877708     3.870065     3.862422     3.854779
      3.847136     3.839492     3.831849     3.824206     3.816563     3.808919     3.801276     3.793633     3.785990     3.778347
      3.770703     3.763060     3.755417     3.747774     3.740130     3.732487     3.724844     3.717201     3.709558     3.701914
      3.694271     3.686628     3.678985     3.671341     3.663698     3.656055     3.648412     3.640769     3.633125     3.625482
      3.617839     3.610196     3.602552     3.594909     3.587266     3.579623     3.571980     3.564336     3.556693     3.549050
      3.541407     3.533763     3.526120     3.518477     3.510834     3.503191     3.495547     3.487904     3.480261     3.472618
      3.464974     3.457331     3.449688     3.442045     3.434402     3.426758     3.419115     3.411472     3.403829     3.396185
      3.388542     3.380899     3.373256     3.365613     3.357969     3.350326     3.342683     3.335040     3.327396     3.319753
      3.312110     3.304467     3.296824     3.289180     3.281537     3.273894     3.266251     3.258607     3.250964     3.243321
      3.235678     3.228034     3.220391     3.212748     3.205105     3.197462     3.189818     3.182175     3.174532     3.166889
      3.159245     3.151602     3.143959     3.136316     3.128673     3.121029     3.113386     3.105743     3.098100     3.090456
      3.082813     3.075170     3.067527     3.059884     3.052240     3.044597     3.036954     3.029311     3.021667     3.014024
      3.006381     2.998738     2.991095     2.983451     2.975808     2.968165     2.960522     2.952878     2.945235     2.937592
      2.929949     2.922306     2.914662     2.907019     2.899376     2.891733     2.884089     2.876446     2.868803     2.861160
      2.853517     2.845873     2.838230     2.830587     2.822944     2.815300     2.807657     2.800014     2.792371     2.784728
      2.777084     2.769441     2.761798     2.754155     2.746511     2.738868     2.731225     2.723582     2.715939     2.708295
      2.700652     2.693009     2.685366     2.677722     2.670079     2.662436     2.654793     2.647150     2.639506     2.631863
      2.624220     2.616577     2.608933     2.601290     2.593647     2.586004     2.578361     2.570717     2.563074     2.555431
      2.547788     2.540144     2.532501     2.524858     2.517215     2.509572     2.501928     2.494285     2.486642     2.478999
      2.471355     2.463712     2.456069     2.448426     2.440783     2.433139     2.425496     2.417853     2.410210     2.402566
      2.394923     2.387280     2.379637     2.371994     2.364350     2.356707     2.349064     2.341421     2.333777     2.326134
      2.318491     2.310848     2.303205     2.295561     2.287918     2.280275     2.272632     2.264988     2.257345     2.249702
      2.242059     2.234416     2.226772     2.219129     2.211486     2.203843     2.196199     2.188556     2.180913     2.173270
      2.165627     2.157983     2.150340     2.142697     2.135054     2.127410     2.119767     2.112124     2.104481     2.096838
      2.089194     2.081551     2.073908     2.066265     2.058621     2.050978     2.043335     2.035692     2.028049     2.020405
      2.012762     2.005119     1.997476     1.989833     1.982190     1.974546     1.966903     1.959260     1.951617     1.943974
      1.936331     1.928688     1.921045     1.913402     1.905759     1.898115     1.890472     1.882829     1.875186     1.867543
      1.859900     1.852257     1.844614     1.836971     1.829327     1.821684     1.814041     1.806398     1.798755     1.791112
      1.783469     1.775826     1.768183     1.760540     1.752896     1.745253     1.737610     1.729967     1.722324     1.714681
      1.707038     1.699395     1.691752     1.684108     1.676465     1.668822     1.661179     1.653536     1.645893     1.638250
      1.630607     1.622964     1.615321     1.607677     1.600034     1.592391     1.584748     1.577105     1.569462     1.561819
      1.554176     1.546533     1.538890     1.531246     1.523603     1.515960     1.508317     1.500674     1.493031     1.485388
      1.477745     1.470102     1.462458     1.454815     1.447172     1.439529     1.431886     1.424243     1.416600     1.408957
      1.401314     1.393671     1.386027     1.378384     1.370741     1.363098     1.355455     1.347812     1.340169     1.332526
      1.324883     1.317240     1.309596     1.301953     1.294310     1.286667     1.279024     1.271381     1.263738     1.256095
      1.248452     1.240808     1.233165     1.225522     1.217879     1.210236     1.202593     1.194950     1.187307     1.179664
      1.172021     1.164377     1.156734     1.149091     1.141448     1.133805     1.126162     1.118519     1.110876     1.103233
      1.095590     1.087946     1.080303     1.072660     1.065017     1.057374     1.049731     1.042088     1.034445     1.026802
      1.019158     1.011515     1.003872     0.996229     0.988586     0.980943     0.973300     0.965657     0.958014     0.950371
      0.942727     0.935084     0.927441     0.919798     0.912155     0.904512     0.896869     0.889226     0.881583     0.873940
      0.866296     0.858653     0.851010     0.843367     0.835724     0.828081     0.820438     0.812795     0.805152     0.797508
      0.789865     0.782222     0.774579     0.766936     0.759293     0.751650     0.744007     0.736364     0.728721     0.721077
      0.713434     0.705791     0.698148     0.690505     0.682862     0.675219     0.667576     0.659933     0.652290     0.644646
      0.637003     0.629360     0.621717     0.614074     0.606431     0.598788     0.591145     0.583502     0.575858     0.568215
      0.560572     0.552929     0.545286     0.537643     0.530000     0.522357     0.514714     0.507071     0.499427     0.491784
      0.484141     0.476498     0.468855     0.461212     0.453569     0.445925     0.438282     0.430639     0.422996     0.415353
      0.407710     0.400067     0.392424     0.384780     0.377137     0.369494     0.361851     0.354208     0.346565     0.338922
      0.331278     0.323635     0.315992     0.308349     0.300706     0.293063     0.285420     0.277777     0.270133     0.262490
      0.254847     0.247204     0.239561     0.231918     0.224275     0.216631     0.208988     0.201345
 NY phased data points follow
  -3.87776E+00 -2.16238E+00 -1.99424E+00  7.09029E-01 -2.21489E+00  4.18666E-01  3.70956E-01  2.79659E+00 -1.71881E+00  1.73025E+00
  -1.39687E+00  7.94794E-01 -1.99863E+00 -4.72100E-01 -3.12833E+00 -1.04803E+00 -2.78379E+00  2.82053E-01 -1.27076E+00 -1.10661E+00
  -2.40408E+00 -9.78694E-02  1.52511E+00  6.05113E-01 -2.10238E+00  1.70132E+00 -2.02949E+00  1.19938E-01 -2.85051E+00  4.70212E-01
  -1.97027E+00 -9.62037E-03  2.71331E-01  6.29351E-01 -9.44645E-01  2.20897E-01 -1.11271E-02  9.68874E-01 -2.28677E+00  1.65155E+00
  -8.01008E-01  7.37172E-01 -9.36810E-01 -1.18330E+00 -1.51207E+00  7.69744E-01 -1.67688E+00 -5.17929E-01  9.73992E-02  1.01163E+00
  -1.49522E+00 -1.24477E+00 -1.71525E+00 -5.74164E-01 -1.49148E+00 -5.21518E-01 -8.34565E-01  1.71589E+00 -2.43024E+00 -8.07896E-01
  -1.43707E+00 -9.61368E-01 -2.76172E+00 -8.61872E-01 -2.40353E+00  6.13487E-01 -2.33652E+00  5.48832E-01 -2.34993E+00 -8.12178E-01
  -1.28107E+00 -3.99537E-02  1.07996E+00  1.14026E+00 -2.03544E-02  9.83944E-01 -7.79014E-01 -4.58980E-01 -9.09230E-01 -8.15930E-01
  -1.55661E+00  8.84579E-02 -9.65409E-01 -3.83099E-01 -1.38751E+00 -8.21336E-01 -2.26403E+00 -1.69055E+00 -1.23345E+00  9.99856E-01
  -1.54823E+00 -1.57791E+00 -1.97199E+00 -5.54626E-01  1.38683E-01 -7.86275E-01  3.21497E-01  3.03455E-01 -1.48149E+00  3.42147E-01
  -7.94474E-01  4.61655E-01 -3.05877E-01  1.75456E+00 -6.19101E-01  1.27546E+00  3.64148E-01 -1.27282E+00 -1.69263E+00  2.75087E-01
   3.29147E-01  1.51231E+00  7.00301E-01  2.64963E-02 -1.12153E+00 -3.28038E-01 -2.39684E+00 -1.15980E+00 -4.59513E-01 -9.79761E-01
  -1.53123E+00 -1.78494E+00 -2.41180E+00 -5.77743E-01 -1.49932E+00  7.73028E-01  7.90009E-01 -8.35173E-01 -1.01904E-01 -8.02969E-01
  -1.65669E+00 -8.97169E-01 -4.22344E+00  2.63571E-02  3.93150E-01  1.32540E+00 -4.05633E-01  2.06733E+00 -1.02334E+00  6.00796E-02
  -1.13724E+00  1.78672E+00 -5.38062E-01 -7.25121E-01 -1.82276E+00 -1.30299E+00  5.00951E-02  1.93333E+00 -1.69077E+00  1.47607E+00
   7.52252E-01 -3.67492E+00 -7.63274E-01 -1.06877E+00 -1.41903E+00 -4.56484E-01 -1.27992E+00 -6.60540E-01  1.31569E-01 -7.97855E-01
  -1.54511E+00 -1.71504E+00 -3.47897E-01 -1.99687E-01 -2.00337E+00  7.63230E-01 -2.99736E-01  9.18170E-01 -1.83599E+00 -1.28072E+00
  -5.86888E-01  3.53402E-01 -2.78719E+00 -5.75533E-01 -3.04286E+00 -3.79722E+00 -6.83097E-01 -1.37820E+00 -2.37063E+00 -2.80305E+00
  -1.68041E+00 -2.30628E+00 -8.67651E-01 -1.90297E+00 -1.09218E+00 -1.20345E+00 -4.92342E-02 -1.55903E+00  3.10699E-02  1.94825E+00
   5.54304E-01 -8.25640E-01 -1.74648E+00  6.61254E-02  5.05339E-01  5.88441E-01 -1.61088E+00 -2.79482E-02 -6.57201E-01  1.04019E+00
  -1.90113E-01 -1.91523E+00 -8.34424E-01  1.61082E-01 -1.52931E+00  2.22898E-01 -1.88165E+00 -1.44243E+00 -1.32495E+00 -1.98328E-01
   1.03280E-01 -1.85553E+00  1.30075E+00 -1.00446E+00 -9.47235E-01 -4.16551E-02 -1.33348E-01  6.83769E-01 -1.56410E+00 -7.81889E-01
   1.65572E-01 -2.00473E+00  2.55841E-01  4.37018E-02 -1.75280E+00  1.71090E-01  4.39580E-01  6.22678E-01  5.53197E-01  2.00251E+00
  -5.59791E-02  6.00137E-01 -6.45000E-01 -8.42951E-01  7.42453E-01  3.05629E+00 -1.46959E+00  6.32776E-01  5.98492E-01  1.38893E-02
   1.31237E+00 -2.26020E-01 -1.33099E+00  6.46281E-01  3.10075E-01  7.39891E-01  9.98821E-01 -7.89002E-01 -5.35629E-01  1.17367E+00
  -8.20991E-01 -7.54900E-01 -6.54783E-02  1.30251E+00  2.07703E+00  1.23782E+00  1.46015E+00  1.33573E+00  3.14881E+00  1.47020E+00
   4.68432E+00  4.29226E+00  2.24682E+00  2.50808E+00 -1.62878E-01  4.65654E-01  1.35082E+00  2.98631E+00  3.27597E+00  6.48074E-01
   2.12443E+00  9.26843E-02  2.22862E+00  3.88472E-01 -4.38122E-01 -1.98629E-01  1.60124E+00  1.37630E+00 -2.56802E-01 -9.04710E-01
   2.49150E-01  2.59641E+00  2.32220E+00  3.37360E+00  1.80930E+00  7.85101E-01  8.56627E-01  2.81805E+00  1.37143E+00 -1.01151E-01
   1.79323E-01  3.35712E+00  8.69816E-01  3.14398E+00  1.25064E+00 -1.07476E+00  1.16897E+00  1.32948E+00 -7.39763E-01 -1.51379E-02
  -9.37864E-01  8.27667E-02  4.88276E-01 -8.28540E-01  1.24683E+00  2.92654E-01  5.00078E-01  6.41624E-01 -9.79661E-01 -1.27798E+00
  -2.84792E-01  5.23766E-01  4.62921E-01 -2.04335E-01  2.48091E+00  1.41691E+00  2.89471E-01  3.00176E+00  2.50898E+00  9.33283E-01
   1.03954E+00  5.17282E-01  2.52293E+00  1.31337E+00  2.43482E+00  1.31145E+00  2.61811E+00  1.17306E+00  6.65039E-01  9.91814E-01
  -5.90641E-01 -1.66108E-01 -1.52694E-01  1.57278E+00  2.42297E+00  3.48978E+00  9.35890E-01  1.26102E+00  1.19395E+00  1.83909E+00
   1.24795E+00  1.70394E+00 -3.59184E-01  2.85331E+00  1.45866E+00  8.34950E-01  5.54864E-01  2.97460E+00  6.63528E-01  2.66568E-01
   1.53652E+00  1.33434E+00  3.00262E+00  4.56407E-01 -7.74133E-01  1.13354E+00  2.47498E+00  3.15810E+00  9.35106E-01  9.57247E-01
   1.50856E+00  2.39418E+00  2.16127E+00  1.42744E+00  4.10211E-01  2.23034E+00 -1.10677E+00 -4.78939E-01  1.51298E+00 -1.30027E+00
   5.52468E-01 -6.47352E-01 -3.10038E-01  3.03456E-01  5.67065E-01  1.25044E+00  1.92983E+00  1.85834E-01 -1.39890E+00 -4.08945E-01
   1.11523E-01  1.24647E+00 -6.41470E-01  1.22520E+00  1.21312E+00  9.59778E-01  1.85141E+00  4.49642E-01 -6.12778E-01  7.64457E-01
  -2.83497E+00 -1.65276E+00  2.59166E-01 -2.77361E+00  3.77432E-02 -2.83212E-01  9.76532E-02  9.46842E-01 -1.39865E+00 -9.19817E-01
  -1.68310E-02 -1.95932E+00 -1.63400E+00  6.66246E-01  2.10251E+00  3.40260E-01  8.05591E-01  3.51955E-01  7.35057E-01  1.17359E-02
  -4.07890E-01  2.51924E-01  2.01014E+00  1.31480E+00  2.35376E+00  5.62842E-01  6.83472E-01 -4.81413E-01  1.60710E+00 -2.31672E-01
   1.79898E+00  7.91374E-01  1.09678E+00  1.68743E+00 -1.78532E-02  2.34031E-01  1.28394E+00  1.81126E-01  1.01622E+00  2.94780E-02
  -3.27012E-02 -1.32084E+00  1.84237E+00 -9.15865E-01  2.75586E+00  7.50955E-01  1.77712E+00  1.14486E+00 -1.07192E+00 -1.58895E+00
  -1.96889E-02  1.70809E+00  1.12934E+00  9.13532E-01 -7.52432E-01  7.88011E-01  8.32627E-01 -1.34568E+00 -1.33470E+00  3.88702E-01
  -2.91121E-01  1.41003E+00 -1.16780E+00  4.84925E-01 -1.19266E+00 -3.49356E-01  4.47159E-02  7.06778E-01 -4.50387E-01  1.32756E-01
   3.17969E-01  1.54826E+00  2.83238E-01  1.17102E+00 -6.33000E-01  6.81640E-01  4.28213E-01  1.31193E+00 -3.89212E-01  6.85757E-01
  -1.35272E+00  1.50802E-01  5.19519E-01 -4.83850E-01  2.62258E-01  8.50151E-01 -7.40145E-01 -7.18986E-01  2.86805E-01 -7.50432E-01
   1.63016E-01  1.25030E+00  3.61102E-01  1.28941E-01  5.47888E-02  2.41922E+00 -1.49060E+00 -1.72942E+00  7.43074E-01  1.58918E-01
   2.04391E-01  1.10077E+00 -8.56424E-01 -2.42303E+00  9.18878E-01  1.61503E+00  2.29432E-01  3.88855E-01
 NY points of the fit to the data follow
  -8.21283E-01 -8.17886E-01 -8.08052E-01 -7.93450E-01 -7.71909E-01 -7.45034E-01 -7.17396E-01 -6.91389E-01 -6.69678E-01 -6.55606E-01
  -6.50147E-01 -6.51173E-01 -6.58719E-01 -6.81411E-01 -7.17514E-01 -7.57329E-01 -7.88136E-01 -7.99776E-01 -7.84290E-01 -7.30197E-01
  -6.21854E-01 -4.79792E-01 -3.51890E-01 -2.96609E-01 -3.45363E-01 -4.88501E-01 -6.88228E-01 -8.94228E-01 -1.02498E+00 -1.01625E+00
  -8.72573E-01 -6.49494E-01 -4.14195E-01 -2.43270E-01 -1.82392E-01 -2.25347E-01 -3.35315E-01 -4.63630E-01 -5.76080E-01 -6.53687E-01
  -6.82091E-01 -6.66262E-01 -6.29085E-01 -5.93265E-01 -5.70032E-01 -5.62443E-01 -5.65218E-01 -5.69339E-01 -5.74386E-01 -5.78670E-01
  -5.81285E-01 -5.83356E-01 -5.86554E-01 -5.90948E-01 -5.96599E-01 -6.04102E-01 -6.12623E-01 -6.20395E-01 -6.26969E-01 -6.32297E-01
  -6.36355E-01 -6.38829E-01 -6.38950E-01 -6.37815E-01 -6.36139E-01 -6.35104E-01 -6.36232E-01 -6.39712E-01 -6.44600E-01 -6.50418E-01
  -6.54486E-01 -6.52238E-01 -6.43687E-01 -6.32155E-01 -6.21685E-01 -6.16545E-01 -6.18631E-01 -6.26725E-01 -6.37676E-01 -6.48357E-01
  -6.56676E-01 -6.58276E-01 -6.48771E-01 -6.31028E-01 -6.11935E-01 -5.97072E-01 -5.89475E-01 -5.89605E-01 -5.96535E-01 -6.09391E-01
  -6.27465E-01 -6.49852E-01 -6.74922E-01 -6.97891E-01 -7.13742E-01 -7.24130E-01 -7.32191E-01 -7.27105E-01 -6.47820E-01 -4.67255E-01
  -2.29605E-01  5.29886E-03  1.87061E-01  2.83299E-01  2.84927E-01  2.09370E-01  8.80060E-02 -5.06872E-02 -1.87667E-01 -3.04689E-01
  -3.75647E-01 -4.08714E-01 -4.26987E-01 -4.38235E-01 -4.45275E-01 -4.49809E-01 -4.53301E-01 -4.56106E-01 -4.58669E-01 -4.61272E-01
  -4.63167E-01 -4.60890E-01 -4.44404E-01 -4.11953E-01 -3.71078E-01 -3.30318E-01 -2.96440E-01 -2.74304E-01 -2.64091E-01 -2.61733E-01
  -2.65883E-01 -2.76904E-01 -2.94901E-01 -3.18530E-01 -3.42335E-01 -3.63169E-01 -3.78905E-01 -3.86409E-01 -3.86036E-01 -3.80139E-01
  -3.71174E-01 -3.60878E-01 -3.52203E-01 -3.47463E-01 -3.47012E-01 -3.50595E-01 -3.56878E-01 -3.64153E-01 -3.71510E-01 -3.79754E-01
  -3.91526E-01 -4.05592E-01 -4.18817E-01 -4.27438E-01 -4.28058E-01 -4.22990E-01 -4.21327E-01 -4.30345E-01 -4.49092E-01 -4.71839E-01
  -4.88609E-01 -4.95017E-01 -4.94356E-01 -4.90514E-01 -4.88617E-01 -4.93847E-01 -5.06016E-01 -5.20651E-01 -5.34849E-01 -5.45802E-01
  -5.53791E-01 -5.65667E-01 -5.84895E-01 -6.05579E-01 -6.21074E-01 -6.27312E-01 -6.28202E-01 -6.31083E-01 -6.37749E-01 -6.42903E-01
  -6.41680E-01 -6.33712E-01 -6.24705E-01 -6.18778E-01 -6.09672E-01 -5.89523E-01 -5.56000E-01 -5.09740E-01 -4.58108E-01 -4.13580E-01
  -3.83229E-01 -3.68661E-01 -3.68081E-01 -3.81524E-01 -4.06453E-01 -4.31948E-01 -4.46112E-01 -4.42056E-01 -4.16272E-01 -3.66181E-01
  -2.94798E-01 -2.11748E-01 -1.38752E-01 -9.51215E-02 -9.68111E-02 -1.70019E-01 -3.09157E-01 -4.76159E-01 -6.32682E-01 -7.37389E-01
  -7.46845E-01 -6.10104E-01 -3.55964E-01 -6.58117E-02  1.78501E-01  3.20568E-01  3.19223E-01  1.40287E-01 -1.86095E-01 -5.58990E-01
  -8.70505E-01 -1.05473E+00 -1.07789E+00 -9.41676E-01 -7.09417E-01 -4.50651E-01 -2.21759E-01 -5.70354E-02  3.35225E-02  5.24960E-02
   2.65721E-02 -7.29139E-03 -2.56596E-02 -2.36055E-02  1.97126E-04  3.40410E-02  6.71180E-02  8.93396E-02  7.83625E-02  4.29524E-02
   9.45166E-03 -4.46864E-03  5.98063E-03  4.24863E-02  9.80791E-02  1.51698E-01  1.83773E-01  1.89297E-01  1.83362E-01  1.81569E-01
   2.10976E-01  3.59483E-01  6.35552E-01  9.48641E-01  1.22719E+00  1.54199E+00  2.02221E+00  2.57812E+00  3.06701E+00  3.38669E+00
   3.46945E+00  3.28900E+00  2.90268E+00  2.42650E+00  1.93074E+00  1.45052E+00  1.02587E+00  7.22892E-01  5.66433E-01  4.77991E-01
   4.25264E-01  3.98985E-01  3.86220E-01  3.77195E-01  3.67576E-01  3.52308E-01  3.29025E-01  2.99553E-01  2.67993E-01  2.38459E-01
   2.14300E-01  1.97754E-01  1.88083E-01  1.82673E-01  1.78856E-01  1.75399E-01  1.71842E-01  1.68923E-01  1.67940E-01  1.70152E-01
   1.76105E-01  1.85492E-01  1.97204E-01  2.10308E-01  2.23393E-01  2.35688E-01  2.47398E-01  2.58850E-01  2.70452E-01  2.82953E-01
   2.96395E-01  3.10205E-01  3.23745E-01  3.36465E-01  3.48018E-01  3.58189E-01  3.66828E-01  3.74285E-01  3.81070E-01  3.87651E-01
   3.94622E-01  4.02618E-01  4.12341E-01  4.24615E-01  4.40423E-01  4.61005E-01  4.87996E-01  5.23702E-01  5.71695E-01  6.38346E-01
   7.37509E-01  9.06782E-01  1.18370E+00  1.44474E+00  1.54934E+00  1.44339E+00  1.13797E+00  6.82438E-01  1.45147E-01 -3.93534E-01
  -7.51594E-01 -7.96857E-01 -5.45054E-01 -7.42464E-02  5.02503E-01  1.01486E+00  1.36932E+00  1.55522E+00  1.59911E+00  1.54336E+00
   1.42454E+00  1.28833E+00  1.23070E+00  1.25669E+00  1.27909E+00  1.24975E+00  1.15892E+00  1.01917E+00  8.54589E-01  6.96173E-01
   6.09567E-01  6.51436E-01  8.14137E-01  1.05667E+00  1.33036E+00  1.56966E+00  1.71519E+00  1.75570E+00  1.70337E+00  1.58069E+00
   1.41070E+00  1.21654E+00  1.03419E+00  8.82562E-01  7.56770E-01  6.54314E-01  5.73316E-01  5.11149E-01  4.64601E-01  4.30330E-01
   4.05262E-01  3.86837E-01  3.73094E-01  3.62649E-01  3.54597E-01  3.48397E-01  3.43766E-01  3.40592E-01  3.38874E-01  3.38677E-01
   3.40112E-01  3.43315E-01  3.48439E-01  3.55650E-01  3.65122E-01  3.77033E-01  3.91561E-01  4.08876E-01  4.29132E-01  4.52455E-01
   4.78931E-01  5.08590E-01  5.41392E-01  5.77207E-01  6.15802E-01  6.56830E-01  6.99815E-01  7.44158E-01  7.89131E-01  8.33898E-01
   8.77530E-01  9.19035E-01  9.57394E-01  9.91605E-01  1.02072E+00  1.04391E+00  1.06048E+00  1.06992E+00  1.07193E+00  1.06645E+00
   1.05364E+00  1.03388E+00  1.00776E+00  9.76039E-01  9.39596E-01  8.99405E-01  8.56477E-01  8.11821E-01  7.66400E-01  7.21097E-01
   6.76689E-01  6.33834E-01  5.93057E-01  5.54752E-01  5.19184E-01  4.86507E-01  4.56768E-01  4.29936E-01  4.05912E-01  3.84548E-01
   3.65663E-01  3.49053E-01  3.34509E-01  3.21822E-01  3.10789E-01  3.01221E-01  2.92941E-01  2.85790E-01  2.79627E-01  2.74327E-01
   2.69780E-01  2.65891E-01  2.62576E-01  2.59763E-01  2.57391E-01  2.55407E-01  2.53766E-01  2.52429E-01  2.51360E-01  2.50530E-01
   2.49916E-01  2.49495E-01  2.49249E-01  2.49160E-01  2.49213E-01  2.49395E-01  2.49695E-01  2.50103E-01  2.50611E-01  2.51208E-01
   2.51888E-01  2.52644E-01  2.53472E-01  2.54367E-01  2.55324E-01  2.56336E-01  2.57401E-01  2.58515E-01  2.59676E-01  2.60881E-01
   2.62126E-01  2.63409E-01  2.64728E-01  2.66082E-01  2.67470E-01  2.68889E-01  2.70337E-01  2.71811E-01  2.73311E-01  2.74838E-01
   2.76390E-01  2.77965E-01  2.79562E-01  2.81180E-01  2.82820E-01  2.84481E-01  2.86164E-01  2.87866E-01  2.89587E-01  2.91327E-01
   2.93088E-01  2.94870E-01  2.96672E-01  2.98495E-01  3.00337E-01  3.02202E-01  3.04091E-01  3.06006E-01
 NY background values follow
    -6.245E-01   -6.233E-01   -6.221E-01   -6.209E-01   -6.198E-01   -6.186E-01   -6.174E-01   -6.162E-01   -6.150E-01   -6.138E-01
    -6.125E-01   -6.113E-01   -6.101E-01   -6.089E-01   -6.076E-01   -6.064E-01   -6.052E-01   -6.039E-01   -6.026E-01   -6.014E-01
    -6.001E-01   -5.989E-01   -5.976E-01   -5.963E-01   -5.950E-01   -5.937E-01   -5.924E-01   -5.911E-01   -5.898E-01   -5.885E-01
    -5.872E-01   -5.859E-01   -5.846E-01   -5.832E-01   -5.819E-01   -5.806E-01   -5.792E-01   -5.779E-01   -5.765E-01   -5.752E-01
    -5.738E-01   -5.724E-01   -5.711E-01   -5.697E-01   -5.683E-01   -5.669E-01   -5.655E-01   -5.641E-01   -5.627E-01   -5.613E-01
    -5.599E-01   -5.585E-01   -5.571E-01   -5.557E-01   -5.542E-01   -5.528E-01   -5.514E-01   -5.499E-01   -5.485E-01   -5.470E-01
    -5.456E-01   -5.441E-01   -5.427E-01   -5.412E-01   -5.397E-01   -5.382E-01   -5.368E-01   -5.353E-01   -5.338E-01   -5.323E-01
    -5.308E-01   -5.293E-01   -5.278E-01   -5.263E-01   -5.248E-01   -5.232E-01   -5.217E-01   -5.202E-01   -5.187E-01   -5.171E-01
    -5.156E-01   -5.140E-01   -5.125E-01   -5.109E-01   -5.094E-01   -5.078E-01   -5.062E-01   -5.047E-01   -5.031E-01   -5.015E-01
    -4.999E-01   -4.983E-01   -4.967E-01   -4.952E-01   -4.936E-01   -4.919E-01   -4.903E-01   -4.887E-01   -4.871E-01   -4.855E-01
    -4.839E-01   -4.822E-01   -4.806E-01   -4.790E-01   -4.773E-01   -4.757E-01   -4.740E-01   -4.724E-01   -4.707E-01   -4.691E-01
    -4.674E-01   -4.657E-01   -4.641E-01   -4.624E-01   -4.607E-01   -4.590E-01   -4.574E-01   -4.557E-01   -4.540E-01   -4.523E-01
    -4.506E-01   -4.489E-01   -4.472E-01   -4.454E-01   -4.437E-01   -4.420E-01   -4.403E-01   -4.386E-01   -4.368E-01   -4.351E-01
    -4.334E-01   -4.316E-01   -4.299E-01   -4.281E-01   -4.264E-01   -4.246E-01   -4.228E-01   -4.211E-01   -4.193E-01   -4.175E-01
    -4.158E-01   -4.140E-01   -4.122E-01   -4.104E-01   -4.086E-01   -4.069E-01   -4.051E-01   -4.033E-01   -4.015E-01   -3.997E-01
    -3.979E-01   -3.960E-01   -3.942E-01   -3.924E-01   -3.906E-01   -3.888E-01   -3.869E-01   -3.851E-01   -3.833E-01   -3.814E-01
    -3.796E-01   -3.778E-01   -3.759E-01   -3.741E-01   -3.722E-01   -3.704E-01   -3.685E-01   -3.666E-01   -3.648E-01   -3.629E-01
    -3.610E-01   -3.592E-01   -3.573E-01   -3.554E-01   -3.535E-01   -3.516E-01   -3.497E-01   -3.478E-01   -3.460E-01   -3.441E-01
    -3.422E-01   -3.402E-01   -3.383E-01   -3.364E-01   -3.345E-01   -3.326E-01   -3.307E-01   -3.288E-01   -3.268E-01   -3.249E-01
    -3.230E-01   -3.211E-01   -3.191E-01   -3.172E-01   -3.152E-01   -3.133E-01   -3.113E-01   -3.094E-01   -3.074E-01   -3.055E-01
    -3.035E-01   -3.016E-01   -2.996E-01   -2.977E-01   -2.957E-01   -2.937E-01   -2.917E-01   -2.898E-01   -2.878E-01   -2.858E-01
    -2.838E-01   -2.818E-01   -2.799E-01   -2.779E-01   -2.759E-01   -2.739E-01   -2.719E-01   -2.699E-01   -2.679E-01   -2.659E-01
    -2.639E-01   -2.619E-01   -2.599E-01   -2.578E-01   -2.558E-01   -2.538E-01   -2.518E-01   -2.498E-01   -2.477E-01   -2.457E-01
    -2.437E-01   -2.417E-01   -2.396E-01   -2.376E-01   -2.356E-01   -2.335E-01   -2.315E-01   -2.294E-01   -2.274E-01   -2.253E-01
    -2.233E-01   -2.212E-01   -2.192E-01   -2.171E-01   -2.151E-01   -2.130E-01   -2.109E-01   -2.089E-01   -2.068E-01   -2.047E-01
    -2.027E-01   -2.006E-01   -1.985E-01   -1.965E-01   -1.944E-01   -1.923E-01   -1.902E-01   -1.881E-01   -1.860E-01   -1.840E-01
    -1.819E-01   -1.798E-01   -1.777E-01   -1.756E-01   -1.735E-01   -1.714E-01   -1.693E-01   -1.672E-01   -1.651E-01   -1.630E-01
    -1.609E-01   -1.588E-01   -1.567E-01   -1.546E-01   -1.525E-01   -1.503E-01   -1.482E-01   -1.461E-01   -1.440E-01   -1.419E-01
    -1.398E-01   -1.376E-01   -1.355E-01   -1.334E-01   -1.313E-01   -1.291E-01   -1.270E-01   -1.249E-01   -1.227E-01   -1.206E-01
    -1.185E-01   -1.163E-01   -1.142E-01   -1.121E-01   -1.099E-01   -1.078E-01   -1.056E-01   -1.035E-01   -1.014E-01   -9.921E-02
    -9.707E-02   -9.492E-02   -9.277E-02   -9.062E-02   -8.847E-02   -8.632E-02   -8.416E-02   -8.201E-02   -7.985E-02   -7.770E-02
    -7.554E-02   -7.338E-02   -7.122E-02   -6.906E-02   -6.690E-02   -6.474E-02   -6.257E-02   -6.041E-02   -5.825E-02   -5.608E-02
    -5.391E-02   -5.174E-02   -4.958E-02   -4.741E-02   -4.524E-02   -4.307E-02   -4.089E-02   -3.872E-02   -3.655E-02   -3.437E-02
    -3.220E-02   -3.002E-02   -2.785E-02   -2.567E-02   -2.349E-02   -2.132E-02   -1.914E-02   -1.696E-02   -1.478E-02   -1.260E-02
    -1.042E-02   -8.236E-03   -6.054E-03   -3.872E-03   -1.689E-03    4.947E-04    2.679E-03    4.863E-03    7.048E-03    9.233E-03
     1.142E-02    1.361E-02    1.579E-02    1.798E-02    2.017E-02    2.235E-02    2.454E-02    2.673E-02    2.892E-02    3.111E-02
     3.330E-02    3.549E-02    3.767E-02    3.986E-02    4.205E-02    4.424E-02    4.644E-02    4.863E-02    5.082E-02    5.301E-02
     5.520E-02    5.739E-02    5.958E-02    6.177E-02    6.396E-02    6.615E-02    6.834E-02    7.054E-02    7.273E-02    7.492E-02
     7.711E-02    7.930E-02    8.149E-02    8.368E-02    8.587E-02    8.806E-02    9.025E-02    9.244E-02    9.463E-02    9.682E-02
     9.901E-02    1.012E-01    1.034E-01    1.056E-01    1.078E-01    1.100E-01    1.121E-01    1.143E-01    1.165E-01    1.187E-01
     1.209E-01    1.231E-01    1.253E-01    1.275E-01    1.296E-01    1.318E-01    1.340E-01    1.362E-01    1.384E-01    1.406E-01
     1.427E-01    1.449E-01    1.471E-01    1.493E-01    1.515E-01    1.537E-01    1.558E-01    1.580E-01    1.602E-01    1.624E-01
     1.645E-01    1.667E-01    1.689E-01    1.711E-01    1.732E-01    1.754E-01    1.776E-01    1.798E-01    1.819E-01    1.841E-01
     1.863E-01    1.884E-01    1.906E-01    1.928E-01    1.949E-01    1.971E-01    1.993E-01    2.014E-01    2.036E-01    2.058E-01
     2.079E-01    2.101E-01    2.122E-01    2.144E-01    2.166E-01    2.187E-01    2.209E-01    2.230E-01    2.252E-01    2.273E-01
     2.295E-01    2.316E-01    2.338E-01    2.359E-01    2.381E-01    2.402E-01    2.424E-01    2.445E-01    2.466E-01    2.488E-01
     2.509E-01    2.531E-01    2.552E-01    2.573E-01    2.595E-01    2.616E-01    2.637E-01    2.658E-01    2.680E-01    2.701E-01
     2.722E-01    2.744E-01    2.765E-01    2.786E-01    2.807E-01    2.828E-01    2.850E-01    2.871E-01    2.892E-01    2.913E-01
     2.934E-01    2.955E-01    2.976E-01    2.997E-01    3.018E-01    3.039E-01    3.060E-01    3.081E-01    3.102E-01    3.123E-01
     3.144E-01    3.165E-01    3.186E-01    3.207E-01    3.228E-01    3.249E-01    3.269E-01    3.290E-01
 Ala      Conc. = 9.45E+01
