 LCModel (Version 6.3-1L) Copyright: S.W. Provencher.          Ref.: Magn. Reson. Med. 30:672-679 (1993).                
 Slice#2 Row#12 Col#11  PD_24_press_2_raw_act
 36 lines in following concentration table = NCONC+1
    Conc.  %SD /Cr+PCr  Metabolite                                         
   14.210  73%   1.482 Ala                                                 
    2.245 100%   0.234 Asp                                                 
    0.000 999%   0.000 Cr                                                  
    9.586  65%   1.000 PCr                                                 
    1.367  98%   0.143 GABA                                                
    1.470  92%   0.153 Glc                                                 
    5.555 303%   0.579 Gln                                                 
   11.714 166%   1.222 Glu                                                 
    4.102  60%   0.428 GPC                                                 
    0.000 999%   0.000 PCh                                                 
    0.000 999%   0.000 GSH                                                 
   63.296  51%   6.603 Ins                                                 
    6.240 152%   0.651 Lac                                                 
   25.110  45%   2.619 NAA                                                 
    0.000 999%   0.000 NAAG                                                
    0.419 107% 4.4E-02 Scyllo                                              
    2.384  94%   0.249 Tau                                                 
    0.266 897% 2.8E-02 -CrCH2                                              
    4.102  60%   0.428 GPC+PCh                                             
   25.110  45%   2.619 NAA+NAAG                                            
    9.586  65%   1.000 Cr+PCr                                              
   17.269 147%   1.801 Glu+Gln                                             
  185.382  52%  19.338 Lip13a                                              
    0.000 999%   0.000 Lip13b                                              
   49.632  62%   5.177 Lip09                                               
  172.130  24%  17.956 MM09                                                
   27.681  65%   2.888 Lip20                                               
    0.000 999%   0.000 MM20                                                
   60.820  56%   6.345 MM12                                                
  663.288  12%  69.192+MM14                                                
  368.617  16%  38.453 MM17                                                
  185.382  52%  19.338 Lip13a+Lip13b                                       
  909.489   9%  94.875 MM14+Lip13a+Lip13b+MM12                             
  221.762  15%  23.133 MM09+Lip09                                          
   27.681  65%   2.888 MM20+Lip20                                          
   6 lines in following misc. output table
  FWHM = 0.054 ppm    S/N =   3                                            
  Data shift =-0.031 ppm                                                   
  Ph:-180 deg       5.3 deg/ppm                                            
  alphaB,S = 8.5E+01,   1.2E+01                                            
   14 spline knots.   Ns = 8(1)                                            
   2 inflections.     2 extrema                                            
  498 points on ppm-axis = NY
      4.000000     3.992357     3.984714     3.977070     3.969427     3.961784     3.954141     3.946497     3.938854     3.931211
      3.923568     3.915925     3.908281     3.900638     3.892995     3.885352     3.877708     3.870065     3.862422     3.854779
      3.847136     3.839492     3.831849     3.824206     3.816563     3.808919     3.801276     3.793633     3.785990     3.778347
      3.770703     3.763060     3.755417     3.747774     3.740130     3.732487     3.724844     3.717201     3.709558     3.701914
      3.694271     3.686628     3.678985     3.671341     3.663698     3.656055     3.648412     3.640769     3.633125     3.625482
      3.617839     3.610196     3.602552     3.594909     3.587266     3.579623     3.571980     3.564336     3.556693     3.549050
      3.541407     3.533763     3.526120     3.518477     3.510834     3.503191     3.495547     3.487904     3.480261     3.472618
      3.464974     3.457331     3.449688     3.442045     3.434402     3.426758     3.419115     3.411472     3.403829     3.396185
      3.388542     3.380899     3.373256     3.365613     3.357969     3.350326     3.342683     3.335040     3.327396     3.319753
      3.312110     3.304467     3.296824     3.289180     3.281537     3.273894     3.266251     3.258607     3.250964     3.243321
      3.235678     3.228034     3.220391     3.212748     3.205105     3.197462     3.189818     3.182175     3.174532     3.166889
      3.159245     3.151602     3.143959     3.136316     3.128673     3.121029     3.113386     3.105743     3.098100     3.090456
      3.082813     3.075170     3.067527     3.059884     3.052240     3.044597     3.036954     3.029311     3.021667     3.014024
      3.006381     2.998738     2.991095     2.983451     2.975808     2.968165     2.960522     2.952878     2.945235     2.937592
      2.929949     2.922306     2.914662     2.907019     2.899376     2.891733     2.884089     2.876446     2.868803     2.861160
      2.853517     2.845873     2.838230     2.830587     2.822944     2.815300     2.807657     2.800014     2.792371     2.784728
      2.777084     2.769441     2.761798     2.754155     2.746511     2.738868     2.731225     2.723582     2.715939     2.708295
      2.700652     2.693009     2.685366     2.677722     2.670079     2.662436     2.654793     2.647150     2.639506     2.631863
      2.624220     2.616577     2.608933     2.601290     2.593647     2.586004     2.578361     2.570717     2.563074     2.555431
      2.547788     2.540144     2.532501     2.524858     2.517215     2.509572     2.501928     2.494285     2.486642     2.478999
      2.471355     2.463712     2.456069     2.448426     2.440783     2.433139     2.425496     2.417853     2.410210     2.402566
      2.394923     2.387280     2.379637     2.371994     2.364350     2.356707     2.349064     2.341421     2.333777     2.326134
      2.318491     2.310848     2.303205     2.295561     2.287918     2.280275     2.272632     2.264988     2.257345     2.249702
      2.242059     2.234416     2.226772     2.219129     2.211486     2.203843     2.196199     2.188556     2.180913     2.173270
      2.165627     2.157983     2.150340     2.142697     2.135054     2.127410     2.119767     2.112124     2.104481     2.096838
      2.089194     2.081551     2.073908     2.066265     2.058621     2.050978     2.043335     2.035692     2.028049     2.020405
      2.012762     2.005119     1.997476     1.989833     1.982190     1.974546     1.966903     1.959260     1.951617     1.943974
      1.936331     1.928688     1.921045     1.913402     1.905759     1.898115     1.890472     1.882829     1.875186     1.867543
      1.859900     1.852257     1.844614     1.836971     1.829327     1.821684     1.814041     1.806398     1.798755     1.791112
      1.783469     1.775826     1.768183     1.760540     1.752896     1.745253     1.737610     1.729967     1.722324     1.714681
      1.707038     1.699395     1.691752     1.684108     1.676465     1.668822     1.661179     1.653536     1.645893     1.638250
      1.630607     1.622964     1.615321     1.607677     1.600034     1.592391     1.584748     1.577105     1.569462     1.561819
      1.554176     1.546533     1.538890     1.531246     1.523603     1.515960     1.508317     1.500674     1.493031     1.485388
      1.477745     1.470102     1.462458     1.454815     1.447172     1.439529     1.431886     1.424243     1.416600     1.408957
      1.401314     1.393671     1.386027     1.378384     1.370741     1.363098     1.355455     1.347812     1.340169     1.332526
      1.324883     1.317240     1.309596     1.301953     1.294310     1.286667     1.279024     1.271381     1.263738     1.256095
      1.248452     1.240808     1.233165     1.225522     1.217879     1.210236     1.202593     1.194950     1.187307     1.179664
      1.172021     1.164377     1.156734     1.149091     1.141448     1.133805     1.126162     1.118519     1.110876     1.103233
      1.095590     1.087946     1.080303     1.072660     1.065017     1.057374     1.049731     1.042088     1.034445     1.026802
      1.019158     1.011515     1.003872     0.996229     0.988586     0.980943     0.973300     0.965657     0.958014     0.950371
      0.942727     0.935084     0.927441     0.919798     0.912155     0.904512     0.896869     0.889226     0.881583     0.873940
      0.866296     0.858653     0.851010     0.843367     0.835724     0.828081     0.820438     0.812795     0.805152     0.797508
      0.789865     0.782222     0.774579     0.766936     0.759293     0.751650     0.744007     0.736364     0.728721     0.721077
      0.713434     0.705791     0.698148     0.690505     0.682862     0.675219     0.667576     0.659933     0.652290     0.644646
      0.637003     0.629360     0.621717     0.614074     0.606431     0.598788     0.591145     0.583502     0.575858     0.568215
      0.560572     0.552929     0.545286     0.537643     0.530000     0.522357     0.514714     0.507071     0.499427     0.491784
      0.484141     0.476498     0.468855     0.461212     0.453569     0.445925     0.438282     0.430639     0.422996     0.415353
      0.407710     0.400067     0.392424     0.384780     0.377137     0.369494     0.361851     0.354208     0.346565     0.338922
      0.331278     0.323635     0.315992     0.308349     0.300706     0.293063     0.285420     0.277777     0.270133     0.262490
      0.254847     0.247204     0.239561     0.231918     0.224275     0.216631     0.208988     0.201345
 NY phased data points follow
   2.96866E+00  3.34635E+00  6.13948E-01  2.52597E+00  2.18926E+00  1.48085E+00  7.32670E-01  1.35090E+00  1.71635E+00  2.13746E+00
   2.85566E+00  2.58133E+00  3.02961E+00  2.17764E+00  2.53084E+00  1.71621E+00  7.64287E-01  2.21233E+00  1.30813E+00  1.39130E+00
   1.28562E+00  8.77126E-01  1.76965E+00  9.14587E-01  1.36787E+00  1.28378E+00  2.39479E+00  3.35781E+00  1.27640E+00  1.72751E+00
   1.58923E+00  1.83002E+00  1.49684E+00  1.09796E+00  2.67226E+00  2.21894E+00  5.88073E-01 -7.76470E-02  1.36250E+00  1.25736E+00
   1.70276E+00  1.46190E+00  1.50698E+00  3.05127E-01  1.12045E+00  7.12272E-01  1.69936E+00  1.98317E+00  1.86834E+00  2.19457E+00
   1.81562E+00  2.54599E+00  2.62685E+00  1.20029E+00  8.93547E-01  2.46228E+00  2.16444E+00 -1.00697E-01  1.04902E+00  8.68483E-01
   1.36455E+00  1.29700E+00  1.95836E+00  1.80113E+00  1.53219E+00  1.98582E+00  7.04416E-01  9.54730E-01  1.95799E+00  1.20310E+00
   1.28953E+00  1.01026E+00  1.28833E+00  1.33662E+00  1.33021E+00  2.45211E+00  1.95549E+00  2.28183E-01  7.00530E-01  3.17347E+00
   1.12049E+00  2.55046E+00  2.39600E+00  8.63439E-01  1.25690E+00  4.52491E-02  8.42282E-01 -1.09949E-01  8.76028E-01  1.75889E+00
   2.14606E+00  5.97624E-03  8.05062E-01  9.70584E-01  3.01122E-01  8.81935E-01 -5.26620E-01  9.07841E-01  2.41294E-01  1.73075E+00
  -5.43281E-01  4.49781E-01  8.70445E-01  1.00217E+00  7.79531E-01  2.24248E+00  7.73217E-01  2.46450E+00  2.10078E+00  1.72091E+00
   8.14846E-01 -3.73178E-01  1.97856E+00  1.97331E+00  1.57747E+00  2.27657E+00  9.45440E-01  8.95474E-01  1.44166E+00  1.05584E+00
   1.89724E+00  2.46448E+00 -4.66223E-01  1.34216E+00  2.32376E-01 -1.33839E-01  5.16165E-01 -3.73967E-01  9.12986E-01  1.59478E+00
   9.93012E-01  2.57697E+00  1.62006E+00  1.30975E+00  1.73250E+00  2.85886E-01  7.54246E-01  1.31394E+00  7.14356E-01  2.04952E+00
   1.63973E+00  1.14891E+00  1.82638E+00 -3.61206E-01  1.30751E+00  1.98560E+00  2.81568E+00  1.77301E+00  5.61093E-01  1.73456E+00
   1.03758E+00  2.18056E+00  8.06083E-01  4.25860E-01  9.29290E-01  3.16775E-01  1.34736E+00  8.23036E-01  5.54003E-01  1.36726E+00
   2.85169E+00  8.81446E-01  9.49439E-01  1.84313E+00  1.51034E+00  1.44912E+00  1.29786E+00  2.42401E+00  1.90647E+00  2.23812E-01
   1.07186E+00  2.04883E+00  1.38107E+00  1.57804E+00  1.47740E+00  1.48381E+00  1.00970E+00  2.20989E+00  7.14219E-01  1.23643E+00
   1.18237E+00  1.39025E+00  1.37277E+00  1.58196E+00  6.81686E-01  8.96294E-01  8.23407E-02  8.83391E-01  1.23442E+00  1.37611E+00
   1.66529E+00  1.19668E+00  1.16513E+00  8.59567E-01  1.09547E+00  2.20721E+00  1.02386E+00  1.08755E+00  1.03809E+00  1.55963E+00
   3.00212E-01  2.11971E+00  1.83587E+00  5.71574E-01  1.18687E+00  1.42533E+00  1.15528E+00  1.79688E+00  1.02904E+00  1.67769E+00
   2.11150E+00  1.91156E-01  1.05361E+00  6.55080E-01  1.56692E+00  1.59208E+00  1.41272E+00  8.87039E-01  9.45966E-01  1.30683E+00
   1.61748E+00  1.20586E+00  6.34184E-01  1.69165E+00  7.01844E-01  3.08333E-01  2.01790E+00  7.13529E-01  1.08941E+00  1.36897E+00
   7.34235E-01  2.17690E+00  1.29935E+00  1.09642E+00  1.69310E+00  1.65221E+00  1.34872E+00  2.07643E-01  2.82854E-02  9.57472E-01
   1.32274E+00  8.73136E-01  1.43629E+00 -6.58114E-01  1.83533E+00  4.78693E-01  2.26669E-01 -6.69953E-02  3.42964E-01 -1.15584E-01
   3.03845E-01  7.95249E-01  1.05177E+00 -1.51120E-01  1.92677E+00 -8.70632E-01  5.60460E-01 -5.79045E-01  7.64515E-01  1.31463E-01
   9.21070E-01  2.63891E+00  2.00492E+00  1.68000E+00  1.56965E+00  2.87726E+00  2.70625E+00  2.86854E+00  2.39762E+00  2.94926E+00
   5.24221E-01  2.09565E+00  3.01093E+00  2.66041E+00  1.02664E+00  2.56549E+00  2.33119E+00  2.47677E+00  1.10338E+00  2.17987E+00
   1.26985E+00  1.94150E+00  2.08997E+00  2.66509E+00  3.16850E+00  2.12400E+00  2.71891E+00  4.15124E+00  1.87417E+00  2.63056E+00
   2.72167E+00  3.94052E+00  2.42076E+00  2.94461E+00  3.23959E+00  1.93577E+00  3.04419E+00  3.77646E+00  3.12222E+00  3.26218E+00
   3.94167E+00  1.02724E+00  3.10227E+00  3.48786E+00  1.54425E+00  3.73967E+00  2.53726E+00  2.35320E+00  2.82015E+00  3.49133E+00
   2.89787E+00  2.80111E+00  3.00182E+00  3.83753E+00  2.79811E+00  3.59113E+00  3.28644E+00  3.46703E+00  4.47222E+00  4.42858E+00
   4.10970E+00  4.00510E+00  4.22792E+00  4.10789E+00  4.23932E+00  5.00245E+00  5.68471E+00  5.63498E+00  4.67266E+00  4.96829E+00
   5.56983E+00  4.90370E+00  4.23968E+00  5.14588E+00  4.15668E+00  4.41803E+00  4.23205E+00  3.40536E+00  2.67098E+00  4.56091E+00
   4.08205E+00  4.87487E+00  4.30743E+00  3.37232E+00  2.81786E+00  3.40749E+00  2.90888E+00  2.47988E+00  3.12510E+00  1.63895E+00
   2.18997E+00  1.81950E+00  1.64027E+00  2.45463E+00  1.41436E+00  1.86753E+00  1.41266E+00  1.09544E+00  1.31790E+00  1.00017E+00
   1.81801E+00  1.94196E+00  1.82400E+00  2.31100E+00  5.92399E-01  2.56040E+00  2.62910E+00  1.44075E+00  1.65640E+00  1.99415E+00
   2.09933E+00  1.83298E+00  1.24221E+00  2.71614E+00  1.69843E+00  2.16015E+00  8.92027E-01  2.29194E+00  7.02451E-01  2.15403E+00
   2.33306E+00  1.75401E+00  1.52966E+00  1.37801E+00  9.08103E-01  2.66686E+00  1.49798E+00  2.39167E+00  1.05201E+00  3.87200E+00
   2.86584E+00  1.37923E+00  8.35943E-01  1.05782E+00  3.12972E+00  3.74175E+00  5.48278E-01  7.73986E-03  1.56417E+00  7.36375E-01
   3.37363E+00  1.75189E+00  1.56685E+00  1.26366E+00  1.72645E+00  1.58710E+00  9.88303E-01  1.16438E+00  2.99609E+00  2.87550E+00
   1.54299E+00  1.55029E+00  1.25260E+00  2.26260E+00  2.59680E+00  8.61369E-01  1.09384E+00  1.37018E+00  1.82094E+00  2.77179E+00
   1.51801E+00  2.49821E+00  2.37575E+00  1.62701E+00  1.78641E+00  1.69898E+00  1.65229E+00  1.45824E+00  1.09169E+00  1.71923E+00
   1.15865E+00  9.83082E-01  1.12855E+00 -8.69595E-01  7.49511E-01  7.18617E-01  8.34368E-01  1.52115E+00  4.43605E-01 -6.10645E-01
   7.43101E-01  5.36858E-01  2.27768E+00  1.90886E+00  1.52841E+00  1.05580E+00  1.52680E+00  6.89473E-01  9.30355E-01  1.26895E+00
   9.38571E-01  8.90623E-01  1.51876E+00  6.30767E-01  1.03066E+00 -5.80347E-01  1.05422E+00  3.60680E-01  4.44419E-01  4.15063E-01
   2.21001E-01  5.69378E-01  3.84895E-01  3.77974E-01  1.18268E+00  8.25505E-01 -4.71921E-01  5.41714E-01  2.70111E-01 -2.60676E-01
  -4.25482E-01 -3.23908E-02 -1.74448E-01  1.90948E-01 -5.82234E-02  1.01016E+00 -6.19464E-01 -4.43070E-01 -2.40099E-01  2.83240E-01
  -1.39641E+00 -3.87356E-01  8.38801E-01  5.87469E-01 -1.27186E+00  7.92540E-01  2.05852E-01  1.20410E+00  8.74959E-01 -9.26587E-01
   4.57068E-01  6.57498E-01  7.08220E-01 -5.69396E-02 -2.04475E-02  4.09584E-01  2.07013E-01  1.46073E+00
 NY points of the fit to the data follow
   2.05964E+00  1.90427E+00  1.72588E+00  1.57435E+00  1.43291E+00  1.32543E+00  1.29725E+00  1.34264E+00  1.43644E+00  1.55026E+00
   1.65703E+00  1.74510E+00  1.81843E+00  1.87310E+00  1.88951E+00  1.85371E+00  1.76499E+00  1.63356E+00  1.50034E+00  1.42654E+00
   1.40588E+00  1.41072E+00  1.43683E+00  1.47728E+00  1.51779E+00  1.54257E+00  1.54107E+00  1.51129E+00  1.45530E+00  1.38408E+00
   1.30967E+00  1.25012E+00  1.22150E+00  1.23340E+00  1.29157E+00  1.39464E+00  1.51818E+00  1.62838E+00  1.69012E+00  1.67147E+00
   1.56246E+00  1.38443E+00  1.17704E+00  9.97117E-01  9.07963E-01  9.51036E-01  1.13222E+00  1.41296E+00  1.71887E+00  1.97316E+00
   2.14926E+00  2.24773E+00  2.25849E+00  2.15550E+00  1.92477E+00  1.60066E+00  1.27190E+00  1.07013E+00  1.06230E+00  1.18668E+00
   1.34923E+00  1.49272E+00  1.59646E+00  1.65493E+00  1.66535E+00  1.63454E+00  1.57024E+00  1.47435E+00  1.35945E+00  1.26981E+00
   1.23990E+00  1.27158E+00  1.34973E+00  1.43777E+00  1.51283E+00  1.56517E+00  1.59118E+00  1.59343E+00  1.57590E+00  1.55175E+00
   1.52667E+00  1.51290E+00  1.52806E+00  1.55716E+00  1.57679E+00  1.56993E+00  1.52684E+00  1.44794E+00  1.34528E+00  1.23851E+00
   1.14194E+00  1.06307E+00  1.01412E+00  1.00459E+00  1.02869E+00  1.06010E+00  1.08972E+00  1.08438E+00  1.04048E+00  9.98058E-01
   1.00530E+00  1.08532E+00  1.22237E+00  1.37595E+00  1.51199E+00  1.62966E+00  1.74930E+00  1.85257E+00  1.88796E+00  1.83241E+00
   1.68903E+00  1.48694E+00  1.30845E+00  1.24140E+00  1.22819E+00  1.22330E+00  1.22112E+00  1.21566E+00  1.19862E+00  1.15002E+00
   1.07667E+00  9.86746E-01  8.97838E-01  8.44872E-01  8.59696E-01  9.56192E-01  1.11718E+00  1.30062E+00  1.46481E+00  1.59885E+00
   1.71103E+00  1.79353E+00  1.81673E+00  1.76217E+00  1.63346E+00  1.45344E+00  1.28579E+00  1.20921E+00  1.18747E+00  1.17722E+00
   1.17108E+00  1.16754E+00  1.16605E+00  1.16648E+00  1.16807E+00  1.16977E+00  1.17129E+00  1.17175E+00  1.17126E+00  1.17106E+00
   1.17135E+00  1.17131E+00  1.17007E+00  1.16931E+00  1.17049E+00  1.17403E+00  1.17947E+00  1.18230E+00  1.17924E+00  1.16919E+00
   1.15364E+00  1.13776E+00  1.12665E+00  1.12193E+00  1.12104E+00  1.12079E+00  1.12091E+00  1.12386E+00  1.13259E+00  1.14597E+00
   1.15566E+00  1.15311E+00  1.13759E+00  1.11487E+00  1.09113E+00  1.07343E+00  1.06173E+00  1.05333E+00  1.04715E+00  1.04086E+00
   1.03329E+00  1.02739E+00  1.02694E+00  1.02918E+00  1.02862E+00  1.02170E+00  1.00780E+00  9.94137E-01  9.93218E-01  1.00310E+00
   1.01611E+00  1.02486E+00  1.03168E+00  1.04339E+00  1.06002E+00  1.07720E+00  1.08512E+00  1.07636E+00  1.05672E+00  1.03954E+00
   1.03144E+00  1.03669E+00  1.05721E+00  1.08782E+00  1.12279E+00  1.15716E+00  1.18279E+00  1.19407E+00  1.18077E+00  1.14033E+00
   1.07927E+00  1.01113E+00  9.52116E-01  9.17370E-01  9.21699E-01  9.64639E-01  1.03018E+00  1.09792E+00  1.15594E+00  1.19080E+00
   1.18679E+00  1.14900E+00  1.09159E+00  1.02470E+00  9.63691E-01  9.24303E-01  9.18225E-01  9.37979E-01  9.75844E-01  1.02486E+00
   1.07548E+00  1.11496E+00  1.12908E+00  1.11785E+00  1.09637E+00  1.07764E+00  1.06422E+00  1.06125E+00  1.06876E+00  1.08171E+00
   1.09396E+00  1.10170E+00  1.10599E+00  1.10993E+00  1.11454E+00  1.11552E+00  1.10669E+00  1.09111E+00  1.07493E+00  1.06127E+00
   1.05148E+00  1.04159E+00  9.91629E-01  8.63485E-01  6.87611E-01  4.82511E-01  3.12182E-01  2.68240E-01  4.17746E-01  7.63861E-01
   1.22660E+00  1.68784E+00  2.07214E+00  2.38918E+00  2.65688E+00  2.82534E+00  2.81868E+00  2.61371E+00  2.23228E+00  1.76908E+00
   1.43914E+00  1.34609E+00  1.33528E+00  1.34873E+00  1.37822E+00  1.41928E+00  1.46947E+00  1.52936E+00  1.59773E+00  1.67250E+00
   1.75183E+00  1.83470E+00  1.92036E+00  2.00953E+00  2.10313E+00  2.20065E+00  2.30125E+00  2.40353E+00  2.50520E+00  2.60383E+00
   2.69680E+00  2.78135E+00  2.85544E+00  2.91732E+00  2.96556E+00  2.99952E+00  3.01925E+00  3.02498E+00  3.01736E+00  2.99780E+00
   2.96827E+00  2.93097E+00  2.88850E+00  2.84381E+00  2.79984E+00  2.75968E+00  2.72641E+00  2.70297E+00  2.69200E+00  2.69583E+00
   2.71633E+00  2.75483E+00  2.81215E+00  2.88846E+00  2.98325E+00  3.09520E+00  3.22207E+00  3.36030E+00  3.50362E+00  3.64316E+00
   3.78672E+00  3.94343E+00  4.12011E+00  4.32903E+00  4.57021E+00  4.82689E+00  5.06694E+00  5.24156E+00  5.31671E+00  5.29434E+00
   5.18282E+00  4.99001E+00  4.72990E+00  4.44027E+00  4.17153E+00  3.95891E+00  3.82291E+00  3.76874E+00  3.74575E+00  3.71573E+00
   3.67840E+00  3.62183E+00  3.53098E+00  3.39599E+00  3.22068E+00  3.06048E+00  2.95209E+00  2.85764E+00  2.75241E+00  2.63148E+00
   2.49785E+00  2.35620E+00  2.21092E+00  2.07391E+00  1.96184E+00  1.88474E+00  1.84780E+00  1.85590E+00  1.89166E+00  1.93083E+00
   1.96574E+00  1.98636E+00  1.98332E+00  1.94872E+00  1.88602E+00  1.82423E+00  1.77640E+00  1.73473E+00  1.69574E+00  1.65833E+00
   1.62218E+00  1.58729E+00  1.55386E+00  1.52215E+00  1.49249E+00  1.46521E+00  1.44066E+00  1.41920E+00  1.40114E+00  1.38682E+00
   1.37653E+00  1.37056E+00  1.36916E+00  1.37258E+00  1.38100E+00  1.39459E+00  1.41347E+00  1.43768E+00  1.46719E+00  1.50188E+00
   1.54151E+00  1.58573E+00  1.63404E+00  1.68578E+00  1.74014E+00  1.79618E+00  1.85280E+00  1.90877E+00  1.96279E+00  2.01351E+00
   2.05958E+00  2.09966E+00  2.13257E+00  2.15723E+00  2.17279E+00  2.17862E+00  2.17437E+00  2.15998E+00  2.13565E+00  2.10187E+00
   2.05938E+00  2.00912E+00  1.95219E+00  1.88980E+00  1.82325E+00  1.75382E+00  1.68274E+00  1.61118E+00  1.54019E+00  1.47068E+00
   1.40341E+00  1.33900E+00  1.27788E+00  1.22037E+00  1.16663E+00  1.11675E+00  1.07067E+00  1.02830E+00  9.89479E-01  9.53988E-01
   9.21604E-01  8.92083E-01  8.65181E-01  8.40655E-01  8.18269E-01  7.97808E-01  7.79069E-01  7.61870E-01  7.46045E-01  7.31442E-01
   7.17927E-01  7.05381E-01  6.93701E-01  6.82797E-01  6.72586E-01  6.62995E-01  6.53961E-01  6.45428E-01  6.37351E-01  6.29686E-01
   6.22392E-01  6.15436E-01  6.08787E-01  6.02420E-01  5.96313E-01  5.90442E-01  5.84789E-01  5.79334E-01  5.74064E-01  5.68965E-01
   5.64026E-01  5.59234E-01  5.54577E-01  5.50045E-01  5.45631E-01  5.41330E-01  5.37132E-01  5.33031E-01  5.29018E-01  5.25089E-01
   5.21240E-01  5.17468E-01  5.13767E-01  5.10131E-01  5.06557E-01  5.03041E-01  4.99582E-01  4.96178E-01  4.92824E-01  4.89516E-01
   4.86251E-01  4.83030E-01  4.79851E-01  4.76712E-01  4.73609E-01  4.70539E-01  4.67501E-01  4.64496E-01  4.61524E-01  4.58580E-01
   4.55663E-01  4.52770E-01  4.49903E-01  4.47062E-01  4.44244E-01  4.41449E-01  4.38672E-01  4.35914E-01
 NY background values follow
     1.423E+00    1.421E+00    1.419E+00    1.417E+00    1.415E+00    1.413E+00    1.411E+00    1.409E+00    1.407E+00    1.405E+00
     1.402E+00    1.400E+00    1.398E+00    1.396E+00    1.394E+00    1.392E+00    1.390E+00    1.388E+00    1.386E+00    1.384E+00
     1.382E+00    1.380E+00    1.378E+00    1.376E+00    1.374E+00    1.371E+00    1.369E+00    1.367E+00    1.365E+00    1.363E+00
     1.361E+00    1.359E+00    1.357E+00    1.355E+00    1.353E+00    1.351E+00    1.349E+00    1.347E+00    1.345E+00    1.343E+00
     1.341E+00    1.338E+00    1.336E+00    1.334E+00    1.332E+00    1.330E+00    1.328E+00    1.326E+00    1.324E+00    1.322E+00
     1.320E+00    1.318E+00    1.316E+00    1.314E+00    1.312E+00    1.310E+00    1.308E+00    1.305E+00    1.303E+00    1.301E+00
     1.299E+00    1.297E+00    1.295E+00    1.293E+00    1.291E+00    1.289E+00    1.287E+00    1.285E+00    1.283E+00    1.281E+00
     1.279E+00    1.277E+00    1.274E+00    1.272E+00    1.270E+00    1.268E+00    1.266E+00    1.264E+00    1.262E+00    1.260E+00
     1.258E+00    1.256E+00    1.254E+00    1.252E+00    1.250E+00    1.248E+00    1.246E+00    1.244E+00    1.241E+00    1.239E+00
     1.237E+00    1.235E+00    1.233E+00    1.231E+00    1.229E+00    1.227E+00    1.225E+00    1.223E+00    1.221E+00    1.219E+00
     1.217E+00    1.215E+00    1.213E+00    1.211E+00    1.208E+00    1.206E+00    1.204E+00    1.202E+00    1.200E+00    1.198E+00
     1.196E+00    1.194E+00    1.192E+00    1.190E+00    1.188E+00    1.186E+00    1.184E+00    1.182E+00    1.180E+00    1.177E+00
     1.175E+00    1.173E+00    1.171E+00    1.169E+00    1.167E+00    1.165E+00    1.163E+00    1.161E+00    1.159E+00    1.157E+00
     1.155E+00    1.153E+00    1.151E+00    1.149E+00    1.147E+00    1.144E+00    1.142E+00    1.140E+00    1.138E+00    1.136E+00
     1.134E+00    1.132E+00    1.130E+00    1.128E+00    1.126E+00    1.124E+00    1.122E+00    1.120E+00    1.118E+00    1.116E+00
     1.114E+00    1.111E+00    1.109E+00    1.107E+00    1.105E+00    1.103E+00    1.101E+00    1.099E+00    1.097E+00    1.095E+00
     1.093E+00    1.091E+00    1.089E+00    1.087E+00    1.085E+00    1.083E+00    1.080E+00    1.078E+00    1.076E+00    1.074E+00
     1.072E+00    1.070E+00    1.068E+00    1.066E+00    1.064E+00    1.062E+00    1.060E+00    1.058E+00    1.056E+00    1.054E+00
     1.052E+00    1.050E+00    1.047E+00    1.045E+00    1.043E+00    1.041E+00    1.039E+00    1.037E+00    1.035E+00    1.033E+00
     1.031E+00    1.029E+00    1.027E+00    1.025E+00    1.023E+00    1.021E+00    1.019E+00    1.017E+00    1.014E+00    1.012E+00
     1.010E+00    1.008E+00    1.006E+00    1.004E+00    1.002E+00    1.000E+00    9.979E-01    9.959E-01    9.938E-01    9.918E-01
     9.897E-01    9.876E-01    9.856E-01    9.835E-01    9.814E-01    9.794E-01    9.773E-01    9.752E-01    9.732E-01    9.711E-01
     9.691E-01    9.670E-01    9.649E-01    9.629E-01    9.608E-01    9.587E-01    9.567E-01    9.546E-01    9.525E-01    9.505E-01
     9.484E-01    9.463E-01    9.443E-01    9.422E-01    9.402E-01    9.381E-01    9.360E-01    9.340E-01    9.319E-01    9.298E-01
     9.278E-01    9.257E-01    9.236E-01    9.216E-01    9.195E-01    9.175E-01    9.154E-01    9.133E-01    9.113E-01    9.092E-01
     9.071E-01    9.051E-01    9.030E-01    9.009E-01    8.989E-01    8.968E-01    8.947E-01    8.927E-01    8.906E-01    8.886E-01
     8.865E-01    8.844E-01    8.824E-01    8.803E-01    8.782E-01    8.762E-01    8.741E-01    8.720E-01    8.700E-01    8.679E-01
     8.659E-01    8.638E-01    8.617E-01    8.597E-01    8.576E-01    8.555E-01    8.535E-01    8.514E-01    8.493E-01    8.473E-01
     8.452E-01    8.431E-01    8.411E-01    8.390E-01    8.370E-01    8.349E-01    8.328E-01    8.308E-01    8.287E-01    8.266E-01
     8.246E-01    8.225E-01    8.204E-01    8.184E-01    8.163E-01    8.143E-01    8.122E-01    8.101E-01    8.081E-01    8.060E-01
     8.039E-01    8.019E-01    7.998E-01    7.977E-01    7.957E-01    7.936E-01    7.915E-01    7.895E-01    7.874E-01    7.854E-01
     7.833E-01    7.812E-01    7.792E-01    7.771E-01    7.750E-01    7.730E-01    7.709E-01    7.688E-01    7.668E-01    7.647E-01
     7.626E-01    7.606E-01    7.585E-01    7.565E-01    7.544E-01    7.523E-01    7.503E-01    7.482E-01    7.461E-01    7.441E-01
     7.420E-01    7.399E-01    7.379E-01    7.358E-01    7.338E-01    7.317E-01    7.296E-01    7.276E-01    7.255E-01    7.234E-01
     7.214E-01    7.193E-01    7.172E-01    7.152E-01    7.131E-01    7.110E-01    7.090E-01    7.069E-01    7.049E-01    7.028E-01
     7.007E-01    6.987E-01    6.966E-01    6.945E-01    6.925E-01    6.904E-01    6.883E-01    6.863E-01    6.842E-01    6.821E-01
     6.801E-01    6.780E-01    6.760E-01    6.739E-01    6.718E-01    6.698E-01    6.677E-01    6.656E-01    6.636E-01    6.615E-01
     6.594E-01    6.574E-01    6.553E-01    6.532E-01    6.512E-01    6.491E-01    6.471E-01    6.450E-01    6.429E-01    6.409E-01
     6.388E-01    6.367E-01    6.347E-01    6.326E-01    6.305E-01    6.285E-01    6.264E-01    6.243E-01    6.223E-01    6.202E-01
     6.181E-01    6.161E-01    6.140E-01    6.120E-01    6.099E-01    6.078E-01    6.058E-01    6.037E-01    6.016E-01    5.996E-01
     5.975E-01    5.954E-01    5.934E-01    5.913E-01    5.892E-01    5.872E-01    5.851E-01    5.831E-01    5.810E-01    5.789E-01
     5.769E-01    5.748E-01    5.727E-01    5.707E-01    5.686E-01    5.665E-01    5.645E-01    5.624E-01    5.603E-01    5.583E-01
     5.562E-01    5.542E-01    5.521E-01    5.500E-01    5.480E-01    5.459E-01    5.438E-01    5.418E-01    5.397E-01    5.376E-01
     5.356E-01    5.335E-01    5.314E-01    5.294E-01    5.273E-01    5.253E-01    5.232E-01    5.211E-01    5.191E-01    5.170E-01
     5.149E-01    5.129E-01    5.108E-01    5.087E-01    5.067E-01    5.046E-01    5.025E-01    5.005E-01    4.984E-01    4.963E-01
     4.943E-01    4.922E-01    4.902E-01    4.881E-01    4.860E-01    4.840E-01    4.819E-01    4.798E-01    4.778E-01    4.757E-01
     4.736E-01    4.716E-01    4.695E-01    4.674E-01    4.654E-01    4.633E-01    4.613E-01    4.592E-01    4.571E-01    4.551E-01
     4.530E-01    4.509E-01    4.489E-01    4.468E-01    4.447E-01    4.427E-01    4.406E-01    4.385E-01    4.365E-01    4.344E-01
     4.323E-01    4.303E-01    4.282E-01    4.262E-01    4.241E-01    4.220E-01    4.200E-01    4.179E-01    4.158E-01    4.138E-01
     4.117E-01    4.096E-01    4.076E-01    4.055E-01    4.034E-01    4.014E-01    3.993E-01    3.973E-01
 Ala      Conc. = 1.42E+01
