 LCModel (Version 6.3-1L) Copyright: S.W. Provencher.          Ref.: Magn. Reson. Med. 30:672-679 (1993).                
 Slice#1 Row#5 Col#11  PD_24_press_2_raw_act
 36 lines in following concentration table = NCONC+1
    Conc.  %SD /Cr+PCr  Metabolite                                         
 2.06E+03  26%  11.798 Ala                                                 
  117.393 104%   0.673 Asp                                                 
  174.386  48%   1.000 Cr                                                  
    0.000 999%   0.000 PCr                                                 
   65.054 115%   0.373 GABA                                                
   90.716  82%   0.520 Glc                                                 
 1.14E+03  61%   6.563 Gln                                                 
    0.000 999%   0.000 Glu                                                 
    0.000 999%   0.000 GPC                                                 
  123.745  26%   0.710 PCh                                                 
   12.394 999% 7.1E-02 GSH                                                 
  635.942  61%   3.647 Ins                                                 
    0.000 999%   0.000 Lac                                                 
 2.03E+03   8%  11.650 NAA                                                 
    0.000 999%   0.000 NAAG                                                
   46.200  48%   0.265 Scyllo                                              
  199.852  59%   1.146 Tau                                                 
   72.817  80%   0.418 -CrCH2                                              
  123.745  26%   0.710 GPC+PCh                                             
 2.03E+03   8%  11.650 NAA+NAAG                                            
  174.386  48%   1.000 Cr+PCr                                              
 1.14E+03  61%   6.563 Glu+Gln                                             
 2.79E+03  21%  15.995 Lip13a                                              
   62.599 432%   0.359 Lip13b                                              
    0.000 999%   0.000 Lip09                                               
 2.37E+03  10%  13.594 MM09                                                
  684.472  45%   3.925 Lip20                                               
 5.37E+03  10%  30.806 MM20                                                
  860.765  26%   4.936 MM12                                                
    0.000 999%   0.000 MM14                                                
 2.78E+03  12%  15.960 MM17                                                
 2.85E+03  18%  16.354 Lip13a+Lip13b                                       
 3.71E+03  12%  21.290 MM14+Lip13a+Lip13b+MM12                             
 2.37E+03  10%  13.594 MM09+Lip09                                          
 6.06E+03   9%  34.731 MM20+Lip20                                          
   6 lines in following misc. output table
  FWHM = 0.122 ppm    S/N =   6                                            
  Data shift =-0.031 ppm                                                   
  Ph: -72 deg     -23.2 deg/ppm                                            
  alphaB,S = 8.5E+01,   1.0E+02                                            
   14 spline knots.   Ns = 7(2)                                            
   2 inflections.     1 extrema                                            
  498 points on ppm-axis = NY
      4.000000     3.992357     3.984714     3.977070     3.969427     3.961784     3.954141     3.946497     3.938854     3.931211
      3.923568     3.915925     3.908281     3.900638     3.892995     3.885352     3.877708     3.870065     3.862422     3.854779
      3.847136     3.839492     3.831849     3.824206     3.816563     3.808919     3.801276     3.793633     3.785990     3.778347
      3.770703     3.763060     3.755417     3.747774     3.740130     3.732487     3.724844     3.717201     3.709558     3.701914
      3.694271     3.686628     3.678985     3.671341     3.663698     3.656055     3.648412     3.640769     3.633125     3.625482
      3.617839     3.610196     3.602552     3.594909     3.587266     3.579623     3.571980     3.564336     3.556693     3.549050
      3.541407     3.533763     3.526120     3.518477     3.510834     3.503191     3.495547     3.487904     3.480261     3.472618
      3.464974     3.457331     3.449688     3.442045     3.434402     3.426758     3.419115     3.411472     3.403829     3.396185
      3.388542     3.380899     3.373256     3.365613     3.357969     3.350326     3.342683     3.335040     3.327396     3.319753
      3.312110     3.304467     3.296824     3.289180     3.281537     3.273894     3.266251     3.258607     3.250964     3.243321
      3.235678     3.228034     3.220391     3.212748     3.205105     3.197462     3.189818     3.182175     3.174532     3.166889
      3.159245     3.151602     3.143959     3.136316     3.128673     3.121029     3.113386     3.105743     3.098100     3.090456
      3.082813     3.075170     3.067527     3.059884     3.052240     3.044597     3.036954     3.029311     3.021667     3.014024
      3.006381     2.998738     2.991095     2.983451     2.975808     2.968165     2.960522     2.952878     2.945235     2.937592
      2.929949     2.922306     2.914662     2.907019     2.899376     2.891733     2.884089     2.876446     2.868803     2.861160
      2.853517     2.845873     2.838230     2.830587     2.822944     2.815300     2.807657     2.800014     2.792371     2.784728
      2.777084     2.769441     2.761798     2.754155     2.746511     2.738868     2.731225     2.723582     2.715939     2.708295
      2.700652     2.693009     2.685366     2.677722     2.670079     2.662436     2.654793     2.647150     2.639506     2.631863
      2.624220     2.616577     2.608933     2.601290     2.593647     2.586004     2.578361     2.570717     2.563074     2.555431
      2.547788     2.540144     2.532501     2.524858     2.517215     2.509572     2.501928     2.494285     2.486642     2.478999
      2.471355     2.463712     2.456069     2.448426     2.440783     2.433139     2.425496     2.417853     2.410210     2.402566
      2.394923     2.387280     2.379637     2.371994     2.364350     2.356707     2.349064     2.341421     2.333777     2.326134
      2.318491     2.310848     2.303205     2.295561     2.287918     2.280275     2.272632     2.264988     2.257345     2.249702
      2.242059     2.234416     2.226772     2.219129     2.211486     2.203843     2.196199     2.188556     2.180913     2.173270
      2.165627     2.157983     2.150340     2.142697     2.135054     2.127410     2.119767     2.112124     2.104481     2.096838
      2.089194     2.081551     2.073908     2.066265     2.058621     2.050978     2.043335     2.035692     2.028049     2.020405
      2.012762     2.005119     1.997476     1.989833     1.982190     1.974546     1.966903     1.959260     1.951617     1.943974
      1.936331     1.928688     1.921045     1.913402     1.905759     1.898115     1.890472     1.882829     1.875186     1.867543
      1.859900     1.852257     1.844614     1.836971     1.829327     1.821684     1.814041     1.806398     1.798755     1.791112
      1.783469     1.775826     1.768183     1.760540     1.752896     1.745253     1.737610     1.729967     1.722324     1.714681
      1.707038     1.699395     1.691752     1.684108     1.676465     1.668822     1.661179     1.653536     1.645893     1.638250
      1.630607     1.622964     1.615321     1.607677     1.600034     1.592391     1.584748     1.577105     1.569462     1.561819
      1.554176     1.546533     1.538890     1.531246     1.523603     1.515960     1.508317     1.500674     1.493031     1.485388
      1.477745     1.470102     1.462458     1.454815     1.447172     1.439529     1.431886     1.424243     1.416600     1.408957
      1.401314     1.393671     1.386027     1.378384     1.370741     1.363098     1.355455     1.347812     1.340169     1.332526
      1.324883     1.317240     1.309596     1.301953     1.294310     1.286667     1.279024     1.271381     1.263738     1.256095
      1.248452     1.240808     1.233165     1.225522     1.217879     1.210236     1.202593     1.194950     1.187307     1.179664
      1.172021     1.164377     1.156734     1.149091     1.141448     1.133805     1.126162     1.118519     1.110876     1.103233
      1.095590     1.087946     1.080303     1.072660     1.065017     1.057374     1.049731     1.042088     1.034445     1.026802
      1.019158     1.011515     1.003872     0.996229     0.988586     0.980943     0.973300     0.965657     0.958014     0.950371
      0.942727     0.935084     0.927441     0.919798     0.912155     0.904512     0.896869     0.889226     0.881583     0.873940
      0.866296     0.858653     0.851010     0.843367     0.835724     0.828081     0.820438     0.812795     0.805152     0.797508
      0.789865     0.782222     0.774579     0.766936     0.759293     0.751650     0.744007     0.736364     0.728721     0.721077
      0.713434     0.705791     0.698148     0.690505     0.682862     0.675219     0.667576     0.659933     0.652290     0.644646
      0.637003     0.629360     0.621717     0.614074     0.606431     0.598788     0.591145     0.583502     0.575858     0.568215
      0.560572     0.552929     0.545286     0.537643     0.530000     0.522357     0.514714     0.507071     0.499427     0.491784
      0.484141     0.476498     0.468855     0.461212     0.453569     0.445925     0.438282     0.430639     0.422996     0.415353
      0.407710     0.400067     0.392424     0.384780     0.377137     0.369494     0.361851     0.354208     0.346565     0.338922
      0.331278     0.323635     0.315992     0.308349     0.300706     0.293063     0.285420     0.277777     0.270133     0.262490
      0.254847     0.247204     0.239561     0.231918     0.224275     0.216631     0.208988     0.201345
 NY phased data points follow
   4.23303E+00  7.61695E+00  1.33756E+00  6.40147E+00  2.07547E+00  5.50572E+00  6.33597E+00  5.15938E+00  3.41093E+00  6.33936E+00
   1.92154E+00  3.24718E-01  1.61177E+00  7.37649E-01  2.63273E-01  6.93557E+00  7.41443E+00  1.15322E+01  4.76372E+00  8.31657E+00
   1.56948E-01  2.54802E+00  6.45149E+00  9.54276E+00  5.61130E+00 -1.42988E+00  8.81770E+00  5.81506E+00  1.07266E+01  5.51795E+00
   3.93462E+00  4.05830E+00 -4.02522E-01  1.66558E+00  3.58513E+00  2.40119E+00  3.13653E+00  2.56963E+00  1.09688E+00  8.12912E+00
   1.27545E+01  3.41977E+00  9.44559E+00  1.18063E+01  6.83343E+00 -3.76618E+00  6.38050E+00  8.29029E+00  5.05259E+00  4.95748E+00
   6.52957E+00  7.34234E+00  1.07659E+01  5.53076E+00  8.23494E+00  8.02367E+00  7.71622E+00  1.30975E+01  8.91160E+00  4.47471E+00
   4.19789E+00  5.01880E+00  8.00709E+00  7.25647E+00  4.06957E+00  4.30681E+00  6.07629E+00  5.12862E+00  2.55647E+00  1.23123E+01
   6.89381E+00  8.12305E+00  2.85904E+00  1.11262E+01  3.34841E+00  1.07496E+01  1.04350E+01  6.17547E+00  5.84975E+00  7.66970E+00
   5.42885E+00  6.46730E+00  1.91667E+00  1.16236E+01  1.00350E+01  9.83897E+00  1.02966E+01  2.47316E+00  5.46169E+00  7.85112E+00
   1.11963E+01  9.61402E+00  5.88562E+00  2.75255E+00  1.27375E+01  2.62128E+00  9.37412E+00  8.23814E+00  1.55041E+01  5.38407E+00
   1.16210E+01  1.04074E+01  7.96138E+00  9.31246E+00  1.25188E+01  6.64930E+00  3.52392E+00  1.08473E+01  1.16227E+01  1.20236E+01
   1.92011E+01  1.51898E+01  1.14184E+01  1.08409E+01  3.91555E+00  7.90651E+00  4.66156E+00  1.17717E+01  7.06565E+00  7.12286E+00
   6.00242E+00  1.22283E+01  6.82953E+00  1.37690E+01  1.00785E+01  1.19939E+01  1.27142E+01  1.13145E+01  9.48481E+00  1.72898E+01
   1.09596E+01  1.26155E+01  8.88898E+00  1.48379E+01  1.43495E+01  1.61835E+01  9.55212E+00  7.86422E+00  6.50045E+00  3.91881E+00
   4.56210E+00  6.97362E+00  8.89145E+00  7.73019E+00  1.21695E+01  6.22524E+00  1.24745E+01  1.05374E+01  5.77487E+00  7.73823E+00
   4.72706E-01  1.57334E+00  9.10683E+00  1.56309E+01  1.24017E+01  5.37923E+00  7.90404E+00  4.68935E+00  1.48348E+00  8.08603E+00
   7.28310E+00  8.70107E+00  2.33665E+00  5.57409E+00 -4.39294E-01  4.92061E+00  5.43965E+00  2.40145E+00  1.00461E+00  4.62351E+00
  -7.85666E-01 -1.35852E+00  3.58632E+00 -3.97863E+00 -3.95859E-01  1.94126E+00 -1.50916E+00  1.17323E+00  5.57351E-01  2.54200E+00
   4.87200E+00  1.43431E+00  1.05342E+00 -3.36361E+00  4.24194E-02 -1.57967E-02  5.15446E+00  3.85450E+00  9.62644E+00  2.71102E+00
   4.37993E+00  2.11161E+00 -1.51813E+00  2.04583E+00  1.60744E+00 -2.66509E-03  5.60328E+00  1.86353E-01  3.55999E+00  4.56824E+00
   7.78952E+00  2.35740E+00  1.68213E+00  6.59378E+00  2.64217E+00  7.87386E+00  2.84604E+00  6.07606E+00  1.14424E+01  1.42116E+01
   1.03976E+01  7.41469E+00  1.33324E+01  1.32731E+01  1.93896E+01  1.43939E+01  1.26077E+01  1.36358E+01  1.60922E+01  1.33910E+01
   1.08263E+01  1.39689E+01  1.55133E+01  1.10414E+01  1.35552E+01  1.28576E+01  1.98862E+01  9.02398E+00  8.48296E+00  1.36731E+01
   1.25379E+01  1.79656E+01  1.40475E+01  1.65517E+01  2.36349E+01  1.73246E+01  1.86254E+01  1.98427E+01  1.62388E+01  2.06728E+01
   1.46914E+01  1.92148E+01  2.38247E+01  1.63793E+01  2.33009E+01  2.75511E+01  2.72388E+01  2.88355E+01  2.90329E+01  3.30616E+01
   4.30661E+01  3.88183E+01  4.43713E+01  4.04410E+01  5.25255E+01  4.95656E+01  5.64369E+01  6.11043E+01  5.48099E+01  5.82410E+01
   5.37311E+01  5.59847E+01  5.62511E+01  5.56273E+01  5.10103E+01  4.17620E+01  3.18776E+01  3.51183E+01  2.74964E+01  2.17752E+01
   2.12257E+01  1.36082E+01  1.76679E+01  1.64505E+01  2.02285E+01  1.55476E+01  1.44185E+01  1.43406E+01  1.40245E+01  1.44091E+01
   1.56039E+01  1.41853E+01  1.42266E+01  1.35103E+01  1.64641E+01  1.62755E+01  1.06097E+01  9.91425E+00  1.71436E+01  1.12746E+01
   1.43688E+01  9.85261E+00  1.43502E+01  1.91614E+01  1.55075E+01  1.15063E+01  1.20128E+01  8.91520E+00  1.92233E+01  1.41318E+01
   1.60325E+01  1.83636E+01  1.52085E+01  1.95508E+01  2.81733E+01  2.37156E+01  1.98603E+01  2.09834E+01  2.55232E+01  1.93243E+01
   2.57695E+01  2.59659E+01  3.04964E+01  2.70423E+01  2.48388E+01  2.40941E+01  2.55505E+01  2.76551E+01  2.19825E+01  2.16605E+01
   2.14393E+01  1.61745E+01  1.40220E+01  1.41582E+01  1.22705E+01  6.34002E+00  1.40735E+01  1.60478E+01  1.44650E+01  5.28839E+00
   7.36605E+00  2.12612E+00  6.91044E+00  1.17355E+01  3.16277E+00  6.92252E+00  3.07523E+00  1.46907E+01  1.34805E+01  1.65724E+01
   1.86459E+01  1.66944E+01  1.70509E+01  1.25539E+01  1.93785E+01  1.68148E+01  1.53590E+01  1.59815E+01  2.63653E+01  2.07826E+01
   2.45057E+01  1.96516E+01  2.20952E+01  2.07484E+01  1.78873E+01  2.16687E+01  2.38113E+01  2.67392E+01  2.58609E+01  2.37866E+01
   2.04424E+01  2.09281E+01  1.89368E+01  1.88665E+01  1.97212E+01  1.82391E+01  2.29163E+01  2.29913E+01  1.67970E+01  2.17279E+01
   1.60689E+01  2.33462E+01  1.50165E+01  1.58102E+01  1.16777E+01  1.34853E+01  9.84458E+00  1.65957E+01  1.28783E+01  1.17121E+01
   1.08335E+01  9.87225E+00  1.37915E+01  1.68032E+01  7.37139E+00  9.68906E+00  1.46390E+01  1.22328E+01  1.38165E+01  1.01633E+01
   7.29090E+00  1.13083E+01  9.34572E+00  1.47770E+01  1.15058E+01  8.88137E+00  1.57568E+01  1.46342E+01  1.07820E+01  1.94200E+01
   1.90061E+01  1.61104E+01  2.55975E+01  2.21641E+01  2.38350E+01  1.34226E+01  1.72706E+01  2.06983E+01  1.89775E+01  1.69562E+01
   1.87190E+01  1.11799E+01  1.62683E+01  1.05423E+01  1.86037E+01  1.58941E+01  9.70568E+00  1.68354E+01  1.21693E+01  9.11925E+00
   1.07582E+01  7.52025E+00  1.50125E+01  4.03537E+00  8.39803E+00  7.06312E+00  7.22522E+00  1.18845E+01  2.41938E+00  3.96228E-02
   4.48817E+00  3.05056E+00  2.20207E+00  9.93370E+00  9.69525E+00  4.63572E+00  1.03095E+01  3.79229E+00  2.55734E+00  1.14179E+00
   9.96594E-01 -2.47558E-02  8.44509E+00  9.39694E+00  3.17096E+00  9.23154E-01  8.85007E+00  3.54160E+00  2.87601E-02  1.05647E+01
   1.05891E+01  4.83332E+00  4.60687E-01  5.86198E+00  1.35338E+00  1.79352E+00  9.99635E+00  7.37244E+00  1.51147E+00  5.43478E+00
   9.59314E+00  7.92980E+00 -1.11462E+00  3.83676E+00  2.43221E+00 -1.17859E+00 -2.06387E+00  1.57293E+00 -2.91618E+00 -2.76695E-01
   3.86770E+00  1.52957E+00  6.22048E+00  3.88801E+00 -4.60881E+00  7.98302E-01  1.45915E+00 -7.98557E-01 -9.19504E-01  5.48288E-01
   5.92560E+00  1.99960E+00  2.79446E+00 -1.25342E+00  2.10736E+00 -3.77272E+00  2.43643E+00 -6.79932E-01 -1.57237E+00 -2.36529E+00
   2.28739E+00  1.21653E+00  6.65796E+00 -1.60418E+00 -5.80527E-01 -1.33100E+00  5.18814E+00 -2.47375E+00
 NY points of the fit to the data follow
   6.04138E+00  5.97647E+00  5.83728E+00  5.79627E+00  5.59640E+00  5.64089E+00  5.39115E+00  5.54374E+00  5.25962E+00  5.49996E+00
   5.32601E+00  5.84350E+00  5.60427E+00  6.21861E+00  5.83157E+00  6.37049E+00  5.75090E+00  6.05566E+00  5.34339E+00  5.58897E+00
   5.00423E+00  5.24442E+00  4.94000E+00  5.16943E+00  5.19169E+00  5.34601E+00  5.43267E+00  5.25940E+00  5.37272E+00  4.90726E+00
   5.15682E+00  4.55054E+00  5.11199E+00  4.70095E+00  5.64419E+00  5.42648E+00  6.39067E+00  6.16076E+00  6.83152E+00  6.43600E+00
   6.75177E+00  6.27226E+00  6.48189E+00  6.14271E+00  6.32362E+00  6.11750E+00  6.34157E+00  6.26849E+00  6.47017E+00  6.43462E+00
   6.52900E+00  6.47514E+00  6.43757E+00  6.29188E+00  6.18179E+00  6.02499E+00  5.94208E+00  5.89292E+00  5.87274E+00  5.91916E+00
   5.97336E+00  6.07041E+00  6.14512E+00  6.19916E+00  6.23581E+00  6.27518E+00  6.30975E+00  6.32284E+00  6.33778E+00  6.35071E+00
   6.36291E+00  6.40193E+00  6.50662E+00  6.51110E+00  6.66343E+00  6.58475E+00  6.75310E+00  6.59197E+00  6.74549E+00  6.51010E+00
   6.63391E+00  6.35175E+00  6.46151E+00  6.15651E+00  6.27074E+00  5.99550E+00  6.11710E+00  5.88512E+00  5.97512E+00  5.92222E+00
   6.18670E+00  6.22292E+00  6.73995E+00  6.83327E+00  7.70481E+00  7.66087E+00  8.78554E+00  8.54844E+00  9.89048E+00  9.39704E+00
   1.08109E+01  1.00117E+01  1.13566E+01  1.03750E+01  1.17196E+01  1.05154E+01  1.16558E+01  1.01972E+01  1.09079E+01  9.43535E+00
   9.72225E+00  8.51805E+00  8.58535E+00  7.97644E+00  8.02681E+00  8.01764E+00  8.17043E+00  8.55518E+00  8.63296E+00  9.19198E+00
   9.11913E+00  9.89882E+00  9.78721E+00  1.05987E+01  1.03512E+01  1.10983E+01  1.07593E+01  1.14411E+01  1.09852E+01  1.15088E+01
   1.09174E+01  1.11561E+01  1.05186E+01  1.04887E+01  9.91622E+00  9.71822E+00  9.29644E+00  9.06908E+00  8.80039E+00  8.63637E+00
   8.43747E+00  8.28716E+00  8.10610E+00  7.93209E+00  7.80586E+00  7.68209E+00  7.54913E+00  7.37260E+00  7.23483E+00  7.00896E+00
   6.89570E+00  6.65791E+00  6.55350E+00  6.32981E+00  6.22262E+00  6.01793E+00  5.87934E+00  5.68672E+00  5.52406E+00  5.35707E+00
   5.13928E+00  4.95740E+00  4.64700E+00  4.47842E+00  4.16597E+00  4.07015E+00  3.73758E+00  3.65031E+00  3.33409E+00  3.19589E+00
   2.93655E+00  2.70843E+00  2.54867E+00  2.22744E+00  2.26453E+00  1.93197E+00  2.15413E+00  1.87603E+00  2.27446E+00  2.04665E+00
   2.57163E+00  2.37478E+00  2.95761E+00  2.84287E+00  3.34929E+00  3.34643E+00  3.69145E+00  3.83715E+00  4.07378E+00  4.43407E+00
   4.66228E+00  5.25143E+00  5.42788E+00  6.09552E+00  6.10388E+00  6.69352E+00  6.40952E+00  6.93001E+00  6.42521E+00  6.79269E+00
   6.20558E+00  6.54504E+00  6.06300E+00  6.35776E+00  5.96742E+00  6.18822E+00  5.88190E+00  6.03811E+00  5.81857E+00  5.92010E+00
   5.80270E+00  6.02802E+00  6.19618E+00  6.68714E+00  7.29081E+00  7.97800E+00  8.82501E+00  9.52997E+00  1.03445E+01  1.09293E+01
   1.15356E+01  1.19391E+01  1.22360E+01  1.26005E+01  1.27647E+01  1.31538E+01  1.33011E+01  1.38027E+01  1.38948E+01  1.45189E+01
   1.46388E+01  1.52945E+01  1.54391E+01  1.60968E+01  1.63390E+01  1.69802E+01  1.73236E+01  1.79975E+01  1.85131E+01  1.92412E+01
   2.00107E+01  2.07781E+01  2.17056E+01  2.23784E+01  2.34119E+01  2.42858E+01  2.68983E+01  2.83654E+01  3.20972E+01  3.41243E+01
   3.87915E+01  4.10696E+01  4.54239E+01  4.74280E+01  5.10705E+01  5.24770E+01  5.49739E+01  5.55218E+01  5.63836E+01  5.61765E+01
   5.60205E+01  5.50812E+01  5.33271E+01  5.13714E+01  4.71300E+01  4.42122E+01  3.84668E+01  3.52060E+01  2.95194E+01  2.66787E+01
   2.25248E+01  2.05665E+01  1.83570E+01  1.70984E+01  1.56053E+01  1.45955E+01  1.31708E+01  1.24572E+01  1.19747E+01  1.15714E+01
   1.12272E+01  1.09354E+01  1.06992E+01  1.05201E+01  1.03991E+01  1.03458E+01  1.03564E+01  1.04415E+01  1.05954E+01  1.08313E+01
   1.11379E+01  1.15309E+01  1.19953E+01  1.25454E+01  1.31644E+01  1.38623E+01  1.46164E+01  1.54336E+01  1.62861E+01  1.71725E+01
   1.80635E+01  1.89500E+01  1.98034E+01  2.06106E+01  2.13466E+01  2.19988E+01  2.25499E+01  2.29956E+01  2.33311E+01  2.35678E+01
   2.37266E+01  2.38623E+01  2.41026E+01  2.45548E+01  2.43974E+01  2.47532E+01  2.39850E+01  2.40577E+01  2.23548E+01  2.16921E+01
   1.91231E+01  1.84525E+01  1.57391E+01  1.51244E+01  1.26161E+01  1.21736E+01  1.04866E+01  1.01535E+01  8.98553E+00  8.43621E+00
   7.85461E+00  6.94364E+00  7.47799E+00  6.57495E+00  8.30866E+00  8.10666E+00  1.11261E+01  1.16376E+01  1.52100E+01  1.55703E+01
   1.83284E+01  1.78959E+01  1.94872E+01  1.85559E+01  1.94240E+01  1.88969E+01  1.92769E+01  1.92568E+01  1.97801E+01  2.00787E+01
   2.06704E+01  2.09133E+01  2.12816E+01  2.17179E+01  2.21286E+01  2.24718E+01  2.27163E+01  2.28487E+01  2.28575E+01  2.27457E+01
   2.25154E+01  2.21796E+01  2.17472E+01  2.12347E+01  2.06522E+01  2.00160E+01  1.93350E+01  1.86247E+01  1.78932E+01  1.71553E+01
   1.64186E+01  1.56973E+01  1.49979E+01  1.43334E+01  1.37085E+01  1.31339E+01  1.26122E+01  1.21519E+01  1.17532E+01  1.14227E+01
   1.11589E+01  1.09667E+01  1.08434E+01  1.07929E+01  1.08117E+01  1.09028E+01  1.10618E+01  1.12906E+01  1.15839E+01  1.19421E+01
   1.23580E+01  1.28299E+01  1.33482E+01  1.39084E+01  1.44979E+01  1.51091E+01  1.57263E+01  1.63393E+01  1.69301E+01  1.74869E+01
   1.79911E+01  1.84313E+01  1.87903E+01  1.90594E+01  1.92252E+01  1.92839E+01  1.92278E+01  1.90594E+01  1.87773E+01  1.83904E+01
   1.79037E+01  1.73314E+01  1.66827E+01  1.59752E+01  1.52204E+01  1.44367E+01  1.36353E+01  1.28332E+01  1.20393E+01  1.12675E+01
   1.05234E+01  9.81714E+00  9.15055E+00  8.53030E+00  7.95477E+00  7.42770E+00  6.94502E+00  6.50843E+00  6.11230E+00  5.75723E+00
   5.43687E+00  5.15139E+00  4.89433E+00  4.66599E+00  4.46015E+00  4.27746E+00  4.11214E+00  3.96530E+00  3.83161E+00  3.71265E+00
   3.60353E+00  3.50623E+00  3.41621E+00  3.33577E+00  3.26066E+00  3.19344E+00  3.13009E+00  3.07333E+00  3.01932E+00  2.97092E+00
   2.92442E+00  2.88279E+00  2.84239E+00  2.80627E+00  2.77088E+00  2.73931E+00  2.70807E+00  2.68029E+00  2.65253E+00  2.62793E+00
   2.60309E+00  2.58119E+00  2.55884E+00  2.53924E+00  2.51903E+00  2.50140E+00  2.48302E+00  2.46711E+00  2.45033E+00  2.43592E+00
   2.42054E+00  2.40743E+00  2.39328E+00  2.38133E+00  2.36828E+00  2.35737E+00  2.34530E+00  2.33531E+00  2.32412E+00  2.31499E+00
   2.30462E+00  2.29627E+00  2.28664E+00  2.27901E+00  2.27009E+00  2.26315E+00  2.25491E+00  2.24863E+00  2.24104E+00  2.23542E+00
   2.22850E+00  2.22356E+00  2.21733E+00  2.21310E+00  2.20761E+00  2.20417E+00  2.19954E+00  2.19703E+00
 NY background values follow
     4.635E+00    4.632E+00    4.628E+00    4.625E+00    4.622E+00    4.618E+00    4.615E+00    4.611E+00    4.608E+00    4.604E+00
     4.601E+00    4.597E+00    4.593E+00    4.590E+00    4.586E+00    4.583E+00    4.579E+00    4.576E+00    4.572E+00    4.569E+00
     4.565E+00    4.562E+00    4.558E+00    4.555E+00    4.551E+00    4.548E+00    4.544E+00    4.541E+00    4.537E+00    4.533E+00
     4.530E+00    4.526E+00    4.523E+00    4.519E+00    4.516E+00    4.512E+00    4.509E+00    4.505E+00    4.501E+00    4.498E+00
     4.494E+00    4.491E+00    4.487E+00    4.484E+00    4.480E+00    4.476E+00    4.473E+00    4.469E+00    4.466E+00    4.462E+00
     4.458E+00    4.455E+00    4.451E+00    4.448E+00    4.444E+00    4.440E+00    4.437E+00    4.433E+00    4.430E+00    4.426E+00
     4.422E+00    4.419E+00    4.415E+00    4.411E+00    4.408E+00    4.404E+00    4.401E+00    4.397E+00    4.393E+00    4.390E+00
     4.386E+00    4.382E+00    4.379E+00    4.375E+00    4.371E+00    4.368E+00    4.364E+00    4.360E+00    4.357E+00    4.353E+00
     4.350E+00    4.346E+00    4.342E+00    4.339E+00    4.335E+00    4.331E+00    4.327E+00    4.324E+00    4.320E+00    4.316E+00
     4.313E+00    4.309E+00    4.305E+00    4.302E+00    4.298E+00    4.294E+00    4.291E+00    4.287E+00    4.283E+00    4.280E+00
     4.276E+00    4.272E+00    4.268E+00    4.265E+00    4.261E+00    4.257E+00    4.254E+00    4.250E+00    4.246E+00    4.242E+00
     4.239E+00    4.235E+00    4.231E+00    4.227E+00    4.224E+00    4.220E+00    4.216E+00    4.213E+00    4.209E+00    4.205E+00
     4.201E+00    4.198E+00    4.194E+00    4.190E+00    4.186E+00    4.183E+00    4.179E+00    4.175E+00    4.171E+00    4.168E+00
     4.164E+00    4.160E+00    4.156E+00    4.152E+00    4.149E+00    4.145E+00    4.141E+00    4.137E+00    4.134E+00    4.130E+00
     4.126E+00    4.122E+00    4.118E+00    4.115E+00    4.111E+00    4.107E+00    4.103E+00    4.100E+00    4.096E+00    4.092E+00
     4.088E+00    4.084E+00    4.081E+00    4.077E+00    4.073E+00    4.069E+00    4.065E+00    4.062E+00    4.058E+00    4.054E+00
     4.050E+00    4.046E+00    4.042E+00    4.039E+00    4.035E+00    4.031E+00    4.027E+00    4.023E+00    4.019E+00    4.016E+00
     4.012E+00    4.008E+00    4.004E+00    4.000E+00    3.996E+00    3.993E+00    3.989E+00    3.985E+00    3.981E+00    3.977E+00
     3.973E+00    3.969E+00    3.966E+00    3.962E+00    3.958E+00    3.954E+00    3.950E+00    3.946E+00    3.942E+00    3.939E+00
     3.935E+00    3.931E+00    3.927E+00    3.923E+00    3.919E+00    3.915E+00    3.911E+00    3.908E+00    3.904E+00    3.900E+00
     3.896E+00    3.892E+00    3.888E+00    3.884E+00    3.880E+00    3.876E+00    3.873E+00    3.869E+00    3.865E+00    3.861E+00
     3.857E+00    3.853E+00    3.849E+00    3.845E+00    3.841E+00    3.837E+00    3.834E+00    3.830E+00    3.826E+00    3.822E+00
     3.818E+00    3.814E+00    3.810E+00    3.806E+00    3.802E+00    3.798E+00    3.794E+00    3.790E+00    3.787E+00    3.783E+00
     3.779E+00    3.775E+00    3.771E+00    3.767E+00    3.763E+00    3.759E+00    3.755E+00    3.751E+00    3.747E+00    3.743E+00
     3.739E+00    3.735E+00    3.731E+00    3.727E+00    3.723E+00    3.719E+00    3.716E+00    3.712E+00    3.708E+00    3.704E+00
     3.700E+00    3.696E+00    3.692E+00    3.688E+00    3.684E+00    3.680E+00    3.676E+00    3.672E+00    3.668E+00    3.664E+00
     3.660E+00    3.656E+00    3.652E+00    3.648E+00    3.644E+00    3.640E+00    3.636E+00    3.632E+00    3.628E+00    3.624E+00
     3.620E+00    3.616E+00    3.612E+00    3.608E+00    3.604E+00    3.600E+00    3.596E+00    3.592E+00    3.588E+00    3.584E+00
     3.580E+00    3.576E+00    3.572E+00    3.568E+00    3.564E+00    3.560E+00    3.556E+00    3.552E+00    3.548E+00    3.544E+00
     3.540E+00    3.536E+00    3.532E+00    3.528E+00    3.524E+00    3.520E+00    3.516E+00    3.512E+00    3.508E+00    3.504E+00
     3.500E+00    3.496E+00    3.492E+00    3.488E+00    3.484E+00    3.480E+00    3.476E+00    3.472E+00    3.468E+00    3.464E+00
     3.460E+00    3.456E+00    3.452E+00    3.448E+00    3.444E+00    3.439E+00    3.435E+00    3.431E+00    3.427E+00    3.423E+00
     3.419E+00    3.415E+00    3.411E+00    3.407E+00    3.403E+00    3.399E+00    3.395E+00    3.391E+00    3.387E+00    3.383E+00
     3.379E+00    3.375E+00    3.371E+00    3.367E+00    3.362E+00    3.358E+00    3.354E+00    3.350E+00    3.346E+00    3.342E+00
     3.338E+00    3.334E+00    3.330E+00    3.326E+00    3.322E+00    3.318E+00    3.314E+00    3.310E+00    3.305E+00    3.301E+00
     3.297E+00    3.293E+00    3.289E+00    3.285E+00    3.281E+00    3.277E+00    3.273E+00    3.269E+00    3.265E+00    3.261E+00
     3.256E+00    3.252E+00    3.248E+00    3.244E+00    3.240E+00    3.236E+00    3.232E+00    3.228E+00    3.224E+00    3.220E+00
     3.216E+00    3.211E+00    3.207E+00    3.203E+00    3.199E+00    3.195E+00    3.191E+00    3.187E+00    3.183E+00    3.179E+00
     3.175E+00    3.170E+00    3.166E+00    3.162E+00    3.158E+00    3.154E+00    3.150E+00    3.146E+00    3.142E+00    3.138E+00
     3.133E+00    3.129E+00    3.125E+00    3.121E+00    3.117E+00    3.113E+00    3.109E+00    3.105E+00    3.101E+00    3.096E+00
     3.092E+00    3.088E+00    3.084E+00    3.080E+00    3.076E+00    3.072E+00    3.068E+00    3.063E+00    3.059E+00    3.055E+00
     3.051E+00    3.047E+00    3.043E+00    3.039E+00    3.035E+00    3.030E+00    3.026E+00    3.022E+00    3.018E+00    3.014E+00
     3.010E+00    3.006E+00    3.002E+00    2.997E+00    2.993E+00    2.989E+00    2.985E+00    2.981E+00    2.977E+00    2.973E+00
     2.968E+00    2.964E+00    2.960E+00    2.956E+00    2.952E+00    2.948E+00    2.944E+00    2.939E+00    2.935E+00    2.931E+00
     2.927E+00    2.923E+00    2.919E+00    2.915E+00    2.910E+00    2.906E+00    2.902E+00    2.898E+00    2.894E+00    2.890E+00
     2.886E+00    2.881E+00    2.877E+00    2.873E+00    2.869E+00    2.865E+00    2.861E+00    2.857E+00    2.852E+00    2.848E+00
     2.844E+00    2.840E+00    2.836E+00    2.832E+00    2.827E+00    2.823E+00    2.819E+00    2.815E+00    2.811E+00    2.807E+00
     2.803E+00    2.798E+00    2.794E+00    2.790E+00    2.786E+00    2.782E+00    2.778E+00    2.773E+00    2.769E+00    2.765E+00
     2.761E+00    2.757E+00    2.753E+00    2.748E+00    2.744E+00    2.740E+00    2.736E+00    2.732E+00    2.728E+00    2.723E+00
     2.719E+00    2.715E+00    2.711E+00    2.707E+00    2.703E+00    2.699E+00    2.694E+00    2.690E+00
 Ala      Conc. = 2.06E+03
