 LCModel (Version 6.3-1L) Copyright: S.W. Provencher.          Ref.: Magn. Reson. Med. 30:672-679 (1993).                
 Slice#3 Row#11 Col#1  PD_24_press_2_raw_act
 36 lines in following concentration table = NCONC+1
    Conc.  %SD /Cr+PCr  Metabolite                                         
  135.145 999%   0.123 Ala                                                 
 8.41E+03  11%   7.641+Asp                                                 
 1.10E+03  20%   1.000 Cr                                                  
    0.000 999%   0.000 PCr                                                 
    0.000 999%   0.000 GABA                                                
  262.251 275%   0.238 Glc                                                 
    0.000 999%   0.000 Gln                                                 
 2.31E+04  12%  21.007 Glu                                                 
    0.000 999%   0.000 GPC                                                 
   70.830 346% 6.4E-02 PCh                                                 
    0.000 999%   0.000 GSH                                                 
 3.34E+03  27%   3.037 Ins                                                 
    0.000 999%   0.000 Lac                                                 
  775.807  73%   0.705 NAA                                                 
 5.12E+03  10%   4.652 NAAG                                                
  181.205  61%   0.165 Scyllo                                              
 4.38E+03  22%   3.982+Tau                                                 
    0.000 999%   0.000 -CrCH2                                              
   70.830 140% 6.4E-02 GPC+PCh                                             
 5.90E+03   8%   5.357 NAA+NAAG                                            
 1.10E+03  20%   1.000 Cr+PCr                                              
 2.31E+04  12%  21.007 Glu+Gln                                             
    0.000 999%   0.000 Lip13a                                              
  660.563 282%   0.600 Lip13b                                              
 3.56E+03  45%   3.231+Lip09                                               
 2.31E+04  13%  20.939 MM09                                                
    0.000 999%   0.000 Lip20                                               
 3.79E+04  11%  34.421+MM20                                                
 6.96E+03  14%   6.322 MM12                                                
 1.50E+04  20%  13.592 MM14                                                
 6.80E+03  28%   6.174 MM17                                                
  660.563 282%   0.600 Lip13a+Lip13b                                       
 2.26E+04  17%  20.514 MM14+Lip13a+Lip13b+MM12                             
 2.66E+04  12%  24.170 MM09+Lip09                                          
 3.79E+04  11%  34.421 MM20+Lip20                                          
   6 lines in following misc. output table
  FWHM = 0.122 ppm    S/N =   8                                            
  Data shift = 0.413 ppm                                                   
  Ph:  -9 deg     258.4 deg/ppm                                            
  alphaB,S = 5.3E-01,   1.0E+02                                            
    8 spline knots.   Ns = 9(2)                                            
  ( 8) 2 infls.   ( 4) 2 extrs.                                            
  498 points on ppm-axis = NY
      4.000000     3.992357     3.984714     3.977070     3.969427     3.961784     3.954141     3.946497     3.938854     3.931211
      3.923568     3.915925     3.908281     3.900638     3.892995     3.885352     3.877708     3.870065     3.862422     3.854779
      3.847136     3.839492     3.831849     3.824206     3.816563     3.808919     3.801276     3.793633     3.785990     3.778347
      3.770703     3.763060     3.755417     3.747774     3.740130     3.732487     3.724844     3.717201     3.709558     3.701914
      3.694271     3.686628     3.678985     3.671341     3.663698     3.656055     3.648412     3.640769     3.633125     3.625482
      3.617839     3.610196     3.602552     3.594909     3.587266     3.579623     3.571980     3.564336     3.556693     3.549050
      3.541407     3.533763     3.526120     3.518477     3.510834     3.503191     3.495547     3.487904     3.480261     3.472618
      3.464974     3.457331     3.449688     3.442045     3.434402     3.426758     3.419115     3.411472     3.403829     3.396185
      3.388542     3.380899     3.373256     3.365613     3.357969     3.350326     3.342683     3.335040     3.327396     3.319753
      3.312110     3.304467     3.296824     3.289180     3.281537     3.273894     3.266251     3.258607     3.250964     3.243321
      3.235678     3.228034     3.220391     3.212748     3.205105     3.197462     3.189818     3.182175     3.174532     3.166889
      3.159245     3.151602     3.143959     3.136316     3.128673     3.121029     3.113386     3.105743     3.098100     3.090456
      3.082813     3.075170     3.067527     3.059884     3.052240     3.044597     3.036954     3.029311     3.021667     3.014024
      3.006381     2.998738     2.991095     2.983451     2.975808     2.968165     2.960522     2.952878     2.945235     2.937592
      2.929949     2.922306     2.914662     2.907019     2.899376     2.891733     2.884089     2.876446     2.868803     2.861160
      2.853517     2.845873     2.838230     2.830587     2.822944     2.815300     2.807657     2.800014     2.792371     2.784728
      2.777084     2.769441     2.761798     2.754155     2.746511     2.738868     2.731225     2.723582     2.715939     2.708295
      2.700652     2.693009     2.685366     2.677722     2.670079     2.662436     2.654793     2.647150     2.639506     2.631863
      2.624220     2.616577     2.608933     2.601290     2.593647     2.586004     2.578361     2.570717     2.563074     2.555431
      2.547788     2.540144     2.532501     2.524858     2.517215     2.509572     2.501928     2.494285     2.486642     2.478999
      2.471355     2.463712     2.456069     2.448426     2.440783     2.433139     2.425496     2.417853     2.410210     2.402566
      2.394923     2.387280     2.379637     2.371994     2.364350     2.356707     2.349064     2.341421     2.333777     2.326134
      2.318491     2.310848     2.303205     2.295561     2.287918     2.280275     2.272632     2.264988     2.257345     2.249702
      2.242059     2.234416     2.226772     2.219129     2.211486     2.203843     2.196199     2.188556     2.180913     2.173270
      2.165627     2.157983     2.150340     2.142697     2.135054     2.127410     2.119767     2.112124     2.104481     2.096838
      2.089194     2.081551     2.073908     2.066265     2.058621     2.050978     2.043335     2.035692     2.028049     2.020405
      2.012762     2.005119     1.997476     1.989833     1.982190     1.974546     1.966903     1.959260     1.951617     1.943974
      1.936331     1.928688     1.921045     1.913402     1.905759     1.898115     1.890472     1.882829     1.875186     1.867543
      1.859900     1.852257     1.844614     1.836971     1.829327     1.821684     1.814041     1.806398     1.798755     1.791112
      1.783469     1.775826     1.768183     1.760540     1.752896     1.745253     1.737610     1.729967     1.722324     1.714681
      1.707038     1.699395     1.691752     1.684108     1.676465     1.668822     1.661179     1.653536     1.645893     1.638250
      1.630607     1.622964     1.615321     1.607677     1.600034     1.592391     1.584748     1.577105     1.569462     1.561819
      1.554176     1.546533     1.538890     1.531246     1.523603     1.515960     1.508317     1.500674     1.493031     1.485388
      1.477745     1.470102     1.462458     1.454815     1.447172     1.439529     1.431886     1.424243     1.416600     1.408957
      1.401314     1.393671     1.386027     1.378384     1.370741     1.363098     1.355455     1.347812     1.340169     1.332526
      1.324883     1.317240     1.309596     1.301953     1.294310     1.286667     1.279024     1.271381     1.263738     1.256095
      1.248452     1.240808     1.233165     1.225522     1.217879     1.210236     1.202593     1.194950     1.187307     1.179664
      1.172021     1.164377     1.156734     1.149091     1.141448     1.133805     1.126162     1.118519     1.110876     1.103233
      1.095590     1.087946     1.080303     1.072660     1.065017     1.057374     1.049731     1.042088     1.034445     1.026802
      1.019158     1.011515     1.003872     0.996229     0.988586     0.980943     0.973300     0.965657     0.958014     0.950371
      0.942727     0.935084     0.927441     0.919798     0.912155     0.904512     0.896869     0.889226     0.881583     0.873940
      0.866296     0.858653     0.851010     0.843367     0.835724     0.828081     0.820438     0.812795     0.805152     0.797508
      0.789865     0.782222     0.774579     0.766936     0.759293     0.751650     0.744007     0.736364     0.728721     0.721077
      0.713434     0.705791     0.698148     0.690505     0.682862     0.675219     0.667576     0.659933     0.652290     0.644646
      0.637003     0.629360     0.621717     0.614074     0.606431     0.598788     0.591145     0.583502     0.575858     0.568215
      0.560572     0.552929     0.545286     0.537643     0.530000     0.522357     0.514714     0.507071     0.499427     0.491784
      0.484141     0.476498     0.468855     0.461212     0.453569     0.445925     0.438282     0.430639     0.422996     0.415353
      0.407710     0.400067     0.392424     0.384780     0.377137     0.369494     0.361851     0.354208     0.346565     0.338922
      0.331278     0.323635     0.315992     0.308349     0.300706     0.293063     0.285420     0.277777     0.270133     0.262490
      0.254847     0.247204     0.239561     0.231918     0.224275     0.216631     0.208988     0.201345
 NY phased data points follow
   2.40534E+01  2.53829E+01  2.49191E+01  2.51694E+01  2.57280E+01  2.81325E+01  2.35017E+01  2.61143E+01  2.62489E+01  2.66772E+01
   2.86843E+01  2.67204E+01  2.61909E+01  2.89481E+01  2.81339E+01  2.63552E+01  2.90880E+01  2.63924E+01  2.70889E+01  2.72990E+01
   2.80043E+01  2.55835E+01  2.71441E+01  2.39293E+01  2.71119E+01  2.56672E+01  2.78517E+01  2.40416E+01  2.83121E+01  2.59567E+01
   2.52695E+01  2.12398E+01  2.23141E+01  2.02719E+01  2.19317E+01  2.00830E+01  2.15711E+01  1.82103E+01  1.88897E+01  1.94747E+01
   1.74222E+01  1.67539E+01  1.59325E+01  1.84612E+01  1.50665E+01  1.46134E+01  1.53035E+01  1.53128E+01  1.84969E+01  1.34184E+01
   1.67389E+01  1.47213E+01  1.05224E+01  1.03129E+01  1.10338E+01  1.31057E+01  1.10818E+01  1.24465E+01  1.01822E+01  1.11351E+01
   1.05585E+01  7.24712E+00  8.39152E+00  8.22462E+00  8.03920E+00  7.55397E+00  7.15901E+00  9.70597E+00  9.94711E+00  1.27771E+01
   1.34843E+01  1.03452E+01  1.11636E+01  6.63804E+00  1.01407E+01  1.00148E+01  6.68948E+00  7.77969E+00  4.77479E+00  1.00733E+01
   4.04557E+00  5.75030E+00  6.20290E+00  6.84199E+00  4.29935E+00  7.21481E+00  2.42268E+00  5.23777E+00  4.94185E+00  1.48535E+00
   1.52685E+00  3.42681E+00  2.11365E+00  2.24045E-01  2.18945E+00  3.40197E+00  1.23255E+00  9.13169E-01 -4.94149E-01  3.58656E-01
  -7.31616E-01  1.18862E+00 -2.41529E+00  1.80280E+00 -1.45111E+00 -5.57710E-01 -4.38654E+00 -2.26642E+00 -2.23638E+00 -2.95187E-01
  -7.17499E-02 -1.91319E+00 -4.34276E+00  2.44434E-01 -2.49237E+00 -1.08536E+00 -1.84429E+00  9.20828E-01 -2.31249E+00  1.02180E+00
  -3.01150E+00  2.76382E+00 -1.53230E+00  2.01566E+00 -2.69302E+00  1.32975E+00  1.40940E+00  3.36156E-01  1.89124E+00  1.12201E+00
   1.05590E+00  3.03195E+00 -1.16226E-03 -2.98059E+00 -2.66973E-02 -3.93869E+00 -3.28971E+00 -4.57947E+00 -8.96667E+00 -8.13972E+00
  -1.35198E+01 -7.72971E+00 -1.08373E+01 -1.56999E+01 -1.48267E+01 -1.75210E+01 -1.84661E+01 -2.08438E+01 -2.03115E+01 -2.54982E+01
  -2.32572E+01 -2.51325E+01 -2.80207E+01 -2.89595E+01 -3.40473E+01 -3.76430E+01 -4.09171E+01 -4.46013E+01 -4.60889E+01 -4.63097E+01
  -4.87816E+01 -5.52413E+01 -5.46926E+01 -5.58445E+01 -5.69952E+01 -5.77545E+01 -6.04048E+01 -6.20672E+01 -6.21806E+01 -6.23482E+01
  -6.07413E+01 -5.91079E+01 -5.80232E+01 -5.81004E+01 -5.37937E+01 -5.38210E+01 -4.98913E+01 -4.62406E+01 -4.28904E+01 -3.98087E+01
  -3.27601E+01 -3.06206E+01 -2.66441E+01 -2.70798E+01 -1.72805E+01 -1.89839E+01 -1.26155E+01 -9.84405E+00 -5.27454E+00  1.41430E+00
   3.21240E+00  5.24479E+00  1.20192E+01  1.23793E+01  1.72916E+01  1.87021E+01  2.58558E+01  2.25623E+01  2.94028E+01  3.21235E+01
   3.24073E+01  3.36648E+01  3.60279E+01  3.88606E+01  4.05822E+01  4.22820E+01  4.70797E+01  4.63372E+01  4.56007E+01  4.50296E+01
   4.34432E+01  4.65203E+01  4.45393E+01  4.34602E+01  4.50228E+01  4.60853E+01  4.33419E+01  4.00616E+01  4.21687E+01  3.74193E+01
   3.56297E+01  3.29772E+01  3.77248E+01  3.66350E+01  2.85952E+01  3.03356E+01  2.47257E+01  2.51105E+01  2.38428E+01  1.89250E+01
   1.94437E+01  1.78296E+01  1.47535E+01  1.46232E+01  1.40579E+01  1.21682E+01  1.24059E+01  1.09190E+01  1.01359E+01  7.68346E+00
   6.02587E+00  6.06270E+00  6.85302E+00  7.72350E+00  7.96982E+00  8.93787E+00  1.10798E+01  1.31297E+01  1.54741E+01  2.48408E+01
   2.25625E+01  3.13375E+01  3.63185E+01  4.32909E+01  4.69109E+01  5.61558E+01  6.34304E+01  6.99633E+01  7.53979E+01  7.92514E+01
   8.05122E+01  8.32866E+01  8.15243E+01  8.09609E+01  7.73715E+01  7.04663E+01  6.13523E+01  5.88496E+01  4.67569E+01  3.87865E+01
   3.09235E+01  2.11718E+01  1.07264E+01  4.23271E+00 -6.10947E+00 -9.24093E+00 -1.55248E+01 -2.13412E+01 -2.67426E+01 -2.95679E+01
  -3.37271E+01 -3.63745E+01 -4.26084E+01 -4.72231E+01 -4.79712E+01 -4.85181E+01 -5.23596E+01 -5.36975E+01 -5.83413E+01 -5.55634E+01
  -5.83016E+01 -5.82758E+01 -5.70936E+01 -5.66877E+01 -6.04102E+01 -5.53870E+01 -5.92624E+01 -5.52196E+01 -5.40645E+01 -5.33554E+01
  -5.35468E+01 -5.18711E+01 -5.36967E+01 -5.18014E+01 -4.86215E+01 -4.72073E+01 -4.73589E+01 -4.28673E+01 -4.47590E+01 -4.12630E+01
  -4.16694E+01 -3.90577E+01 -3.74012E+01 -3.41824E+01 -3.56818E+01 -3.08393E+01 -3.14738E+01 -2.72924E+01 -3.04686E+01 -2.85543E+01
  -2.66252E+01 -2.55908E+01 -2.48830E+01 -2.48607E+01 -2.07507E+01 -2.23094E+01 -2.14687E+01 -1.94066E+01 -2.03757E+01 -1.55820E+01
  -1.55585E+01 -1.49067E+01 -1.55500E+01 -1.38595E+01 -1.03621E+01 -1.03830E+01 -9.54838E+00 -6.79496E+00 -1.06733E+01 -5.74778E+00
  -6.07823E+00 -2.68316E+00 -2.99506E+00 -1.15032E+00  2.30781E+00  1.42373E+00 -1.25163E-01  2.91781E+00  3.84861E+00  6.22206E+00
   6.57839E+00  7.21869E+00  5.59112E+00  8.96845E+00  7.74366E+00  8.95672E+00  1.08741E+01  1.14619E+01  1.13697E+01  1.18721E+01
   1.46272E+01  1.58832E+01  1.44227E+01  1.53195E+01  1.87379E+01  1.56738E+01  1.68204E+01  2.14014E+01  2.10032E+01  1.96777E+01
   1.69433E+01  1.97693E+01  2.25150E+01  2.10733E+01  1.92476E+01  2.23134E+01  2.30158E+01  2.23370E+01  2.26442E+01  2.24414E+01
   2.19632E+01  1.89093E+01  2.12241E+01  2.18174E+01  2.07680E+01  2.08908E+01  1.84057E+01  1.89577E+01  2.11890E+01  2.23901E+01
   1.98555E+01  2.09887E+01  1.94316E+01  2.17804E+01  1.71275E+01  1.94739E+01  2.22212E+01  2.14197E+01  2.00747E+01  1.87267E+01
   1.85610E+01  1.70127E+01  1.91542E+01  1.93745E+01  2.03771E+01  1.87632E+01  1.57186E+01  1.76813E+01  1.75787E+01  1.45715E+01
   1.34076E+01  1.60651E+01  1.75621E+01  1.52217E+01  1.33982E+01  1.46677E+01  1.35242E+01  1.34257E+01  9.58460E+00  1.13065E+01
   9.95164E+00  1.13081E+01  6.13833E+00  8.33416E+00  6.16524E+00  2.99150E+00  5.14067E+00  4.77301E+00  2.74086E+00  5.09900E+00
   3.41270E+00  3.05664E+00  2.90300E+00 -2.01881E-01 -9.15909E-01 -1.31209E-01  5.66142E-01 -5.71612E-01  1.32604E-01 -8.16519E-01
  -1.89779E+00 -2.77127E-01 -2.92516E+00 -4.02351E+00 -2.56084E+00 -4.01568E+00 -2.93073E+00 -4.41842E+00 -8.02810E+00 -5.21599E+00
  -7.77806E+00 -8.65129E+00 -7.96605E+00 -1.13661E+01 -1.05062E+01 -1.07745E+01 -8.75812E+00 -8.37547E+00 -1.13494E+01 -1.13468E+01
  -1.00301E+01 -9.55462E+00 -1.07483E+01 -1.09647E+01 -1.04554E+01 -1.28881E+01 -1.38552E+01 -1.31002E+01 -1.36505E+01 -1.29294E+01
  -1.02446E+01 -1.12670E+01 -1.32886E+01 -1.41847E+01 -1.69707E+01 -9.86388E+00 -1.67037E+01 -1.72235E+01 -1.26681E+01 -1.51869E+01
  -1.56870E+01 -1.41429E+01 -1.49985E+01 -1.64200E+01 -1.48383E+01 -1.37896E+01 -1.34044E+01 -1.90604E+01 -1.42491E+01 -1.15134E+01
  -1.37121E+01 -1.37728E+01 -1.19189E+01 -1.40297E+01 -1.44453E+01 -1.57078E+01 -1.27067E+01 -1.07897E+01
 NY points of the fit to the data follow
   2.67914E+01  2.66483E+01  2.81184E+01  2.80907E+01  3.08335E+01  3.04058E+01  3.01987E+01  2.86306E+01  2.86807E+01  3.04206E+01
   3.04281E+01  3.21629E+01  3.08334E+01  3.02236E+01  2.56955E+01  2.43834E+01  2.12902E+01  2.20441E+01  2.13156E+01  2.37829E+01
   2.34712E+01  2.35654E+01  2.34567E+01  2.34322E+01  2.39253E+01  2.30693E+01  2.39944E+01  2.22131E+01  2.33426E+01  2.03747E+01
   2.08131E+01  1.78400E+01  2.04113E+01  1.81655E+01  2.10180E+01  1.88648E+01  2.30096E+01  2.07779E+01  2.36884E+01  2.12294E+01
   2.48345E+01  2.42694E+01  2.62879E+01  2.53319E+01  2.34912E+01  2.18857E+01  2.07418E+01  2.13559E+01  1.96220E+01  1.93466E+01
   1.62783E+01  1.46429E+01  1.18446E+01  1.09113E+01  1.02511E+01  1.17211E+01  1.14696E+01  1.00985E+01  9.85669E+00  6.65886E+00
   6.59699E+00  4.76888E+00  5.65285E+00  3.55035E+00  4.18433E+00  2.79356E+00  3.51891E+00  2.29993E+00  1.60136E+00  9.60103E-01
   2.40271E+00  3.39890E+00  4.54777E+00  5.13180E+00  5.66575E+00  7.42194E+00  7.90808E+00  9.51595E+00  8.98798E+00  9.64610E+00
   6.01244E+00  7.17921E+00  4.73083E+00  6.06047E+00  4.02690E+00  5.66123E+00  2.68893E+00  3.91305E+00  1.84744E+00  1.61060E+00
   6.65500E-01  2.57405E-01 -5.95485E-01 -1.16513E+00 -1.44602E+00 -2.78962E+00 -1.69265E+00 -9.25467E-01  1.63160E-01  1.26534E+00
   1.75913E+00  2.14632E+00  1.63905E+00  2.57508E+00  1.92069E+00  3.19358E+00  2.01973E+00  2.83380E+00 -5.01380E-01  6.86622E-01
  -2.30758E+00 -1.03121E+00 -4.16069E+00 -1.89968E+00 -4.33390E+00 -2.67283E+00 -4.98608E+00 -3.96257E+00 -6.47721E+00 -5.00074E+00
  -4.91571E+00 -4.25029E+00 -3.88977E+00 -3.56108E+00 -3.11333E+00 -3.59898E+00 -1.36156E+00 -1.14925E+00  4.40902E-01  3.78409E-01
   8.18540E-01 -1.41660E-01  1.04190E+00 -4.45733E-02  1.19949E+00 -1.78757E-01  5.07580E-01 -1.60435E+00 -1.89617E+00 -4.72882E+00
  -5.75047E+00 -8.43093E+00 -9.80332E+00 -1.22078E+01 -1.30306E+01 -1.53558E+01 -1.78836E+01 -1.93468E+01 -1.90194E+01 -1.92491E+01
  -1.90247E+01 -2.05592E+01 -2.29422E+01 -2.47174E+01 -2.77905E+01 -2.93867E+01 -3.23150E+01 -3.38833E+01 -3.69428E+01 -3.85841E+01
  -4.17737E+01 -4.28848E+01 -4.51480E+01 -4.56522E+01 -4.71037E+01 -4.72532E+01 -4.84786E+01 -4.93487E+01 -4.96817E+01 -5.22602E+01
  -5.00707E+01 -5.18199E+01 -4.86712E+01 -4.99963E+01 -4.55155E+01 -4.63045E+01 -4.06067E+01 -3.93284E+01 -3.27815E+01 -3.15851E+01
  -2.55639E+01 -2.41527E+01 -1.85870E+01 -1.75449E+01 -1.43291E+01 -1.36069E+01 -1.14173E+01 -1.02373E+01 -7.93545E+00 -6.32204E+00
  -5.20842E+00 -7.10338E-01  9.85745E-01  5.75752E+00  5.88621E+00  7.92486E+00  3.31983E+00 -2.70925E-01 -2.92041E+00 -2.34599E+00
  -1.35601E+00  2.20631E+00  8.06970E+00  1.74676E+01  2.60423E+01  3.21044E+01  3.61283E+01  3.96118E+01  4.07951E+01  4.29653E+01
   4.14597E+01  4.24486E+01  4.06504E+01  4.21126E+01  3.95683E+01  4.11289E+01  3.75677E+01  3.76429E+01  3.33789E+01  3.32592E+01
   2.90897E+01  3.00762E+01  2.76849E+01  2.96253E+01  2.81876E+01  2.86916E+01  2.71833E+01  2.68333E+01  2.54701E+01  2.35241E+01
   2.28934E+01  2.14227E+01  2.28341E+01  2.11041E+01  2.22865E+01  1.81843E+01  1.29905E+01  1.21379E+01  1.44002E+01  1.70751E+01
   1.96940E+01  2.14494E+01  1.95581E+01  1.56727E+01  1.23175E+01  1.08058E+01  1.09435E+01  1.27565E+01  1.50923E+01  1.98031E+01
   2.43294E+01  3.12551E+01  3.69526E+01  4.50748E+01  5.05617E+01  5.85964E+01  6.37692E+01  7.14461E+01  7.48126E+01  8.10123E+01
   8.19093E+01  8.56955E+01  8.42379E+01  8.48487E+01  7.92716E+01  7.76780E+01  6.85275E+01  6.42835E+01  5.22441E+01  4.68770E+01
   3.44382E+01  2.68974E+01  1.23302E+01  2.31358E+00 -1.47090E+01 -2.32682E+01 -2.70885E+01 -3.07323E+01 -3.37181E+01 -3.81694E+01
  -4.16534E+01 -4.52806E+01 -4.58988E+01 -4.82555E+01 -4.80694E+01 -4.93976E+01 -4.95010E+01 -5.07510E+01 -5.07725E+01 -5.19163E+01
  -5.20246E+01 -5.30866E+01 -5.33610E+01 -5.45594E+01 -5.45672E+01 -5.50085E+01 -5.46074E+01 -5.47730E+01 -5.41682E+01 -5.38939E+01
  -5.30173E+01 -5.24951E+01 -5.15617E+01 -5.05724E+01 -4.93580E+01 -4.80519E+01 -4.66139E+01 -4.50586E+01 -4.35231E+01 -4.18827E+01
  -4.02219E+01 -3.85094E+01 -3.67757E+01 -3.50576E+01 -3.33610E+01 -3.17172E+01 -3.01495E+01 -2.88157E+01 -2.75958E+01 -2.65318E+01
  -2.55835E+01 -2.46969E+01 -2.39545E+01 -2.31427E+01 -2.24787E+01 -2.16155E+01 -2.09302E+01 -1.99383E+01 -1.91472E+01 -1.79760E+01
  -1.70396E+01 -1.56902E+01 -1.46038E+01 -1.30964E+01 -1.18773E+01 -1.02810E+01 -9.01811E+00 -7.44550E+00 -6.22825E+00 -4.79788E+00
  -3.69219E+00 -2.48316E+00 -1.51983E+00 -5.18493E-01  3.20760E-01  1.15438E+00  1.94169E+00  2.69398E+00  3.63250E+00  4.50959E+00
   5.46677E+00  6.38412E+00  7.38525E+00  8.30967E+00  9.26128E+00  1.00105E+01  1.07600E+01  1.14841E+01  1.21722E+01  1.28413E+01
   1.35194E+01  1.42348E+01  1.50074E+01  1.58434E+01  1.67320E+01  1.76470E+01  1.85507E+01  1.93991E+01  2.01486E+01  2.07616E+01
   2.12109E+01  2.14821E+01  2.15744E+01  2.14999E+01  2.12817E+01  2.09515E+01  2.05467E+01  2.01070E+01  1.96714E+01  1.92762E+01
   1.89521E+01  1.87234E+01  1.86068E+01  1.86110E+01  1.87366E+01  1.89772E+01  1.93198E+01  1.97468E+01  2.02363E+01  2.07644E+01
   2.13056E+01  2.18350E+01  2.23286E+01  2.27646E+01  2.31242E+01  2.33914E+01  2.35542E+01  2.36042E+01  2.35369E+01  2.33514E+01
   2.30502E+01  2.26390E+01  2.21260E+01  2.15219E+01  2.08393E+01  2.00920E+01  1.92950E+01  1.84632E+01  1.76117E+01  1.67550E+01
   1.59065E+01  1.50785E+01  1.42813E+01  1.35232E+01  1.28102E+01  1.21460E+01  1.15319E+01  1.09666E+01  1.04465E+01  9.96546E+00
   9.51590E+00  9.08849E+00  8.67283E+00  8.25779E+00  7.83209E+00  7.38487E+00  6.90619E+00  6.38750E+00  5.82191E+00  5.20456E+00
   4.53277E+00  3.80628E+00  3.02710E+00  2.19945E+00  1.32935E+00  4.24442E-01 -5.06444E-01 -1.45355E+00 -2.40675E+00 -3.35588E+00
  -4.29122E+00 -5.20372E+00 -6.08520E+00 -6.92858E+00 -7.72796E+00 -8.47878E+00 -9.17775E+00 -9.82281E+00 -1.04129E+01 -1.09480E+01
  -1.14288E+01 -1.18570E+01 -1.22346E+01 -1.25641E+01 -1.28483E+01 -1.30901E+01 -1.32925E+01 -1.34587E+01 -1.35917E+01 -1.36944E+01
  -1.37696E+01 -1.38200E+01 -1.38479E+01 -1.38560E+01 -1.38462E+01 -1.38207E+01 -1.37812E+01 -1.37295E+01 -1.36672E+01 -1.35958E+01
  -1.35167E+01 -1.34311E+01 -1.33401E+01 -1.32448E+01 -1.31462E+01 -1.30454E+01 -1.29431E+01 -1.28402E+01 -1.27373E+01 -1.26353E+01
  -1.25348E+01 -1.24365E+01 -1.23409E+01 -1.22487E+01 -1.21603E+01 -1.20763E+01 -1.19973E+01 -1.19237E+01 -1.18560E+01 -1.17946E+01
  -1.17401E+01 -1.16930E+01 -1.16538E+01 -1.16230E+01 -1.16011E+01 -1.15890E+01 -1.15877E+01 -1.15983E+01
 NY background values follow
     1.062E+01    1.047E+01    1.031E+01    1.013E+01    9.937E+00    9.728E+00    9.503E+00    9.263E+00    9.009E+00    8.740E+00
     8.458E+00    8.161E+00    7.851E+00    7.528E+00    7.193E+00    6.845E+00    6.485E+00    6.113E+00    5.729E+00    5.335E+00
     4.930E+00    4.514E+00    4.088E+00    3.652E+00    3.206E+00    2.752E+00    2.288E+00    1.816E+00    1.335E+00    8.470E-01
     3.510E-01   -1.524E-01   -6.627E-01   -1.180E+00   -1.703E+00   -2.233E+00   -2.768E+00   -3.308E+00   -3.854E+00   -4.404E+00
    -4.959E+00   -5.518E+00   -6.081E+00   -6.647E+00   -7.217E+00   -7.789E+00   -8.364E+00   -8.941E+00   -9.519E+00   -1.010E+01
    -1.068E+01   -1.126E+01   -1.185E+01   -1.243E+01   -1.301E+01   -1.360E+01   -1.418E+01   -1.476E+01   -1.534E+01   -1.592E+01
    -1.650E+01   -1.707E+01   -1.764E+01   -1.821E+01   -1.878E+01   -1.934E+01   -1.990E+01   -2.045E+01   -2.100E+01   -2.155E+01
    -2.209E+01   -2.262E+01   -2.315E+01   -2.367E+01   -2.419E+01   -2.470E+01   -2.520E+01   -2.570E+01   -2.618E+01   -2.666E+01
    -2.713E+01   -2.759E+01   -2.805E+01   -2.849E+01   -2.893E+01   -2.935E+01   -2.977E+01   -3.017E+01   -3.056E+01   -3.094E+01
    -3.131E+01   -3.167E+01   -3.202E+01   -3.235E+01   -3.267E+01   -3.298E+01   -3.328E+01   -3.356E+01   -3.382E+01   -3.407E+01
    -3.431E+01   -3.453E+01   -3.474E+01   -3.494E+01   -3.512E+01   -3.529E+01   -3.544E+01   -3.558E+01   -3.571E+01   -3.583E+01
    -3.593E+01   -3.603E+01   -3.611E+01   -3.618E+01   -3.624E+01   -3.629E+01   -3.633E+01   -3.636E+01   -3.638E+01   -3.639E+01
    -3.640E+01   -3.639E+01   -3.638E+01   -3.636E+01   -3.633E+01   -3.629E+01   -3.625E+01   -3.620E+01   -3.615E+01   -3.608E+01
    -3.602E+01   -3.594E+01   -3.587E+01   -3.578E+01   -3.570E+01   -3.561E+01   -3.551E+01   -3.541E+01   -3.531E+01   -3.521E+01
    -3.510E+01   -3.499E+01   -3.488E+01   -3.477E+01   -3.465E+01   -3.454E+01   -3.442E+01   -3.430E+01   -3.419E+01   -3.407E+01
    -3.395E+01   -3.384E+01   -3.373E+01   -3.361E+01   -3.350E+01   -3.339E+01   -3.329E+01   -3.318E+01   -3.308E+01   -3.299E+01
    -3.289E+01   -3.280E+01   -3.272E+01   -3.263E+01   -3.256E+01   -3.249E+01   -3.242E+01   -3.236E+01   -3.231E+01   -3.226E+01
    -3.222E+01   -3.219E+01   -3.216E+01   -3.214E+01   -3.213E+01   -3.213E+01   -3.213E+01   -3.215E+01   -3.217E+01   -3.220E+01
    -3.225E+01   -3.230E+01   -3.236E+01   -3.244E+01   -3.252E+01   -3.262E+01   -3.273E+01   -3.285E+01   -3.298E+01   -3.313E+01
    -3.328E+01   -3.346E+01   -3.364E+01   -3.384E+01   -3.405E+01   -3.428E+01   -3.452E+01   -3.478E+01   -3.505E+01   -3.534E+01
    -3.564E+01   -3.596E+01   -3.629E+01   -3.664E+01   -3.701E+01   -3.739E+01   -3.778E+01   -3.818E+01   -3.860E+01   -3.903E+01
    -3.948E+01   -3.994E+01   -4.041E+01   -4.089E+01   -4.138E+01   -4.188E+01   -4.240E+01   -4.292E+01   -4.346E+01   -4.400E+01
    -4.456E+01   -4.512E+01   -4.569E+01   -4.627E+01   -4.686E+01   -4.746E+01   -4.807E+01   -4.868E+01   -4.930E+01   -4.992E+01
    -5.056E+01   -5.120E+01   -5.184E+01   -5.249E+01   -5.315E+01   -5.381E+01   -5.447E+01   -5.514E+01   -5.581E+01   -5.649E+01
    -5.717E+01   -5.785E+01   -5.854E+01   -5.922E+01   -5.991E+01   -6.060E+01   -6.130E+01   -6.199E+01   -6.268E+01   -6.338E+01
    -6.407E+01   -6.477E+01   -6.546E+01   -6.616E+01   -6.685E+01   -6.754E+01   -6.823E+01   -6.892E+01   -6.960E+01   -7.028E+01
    -7.096E+01   -7.164E+01   -7.231E+01   -7.298E+01   -7.364E+01   -7.430E+01   -7.495E+01   -7.560E+01   -7.624E+01   -7.688E+01
    -7.751E+01   -7.814E+01   -7.876E+01   -7.937E+01   -7.997E+01   -8.057E+01   -8.115E+01   -8.173E+01   -8.230E+01   -8.287E+01
    -8.342E+01   -8.396E+01   -8.449E+01   -8.502E+01   -8.553E+01   -8.603E+01   -8.652E+01   -8.700E+01   -8.746E+01   -8.792E+01
    -8.836E+01   -8.879E+01   -8.920E+01   -8.961E+01   -9.000E+01   -9.037E+01   -9.073E+01   -9.108E+01   -9.141E+01   -9.172E+01
    -9.202E+01   -9.231E+01   -9.258E+01   -9.283E+01   -9.308E+01   -9.330E+01   -9.351E+01   -9.371E+01   -9.389E+01   -9.406E+01
    -9.422E+01   -9.436E+01   -9.448E+01   -9.460E+01   -9.470E+01   -9.478E+01   -9.485E+01   -9.491E+01   -9.496E+01   -9.499E+01
    -9.502E+01   -9.502E+01   -9.502E+01   -9.500E+01   -9.497E+01   -9.493E+01   -9.488E+01   -9.481E+01   -9.474E+01   -9.465E+01
    -9.455E+01   -9.444E+01   -9.431E+01   -9.418E+01   -9.403E+01   -9.388E+01   -9.371E+01   -9.353E+01   -9.334E+01   -9.314E+01
    -9.293E+01   -9.271E+01   -9.248E+01   -9.224E+01   -9.199E+01   -9.173E+01   -9.146E+01   -9.119E+01   -9.090E+01   -9.060E+01
    -9.029E+01   -8.998E+01   -8.965E+01   -8.932E+01   -8.898E+01   -8.863E+01   -8.827E+01   -8.790E+01   -8.753E+01   -8.715E+01
    -8.675E+01   -8.636E+01   -8.595E+01   -8.553E+01   -8.511E+01   -8.468E+01   -8.425E+01   -8.381E+01   -8.336E+01   -8.290E+01
    -8.244E+01   -8.196E+01   -8.149E+01   -8.101E+01   -8.052E+01   -8.002E+01   -7.952E+01   -7.901E+01   -7.850E+01   -7.798E+01
    -7.746E+01   -7.693E+01   -7.640E+01   -7.586E+01   -7.531E+01   -7.476E+01   -7.421E+01   -7.365E+01   -7.309E+01   -7.252E+01
    -7.195E+01   -7.137E+01   -7.079E+01   -7.021E+01   -6.962E+01   -6.903E+01   -6.844E+01   -6.784E+01   -6.724E+01   -6.663E+01
    -6.603E+01   -6.542E+01   -6.480E+01   -6.419E+01   -6.357E+01   -6.295E+01   -6.233E+01   -6.171E+01   -6.108E+01   -6.046E+01
    -5.983E+01   -5.920E+01   -5.857E+01   -5.794E+01   -5.731E+01   -5.667E+01   -5.604E+01   -5.541E+01   -5.478E+01   -5.414E+01
    -5.351E+01   -5.288E+01   -5.225E+01   -5.162E+01   -5.099E+01   -5.036E+01   -4.973E+01   -4.911E+01   -4.848E+01   -4.786E+01
    -4.724E+01   -4.662E+01   -4.600E+01   -4.539E+01   -4.478E+01   -4.417E+01   -4.356E+01   -4.296E+01   -4.236E+01   -4.177E+01
    -4.117E+01   -4.059E+01   -4.000E+01   -3.942E+01   -3.884E+01   -3.827E+01   -3.770E+01   -3.714E+01   -3.658E+01   -3.603E+01
    -3.548E+01   -3.494E+01   -3.440E+01   -3.387E+01   -3.334E+01   -3.282E+01   -3.231E+01   -3.180E+01   -3.130E+01   -3.080E+01
    -3.031E+01   -2.983E+01   -2.936E+01   -2.889E+01   -2.843E+01   -2.798E+01   -2.754E+01   -2.710E+01   -2.668E+01   -2.626E+01
    -2.584E+01   -2.544E+01   -2.505E+01   -2.466E+01   -2.429E+01   -2.392E+01   -2.356E+01   -2.322E+01   -2.288E+01   -2.255E+01
    -2.223E+01   -2.192E+01   -2.163E+01   -2.134E+01   -2.106E+01   -2.080E+01   -2.054E+01   -2.030E+01   -2.007E+01   -1.985E+01
    -1.964E+01   -1.944E+01   -1.925E+01   -1.908E+01   -1.892E+01   -1.877E+01   -1.864E+01   -1.851E+01
 Ala      Conc. = 1.35E+02
