 LCModel (Version 6.3-1L) Copyright: S.W. Provencher.          Ref.: Magn. Reson. Med. 30:672-679 (1993).                
 Slice#3 Row#8 Col#8  PD_24_press_2_raw_act
 36 lines in following concentration table = NCONC+1
    Conc.  %SD /Cr+PCr  Metabolite                                         
   60.221 216% 2.4E-02 Ala                                                 
    0.000 999%   0.000 Asp                                                 
  615.574  44%   0.248 Cr                                                  
 1.86E+03  15%   0.752 PCr                                                 
    0.000 999%   0.000 GABA                                                
  181.179 125% 7.3E-02 Glc                                                 
  669.455  40%   0.270 Gln                                                 
 1.84E+03  16%   0.743 Glu                                                 
  959.177   4%   0.387 GPC                                                 
    0.000 999%   0.000 PCh                                                 
  632.674  15%   0.255 GSH                                                 
 2.27E+03  15%   0.916 Ins                                                 
  256.910  58%   0.104 Lac                                                 
 3.30E+03   4%   1.329 NAA                                                 
  255.493  56%   0.103 NAAG                                                
  195.827  20% 7.9E-02 Scyllo                                              
  301.978 103%   0.122 Tau                                                 
    0.000 999%   0.000 -CrCH2                                              
  959.177   4%   0.387 GPC+PCh                                             
 3.55E+03   3%   1.432 NAA+NAAG                                            
 2.48E+03   3%   1.000 Cr+PCr                                              
 2.51E+03  16%   1.012 Glu+Gln                                             
  351.248 337%   0.142 Lip13a                                              
  354.452 156%   0.143 Lip13b                                              
  120.806 204% 4.9E-02 Lip09                                               
 1.43E+03  23%   0.578 MM09                                                
  113.963 128% 4.6E-02 Lip20                                               
 2.94E+03  18%   1.187 MM20                                                
  447.030  46%   0.180 MM12                                                
 2.53E+03  20%   1.022 MM14                                                
  487.734  66%   0.197 MM17                                                
  705.700 113%   0.284 Lip13a+Lip13b                                       
 3.69E+03  21%   1.486 MM14+Lip13a+Lip13b+MM12                             
 1.55E+03  20%   0.626 MM09+Lip09                                          
 3.06E+03  17%   1.233 MM20+Lip20                                          
   6 lines in following misc. output table
  FWHM = 0.046 ppm    S/N =  14                                            
  Data shift = 0.015 ppm                                                   
  Ph: -29 deg     -14.2 deg/ppm                                            
  alphaB,S = 1.2E+00,   1.2E+02                                            
   14 spline knots.   Ns = 6(1)                                            
  ( 9) 2 infls.   ( 1) 1 extrs.                                            
  498 points on ppm-axis = NY
      4.000000     3.992357     3.984714     3.977070     3.969427     3.961784     3.954141     3.946497     3.938854     3.931211
      3.923568     3.915925     3.908281     3.900638     3.892995     3.885352     3.877708     3.870065     3.862422     3.854779
      3.847136     3.839492     3.831849     3.824206     3.816563     3.808919     3.801276     3.793633     3.785990     3.778347
      3.770703     3.763060     3.755417     3.747774     3.740130     3.732487     3.724844     3.717201     3.709558     3.701914
      3.694271     3.686628     3.678985     3.671341     3.663698     3.656055     3.648412     3.640769     3.633125     3.625482
      3.617839     3.610196     3.602552     3.594909     3.587266     3.579623     3.571980     3.564336     3.556693     3.549050
      3.541407     3.533763     3.526120     3.518477     3.510834     3.503191     3.495547     3.487904     3.480261     3.472618
      3.464974     3.457331     3.449688     3.442045     3.434402     3.426758     3.419115     3.411472     3.403829     3.396185
      3.388542     3.380899     3.373256     3.365613     3.357969     3.350326     3.342683     3.335040     3.327396     3.319753
      3.312110     3.304467     3.296824     3.289180     3.281537     3.273894     3.266251     3.258607     3.250964     3.243321
      3.235678     3.228034     3.220391     3.212748     3.205105     3.197462     3.189818     3.182175     3.174532     3.166889
      3.159245     3.151602     3.143959     3.136316     3.128673     3.121029     3.113386     3.105743     3.098100     3.090456
      3.082813     3.075170     3.067527     3.059884     3.052240     3.044597     3.036954     3.029311     3.021667     3.014024
      3.006381     2.998738     2.991095     2.983451     2.975808     2.968165     2.960522     2.952878     2.945235     2.937592
      2.929949     2.922306     2.914662     2.907019     2.899376     2.891733     2.884089     2.876446     2.868803     2.861160
      2.853517     2.845873     2.838230     2.830587     2.822944     2.815300     2.807657     2.800014     2.792371     2.784728
      2.777084     2.769441     2.761798     2.754155     2.746511     2.738868     2.731225     2.723582     2.715939     2.708295
      2.700652     2.693009     2.685366     2.677722     2.670079     2.662436     2.654793     2.647150     2.639506     2.631863
      2.624220     2.616577     2.608933     2.601290     2.593647     2.586004     2.578361     2.570717     2.563074     2.555431
      2.547788     2.540144     2.532501     2.524858     2.517215     2.509572     2.501928     2.494285     2.486642     2.478999
      2.471355     2.463712     2.456069     2.448426     2.440783     2.433139     2.425496     2.417853     2.410210     2.402566
      2.394923     2.387280     2.379637     2.371994     2.364350     2.356707     2.349064     2.341421     2.333777     2.326134
      2.318491     2.310848     2.303205     2.295561     2.287918     2.280275     2.272632     2.264988     2.257345     2.249702
      2.242059     2.234416     2.226772     2.219129     2.211486     2.203843     2.196199     2.188556     2.180913     2.173270
      2.165627     2.157983     2.150340     2.142697     2.135054     2.127410     2.119767     2.112124     2.104481     2.096838
      2.089194     2.081551     2.073908     2.066265     2.058621     2.050978     2.043335     2.035692     2.028049     2.020405
      2.012762     2.005119     1.997476     1.989833     1.982190     1.974546     1.966903     1.959260     1.951617     1.943974
      1.936331     1.928688     1.921045     1.913402     1.905759     1.898115     1.890472     1.882829     1.875186     1.867543
      1.859900     1.852257     1.844614     1.836971     1.829327     1.821684     1.814041     1.806398     1.798755     1.791112
      1.783469     1.775826     1.768183     1.760540     1.752896     1.745253     1.737610     1.729967     1.722324     1.714681
      1.707038     1.699395     1.691752     1.684108     1.676465     1.668822     1.661179     1.653536     1.645893     1.638250
      1.630607     1.622964     1.615321     1.607677     1.600034     1.592391     1.584748     1.577105     1.569462     1.561819
      1.554176     1.546533     1.538890     1.531246     1.523603     1.515960     1.508317     1.500674     1.493031     1.485388
      1.477745     1.470102     1.462458     1.454815     1.447172     1.439529     1.431886     1.424243     1.416600     1.408957
      1.401314     1.393671     1.386027     1.378384     1.370741     1.363098     1.355455     1.347812     1.340169     1.332526
      1.324883     1.317240     1.309596     1.301953     1.294310     1.286667     1.279024     1.271381     1.263738     1.256095
      1.248452     1.240808     1.233165     1.225522     1.217879     1.210236     1.202593     1.194950     1.187307     1.179664
      1.172021     1.164377     1.156734     1.149091     1.141448     1.133805     1.126162     1.118519     1.110876     1.103233
      1.095590     1.087946     1.080303     1.072660     1.065017     1.057374     1.049731     1.042088     1.034445     1.026802
      1.019158     1.011515     1.003872     0.996229     0.988586     0.980943     0.973300     0.965657     0.958014     0.950371
      0.942727     0.935084     0.927441     0.919798     0.912155     0.904512     0.896869     0.889226     0.881583     0.873940
      0.866296     0.858653     0.851010     0.843367     0.835724     0.828081     0.820438     0.812795     0.805152     0.797508
      0.789865     0.782222     0.774579     0.766936     0.759293     0.751650     0.744007     0.736364     0.728721     0.721077
      0.713434     0.705791     0.698148     0.690505     0.682862     0.675219     0.667576     0.659933     0.652290     0.644646
      0.637003     0.629360     0.621717     0.614074     0.606431     0.598788     0.591145     0.583502     0.575858     0.568215
      0.560572     0.552929     0.545286     0.537643     0.530000     0.522357     0.514714     0.507071     0.499427     0.491784
      0.484141     0.476498     0.468855     0.461212     0.453569     0.445925     0.438282     0.430639     0.422996     0.415353
      0.407710     0.400067     0.392424     0.384780     0.377137     0.369494     0.361851     0.354208     0.346565     0.338922
      0.331278     0.323635     0.315992     0.308349     0.300706     0.293063     0.285420     0.277777     0.270133     0.262490
      0.254847     0.247204     0.239561     0.231918     0.224275     0.216631     0.208988     0.201345
 NY phased data points follow
  -1.24474E+02 -1.23477E+02 -1.16909E+02 -1.21026E+02 -1.04796E+02 -9.38399E+01 -8.98507E+01 -7.24931E+01 -5.22905E+01 -4.87737E+01
  -3.71830E+01 -4.62050E+01 -5.14717E+01 -6.52783E+01 -7.59529E+01 -9.06392E+01 -9.68693E+01 -1.01620E+02 -9.58057E+01 -1.01475E+02
  -9.15989E+01 -9.81766E+01 -9.46462E+01 -9.34412E+01 -8.95109E+01 -8.75930E+01 -8.54561E+01 -8.44523E+01 -7.83103E+01 -7.22566E+01
  -7.01758E+01 -7.12347E+01 -7.15468E+01 -7.14051E+01 -6.82044E+01 -7.41990E+01 -7.73955E+01 -7.68035E+01 -7.16410E+01 -7.17085E+01
  -6.63454E+01 -6.97813E+01 -6.42457E+01 -6.45929E+01 -5.93791E+01 -5.68797E+01 -5.22941E+01 -4.92994E+01 -4.85199E+01 -5.24686E+01
  -5.91431E+01 -5.88373E+01 -6.05255E+01 -6.10663E+01 -5.57934E+01 -5.94140E+01 -5.38117E+01 -5.81753E+01 -5.57477E+01 -5.24170E+01
  -6.13912E+01 -6.61028E+01 -5.86021E+01 -5.97391E+01 -6.58917E+01 -6.11333E+01 -5.97619E+01 -6.49526E+01 -6.28617E+01 -5.33574E+01
  -5.50294E+01 -5.34947E+01 -5.10615E+01 -5.79377E+01 -5.10657E+01 -4.86211E+01 -4.76592E+01 -4.98385E+01 -4.96030E+01 -4.78255E+01
  -4.54790E+01 -4.41159E+01 -3.85109E+01 -4.28200E+01 -4.01217E+01 -3.36930E+01 -4.33443E+01 -4.05918E+01 -3.88640E+01 -3.58358E+01
  -4.49435E+01 -3.51845E+01 -3.41643E+01 -3.11934E+01 -2.70077E+01 -3.47692E+01 -2.36569E+01 -1.95115E+01 -1.16388E+01 -3.58826E-01
   1.25396E+01  3.28418E+01  5.18179E+01  6.37180E+01  5.32139E+01  3.12064E+01  1.69107E+01 -1.99422E+00 -1.12707E+01 -2.11703E+01
  -2.40337E+01 -2.72168E+01 -2.59689E+01 -3.31093E+01 -2.71817E+01 -2.62599E+01 -2.79796E+01 -3.13825E+01 -3.07828E+01 -2.80898E+01
  -2.45747E+01 -1.70420E+01 -1.11526E+01 -2.57658E+00  1.10549E+01  4.12589E+01  5.00952E+01  7.05470E+01  6.70864E+01  5.19813E+01
   2.56403E+01  1.05561E+01 -2.14100E+00 -1.36179E+01 -1.71513E+01 -1.40765E+01 -2.43771E+01 -2.68634E+01 -2.64755E+01 -3.22452E+01
  -1.91925E+01 -1.74050E+01 -2.14555E+01 -2.27351E+01 -2.17560E+01 -1.94476E+01 -1.89353E+01 -2.01788E+01 -1.58331E+01 -2.32127E+01
  -1.81947E+01 -2.24838E+01 -2.11171E+01 -2.20192E+01 -1.56853E+01 -1.81000E+01 -1.90126E+01 -2.43199E+01 -2.34109E+01 -1.88105E+01
  -2.07890E+01 -2.21814E+01 -1.80171E+01 -2.37240E+01 -1.74976E+01 -1.97570E+01 -1.20482E+01 -1.81310E+01 -9.77170E+00 -2.56567E+01
  -1.99820E+01 -3.03655E+01 -2.61338E+01 -2.97096E+01 -2.99044E+01 -2.34386E+01 -3.06118E+01 -3.01443E+01 -3.42332E+01 -2.61132E+01
  -2.73242E+01 -2.96277E+01 -3.16341E+01 -3.30034E+01 -3.04082E+01 -2.68916E+01 -2.47188E+01 -2.81820E+01 -1.37645E+01 -1.09190E+01
  -2.40034E+00 -2.89538E+00  3.29301E+00  5.88231E+00 -4.75484E-01 -2.60280E+00  1.55557E+00 -5.83966E+00 -1.40525E+00 -1.09427E+01
  -7.97897E+00 -1.04378E+01 -1.97902E+00 -3.91472E+00  5.38691E-01  1.28675E+00 -7.44860E+00 -1.51750E+01 -1.01416E+01 -1.18467E+01
  -1.39286E+01 -1.00903E+01 -1.13564E+01 -5.84836E+00  1.06445E+00  6.70281E+00  1.42191E+01  1.30206E+01  1.27089E+01  5.03106E+00
   2.98125E+00 -7.63604E+00 -1.17888E+01 -6.68384E+00 -8.97937E+00  1.26885E-01  1.09697E+01  1.15868E+01  1.00229E+01  5.25560E+00
   9.94038E+00  7.62494E+00  6.29945E+00  1.50520E+01  8.60079E+00  5.36024E+00  4.13016E+00  7.81785E+00  1.57036E+00  9.27348E+00
   8.42403E+00  4.83618E+00  2.69487E+00  2.34638E+00  7.87873E+00  9.66568E+00  1.24973E+01  1.78131E+01  1.87007E+01  2.16772E+01
   2.55264E+01  1.55637E+01  1.39149E+01  2.60635E+01  3.61777E+01  4.41605E+01  5.99635E+01  7.03085E+01  7.80824E+01  1.00512E+02
   1.31048E+02  1.47008E+02  1.38887E+02  1.05776E+02  7.41430E+01  4.59454E+01  2.91643E+01  2.31926E+01  1.98507E+01  1.97179E+01
   1.45427E+01  1.60634E+01  1.86937E+01  2.07398E+01  1.56237E+01  8.48206E+00  9.11001E+00  1.37696E+01  1.62373E+01  9.41587E+00
   8.24275E+00  7.12864E+00  1.18366E+01  8.00058E+00  6.83571E+00  6.31429E+00  5.85325E+00  5.36608E+00  7.95322E+00  4.67195E+00
   1.30601E+01  5.19390E+00  9.50000E+00  7.29908E+00  4.97266E+00  6.24855E+00  1.02791E+01  1.02222E+01  1.58957E+01  8.67939E+00
   1.12928E+01  1.11231E+01  1.28568E+01  1.26897E+01  9.72363E+00  1.72018E+01  1.24867E+01  1.64912E+01  1.55579E+01  1.62181E+01
   1.98197E+01  2.30548E+01  1.89605E+01  1.51099E+01  2.13956E+01  1.85416E+01  1.83463E+01  1.53157E+01  1.96301E+01  2.18098E+01
   1.97696E+01  1.92390E+01  1.64687E+01  1.82199E+01  2.03601E+01  2.52971E+01  2.42322E+01  2.50337E+01  2.48017E+01  2.44459E+01
   1.99068E+01  3.25356E+01  2.54858E+01  3.02083E+01  2.80952E+01  2.87258E+01  3.15926E+01  3.15905E+01  3.62429E+01  3.15159E+01
   2.93878E+01  2.78506E+01  2.66264E+01  2.72596E+01  2.42415E+01  3.37329E+01  3.39498E+01  2.55803E+01  3.40593E+01  2.46054E+01
   2.32226E+01  2.51592E+01  2.01967E+01  2.17945E+01  2.99174E+01  2.66947E+01  3.23456E+01  2.35148E+01  2.61295E+01  2.34933E+01
   2.64147E+01  2.06773E+01  2.80054E+01  2.75685E+01  2.52162E+01  1.81937E+01  1.86144E+01  1.81862E+01  2.08956E+01  1.93106E+01
   2.13813E+01  1.78420E+01  2.00771E+01  2.01302E+01  2.41514E+01  1.87765E+01  2.13584E+01  1.91338E+01  2.32129E+01  1.90267E+01
   2.30598E+01  1.78447E+01  2.41216E+01  2.14390E+01  2.09166E+01  2.22876E+01  2.18176E+01  1.62724E+01  1.83248E+01  1.81077E+01
   2.19336E+01  2.00878E+01  2.02307E+01  2.95066E+01  2.49479E+01  2.05756E+01  2.67588E+01  2.25974E+01  2.83112E+01  2.63878E+01
   2.55271E+01  2.90511E+01  2.55667E+01  2.34434E+01  2.84310E+01  2.30299E+01  2.95597E+01  2.99918E+01  2.51364E+01  2.45217E+01
   2.95852E+01  3.24292E+01  2.71375E+01  2.89004E+01  3.79544E+01  2.45852E+01  2.41835E+01  2.71979E+01  2.31283E+01  2.09003E+01
   2.81546E+01  1.86095E+01  1.91952E+01  2.04158E+01  2.50820E+01  1.77686E+01  2.02945E+01  1.76853E+01  2.84524E+01  1.57984E+01
   2.44674E+01  1.86687E+01  2.19231E+01  2.69337E+01  1.93975E+01  2.64133E+01  2.87891E+01  2.41987E+01  2.79466E+01  1.55508E+01
   1.80048E+01  2.04361E+01  2.66103E+01  1.89755E+01  1.82217E+01  2.38224E+01  1.75182E+01  2.41261E+01  2.14578E+01  2.17892E+01
   1.57005E+01  1.61645E+01  1.78760E+01  2.18297E+01  2.62083E+01  1.87543E+01  2.36723E+01  2.30074E+01  1.78494E+01  2.22550E+01
   2.39911E+01  2.18647E+01  1.58164E+01  2.17239E+01  2.12750E+01  2.04771E+01  2.15628E+01  1.78082E+01  1.85944E+01  2.10841E+01
   2.36199E+01  1.90520E+01  1.98957E+01  2.05707E+01  2.31790E+01  1.93482E+01  2.40916E+01  1.91872E+01  2.18382E+01  1.74263E+01
   2.59917E+01  1.96192E+01  2.61547E+01  1.93652E+01  2.18142E+01  2.50153E+01  1.89885E+01  2.23432E+01  1.40904E+01  2.15537E+01
   2.13539E+01  2.16031E+01  2.11027E+01  2.25399E+01  1.64733E+01  1.43790E+01  1.92767E+01  2.50726E+01
 NY points of the fit to the data follow
  -1.15220E+02 -1.14427E+02 -1.12570E+02 -1.08114E+02 -1.01464E+02 -9.35841E+01 -8.41230E+01 -7.21804E+01 -5.86047E+01 -4.69103E+01
  -4.15834E+01 -4.48164E+01 -5.47115E+01 -6.69033E+01 -7.76011E+01 -8.52764E+01 -9.01384E+01 -9.25119E+01 -9.33987E+01 -9.35440E+01
  -9.33110E+01 -9.28728E+01 -9.24767E+01 -9.19444E+01 -9.06203E+01 -8.88701E+01 -8.68502E+01 -8.40356E+01 -7.99731E+01 -7.49813E+01
  -7.02897E+01 -6.71630E+01 -6.62664E+01 -6.72688E+01 -6.93619E+01 -7.18516E+01 -7.43806E+01 -7.65789E+01 -7.80185E+01 -7.84766E+01
  -7.73617E+01 -7.45639E+01 -7.09122E+01 -6.70536E+01 -6.29178E+01 -5.83667E+01 -5.41796E+01 -5.18751E+01 -5.24920E+01 -5.56622E+01
  -5.98769E+01 -6.36318E+01 -6.60898E+01 -6.70055E+01 -6.65738E+01 -6.51460E+01 -6.32406E+01 -6.11615E+01 -5.90589E+01 -5.72687E+01
  -5.62412E+01 -5.62478E+01 -5.71485E+01 -5.83370E+01 -5.91644E+01 -5.91395E+01 -5.82077E+01 -5.66756E+01 -5.49610E+01 -5.32282E+01
  -5.15860E+01 -5.02284E+01 -4.92729E+01 -4.86866E+01 -4.83068E+01 -4.80028E+01 -4.77899E+01 -4.77487E+01 -4.78838E+01 -4.79257E+01
  -4.74177E+01 -4.62128E+01 -4.48219E+01 -4.32623E+01 -4.13349E+01 -3.92383E+01 -3.76394E+01 -3.72505E+01 -3.82430E+01 -3.98846E+01
  -4.11312E+01 -4.15558E+01 -4.12727E+01 -4.05723E+01 -3.95734E+01 -3.77810E+01 -3.31064E+01 -2.44847E+01 -1.42349E+01 -1.84062E+00
   1.49147E+01  3.52788E+01  5.34134E+01  6.14103E+01  5.50103E+01  3.72058E+01  1.57022E+01 -2.97450E+00 -1.64199E+01 -2.51776E+01
  -2.99075E+01 -3.14733E+01 -3.18554E+01 -3.18521E+01 -3.16934E+01 -3.14450E+01 -3.11074E+01 -3.06776E+01 -3.01000E+01 -2.91198E+01
  -2.62969E+01 -1.88520E+01 -9.13713E+00  1.56511E+00  1.56676E+01  3.45475E+01  5.43397E+01  6.71614E+01  6.63741E+01  5.20638E+01
   3.12388E+01  1.17387E+01 -2.71446E+00 -1.24831E+01 -1.89937E+01 -2.24309E+01 -2.42892E+01 -2.52579E+01 -2.51693E+01 -2.41019E+01
  -2.24810E+01 -2.08632E+01 -1.97146E+01 -1.92700E+01 -1.94151E+01 -1.98455E+01 -2.03014E+01 -2.06279E+01 -2.08227E+01 -2.09329E+01
  -2.09739E+01 -2.09921E+01 -2.09916E+01 -2.09379E+01 -2.08063E+01 -2.06841E+01 -2.05815E+01 -2.04342E+01 -2.03616E+01 -2.04788E+01
  -2.08655E+01 -2.13644E+01 -2.14752E+01 -2.08934E+01 -1.98799E+01 -1.90616E+01 -1.89230E+01 -1.94693E+01 -2.03073E+01 -2.10793E+01
  -2.16615E+01 -2.20686E+01 -2.22399E+01 -2.23226E+01 -2.25636E+01 -2.30121E+01 -2.32740E+01 -2.28635E+01 -2.18501E+01 -2.08424E+01
  -2.03465E+01 -2.03819E+01 -2.04650E+01 -2.00728E+01 -1.93112E+01 -1.84820E+01 -1.74587E+01 -1.59063E+01 -1.35973E+01 -1.07334E+01
  -8.01532E+00 -6.14701E+00 -5.57740E+00 -6.13292E+00 -7.26993E+00 -8.48011E+00 -9.37838E+00 -9.64605E+00 -9.04955E+00 -7.63368E+00
  -5.67790E+00 -3.55223E+00 -1.60344E+00 -9.09807E-02  4.86261E-01 -4.27159E-02 -1.71721E+00 -4.43933E+00 -7.58241E+00 -1.01048E+01
  -1.10847E+01 -1.02999E+01 -8.14858E+00 -4.88620E+00 -7.77731E-01  3.40606E+00  6.20303E+00  6.35808E+00  3.81157E+00 -2.75778E-01
  -4.75129E+00 -8.69800E+00 -1.10966E+01 -1.10445E+01 -8.29393E+00 -3.78474E+00  8.51126E-01  4.52452E+00  6.79088E+00  7.64659E+00
   7.37202E+00  6.67405E+00  6.30485E+00  6.60295E+00  7.50345E+00  8.77999E+00  1.00948E+01  1.09505E+01  1.10944E+01  1.05053E+01
   9.37094E+00  8.06247E+00  7.15072E+00  7.16131E+00  8.28300E+00  1.03028E+01  1.25915E+01  1.45219E+01  1.58289E+01  1.66968E+01
   1.76257E+01  1.87189E+01  2.02971E+01  2.32207E+01  3.02549E+01  4.31883E+01  5.67629E+01  7.02488E+01  8.75764E+01  1.10083E+02
   1.31549E+02  1.41443E+02  1.32719E+02  1.08291E+02  7.85797E+01  5.27289E+01  3.41522E+01  2.19126E+01  1.48810E+01  1.24227E+01
   1.15008E+01  1.09857E+01  1.07471E+01  1.07457E+01  1.08557E+01  1.09515E+01  1.09378E+01  1.08008E+01  1.05865E+01  1.03516E+01
   1.01354E+01  9.97334E+00  9.89511E+00  9.89674E+00  9.94182E+00  9.99600E+00  1.00497E+01  1.01058E+01  1.01709E+01  1.02528E+01
   1.03685E+01  1.05303E+01  1.07336E+01  1.09608E+01  1.11990E+01  1.14416E+01  1.16868E+01  1.19368E+01  1.21964E+01  1.24706E+01
   1.27644E+01  1.30770E+01  1.34022E+01  1.37313E+01  1.40564E+01  1.43719E+01  1.46750E+01  1.49657E+01  1.52470E+01  1.55223E+01
   1.57942E+01  1.60662E+01  1.63428E+01  1.66297E+01  1.69336E+01  1.72611E+01  1.76190E+01  1.80140E+01  1.84532E+01  1.89450E+01
   1.95010E+01  2.01348E+01  2.08120E+01  2.15041E+01  2.22258E+01  2.29650E+01  2.36551E+01  2.42151E+01  2.46169E+01  2.49495E+01
   2.53380E+01  2.58201E+01  2.63888E+01  2.70384E+01  2.77594E+01  2.85038E+01  2.91533E+01  2.95928E+01  2.97976E+01  2.98307E+01
   2.98059E+01  2.98502E+01  2.98883E+01  2.98067E+01  2.97097E+01  2.96149E+01  2.93119E+01  2.84889E+01  2.70436E+01  2.53919E+01
   2.40586E+01  2.33032E+01  2.32170E+01  2.38086E+01  2.49688E+01  2.63992E+01  2.75626E+01  2.79875E+01  2.76325E+01  2.67594E+01
   2.56852E+01  2.46101E+01  2.36118E+01  2.27785E+01  2.21256E+01  2.16018E+01  2.11801E+01  2.08427E+01  2.05747E+01  2.03626E+01
   2.01949E+01  2.00625E+01  1.99583E+01  1.98781E+01  1.98194E+01  1.97813E+01  1.97637E+01  1.97670E+01  1.97922E+01  1.98408E+01
   1.99146E+01  2.00155E+01  2.01450E+01  2.03047E+01  2.04964E+01  2.07216E+01  2.09821E+01  2.12788E+01  2.16122E+01  2.19823E+01
   2.23884E+01  2.28290E+01  2.33017E+01  2.38025E+01  2.43260E+01  2.48656E+01  2.54136E+01  2.59611E+01  2.64980E+01  2.70134E+01
   2.74957E+01  2.79337E+01  2.83168E+01  2.86355E+01  2.88812E+01  2.90473E+01  2.91295E+01  2.91260E+01  2.90376E+01  2.88676E+01
   2.86213E+01  2.83062E+01  2.79316E+01  2.75079E+01  2.70467E+01  2.65593E+01  2.60568E+01  2.55496E+01  2.50475E+01  2.45588E+01
   2.40907E+01  2.36485E+01  2.32360E+01  2.28558E+01  2.25095E+01  2.21975E+01  2.19191E+01  2.16730E+01  2.14573E+01  2.12697E+01
   2.11081E+01  2.09702E+01  2.08535E+01  2.07554E+01  2.06737E+01  2.06065E+01  2.05521E+01  2.05088E+01  2.04751E+01  2.04494E+01
   2.04307E+01  2.04182E+01  2.04110E+01  2.04084E+01  2.04096E+01  2.04139E+01  2.04209E+01  2.04304E+01  2.04419E+01  2.04552E+01
   2.04696E+01  2.04851E+01  2.05015E+01  2.05187E+01  2.05365E+01  2.05548E+01  2.05732E+01  2.05919E+01  2.06109E+01  2.06301E+01
   2.06494E+01  2.06687E+01  2.06878E+01  2.07069E+01  2.07261E+01  2.07452E+01  2.07643E+01  2.07831E+01  2.08017E+01  2.08202E+01
   2.08387E+01  2.08572E+01  2.08754E+01  2.08934E+01  2.09112E+01  2.09291E+01  2.09469E+01  2.09647E+01  2.09822E+01  2.09996E+01
   2.10170E+01  2.10345E+01  2.10520E+01  2.10694E+01  2.10868E+01  2.11042E+01  2.11217E+01  2.11394E+01  2.11573E+01  2.11753E+01
   2.11933E+01  2.12115E+01  2.12301E+01  2.12491E+01  2.12684E+01  2.12880E+01  2.13079E+01  2.13283E+01
 NY background values follow
    -1.204E+02   -1.194E+02   -1.185E+02   -1.176E+02   -1.166E+02   -1.157E+02   -1.147E+02   -1.138E+02   -1.129E+02   -1.119E+02
    -1.110E+02   -1.101E+02   -1.091E+02   -1.082E+02   -1.073E+02   -1.063E+02   -1.054E+02   -1.045E+02   -1.035E+02   -1.026E+02
    -1.017E+02   -1.008E+02   -9.984E+01   -9.892E+01   -9.800E+01   -9.709E+01   -9.618E+01   -9.527E+01   -9.436E+01   -9.346E+01
    -9.256E+01   -9.166E+01   -9.077E+01   -8.987E+01   -8.899E+01   -8.810E+01   -8.722E+01   -8.635E+01   -8.547E+01   -8.460E+01
    -8.374E+01   -8.288E+01   -8.202E+01   -8.117E+01   -8.033E+01   -7.948E+01   -7.865E+01   -7.781E+01   -7.699E+01   -7.616E+01
    -7.535E+01   -7.453E+01   -7.373E+01   -7.292E+01   -7.213E+01   -7.134E+01   -7.055E+01   -6.977E+01   -6.899E+01   -6.822E+01
    -6.746E+01   -6.670E+01   -6.595E+01   -6.520E+01   -6.446E+01   -6.372E+01   -6.299E+01   -6.226E+01   -6.154E+01   -6.083E+01
    -6.012E+01   -5.942E+01   -5.873E+01   -5.804E+01   -5.736E+01   -5.668E+01   -5.601E+01   -5.534E+01   -5.469E+01   -5.403E+01
    -5.339E+01   -5.275E+01   -5.212E+01   -5.149E+01   -5.087E+01   -5.026E+01   -4.965E+01   -4.905E+01   -4.846E+01   -4.788E+01
    -4.730E+01   -4.672E+01   -4.616E+01   -4.560E+01   -4.505E+01   -4.450E+01   -4.397E+01   -4.343E+01   -4.291E+01   -4.239E+01
    -4.188E+01   -4.137E+01   -4.087E+01   -4.038E+01   -3.989E+01   -3.941E+01   -3.893E+01   -3.846E+01   -3.800E+01   -3.754E+01
    -3.709E+01   -3.664E+01   -3.620E+01   -3.576E+01   -3.533E+01   -3.491E+01   -3.449E+01   -3.407E+01   -3.366E+01   -3.326E+01
    -3.286E+01   -3.247E+01   -3.208E+01   -3.169E+01   -3.131E+01   -3.094E+01   -3.057E+01   -3.020E+01   -2.984E+01   -2.949E+01
    -2.913E+01   -2.879E+01   -2.844E+01   -2.810E+01   -2.777E+01   -2.744E+01   -2.711E+01   -2.679E+01   -2.647E+01   -2.615E+01
    -2.584E+01   -2.554E+01   -2.523E+01   -2.493E+01   -2.463E+01   -2.434E+01   -2.404E+01   -2.375E+01   -2.347E+01   -2.318E+01
    -2.290E+01   -2.262E+01   -2.234E+01   -2.207E+01   -2.180E+01   -2.153E+01   -2.126E+01   -2.099E+01   -2.073E+01   -2.046E+01
    -2.020E+01   -1.994E+01   -1.968E+01   -1.942E+01   -1.916E+01   -1.890E+01   -1.865E+01   -1.839E+01   -1.814E+01   -1.788E+01
    -1.763E+01   -1.737E+01   -1.712E+01   -1.686E+01   -1.661E+01   -1.636E+01   -1.610E+01   -1.585E+01   -1.559E+01   -1.533E+01
    -1.508E+01   -1.482E+01   -1.456E+01   -1.430E+01   -1.404E+01   -1.378E+01   -1.351E+01   -1.325E+01   -1.299E+01   -1.272E+01
    -1.246E+01   -1.219E+01   -1.193E+01   -1.167E+01   -1.140E+01   -1.114E+01   -1.087E+01   -1.061E+01   -1.034E+01   -1.008E+01
    -9.814E+00   -9.551E+00   -9.289E+00   -9.027E+00   -8.765E+00   -8.505E+00   -8.245E+00   -7.986E+00   -7.728E+00   -7.471E+00
    -7.216E+00   -6.961E+00   -6.708E+00   -6.456E+00   -6.206E+00   -5.957E+00   -5.710E+00   -5.464E+00   -5.220E+00   -4.978E+00
    -4.738E+00   -4.500E+00   -4.264E+00   -4.030E+00   -3.798E+00   -3.568E+00   -3.341E+00   -3.116E+00   -2.893E+00   -2.673E+00
    -2.455E+00   -2.239E+00   -2.026E+00   -1.815E+00   -1.606E+00   -1.399E+00   -1.194E+00   -9.909E-01   -7.902E-01   -5.914E-01
    -3.946E-01   -1.998E-01   -6.847E-03    1.842E-01    3.735E-01    5.609E-01    7.466E-01    9.305E-01    1.113E+00    1.293E+00
     1.472E+00    1.649E+00    1.825E+00    1.999E+00    2.172E+00    2.343E+00    2.513E+00    2.681E+00    2.848E+00    3.014E+00
     3.178E+00    3.342E+00    3.503E+00    3.664E+00    3.823E+00    3.982E+00    4.139E+00    4.295E+00    4.450E+00    4.604E+00
     4.757E+00    4.909E+00    5.060E+00    5.211E+00    5.360E+00    5.509E+00    5.656E+00    5.803E+00    5.949E+00    6.094E+00
     6.238E+00    6.381E+00    6.523E+00    6.664E+00    6.805E+00    6.945E+00    7.083E+00    7.221E+00    7.358E+00    7.494E+00
     7.630E+00    7.764E+00    7.898E+00    8.031E+00    8.163E+00    8.294E+00    8.424E+00    8.553E+00    8.682E+00    8.810E+00
     8.937E+00    9.063E+00    9.188E+00    9.313E+00    9.436E+00    9.559E+00    9.681E+00    9.803E+00    9.923E+00    1.004E+01
     1.016E+01    1.028E+01    1.040E+01    1.051E+01    1.063E+01    1.074E+01    1.086E+01    1.097E+01    1.108E+01    1.120E+01
     1.131E+01    1.142E+01    1.153E+01    1.164E+01    1.174E+01    1.185E+01    1.196E+01    1.206E+01    1.217E+01    1.227E+01
     1.238E+01    1.248E+01    1.258E+01    1.268E+01    1.278E+01    1.288E+01    1.298E+01    1.308E+01    1.317E+01    1.327E+01
     1.336E+01    1.346E+01    1.355E+01    1.365E+01    1.374E+01    1.383E+01    1.392E+01    1.401E+01    1.410E+01    1.418E+01
     1.427E+01    1.436E+01    1.444E+01    1.453E+01    1.461E+01    1.469E+01    1.478E+01    1.486E+01    1.494E+01    1.502E+01
     1.510E+01    1.517E+01    1.525E+01    1.533E+01    1.540E+01    1.548E+01    1.555E+01    1.563E+01    1.570E+01    1.577E+01
     1.584E+01    1.591E+01    1.598E+01    1.605E+01    1.612E+01    1.618E+01    1.625E+01    1.632E+01    1.638E+01    1.645E+01
     1.652E+01    1.658E+01    1.664E+01    1.671E+01    1.677E+01    1.683E+01    1.690E+01    1.696E+01    1.702E+01    1.708E+01
     1.714E+01    1.720E+01    1.726E+01    1.732E+01    1.739E+01    1.745E+01    1.750E+01    1.756E+01    1.762E+01    1.768E+01
     1.774E+01    1.780E+01    1.786E+01    1.792E+01    1.798E+01    1.804E+01    1.810E+01    1.816E+01    1.822E+01    1.827E+01
     1.833E+01    1.839E+01    1.845E+01    1.851E+01    1.857E+01    1.863E+01    1.869E+01    1.875E+01    1.880E+01    1.886E+01
     1.892E+01    1.898E+01    1.904E+01    1.909E+01    1.915E+01    1.921E+01    1.926E+01    1.932E+01    1.937E+01    1.943E+01
     1.948E+01    1.954E+01    1.959E+01    1.964E+01    1.969E+01    1.975E+01    1.980E+01    1.985E+01    1.990E+01    1.995E+01
     1.999E+01    2.004E+01    2.009E+01    2.014E+01    2.018E+01    2.023E+01    2.027E+01    2.031E+01    2.036E+01    2.040E+01
     2.044E+01    2.048E+01    2.052E+01    2.055E+01    2.059E+01    2.063E+01    2.066E+01    2.069E+01    2.073E+01    2.076E+01
     2.079E+01    2.082E+01    2.085E+01    2.088E+01    2.091E+01    2.094E+01    2.096E+01    2.099E+01    2.102E+01    2.104E+01
     2.107E+01    2.109E+01    2.112E+01    2.114E+01    2.116E+01    2.118E+01    2.121E+01    2.123E+01    2.125E+01    2.127E+01
     2.129E+01    2.131E+01    2.133E+01    2.135E+01    2.137E+01    2.139E+01    2.141E+01    2.143E+01    2.145E+01    2.147E+01
     2.148E+01    2.150E+01    2.152E+01    2.154E+01    2.156E+01    2.158E+01    2.160E+01    2.161E+01
 Ala      Conc. = 6.02E+01
