 LCModel (Version 6.3-1L) Copyright: S.W. Provencher.          Ref.: Magn. Reson. Med. 30:672-679 (1993).                
 Slice#1 Row#4 Col#3  PD_24_press_2_raw_act
 36 lines in following concentration table = NCONC+1
    Conc.  %SD /Cr+PCr  Metabolite                                         
 2.18E+03  22%   1.341 Ala                                                 
    0.000 999%   0.000 Asp                                                 
    0.000 999%   0.000 Cr                                                  
 1.62E+03   9%   1.000 PCr                                                 
  239.051  93%   0.147 GABA                                                
  122.127 179% 7.5E-02 Glc                                                 
  489.576 222%   0.302 Gln                                                 
  777.887 162%   0.479 Glu                                                 
    0.000 999%   0.000 GPC                                                 
  713.285   8%   0.440 PCh                                                 
  506.707  45%   0.312 GSH                                                 
 1.01E+03  60%   0.625 Ins                                                 
    0.000 999%   0.000 Lac                                                 
 3.12E+03   6%   1.924 NAA                                                 
    0.000 999%   0.000 NAAG                                                
  124.393  45% 7.7E-02 Scyllo                                              
  318.738 104%   0.196 Tau                                                 
 1.12E+03  20%   0.689 -CrCH2                                              
  713.285   8%   0.440 GPC+PCh                                             
 3.12E+03   6%   1.924 NAA+NAAG                                            
 1.62E+03   9%   1.000 Cr+PCr                                              
 1.27E+03 161%   0.781 Glu+Gln                                             
    0.000 999%   0.000 Lip13a                                              
    0.000 999%   0.000 Lip13b                                              
    0.000 999%   0.000 Lip09                                               
 1.96E+03  14%   1.208 MM09                                                
 2.00E-02 999% 1.2E-05 Lip20                                               
 4.69E+03  13%   2.888 MM20                                                
  264.486  69%   0.163 MM12                                                
 2.44E+03  10%   1.505 MM14                                                
 1.50E+03  22%   0.927 MM17                                                
    0.000 999%   0.000 Lip13a+Lip13b                                       
 2.71E+03  12%   1.668 MM14+Lip13a+Lip13b+MM12                             
 1.96E+03  14%   1.208 MM09+Lip09                                          
 4.69E+03  13%   2.888 MM20+Lip20                                          
   6 lines in following misc. output table
  FWHM = 0.092 ppm    S/N =   6                                            
  Data shift =-0.038 ppm                                                   
  Ph: -29 deg      -9.7 deg/ppm                                            
  alphaB,S = 8.5E+01,   5.6E+01                                            
   14 spline knots.   Ns = 6(2)                                            
   4 inflections.     1 extrema                                            
  498 points on ppm-axis = NY
      4.000000     3.992357     3.984714     3.977070     3.969427     3.961784     3.954141     3.946497     3.938854     3.931211
      3.923568     3.915925     3.908281     3.900638     3.892995     3.885352     3.877708     3.870065     3.862422     3.854779
      3.847136     3.839492     3.831849     3.824206     3.816563     3.808919     3.801276     3.793633     3.785990     3.778347
      3.770703     3.763060     3.755417     3.747774     3.740130     3.732487     3.724844     3.717201     3.709558     3.701914
      3.694271     3.686628     3.678985     3.671341     3.663698     3.656055     3.648412     3.640769     3.633125     3.625482
      3.617839     3.610196     3.602552     3.594909     3.587266     3.579623     3.571980     3.564336     3.556693     3.549050
      3.541407     3.533763     3.526120     3.518477     3.510834     3.503191     3.495547     3.487904     3.480261     3.472618
      3.464974     3.457331     3.449688     3.442045     3.434402     3.426758     3.419115     3.411472     3.403829     3.396185
      3.388542     3.380899     3.373256     3.365613     3.357969     3.350326     3.342683     3.335040     3.327396     3.319753
      3.312110     3.304467     3.296824     3.289180     3.281537     3.273894     3.266251     3.258607     3.250964     3.243321
      3.235678     3.228034     3.220391     3.212748     3.205105     3.197462     3.189818     3.182175     3.174532     3.166889
      3.159245     3.151602     3.143959     3.136316     3.128673     3.121029     3.113386     3.105743     3.098100     3.090456
      3.082813     3.075170     3.067527     3.059884     3.052240     3.044597     3.036954     3.029311     3.021667     3.014024
      3.006381     2.998738     2.991095     2.983451     2.975808     2.968165     2.960522     2.952878     2.945235     2.937592
      2.929949     2.922306     2.914662     2.907019     2.899376     2.891733     2.884089     2.876446     2.868803     2.861160
      2.853517     2.845873     2.838230     2.830587     2.822944     2.815300     2.807657     2.800014     2.792371     2.784728
      2.777084     2.769441     2.761798     2.754155     2.746511     2.738868     2.731225     2.723582     2.715939     2.708295
      2.700652     2.693009     2.685366     2.677722     2.670079     2.662436     2.654793     2.647150     2.639506     2.631863
      2.624220     2.616577     2.608933     2.601290     2.593647     2.586004     2.578361     2.570717     2.563074     2.555431
      2.547788     2.540144     2.532501     2.524858     2.517215     2.509572     2.501928     2.494285     2.486642     2.478999
      2.471355     2.463712     2.456069     2.448426     2.440783     2.433139     2.425496     2.417853     2.410210     2.402566
      2.394923     2.387280     2.379637     2.371994     2.364350     2.356707     2.349064     2.341421     2.333777     2.326134
      2.318491     2.310848     2.303205     2.295561     2.287918     2.280275     2.272632     2.264988     2.257345     2.249702
      2.242059     2.234416     2.226772     2.219129     2.211486     2.203843     2.196199     2.188556     2.180913     2.173270
      2.165627     2.157983     2.150340     2.142697     2.135054     2.127410     2.119767     2.112124     2.104481     2.096838
      2.089194     2.081551     2.073908     2.066265     2.058621     2.050978     2.043335     2.035692     2.028049     2.020405
      2.012762     2.005119     1.997476     1.989833     1.982190     1.974546     1.966903     1.959260     1.951617     1.943974
      1.936331     1.928688     1.921045     1.913402     1.905759     1.898115     1.890472     1.882829     1.875186     1.867543
      1.859900     1.852257     1.844614     1.836971     1.829327     1.821684     1.814041     1.806398     1.798755     1.791112
      1.783469     1.775826     1.768183     1.760540     1.752896     1.745253     1.737610     1.729967     1.722324     1.714681
      1.707038     1.699395     1.691752     1.684108     1.676465     1.668822     1.661179     1.653536     1.645893     1.638250
      1.630607     1.622964     1.615321     1.607677     1.600034     1.592391     1.584748     1.577105     1.569462     1.561819
      1.554176     1.546533     1.538890     1.531246     1.523603     1.515960     1.508317     1.500674     1.493031     1.485388
      1.477745     1.470102     1.462458     1.454815     1.447172     1.439529     1.431886     1.424243     1.416600     1.408957
      1.401314     1.393671     1.386027     1.378384     1.370741     1.363098     1.355455     1.347812     1.340169     1.332526
      1.324883     1.317240     1.309596     1.301953     1.294310     1.286667     1.279024     1.271381     1.263738     1.256095
      1.248452     1.240808     1.233165     1.225522     1.217879     1.210236     1.202593     1.194950     1.187307     1.179664
      1.172021     1.164377     1.156734     1.149091     1.141448     1.133805     1.126162     1.118519     1.110876     1.103233
      1.095590     1.087946     1.080303     1.072660     1.065017     1.057374     1.049731     1.042088     1.034445     1.026802
      1.019158     1.011515     1.003872     0.996229     0.988586     0.980943     0.973300     0.965657     0.958014     0.950371
      0.942727     0.935084     0.927441     0.919798     0.912155     0.904512     0.896869     0.889226     0.881583     0.873940
      0.866296     0.858653     0.851010     0.843367     0.835724     0.828081     0.820438     0.812795     0.805152     0.797508
      0.789865     0.782222     0.774579     0.766936     0.759293     0.751650     0.744007     0.736364     0.728721     0.721077
      0.713434     0.705791     0.698148     0.690505     0.682862     0.675219     0.667576     0.659933     0.652290     0.644646
      0.637003     0.629360     0.621717     0.614074     0.606431     0.598788     0.591145     0.583502     0.575858     0.568215
      0.560572     0.552929     0.545286     0.537643     0.530000     0.522357     0.514714     0.507071     0.499427     0.491784
      0.484141     0.476498     0.468855     0.461212     0.453569     0.445925     0.438282     0.430639     0.422996     0.415353
      0.407710     0.400067     0.392424     0.384780     0.377137     0.369494     0.361851     0.354208     0.346565     0.338922
      0.331278     0.323635     0.315992     0.308349     0.300706     0.293063     0.285420     0.277777     0.270133     0.262490
      0.254847     0.247204     0.239561     0.231918     0.224275     0.216631     0.208988     0.201345
 NY phased data points follow
  -1.91477E+01 -7.32902E+00 -9.93785E+00 -6.18057E+00 -9.24117E+00 -1.06211E+01 -4.49921E+00 -1.07325E+01 -2.34497E+00 -9.50127E+00
   1.26766E+01  8.27912E+00 -9.73852E+00  3.66057E-01 -6.92866E+00 -1.35651E+01 -1.13510E+00 -1.42872E+00 -4.28274E+00 -5.39395E+00
  -4.83541E+00 -9.22639E+00  6.33087E-02 -1.44787E+01 -7.85024E-01 -7.95738E+00 -2.83308E+00 -1.74216E+01 -1.59165E+00 -2.20657E+00
  -4.49460E+00 -3.94668E+00 -3.10704E+00 -2.33376E+00  5.53012E-01  3.14927E+00  7.04075E-01  2.01269E+00 -6.17048E-01  4.30859E+00
  -6.59570E+00 -3.21733E+00  3.48468E+00 -4.10071E+00 -4.69401E+00 -5.08216E+00  3.20058E+00  1.88622E+00 -1.48309E-01  9.43768E+00
  -8.13730E+00 -6.90316E+00  7.25134E-01 -1.73703E+00 -4.90002E+00 -1.70011E+00 -3.62927E+00 -1.57622E+00 -1.36277E+00 -7.99202E+00
   9.55110E-01 -3.49837E+00 -7.86388E+00 -1.24118E+00 -7.68153E+00 -1.13227E+01 -6.37271E+00 -7.37262E+00 -3.88284E+00 -1.08676E+01
   1.98007E-01 -4.56471E+00 -5.72301E+00 -8.71753E+00 -8.13875E+00 -1.84997E+00  9.59136E+00 -6.32305E+00 -3.45604E+00 -9.27698E+00
   2.69204E+00 -3.28680E+00  2.78164E+00 -1.70978E+00  2.63079E+00 -1.30093E+01  6.13569E+00 -3.16880E+00 -5.30455E+00  1.36215E+00
   4.75142E+00 -5.30548E+00  1.08662E+01 -4.93718E+00  1.98587E+00  4.74943E+00  1.03634E+01  1.89044E+01  1.57129E+01  1.74308E+01
   1.89728E+01  3.53380E+01  2.81915E+01  3.74671E+01  4.41422E+01  3.54370E+01  3.42921E+01  2.83709E+01  2.78145E+01  7.50361E+00
   1.49219E+01  2.45149E+01  4.02634E-01  6.36966E+00  7.05858E+00  5.32625E+00  7.22918E+00  1.38264E+01  1.22817E+01 -4.53198E+00
   4.63393E+00 -4.82288E+00  1.25535E+01  1.00199E+01  1.73338E+01  2.66731E+01  3.47092E+01  2.61158E+01  2.95676E+01  3.36690E+01
   3.92606E+01  3.04085E+01  3.04339E+01  1.61846E+01  7.45192E+00  2.04663E+00 -8.47716E-01  1.32592E+01  4.64865E+00  6.71075E+00
  -2.58228E+00 -4.18725E+00 -2.48972E-01 -5.19777E-01 -6.44869E-01 -2.61545E+00  1.00960E+01  4.74973E+00 -1.37024E+00 -9.47467E+00
  -9.38933E+00  5.27112E+00 -6.47141E-01 -1.21069E+00 -3.26258E+00 -1.15456E+01 -3.75979E+00 -8.87085E+00  9.46387E+00  1.35370E+00
  -1.32825E+00 -7.75869E+00  1.96419E+00  3.15307E+00 -7.09268E+00 -8.33614E+00 -4.96457E+00 -5.65135E+00 -5.89822E+00 -1.36701E+01
  -4.26542E+00 -1.31844E+01 -2.14218E+01 -2.49597E+01 -1.85124E+01 -2.13004E+01 -1.09990E+01 -2.28355E+01 -1.26463E+01 -1.86625E+01
  -2.18576E+01 -7.97371E+00 -2.18338E+00 -1.57707E+01 -9.71576E+00 -9.55279E+00 -6.31348E+00 -1.54277E+01 -8.76526E+00 -7.84413E+00
  -9.76767E-01 -1.00600E+00  2.82990E+00 -3.96441E+00  4.82968E+00 -1.59480E+00  8.30332E+00  4.04200E+00 -6.26673E+00 -5.59297E+00
  -5.75631E+00  7.55752E-01 -1.58861E+00 -2.81714E+00 -7.06709E+00 -3.14744E+00  2.63930E+00  4.09683E+00  1.17162E+00 -9.97811E-01
  -1.36326E+01  2.68788E+00  5.97858E+00  1.45293E+00  5.93229E+00  8.38864E+00  8.78587E+00  7.65941E+00  4.13734E+00  6.34071E+00
   1.84020E+00 -2.87227E+00  4.46830E+00 -1.78840E+00  7.62023E+00  8.81773E+00  1.21655E+01  3.15526E+00  1.08201E+01 -7.30282E+00
   1.23343E+01  4.92932E-01  7.33448E+00  1.27298E+01  9.95375E+00  1.32551E+01  1.15135E+01  1.46861E+01  7.28512E+00  1.29506E+01
   1.09285E+01  9.33488E+00  1.86306E+01  6.24878E+00  8.83147E+00  1.46719E+01  2.31473E+01  1.40489E+01  1.18650E+01  2.53221E+01
   2.59077E+01  2.04805E+01  3.73646E+01  2.49661E+01  3.40977E+01  4.51443E+01  5.21246E+01  6.53725E+01  6.12157E+01  6.85105E+01
   6.92202E+01  6.99698E+01  7.23755E+01  6.27865E+01  6.28831E+01  5.21491E+01  4.50782E+01  3.70073E+01  2.78580E+01  2.76480E+01
   3.02770E+01  2.42510E+01  9.97224E+00  2.72389E+01  2.04505E+01  1.72050E+01  2.00147E+01  7.82733E+00  1.21558E+01  1.72603E+01
   5.38743E+00  4.18734E+00  5.84093E+00  2.32441E-01  4.99792E+00  7.93443E+00 -2.76693E+00 -2.19574E+00  1.06895E+01  1.13236E+01
   7.80677E+00  6.30148E+00  2.02714E+01  1.51950E+01  1.92692E+00  5.54143E+00  5.71986E+00 -2.01873E-01  4.84631E+00 -5.50408E-01
   6.95890E-01  3.80745E+00 -4.70630E+00 -2.78194E+00  7.50588E+00 -8.75937E+00  3.92485E-01 -4.49477E+00 -5.68316E+00 -1.20845E+01
  -1.47135E+01 -1.04438E+01 -1.01604E+01 -1.16878E+01  2.87834E+00  7.12714E+00  9.70687E+00  2.02083E+01  1.66603E+01  2.31960E+01
   2.50282E+01  1.46254E+01  2.04995E+01  2.18252E+01  2.05417E+01  2.31524E+01  2.16818E+01  2.46058E+01  1.82925E+01  1.83396E+01
   2.29123E+01  3.56944E+00  4.23709E+00  2.08803E+00  1.50848E+00  1.93043E+00  8.68262E+00  1.06674E+01  7.12205E+00  1.20819E+01
   6.46752E+00  1.42858E+01  9.57235E+00  1.52159E+01  1.02422E+01  1.59844E+01  6.33150E+00 -1.64571E+00  3.68094E+00 -1.42718E+00
   6.03476E+00 -3.67359E+00  2.60502E+00 -5.73653E-01 -4.93750E-02  5.30586E+00 -8.74218E+00 -1.13434E+01 -9.21001E+00 -5.88796E+00
   2.88600E+00 -4.78868E+00  1.11005E+00 -5.88724E+00 -4.83749E+00 -1.34793E+01 -8.69027E-01 -1.22057E+01 -2.05983E+01 -1.23425E+00
  -7.63619E+00 -9.57497E+00 -6.34237E+00 -1.12779E+00  6.06441E+00 -5.61562E+00 -5.15404E+00  1.34124E+00 -4.08494E+00 -4.99831E+00
  -5.57201E+00 -1.19420E+01 -4.25109E+00 -1.51689E+01  2.23672E+00 -3.98025E+00  9.32942E+00  3.00299E+00 -2.37636E+00  1.24120E+00
   8.55808E+00 -6.00451E+00  2.23872E+00  1.67151E+00  1.21712E+01  1.96680E+00  2.47406E+00  3.10749E+00  1.06282E+01  2.91307E+00
   7.49103E+00  5.18515E+00  7.55681E+00  6.62919E+00  1.39465E+01  1.08768E+01  1.85857E+01  1.54136E+01  3.98409E+00  7.30641E+00
   1.78048E+01  1.55217E+01  9.59886E+00  1.15414E+01  1.22134E+01  8.66584E+00  6.61437E+00  1.04265E+00  1.30446E+01  1.27317E+00
   7.59473E+00 -7.41624E-01 -5.33660E+00  6.10719E+00  8.56729E+00  2.68534E+00 -5.35763E+00 -6.95513E-01  6.06116E+00  4.64286E+00
   1.27687E+00  4.44197E+00  3.43048E+00  4.51931E+00  1.11421E-01 -3.12037E-01  5.88147E+00 -1.37081E+00  9.15226E+00  6.35606E+00
  -3.08709E+00 -7.63711E+00  4.35520E+00  1.14919E+00  7.87034E+00 -4.91865E-01 -1.41193E+00  8.89756E+00  1.58909E+00  7.01904E+00
   5.39083E+00  9.26686E+00 -6.54520E+00 -3.89861E+00 -6.51378E+00 -6.95532E+00 -9.97984E-01  3.33960E+00  1.53427E+00 -7.97445E+00
  -1.38965E+01 -7.08060E+00  1.69634E+00 -1.88472E-01  3.84609E+00  4.40645E-01 -4.22736E+00 -3.37453E+00 -1.02148E+01 -6.18260E+00
   2.28578E-01 -4.48265E-01  6.24102E+00 -7.95532E+00 -5.82118E+00 -3.84591E+00 -4.78962E+00 -3.61510E+00 -2.37898E+00 -2.88714E+00
  -5.23856E+00 -5.17233E+00  9.25717E+00  3.09341E+00 -7.37097E+00 -2.94306E-01 -3.03535E+00  4.38386E-01  3.95505E+00 -9.29891E-01
   4.72874E+00 -2.07333E+00  5.31022E+00 -5.72300E+00  2.15502E+00  5.20574E+00  1.02599E+01  3.32966E+00
 NY points of the fit to the data follow
  -5.96980E+00 -5.41866E+00 -6.22149E+00 -5.69519E+00 -5.92899E+00 -5.68607E+00 -4.40585E+00 -5.33116E+00 -1.81964E+00 -4.48926E+00
   7.27934E-01 -3.82598E+00  1.87079E+00 -3.68020E+00  1.17785E+00 -4.29876E+00 -1.35922E+00 -5.31622E+00 -3.00763E+00 -5.43411E+00
  -2.73609E+00 -4.59313E+00 -2.14267E+00 -3.90362E+00 -3.19924E+00 -3.91625E+00 -2.49220E+00 -3.44884E+00 -1.64804E+00 -2.70519E+00
  -4.92207E-01 -1.58646E+00  6.65712E-01 -5.20457E-01  1.05320E+00 -5.04578E-01  2.48831E-01 -1.76989E+00 -1.19222E+00 -3.31389E+00
  -2.45497E+00 -3.90535E+00 -2.99253E+00 -4.19854E+00 -3.42865E+00 -4.21089E+00 -3.06034E+00 -3.70789E+00 -3.09380E+00 -3.66429E+00
  -3.20562E+00 -3.99317E+00 -3.83043E+00 -4.63025E+00 -4.45704E+00 -4.83638E+00 -4.48257E+00 -4.51644E+00 -4.16038E+00 -4.26860E+00
  -4.07668E+00 -4.49479E+00 -4.36948E+00 -4.55308E+00 -4.28747E+00 -4.38103E+00 -4.26689E+00 -4.31734E+00 -4.16946E+00 -4.07012E+00
  -3.82567E+00 -3.73899E+00 -3.42537E+00 -3.49336E+00 -3.11586E+00 -3.31299E+00 -2.83724E+00 -3.14601E+00 -2.62364E+00 -3.01989E+00
  -2.27011E+00 -2.76601E+00 -1.62661E+00 -2.27254E+00 -8.73201E-01 -1.80951E+00 -5.15652E-01 -1.82102E+00 -8.45241E-01 -2.24954E+00
  -1.36490E+00 -1.40033E+00 -2.94404E-01  1.02813E+00  2.46730E+00  4.89941E+00  6.78947E+00  1.10142E+01  1.33776E+01  1.98582E+01
   2.22435E+01  2.97759E+01  3.15600E+01  3.67986E+01  3.64875E+01  3.70446E+01  3.45986E+01  3.08396E+01  2.70870E+01  2.08426E+01
   1.74007E+01  1.28163E+01  1.06957E+01  8.33363E+00  6.98387E+00  5.07560E+00  3.93007E+00  1.51048E+00  1.85738E+00  3.50301E+00
   5.32685E+00  8.25281E+00  1.11064E+01  1.53115E+01  1.90944E+01  2.32382E+01  2.70688E+01  2.89226E+01  3.16124E+01  2.96505E+01
   3.05100E+01  2.51952E+01  2.43788E+01  1.73524E+01  1.58964E+01  1.05183E+01  9.59408E+00  6.25493E+00  5.82721E+00  2.46098E+00
   1.87947E+00 -1.89591E+00 -2.13769E+00 -2.85421E+00 -2.39757E+00 -3.10748E+00 -2.90567E+00 -3.58204E+00 -3.58941E+00 -4.01662E+00
  -3.96984E+00 -4.37226E+00 -4.33132E+00 -4.77855E+00 -4.87748E+00 -5.32655E+00 -5.46708E+00 -5.89896E+00 -5.94230E+00 -6.37388E+00
  -6.36794E+00 -6.71460E+00 -6.73779E+00 -6.96233E+00 -7.14049E+00 -7.25617E+00 -7.58577E+00 -7.67778E+00 -8.14101E+00 -8.42478E+00
  -8.93910E+00 -9.40444E+00 -9.71340E+00 -1.00931E+01 -1.01507E+01 -1.04438E+01 -1.03090E+01 -1.08104E+01 -1.03340E+01 -1.08795E+01
  -9.96618E+00 -1.03764E+01 -9.34833E+00 -9.69913E+00 -8.64900E+00 -8.74769E+00 -7.59740E+00 -7.25542E+00 -6.00582E+00 -5.36940E+00
  -4.30648E+00 -3.63418E+00 -3.16740E+00 -2.45325E+00 -2.49752E+00 -1.83639E+00 -2.31632E+00 -1.73840E+00 -2.17823E+00 -1.32433E+00
  -1.46590E+00 -6.46528E-01 -7.11024E-01 -3.86963E-01 -3.63044E-01 -5.42207E-01 -7.00140E-01 -1.23973E+00 -1.50621E+00 -2.16124E+00
  -2.16669E+00 -2.64653E+00 -1.87860E+00 -2.19549E+00 -1.00644E+00 -1.34922E+00 -1.28456E-01 -6.79094E-01  1.04140E-01 -3.40234E-01
   1.20242E-01  1.65569E-02  4.75813E-01  8.31242E-01  1.55337E+00  2.20156E+00  2.79619E+00  3.53933E+00  3.81901E+00  4.35141E+00
   4.38636E+00  5.05991E+00  5.35695E+00  6.21697E+00  6.83134E+00  7.83597E+00  8.62980E+00  9.39147E+00  1.00162E+01  1.03104E+01
   1.10372E+01  1.10977E+01  1.20377E+01  1.21281E+01  1.33582E+01  1.36918E+01  1.51442E+01  1.59335E+01  1.87451E+01  2.03647E+01
   2.39206E+01  2.60748E+01  2.99735E+01  3.30967E+01  3.87954E+01  4.32749E+01  5.11259E+01  5.65497E+01  6.42288E+01  6.86893E+01
   7.22084E+01  7.38865E+01  7.06325E+01  6.88315E+01  5.98482E+01  5.54252E+01  4.37083E+01  3.89984E+01  3.05063E+01  2.73950E+01
   2.25892E+01  2.03538E+01  1.54537E+01  1.28501E+01  7.06192E+00  5.56409E+00  5.40340E+00  5.47878E+00  5.64872E+00  5.83788E+00
   6.08741E+00  6.28504E+00  6.55567E+00  6.77033E+00  7.04570E+00  7.20022E+00  7.38042E+00  7.41546E+00  7.42346E+00  7.29914E+00
   7.12963E+00  6.83056E+00  6.50371E+00  6.07239E+00  5.61308E+00  5.09191E+00  4.56335E+00  4.00035E+00  3.46779E+00  2.92247E+00
   2.44401E+00  1.98367E+00  1.62422E+00  1.29702E+00  1.09230E+00  9.41373E-01  9.31641E-01  9.85450E-01  1.20244E+00  1.49617E+00
   1.97113E+00  2.54653E+00  3.33322E+00  4.26863E+00  5.51152E+00  7.05958E+00  8.53047E+00  1.02499E+01  1.18109E+01  1.34766E+01
   1.51215E+01  1.67278E+01  1.80641E+01  1.93659E+01  2.02394E+01  2.00613E+01  2.00778E+01  1.73465E+01  1.66041E+01  1.17585E+01
   1.15968E+01  6.39805E+00  8.44184E+00  4.30731E+00  9.35534E+00  6.93212E+00  1.33399E+01  1.08827E+01  1.61252E+01  1.21650E+01
   1.52947E+01  1.05705E+01  1.20364E+01  9.40466E+00  9.62138E+00  7.52078E+00  7.76516E+00  5.92430E+00  5.66596E+00  3.50872E+00
   1.87299E+00  8.75085E-01  2.33567E-01 -2.57799E-01 -5.79411E-01 -8.43707E-01 -9.96589E-01 -1.13262E+00 -1.18811E+00 -1.25010E+00
  -1.25044E+00 -1.27173E+00 -1.24330E+00 -1.24460E+00 -1.20333E+00 -1.19646E+00 -1.15073E+00 -1.14125E+00 -1.09423E+00 -1.08322E+00
  -1.03413E+00 -1.01929E+00 -9.64657E-01 -9.41596E-01 -8.76227E-01 -8.38996E-01 -7.56270E-01 -6.97742E-01 -5.90146E-01 -5.02419E-01
  -3.61533E-01 -2.35561E-01 -5.16997E-02  1.22767E-01  3.60373E-01  5.94634E-01  8.97803E-01  1.20399E+00  1.58472E+00  1.97411E+00
   2.44232E+00  2.92274E+00  3.48331E+00  4.05560E+00  4.70414E+00  5.35752E+00  6.07591E+00  6.78427E+00  7.53799E+00  8.25829E+00
   8.99617E+00  9.67012E+00  1.03285E+01  1.08892E+01  1.14007E+01  1.17833E+01  1.20883E+01  1.22416E+01  1.23004E+01  1.21985E+01
   1.20003E+01  1.16481E+01  1.12137E+01  1.06469E+01  1.00249E+01  9.30257E+00  8.55965E+00  7.75257E+00  6.96042E+00  6.13833E+00
   5.36199E+00  4.58309E+00  3.87229E+00  3.17684E+00  2.56215E+00  1.97132E+00  1.46522E+00  9.83711E-01  5.84226E-01  2.04730E-01
  -9.94008E-02 -3.90817E-01 -6.15128E-01 -8.34771E-01 -9.95651E-01 -1.15939E+00 -1.27170E+00 -1.39311E+00 -1.46907E+00 -1.55906E+00
  -1.60833E+00 -1.67529E+00 -1.70500E+00 -1.75497E+00 -1.77027E+00 -1.80770E+00 -1.81242E+00 -1.84051E+00 -1.83726E+00 -1.85820E+00
  -1.84888E+00 -1.86436E+00 -1.85045E+00 -1.86166E+00 -1.84411E+00 -1.85188E+00 -1.83145E+00 -1.83652E+00 -1.81385E+00 -1.81668E+00
  -1.79214E+00 -1.79311E+00 -1.76708E+00 -1.76655E+00 -1.73932E+00 -1.73748E+00 -1.70919E+00 -1.70622E+00 -1.67712E+00 -1.67323E+00
  -1.64342E+00 -1.63866E+00 -1.60820E+00 -1.60271E+00 -1.57176E+00 -1.56563E+00 -1.53419E+00 -1.52741E+00 -1.49554E+00 -1.48820E+00
  -1.45599E+00 -1.44812E+00 -1.41551E+00 -1.40708E+00 -1.37411E+00 -1.36518E+00 -1.33188E+00 -1.32240E+00 -1.28867E+00 -1.27860E+00
  -1.24446E+00 -1.23381E+00 -1.19919E+00 -1.18782E+00 -1.15257E+00 -1.14038E+00 -1.10445E+00 -1.09131E+00
 NY background values follow
    -9.542E+00   -9.524E+00   -9.505E+00   -9.487E+00   -9.468E+00   -9.450E+00   -9.431E+00   -9.413E+00   -9.394E+00   -9.376E+00
    -9.357E+00   -9.339E+00   -9.320E+00   -9.302E+00   -9.283E+00   -9.265E+00   -9.246E+00   -9.228E+00   -9.209E+00   -9.191E+00
    -9.172E+00   -9.153E+00   -9.135E+00   -9.116E+00   -9.098E+00   -9.079E+00   -9.061E+00   -9.042E+00   -9.024E+00   -9.005E+00
    -8.987E+00   -8.968E+00   -8.949E+00   -8.931E+00   -8.912E+00   -8.894E+00   -8.875E+00   -8.857E+00   -8.838E+00   -8.820E+00
    -8.801E+00   -8.782E+00   -8.764E+00   -8.745E+00   -8.727E+00   -8.708E+00   -8.690E+00   -8.671E+00   -8.652E+00   -8.634E+00
    -8.615E+00   -8.597E+00   -8.578E+00   -8.560E+00   -8.541E+00   -8.522E+00   -8.504E+00   -8.485E+00   -8.467E+00   -8.448E+00
    -8.429E+00   -8.411E+00   -8.392E+00   -8.374E+00   -8.355E+00   -8.336E+00   -8.318E+00   -8.299E+00   -8.281E+00   -8.262E+00
    -8.243E+00   -8.225E+00   -8.206E+00   -8.188E+00   -8.169E+00   -8.150E+00   -8.132E+00   -8.113E+00   -8.094E+00   -8.076E+00
    -8.057E+00   -8.039E+00   -8.020E+00   -8.001E+00   -7.983E+00   -7.964E+00   -7.945E+00   -7.927E+00   -7.908E+00   -7.890E+00
    -7.871E+00   -7.852E+00   -7.834E+00   -7.815E+00   -7.796E+00   -7.778E+00   -7.759E+00   -7.740E+00   -7.722E+00   -7.703E+00
    -7.685E+00   -7.666E+00   -7.647E+00   -7.629E+00   -7.610E+00   -7.591E+00   -7.573E+00   -7.554E+00   -7.535E+00   -7.517E+00
    -7.498E+00   -7.479E+00   -7.461E+00   -7.442E+00   -7.423E+00   -7.405E+00   -7.386E+00   -7.367E+00   -7.349E+00   -7.330E+00
    -7.312E+00   -7.293E+00   -7.274E+00   -7.256E+00   -7.237E+00   -7.218E+00   -7.200E+00   -7.181E+00   -7.162E+00   -7.144E+00
    -7.125E+00   -7.106E+00   -7.088E+00   -7.069E+00   -7.050E+00   -7.032E+00   -7.013E+00   -6.994E+00   -6.976E+00   -6.957E+00
    -6.938E+00   -6.920E+00   -6.901E+00   -6.882E+00   -6.863E+00   -6.845E+00   -6.826E+00   -6.807E+00   -6.789E+00   -6.770E+00
    -6.751E+00   -6.733E+00   -6.714E+00   -6.695E+00   -6.677E+00   -6.658E+00   -6.639E+00   -6.621E+00   -6.602E+00   -6.583E+00
    -6.565E+00   -6.546E+00   -6.527E+00   -6.509E+00   -6.490E+00   -6.471E+00   -6.453E+00   -6.434E+00   -6.415E+00   -6.397E+00
    -6.378E+00   -6.359E+00   -6.340E+00   -6.322E+00   -6.303E+00   -6.284E+00   -6.266E+00   -6.247E+00   -6.228E+00   -6.210E+00
    -6.191E+00   -6.172E+00   -6.154E+00   -6.135E+00   -6.116E+00   -6.098E+00   -6.079E+00   -6.060E+00   -6.042E+00   -6.023E+00
    -6.004E+00   -5.985E+00   -5.967E+00   -5.948E+00   -5.929E+00   -5.911E+00   -5.892E+00   -5.873E+00   -5.855E+00   -5.836E+00
    -5.817E+00   -5.799E+00   -5.780E+00   -5.761E+00   -5.743E+00   -5.724E+00   -5.705E+00   -5.686E+00   -5.668E+00   -5.649E+00
    -5.630E+00   -5.612E+00   -5.593E+00   -5.574E+00   -5.556E+00   -5.537E+00   -5.518E+00   -5.500E+00   -5.481E+00   -5.462E+00
    -5.444E+00   -5.425E+00   -5.406E+00   -5.388E+00   -5.369E+00   -5.350E+00   -5.332E+00   -5.313E+00   -5.294E+00   -5.275E+00
    -5.257E+00   -5.238E+00   -5.219E+00   -5.201E+00   -5.182E+00   -5.163E+00   -5.145E+00   -5.126E+00   -5.107E+00   -5.089E+00
    -5.070E+00   -5.051E+00   -5.033E+00   -5.014E+00   -4.995E+00   -4.977E+00   -4.958E+00   -4.939E+00   -4.921E+00   -4.902E+00
    -4.883E+00   -4.865E+00   -4.846E+00   -4.827E+00   -4.809E+00   -4.790E+00   -4.771E+00   -4.753E+00   -4.734E+00   -4.715E+00
    -4.697E+00   -4.678E+00   -4.659E+00   -4.641E+00   -4.622E+00   -4.603E+00   -4.585E+00   -4.566E+00   -4.547E+00   -4.529E+00
    -4.510E+00   -4.491E+00   -4.473E+00   -4.454E+00   -4.435E+00   -4.417E+00   -4.398E+00   -4.380E+00   -4.361E+00   -4.342E+00
    -4.324E+00   -4.305E+00   -4.286E+00   -4.268E+00   -4.249E+00   -4.230E+00   -4.212E+00   -4.193E+00   -4.174E+00   -4.156E+00
    -4.137E+00   -4.118E+00   -4.100E+00   -4.081E+00   -4.063E+00   -4.044E+00   -4.025E+00   -4.007E+00   -3.988E+00   -3.969E+00
    -3.951E+00   -3.932E+00   -3.914E+00   -3.895E+00   -3.876E+00   -3.858E+00   -3.839E+00   -3.820E+00   -3.802E+00   -3.783E+00
    -3.765E+00   -3.746E+00   -3.727E+00   -3.709E+00   -3.690E+00   -3.671E+00   -3.653E+00   -3.634E+00   -3.616E+00   -3.597E+00
    -3.578E+00   -3.560E+00   -3.541E+00   -3.523E+00   -3.504E+00   -3.485E+00   -3.467E+00   -3.448E+00   -3.429E+00   -3.411E+00
    -3.392E+00   -3.374E+00   -3.355E+00   -3.337E+00   -3.318E+00   -3.299E+00   -3.281E+00   -3.262E+00   -3.244E+00   -3.225E+00
    -3.206E+00   -3.188E+00   -3.169E+00   -3.151E+00   -3.132E+00   -3.113E+00   -3.095E+00   -3.076E+00   -3.058E+00   -3.039E+00
    -3.021E+00   -3.002E+00   -2.983E+00   -2.965E+00   -2.946E+00   -2.928E+00   -2.909E+00   -2.891E+00   -2.872E+00   -2.853E+00
    -2.835E+00   -2.816E+00   -2.798E+00   -2.779E+00   -2.761E+00   -2.742E+00   -2.724E+00   -2.705E+00   -2.686E+00   -2.668E+00
    -2.649E+00   -2.631E+00   -2.612E+00   -2.594E+00   -2.575E+00   -2.557E+00   -2.538E+00   -2.520E+00   -2.501E+00   -2.483E+00
    -2.464E+00   -2.445E+00   -2.427E+00   -2.408E+00   -2.390E+00   -2.371E+00   -2.353E+00   -2.334E+00   -2.316E+00   -2.297E+00
    -2.279E+00   -2.260E+00   -2.242E+00   -2.223E+00   -2.205E+00   -2.186E+00   -2.168E+00   -2.149E+00   -2.131E+00   -2.112E+00
    -2.094E+00   -2.075E+00   -2.057E+00   -2.038E+00   -2.020E+00   -2.001E+00   -1.983E+00   -1.964E+00   -1.946E+00   -1.927E+00
    -1.909E+00   -1.890E+00   -1.872E+00   -1.853E+00   -1.835E+00   -1.817E+00   -1.798E+00   -1.780E+00   -1.761E+00   -1.743E+00
    -1.724E+00   -1.706E+00   -1.687E+00   -1.669E+00   -1.650E+00   -1.632E+00   -1.614E+00   -1.595E+00   -1.577E+00   -1.558E+00
    -1.540E+00   -1.521E+00   -1.503E+00   -1.484E+00   -1.466E+00   -1.448E+00   -1.429E+00   -1.411E+00   -1.392E+00   -1.374E+00
    -1.356E+00   -1.337E+00   -1.319E+00   -1.300E+00   -1.282E+00   -1.264E+00   -1.245E+00   -1.227E+00   -1.208E+00   -1.190E+00
    -1.172E+00   -1.153E+00   -1.135E+00   -1.116E+00   -1.098E+00   -1.080E+00   -1.061E+00   -1.043E+00   -1.025E+00   -1.006E+00
    -9.878E-01   -9.695E-01   -9.511E-01   -9.328E-01   -9.144E-01   -8.961E-01   -8.777E-01   -8.594E-01   -8.410E-01   -8.227E-01
    -8.043E-01   -7.860E-01   -7.677E-01   -7.494E-01   -7.310E-01   -7.127E-01   -6.944E-01   -6.761E-01   -6.578E-01   -6.394E-01
    -6.211E-01   -6.028E-01   -5.845E-01   -5.662E-01   -5.479E-01   -5.296E-01   -5.113E-01   -4.930E-01   -4.748E-01   -4.565E-01
    -4.382E-01   -4.199E-01   -4.016E-01   -3.834E-01   -3.651E-01   -3.468E-01   -3.286E-01   -3.103E-01
 Ala      Conc. = 2.18E+03
