 LCModel (Version 6.3-1L) Copyright: S.W. Provencher.          Ref.: Magn. Reson. Med. 30:672-679 (1993).                
 Slice#3 Row#4 Col#2  PD_24_press_2_raw_act
 36 lines in following concentration table = NCONC+1
    Conc.  %SD /Cr+PCr  Metabolite                                         
    0.000 999%   0.000 Ala                                                 
   86.119 106%   0.199 Asp                                                 
  433.073  15%   1.000 Cr                                                  
    0.000 999%   0.000 PCr                                                 
   32.960 166% 7.6E-02 GABA                                                
   69.289  80%   0.160 Glc                                                 
    0.000 999%   0.000 Gln                                                 
  565.900  41%   1.307 Glu                                                 
  177.178  14%   0.409 GPC                                                 
    0.000 999%   0.000 PCh                                                 
  274.123  30%   0.633 GSH                                                 
  747.196  38%   1.725 Ins                                                 
   54.439 208%   0.126 Lac                                                 
  440.738  18%   1.018 NAA                                                 
  331.065  25%   0.764 NAAG                                                
   31.999  52% 7.4E-02 Scyllo                                              
   92.407  98%   0.213 Tau                                                 
   25.748 339% 5.9E-02 -CrCH2                                              
  177.178  14%   0.409 GPC+PCh                                             
  771.802  12%   1.782 NAA+NAAG                                            
  433.073  15%   1.000 Cr+PCr                                              
  565.900  41%   1.307 Glu+Gln                                             
 4.53E+03  20%  10.451 Lip13a                                              
    0.000 999%   0.000 Lip13b                                              
    0.000 999%   0.000 Lip09                                               
  638.751  40%   1.475 MM09                                                
 1.09E+03  34%   2.515 Lip20                                               
 1.17E+03  37%   2.711 MM20                                                
  213.087  53%   0.492 MM12                                                
  275.703 128%   0.637 MM14                                                
    0.000 999%   0.000 MM17                                                
 4.53E+03  20%  10.451 Lip13a+Lip13b                                       
 5.01E+03  20%  11.580 MM14+Lip13a+Lip13b+MM12                             
  638.751  40%   1.475 MM09+Lip09                                          
 2.26E+03  22%   5.226 MM20+Lip20                                          
   6 lines in following misc. output table
  FWHM = 0.038 ppm    S/N =   3                                            
  Data shift = 0.015 ppm                                                   
  Ph: -19 deg      14.3 deg/ppm                                            
  alphaB,S = 4.1E-01,   3.8E+01                                            
   14 spline knots.   Ns = 5(1)                                            
  ( 4) 2 infls.   ( 2) 1 extrs.                                            
  498 points on ppm-axis = NY
      4.000000     3.992357     3.984714     3.977070     3.969427     3.961784     3.954141     3.946497     3.938854     3.931211
      3.923568     3.915925     3.908281     3.900638     3.892995     3.885352     3.877708     3.870065     3.862422     3.854779
      3.847136     3.839492     3.831849     3.824206     3.816563     3.808919     3.801276     3.793633     3.785990     3.778347
      3.770703     3.763060     3.755417     3.747774     3.740130     3.732487     3.724844     3.717201     3.709558     3.701914
      3.694271     3.686628     3.678985     3.671341     3.663698     3.656055     3.648412     3.640769     3.633125     3.625482
      3.617839     3.610196     3.602552     3.594909     3.587266     3.579623     3.571980     3.564336     3.556693     3.549050
      3.541407     3.533763     3.526120     3.518477     3.510834     3.503191     3.495547     3.487904     3.480261     3.472618
      3.464974     3.457331     3.449688     3.442045     3.434402     3.426758     3.419115     3.411472     3.403829     3.396185
      3.388542     3.380899     3.373256     3.365613     3.357969     3.350326     3.342683     3.335040     3.327396     3.319753
      3.312110     3.304467     3.296824     3.289180     3.281537     3.273894     3.266251     3.258607     3.250964     3.243321
      3.235678     3.228034     3.220391     3.212748     3.205105     3.197462     3.189818     3.182175     3.174532     3.166889
      3.159245     3.151602     3.143959     3.136316     3.128673     3.121029     3.113386     3.105743     3.098100     3.090456
      3.082813     3.075170     3.067527     3.059884     3.052240     3.044597     3.036954     3.029311     3.021667     3.014024
      3.006381     2.998738     2.991095     2.983451     2.975808     2.968165     2.960522     2.952878     2.945235     2.937592
      2.929949     2.922306     2.914662     2.907019     2.899376     2.891733     2.884089     2.876446     2.868803     2.861160
      2.853517     2.845873     2.838230     2.830587     2.822944     2.815300     2.807657     2.800014     2.792371     2.784728
      2.777084     2.769441     2.761798     2.754155     2.746511     2.738868     2.731225     2.723582     2.715939     2.708295
      2.700652     2.693009     2.685366     2.677722     2.670079     2.662436     2.654793     2.647150     2.639506     2.631863
      2.624220     2.616577     2.608933     2.601290     2.593647     2.586004     2.578361     2.570717     2.563074     2.555431
      2.547788     2.540144     2.532501     2.524858     2.517215     2.509572     2.501928     2.494285     2.486642     2.478999
      2.471355     2.463712     2.456069     2.448426     2.440783     2.433139     2.425496     2.417853     2.410210     2.402566
      2.394923     2.387280     2.379637     2.371994     2.364350     2.356707     2.349064     2.341421     2.333777     2.326134
      2.318491     2.310848     2.303205     2.295561     2.287918     2.280275     2.272632     2.264988     2.257345     2.249702
      2.242059     2.234416     2.226772     2.219129     2.211486     2.203843     2.196199     2.188556     2.180913     2.173270
      2.165627     2.157983     2.150340     2.142697     2.135054     2.127410     2.119767     2.112124     2.104481     2.096838
      2.089194     2.081551     2.073908     2.066265     2.058621     2.050978     2.043335     2.035692     2.028049     2.020405
      2.012762     2.005119     1.997476     1.989833     1.982190     1.974546     1.966903     1.959260     1.951617     1.943974
      1.936331     1.928688     1.921045     1.913402     1.905759     1.898115     1.890472     1.882829     1.875186     1.867543
      1.859900     1.852257     1.844614     1.836971     1.829327     1.821684     1.814041     1.806398     1.798755     1.791112
      1.783469     1.775826     1.768183     1.760540     1.752896     1.745253     1.737610     1.729967     1.722324     1.714681
      1.707038     1.699395     1.691752     1.684108     1.676465     1.668822     1.661179     1.653536     1.645893     1.638250
      1.630607     1.622964     1.615321     1.607677     1.600034     1.592391     1.584748     1.577105     1.569462     1.561819
      1.554176     1.546533     1.538890     1.531246     1.523603     1.515960     1.508317     1.500674     1.493031     1.485388
      1.477745     1.470102     1.462458     1.454815     1.447172     1.439529     1.431886     1.424243     1.416600     1.408957
      1.401314     1.393671     1.386027     1.378384     1.370741     1.363098     1.355455     1.347812     1.340169     1.332526
      1.324883     1.317240     1.309596     1.301953     1.294310     1.286667     1.279024     1.271381     1.263738     1.256095
      1.248452     1.240808     1.233165     1.225522     1.217879     1.210236     1.202593     1.194950     1.187307     1.179664
      1.172021     1.164377     1.156734     1.149091     1.141448     1.133805     1.126162     1.118519     1.110876     1.103233
      1.095590     1.087946     1.080303     1.072660     1.065017     1.057374     1.049731     1.042088     1.034445     1.026802
      1.019158     1.011515     1.003872     0.996229     0.988586     0.980943     0.973300     0.965657     0.958014     0.950371
      0.942727     0.935084     0.927441     0.919798     0.912155     0.904512     0.896869     0.889226     0.881583     0.873940
      0.866296     0.858653     0.851010     0.843367     0.835724     0.828081     0.820438     0.812795     0.805152     0.797508
      0.789865     0.782222     0.774579     0.766936     0.759293     0.751650     0.744007     0.736364     0.728721     0.721077
      0.713434     0.705791     0.698148     0.690505     0.682862     0.675219     0.667576     0.659933     0.652290     0.644646
      0.637003     0.629360     0.621717     0.614074     0.606431     0.598788     0.591145     0.583502     0.575858     0.568215
      0.560572     0.552929     0.545286     0.537643     0.530000     0.522357     0.514714     0.507071     0.499427     0.491784
      0.484141     0.476498     0.468855     0.461212     0.453569     0.445925     0.438282     0.430639     0.422996     0.415353
      0.407710     0.400067     0.392424     0.384780     0.377137     0.369494     0.361851     0.354208     0.346565     0.338922
      0.331278     0.323635     0.315992     0.308349     0.300706     0.293063     0.285420     0.277777     0.270133     0.262490
      0.254847     0.247204     0.239561     0.231918     0.224275     0.216631     0.208988     0.201345
 NY phased data points follow
  -2.31766E+02 -2.20511E+02 -2.23804E+02 -2.10171E+02 -2.14533E+02 -2.06895E+02 -2.10302E+02 -1.92834E+02 -1.95268E+02 -1.73989E+02
  -1.94228E+02 -1.77909E+02 -1.94418E+02 -1.83704E+02 -1.94282E+02 -1.90389E+02 -1.92217E+02 -1.87943E+02 -1.95169E+02 -1.82776E+02
  -1.81600E+02 -1.75953E+02 -1.82171E+02 -1.74231E+02 -1.80273E+02 -1.60193E+02 -1.79789E+02 -1.67690E+02 -1.74114E+02 -1.63463E+02
  -1.59401E+02 -1.55356E+02 -1.62479E+02 -1.56352E+02 -1.60910E+02 -1.54821E+02 -1.60848E+02 -1.55906E+02 -1.55711E+02 -1.52405E+02
  -1.55813E+02 -1.52030E+02 -1.54682E+02 -1.45572E+02 -1.54907E+02 -1.43757E+02 -1.47797E+02 -1.40788E+02 -1.40867E+02 -1.42555E+02
  -1.48829E+02 -1.41500E+02 -1.53555E+02 -1.42527E+02 -1.47306E+02 -1.39437E+02 -1.48370E+02 -1.33667E+02 -1.41997E+02 -1.42837E+02
  -1.44681E+02 -1.33366E+02 -1.47240E+02 -1.31998E+02 -1.42403E+02 -1.38763E+02 -1.37683E+02 -1.31089E+02 -1.33897E+02 -1.29428E+02
  -1.39340E+02 -1.30792E+02 -1.32115E+02 -1.24943E+02 -1.21941E+02 -1.16873E+02 -1.27700E+02 -1.19748E+02 -1.26460E+02 -1.17793E+02
  -1.36427E+02 -1.20665E+02 -1.24160E+02 -1.20620E+02 -1.20792E+02 -1.15137E+02 -1.17090E+02 -1.17694E+02 -1.26102E+02 -1.14534E+02
  -1.26314E+02 -1.14900E+02 -1.16154E+02 -1.16109E+02 -1.22894E+02 -1.21131E+02 -1.17746E+02 -1.12992E+02 -1.11198E+02 -1.03575E+02
  -1.06737E+02 -9.48027E+01 -9.12520E+01 -8.84163E+01 -9.89774E+01 -1.00643E+02 -1.11097E+02 -1.12126E+02 -1.20422E+02 -1.09916E+02
  -1.15935E+02 -1.11413E+02 -1.17399E+02 -1.07454E+02 -1.06974E+02 -1.10874E+02 -1.10207E+02 -1.10311E+02 -1.09498E+02 -1.01568E+02
  -1.08663E+02 -9.87176E+01 -1.02288E+02 -9.16757E+01 -9.31593E+01 -8.45973E+01 -8.41211E+01 -8.83684E+01 -9.62396E+01 -8.32690E+01
  -1.01699E+02 -1.00695E+02 -9.72331E+01 -9.54112E+01 -1.07269E+02 -9.31622E+01 -1.01935E+02 -9.48917E+01 -1.00883E+02 -9.04289E+01
  -9.37571E+01 -1.07910E+02 -1.00204E+02 -9.78188E+01 -9.24587E+01 -9.86060E+01 -9.32786E+01 -9.14717E+01 -9.16834E+01 -9.69163E+01
  -9.73535E+01 -8.93100E+01 -9.70233E+01 -8.90577E+01 -1.02100E+02 -9.73805E+01 -9.84526E+01 -9.54026E+01 -9.69932E+01 -9.10153E+01
  -8.85995E+01 -9.30952E+01 -9.59262E+01 -9.44321E+01 -8.32928E+01 -8.73950E+01 -9.41130E+01 -8.18592E+01 -9.30259E+01 -8.01646E+01
  -9.00583E+01 -9.68411E+01 -9.73277E+01 -8.96669E+01 -9.01194E+01 -8.96851E+01 -9.44854E+01 -9.19423E+01 -1.00461E+02 -8.95495E+01
  -8.74496E+01 -8.36383E+01 -9.22891E+01 -8.46180E+01 -9.57912E+01 -8.30114E+01 -9.55849E+01 -8.25294E+01 -8.72918E+01 -8.15820E+01
  -8.46130E+01 -7.85317E+01 -8.47862E+01 -8.17071E+01 -8.34402E+01 -7.97321E+01 -8.69989E+01 -8.19439E+01 -8.65643E+01 -8.81771E+01
  -8.54737E+01 -8.40382E+01 -8.76715E+01 -8.72874E+01 -8.14606E+01 -7.77894E+01 -8.33991E+01 -7.16775E+01 -8.10595E+01 -8.23012E+01
  -7.63986E+01 -7.56600E+01 -8.02077E+01 -6.84198E+01 -7.86519E+01 -8.10681E+01 -7.63454E+01 -6.62883E+01 -7.62406E+01 -7.76310E+01
  -7.81039E+01 -7.75089E+01 -8.04349E+01 -7.63943E+01 -7.35326E+01 -6.89405E+01 -6.47406E+01 -6.20556E+01 -6.33685E+01 -6.05598E+01
  -7.89590E+01 -6.46090E+01 -6.53352E+01 -6.49680E+01 -7.22587E+01 -6.36856E+01 -6.13415E+01 -5.88030E+01 -6.60461E+01 -6.01175E+01
  -6.45885E+01 -6.40545E+01 -6.52561E+01 -6.64650E+01 -6.78024E+01 -6.26336E+01 -6.33032E+01 -6.19126E+01 -6.32096E+01 -6.71258E+01
  -6.08720E+01 -5.62599E+01 -5.55701E+01 -6.09752E+01 -4.55242E+01 -4.33645E+01 -4.76665E+01 -3.15496E+01 -4.22359E+01 -3.31327E+01
  -4.70406E+01 -4.22976E+01 -5.18438E+01 -5.83088E+01 -7.02532E+01 -6.42778E+01 -7.38399E+01 -6.33263E+01 -6.37341E+01 -6.37862E+01
  -6.23474E+01 -6.01797E+01 -7.37123E+01 -6.88311E+01 -7.19669E+01 -6.87991E+01 -6.70777E+01 -6.08612E+01 -6.03348E+01 -6.44172E+01
  -6.92803E+01 -6.27642E+01 -6.40922E+01 -6.52107E+01 -6.55866E+01 -6.79386E+01 -6.85061E+01 -5.85825E+01 -6.59947E+01 -7.04840E+01
  -6.11229E+01 -6.87817E+01 -6.06546E+01 -6.28629E+01 -6.44782E+01 -6.33251E+01 -6.70786E+01 -6.00304E+01 -7.30092E+01 -6.47865E+01
  -7.22747E+01 -6.45769E+01 -7.68079E+01 -6.78087E+01 -7.85130E+01 -7.19892E+01 -7.66439E+01 -7.04202E+01 -7.79559E+01 -7.92641E+01
  -7.97327E+01 -6.89200E+01 -7.36207E+01 -6.73700E+01 -6.53620E+01 -7.36865E+01 -7.61699E+01 -6.68476E+01 -7.07506E+01 -6.91798E+01
  -7.05737E+01 -5.74976E+01 -7.41535E+01 -6.70809E+01 -6.10103E+01 -6.44387E+01 -6.19136E+01 -5.93520E+01 -5.81815E+01 -5.54109E+01
  -6.31982E+01 -5.05174E+01 -6.58801E+01 -6.61516E+01 -5.79813E+01 -5.82912E+01 -5.67643E+01 -4.92537E+01 -5.66238E+01 -5.28451E+01
  -5.70183E+01 -5.12492E+01 -5.36270E+01 -5.24033E+01 -5.32943E+01 -5.25274E+01 -5.49757E+01 -5.32653E+01 -4.92162E+01 -4.96775E+01
  -5.47019E+01 -4.22804E+01 -4.53731E+01 -4.34793E+01 -4.63904E+01 -4.18066E+01 -4.53635E+01 -3.42642E+01 -3.99513E+01 -4.01668E+01
  -4.04739E+01 -4.13512E+01 -3.63462E+01 -3.69401E+01 -4.56052E+01 -3.47317E+01 -3.61837E+01 -4.35818E+01 -4.06822E+01 -4.29939E+01
  -3.54297E+01 -4.08081E+01 -3.72536E+01 -3.10633E+01 -3.35829E+01 -4.80820E+01 -3.59458E+01 -3.83675E+01 -3.83639E+01 -3.83496E+01
  -3.42740E+01 -3.84458E+01 -4.26975E+01 -4.05543E+01 -4.46095E+01 -3.72043E+01 -4.01176E+01 -4.27461E+01 -3.13331E+01 -3.78599E+01
  -3.59181E+01 -4.05334E+01 -4.27470E+01 -4.20153E+01 -3.66933E+01 -3.71744E+01 -4.34592E+01 -3.92710E+01 -4.42077E+01 -3.18326E+01
  -4.02822E+01 -4.03130E+01 -4.30541E+01 -4.09729E+01 -4.48858E+01 -3.98212E+01 -4.86490E+01 -3.84166E+01 -4.34409E+01 -3.66190E+01
  -4.36416E+01 -3.92205E+01 -4.74666E+01 -4.38185E+01 -3.70733E+01 -3.98797E+01 -4.66654E+01 -3.53166E+01 -4.39064E+01 -4.26679E+01
  -4.20348E+01 -3.72208E+01 -4.52534E+01 -4.58204E+01 -3.90369E+01 -3.77418E+01 -4.01566E+01 -4.29646E+01 -3.71214E+01 -4.18679E+01
  -4.26833E+01 -4.11539E+01 -4.00460E+01 -3.56083E+01 -3.87686E+01 -2.90340E+01 -3.55747E+01 -3.54907E+01 -4.01653E+01 -3.59229E+01
  -3.87640E+01 -3.65955E+01 -3.99210E+01 -3.10707E+01 -3.38791E+01 -4.18431E+01 -3.69286E+01 -4.39645E+01 -3.84968E+01 -4.23667E+01
  -4.24421E+01 -3.34364E+01 -3.56276E+01 -3.50393E+01 -3.99623E+01 -3.49764E+01 -3.90598E+01 -3.59984E+01 -3.93218E+01 -3.22520E+01
  -3.59564E+01 -4.04096E+01 -3.28211E+01 -3.45860E+01 -3.39679E+01 -2.72178E+01 -4.01040E+01 -3.03469E+01 -4.09316E+01 -3.19514E+01
  -4.07249E+01 -3.06608E+01 -3.35978E+01 -3.40119E+01 -4.50356E+01 -3.13602E+01 -3.76748E+01 -3.60312E+01 -4.09680E+01 -3.35062E+01
  -3.81141E+01 -3.59771E+01 -3.38313E+01 -3.32015E+01 -3.02248E+01 -3.69890E+01 -3.33825E+01 -3.73970E+01 -3.49223E+01 -3.65864E+01
  -3.83188E+01 -3.46520E+01 -3.46798E+01 -3.13468E+01 -3.44268E+01 -2.73573E+01 -3.54122E+01 -3.14266E+01
 NY points of the fit to the data follow
  -2.13297E+02 -2.11875E+02 -2.10202E+02 -2.08467E+02 -2.06738E+02 -2.04622E+02 -2.01239E+02 -1.96946E+02 -1.92550E+02 -1.88772E+02
  -1.86307E+02 -1.85461E+02 -1.86086E+02 -1.87710E+02 -1.89504E+02 -1.90381E+02 -1.89778E+02 -1.88232E+02 -1.86750E+02 -1.85396E+02
  -1.84063E+02 -1.82683E+02 -1.81267E+02 -1.79998E+02 -1.78881E+02 -1.77441E+02 -1.74952E+02 -1.71620E+02 -1.67917E+02 -1.64392E+02
  -1.61693E+02 -1.60271E+02 -1.60195E+02 -1.61169E+02 -1.62585E+02 -1.63473E+02 -1.63356E+02 -1.62555E+02 -1.61560E+02 -1.60366E+02
  -1.59059E+02 -1.57631E+02 -1.55786E+02 -1.53246E+02 -1.50275E+02 -1.47470E+02 -1.45330E+02 -1.44190E+02 -1.44141E+02 -1.45021E+02
  -1.46376E+02 -1.47473E+02 -1.47678E+02 -1.46910E+02 -1.45512E+02 -1.43873E+02 -1.42176E+02 -1.40470E+02 -1.38917E+02 -1.37712E+02
  -1.36955E+02 -1.36644E+02 -1.36639E+02 -1.36712E+02 -1.36545E+02 -1.35932E+02 -1.34938E+02 -1.33679E+02 -1.32350E+02 -1.31150E+02
  -1.30107E+02 -1.29183E+02 -1.28384E+02 -1.27719E+02 -1.27209E+02 -1.26858E+02 -1.26614E+02 -1.26350E+02 -1.25993E+02 -1.25560E+02
  -1.24973E+02 -1.24065E+02 -1.22982E+02 -1.22071E+02 -1.21522E+02 -1.21377E+02 -1.21546E+02 -1.21812E+02 -1.21949E+02 -1.21786E+02
  -1.21206E+02 -1.20212E+02 -1.19055E+02 -1.18131E+02 -1.17501E+02 -1.17036E+02 -1.16547E+02 -1.15316E+02 -1.11670E+02 -1.06077E+02
  -1.00086E+02 -9.50340E+01 -9.23300E+01 -9.27317E+01 -9.60543E+01 -1.01309E+02 -1.06875E+02 -1.10720E+02 -1.11782E+02 -1.10973E+02
  -1.10225E+02 -1.09792E+02 -1.09387E+02 -1.08984E+02 -1.08577E+02 -1.08192E+02 -1.07832E+02 -1.07481E+02 -1.07118E+02 -1.06700E+02
  -1.06069E+02 -1.04437E+02 -1.00614E+02 -9.54325E+01 -9.02236E+01 -8.61745E+01 -8.43946E+01 -8.52882E+01 -8.84564E+01 -9.28252E+01
  -9.69297E+01 -9.93752E+01 -9.98120E+01 -9.94371E+01 -9.97008E+01 -1.00320E+02 -1.00821E+02 -1.00889E+02 -1.00329E+02 -9.92087E+01
  -9.78423E+01 -9.66549E+01 -9.59060E+01 -9.55957E+01 -9.55923E+01 -9.56996E+01 -9.57522E+01 -9.56933E+01 -9.55298E+01 -9.53527E+01
  -9.52304E+01 -9.51332E+01 -9.50137E+01 -9.48230E+01 -9.45077E+01 -9.41105E+01 -9.37459E+01 -9.34743E+01 -9.33118E+01 -9.32393E+01
  -9.31705E+01 -9.30410E+01 -9.28030E+01 -9.24694E+01 -9.21375E+01 -9.19347E+01 -9.18818E+01 -9.18558E+01 -9.17378E+01 -9.14827E+01
  -9.11512E+01 -9.08912E+01 -9.07551E+01 -9.06703E+01 -9.05976E+01 -9.04984E+01 -9.03507E+01 -9.01371E+01 -8.98906E+01 -8.96162E+01
  -8.93205E+01 -8.90622E+01 -8.88066E+01 -8.84373E+01 -8.79446E+01 -8.73683E+01 -8.66699E+01 -8.57883E+01 -8.47255E+01 -8.36219E+01
  -8.26965E+01 -8.21819E+01 -8.21649E+01 -8.26195E+01 -8.33523E+01 -8.39773E+01 -8.42150E+01 -8.39434E+01 -8.31981E+01 -8.21359E+01
  -8.09556E+01 -7.98158E+01 -7.89365E+01 -7.85109E+01 -7.84862E+01 -7.86812E+01 -7.89647E+01 -7.93103E+01 -7.96102E+01 -7.96308E+01
  -7.91881E+01 -7.80818E+01 -7.64130E+01 -7.46322E+01 -7.31438E+01 -7.23061E+01 -7.23729E+01 -7.34229E+01 -7.52630E+01 -7.72263E+01
  -7.84669E+01 -7.85462E+01 -7.74618E+01 -7.56277E+01 -7.34713E+01 -7.13530E+01 -6.97777E+01 -6.91413E+01 -6.93788E+01 -6.99553E+01
  -7.03237E+01 -7.02538E+01 -6.97096E+01 -6.86795E+01 -6.73432E+01 -6.61563E+01 -6.55714E+01 -6.58009E+01 -6.67524E+01 -6.79753E+01
  -6.89748E+01 -6.93395E+01 -6.88578E+01 -6.75783E+01 -6.58426E+01 -6.42062E+01 -6.31166E+01 -6.26793E+01 -6.27500E+01 -6.30206E+01
  -6.28294E+01 -6.09626E+01 -5.74696E+01 -5.34262E+01 -4.96001E+01 -4.57151E+01 -4.18943E+01 -3.92579E+01 -3.83497E+01 -3.93347E+01
  -4.18971E+01 -4.54612E+01 -4.98757E+01 -5.52024E+01 -6.00671E+01 -6.28472E+01 -6.35597E+01 -6.37312E+01 -6.41628E+01 -6.45426E+01
  -6.47935E+01 -6.49563E+01 -6.50828E+01 -6.52139E+01 -6.54143E+01 -6.57076E+01 -6.60827E+01 -6.64920E+01 -6.68691E+01 -6.71548E+01
  -6.73404E+01 -6.74582E+01 -6.75537E+01 -6.76548E+01 -6.77656E+01 -6.78983E+01 -6.80621E+01 -6.82305E+01 -6.83665E+01 -6.84567E+01
  -6.85056E+01 -6.85253E+01 -6.85273E+01 -6.85324E+01 -6.85620E+01 -6.86208E+01 -6.86953E+01 -6.87625E+01 -6.88017E+01 -6.88112E+01
  -6.87930E+01 -6.87496E+01 -6.86880E+01 -6.86189E+01 -6.85508E+01 -6.84832E+01 -6.84076E+01 -6.83203E+01 -6.82202E+01 -6.81059E+01
  -6.79773E+01 -6.78344E+01 -6.76766E+01 -6.75032E+01 -6.73132E+01 -6.71057E+01 -6.68793E+01 -6.66332E+01 -6.63668E+01 -6.60799E+01
  -6.57726E+01 -6.54444E+01 -6.50953E+01 -6.47248E+01 -6.43327E+01 -6.39190E+01 -6.34833E+01 -6.30253E+01 -6.25448E+01 -6.20414E+01
  -6.15145E+01 -6.09635E+01 -6.03877E+01 -5.97861E+01 -5.91576E+01 -5.85009E+01 -5.78146E+01 -5.70965E+01 -5.63443E+01 -5.55539E+01
  -5.47181E+01 -5.38174E+01 -5.28122E+01 -5.17529E+01 -5.07567E+01 -4.98830E+01 -4.91614E+01 -4.85833E+01 -4.80982E+01 -4.76283E+01
  -4.70057E+01 -4.61035E+01 -4.49434E+01 -4.36614E+01 -4.24455E+01 -4.13989E+01 -4.05534E+01 -3.99431E+01 -3.95624E+01 -3.93375E+01
  -3.91589E+01 -3.89697E+01 -3.88196E+01 -3.87481E+01 -3.87501E+01 -3.88195E+01 -3.89494E+01 -3.91323E+01 -3.93596E+01 -3.96223E+01
  -3.99112E+01 -4.02171E+01 -4.05311E+01 -4.08445E+01 -4.11494E+01 -4.14388E+01 -4.17062E+01 -4.19461E+01 -4.21538E+01 -4.23255E+01
  -4.24583E+01 -4.25501E+01 -4.25997E+01 -4.26065E+01 -4.25710E+01 -4.24944E+01 -4.23788E+01 -4.22270E+01 -4.20428E+01 -4.18306E+01
  -4.15956E+01 -4.13437E+01 -4.10812E+01 -4.08148E+01 -4.05511E+01 -4.02969E+01 -4.00583E+01 -3.98411E+01 -3.96501E+01 -3.94890E+01
  -3.93604E+01 -3.92658E+01 -3.92051E+01 -3.91772E+01 -3.91798E+01 -3.92097E+01 -3.92628E+01 -3.93345E+01 -3.94202E+01 -3.95149E+01
  -3.96139E+01 -3.97130E+01 -3.98082E+01 -3.98963E+01 -3.99747E+01 -4.00414E+01 -4.00951E+01 -4.01349E+01 -4.01605E+01 -4.01722E+01
  -4.01703E+01 -4.01556E+01 -4.01290E+01 -4.00914E+01 -4.00440E+01 -3.99878E+01 -3.99237E+01 -3.98529E+01 -3.97761E+01 -3.96942E+01
  -3.96079E+01 -3.95180E+01 -3.94249E+01 -3.93292E+01 -3.92313E+01 -3.91317E+01 -3.90307E+01 -3.89285E+01 -3.88255E+01 -3.87218E+01
  -3.86177E+01 -3.85133E+01 -3.84088E+01 -3.83043E+01 -3.81999E+01 -3.80958E+01 -3.79920E+01 -3.78885E+01 -3.77856E+01 -3.76832E+01
  -3.75814E+01 -3.74803E+01 -3.73799E+01 -3.72802E+01 -3.71812E+01 -3.70829E+01 -3.69854E+01 -3.68886E+01 -3.67925E+01 -3.66971E+01
  -3.66024E+01 -3.65084E+01 -3.64150E+01 -3.63223E+01 -3.62301E+01 -3.61386E+01 -3.60476E+01 -3.59571E+01 -3.58672E+01 -3.57777E+01
  -3.56887E+01 -3.56001E+01 -3.55118E+01 -3.54240E+01 -3.53364E+01 -3.52492E+01 -3.51622E+01 -3.50755E+01 -3.49889E+01 -3.49025E+01
  -3.48163E+01 -3.47301E+01 -3.46440E+01 -3.45579E+01 -3.44718E+01 -3.43856E+01 -3.42994E+01 -3.42130E+01 -3.41265E+01 -3.40398E+01
  -3.39528E+01 -3.38656E+01 -3.37781E+01 -3.36902E+01 -3.36020E+01 -3.35133E+01 -3.34242E+01 -3.33347E+01
 NY background values follow
    -2.145E+02   -2.131E+02   -2.116E+02   -2.101E+02   -2.086E+02   -2.072E+02   -2.057E+02   -2.043E+02   -2.028E+02   -2.014E+02
    -1.999E+02   -1.985E+02   -1.970E+02   -1.956E+02   -1.942E+02   -1.928E+02   -1.914E+02   -1.900E+02   -1.886E+02   -1.872E+02
    -1.858E+02   -1.844E+02   -1.831E+02   -1.817E+02   -1.804E+02   -1.791E+02   -1.777E+02   -1.764E+02   -1.751E+02   -1.738E+02
    -1.725E+02   -1.713E+02   -1.700E+02   -1.688E+02   -1.676E+02   -1.663E+02   -1.651E+02   -1.639E+02   -1.628E+02   -1.616E+02
    -1.605E+02   -1.593E+02   -1.582E+02   -1.571E+02   -1.560E+02   -1.550E+02   -1.539E+02   -1.529E+02   -1.518E+02   -1.508E+02
    -1.499E+02   -1.489E+02   -1.479E+02   -1.470E+02   -1.461E+02   -1.452E+02   -1.443E+02   -1.434E+02   -1.425E+02   -1.417E+02
    -1.408E+02   -1.400E+02   -1.392E+02   -1.384E+02   -1.376E+02   -1.368E+02   -1.360E+02   -1.353E+02   -1.346E+02   -1.338E+02
    -1.331E+02   -1.324E+02   -1.317E+02   -1.310E+02   -1.303E+02   -1.297E+02   -1.290E+02   -1.284E+02   -1.278E+02   -1.271E+02
    -1.265E+02   -1.259E+02   -1.253E+02   -1.247E+02   -1.241E+02   -1.236E+02   -1.230E+02   -1.224E+02   -1.219E+02   -1.213E+02
    -1.208E+02   -1.203E+02   -1.197E+02   -1.192E+02   -1.187E+02   -1.182E+02   -1.177E+02   -1.172E+02   -1.167E+02   -1.162E+02
    -1.158E+02   -1.153E+02   -1.148E+02   -1.144E+02   -1.139E+02   -1.135E+02   -1.130E+02   -1.126E+02   -1.121E+02   -1.117E+02
    -1.113E+02   -1.109E+02   -1.105E+02   -1.100E+02   -1.096E+02   -1.092E+02   -1.088E+02   -1.085E+02   -1.081E+02   -1.077E+02
    -1.073E+02   -1.069E+02   -1.066E+02   -1.062E+02   -1.058E+02   -1.055E+02   -1.051E+02   -1.048E+02   -1.044E+02   -1.041E+02
    -1.037E+02   -1.034E+02   -1.031E+02   -1.027E+02   -1.024E+02   -1.021E+02   -1.018E+02   -1.014E+02   -1.011E+02   -1.008E+02
    -1.005E+02   -1.002E+02   -9.988E+01   -9.957E+01   -9.927E+01   -9.897E+01   -9.867E+01   -9.837E+01   -9.807E+01   -9.778E+01
    -9.748E+01   -9.719E+01   -9.690E+01   -9.661E+01   -9.632E+01   -9.603E+01   -9.574E+01   -9.546E+01   -9.517E+01   -9.488E+01
    -9.460E+01   -9.431E+01   -9.402E+01   -9.374E+01   -9.345E+01   -9.316E+01   -9.288E+01   -9.259E+01   -9.230E+01   -9.201E+01
    -9.172E+01   -9.143E+01   -9.113E+01   -9.084E+01   -9.055E+01   -9.025E+01   -8.995E+01   -8.965E+01   -8.935E+01   -8.904E+01
    -8.874E+01   -8.843E+01   -8.812E+01   -8.781E+01   -8.749E+01   -8.718E+01   -8.686E+01   -8.654E+01   -8.622E+01   -8.590E+01
    -8.558E+01   -8.526E+01   -8.494E+01   -8.461E+01   -8.429E+01   -8.397E+01   -8.365E+01   -8.332E+01   -8.300E+01   -8.268E+01
    -8.237E+01   -8.205E+01   -8.173E+01   -8.142E+01   -8.111E+01   -8.080E+01   -8.049E+01   -8.018E+01   -7.988E+01   -7.958E+01
    -7.928E+01   -7.898E+01   -7.869E+01   -7.841E+01   -7.812E+01   -7.784E+01   -7.756E+01   -7.729E+01   -7.702E+01   -7.676E+01
    -7.650E+01   -7.625E+01   -7.600E+01   -7.576E+01   -7.552E+01   -7.529E+01   -7.506E+01   -7.484E+01   -7.463E+01   -7.442E+01
    -7.422E+01   -7.402E+01   -7.383E+01   -7.364E+01   -7.346E+01   -7.329E+01   -7.312E+01   -7.296E+01   -7.280E+01   -7.265E+01
    -7.250E+01   -7.236E+01   -7.222E+01   -7.209E+01   -7.197E+01   -7.184E+01   -7.173E+01   -7.162E+01   -7.151E+01   -7.141E+01
    -7.131E+01   -7.122E+01   -7.113E+01   -7.105E+01   -7.097E+01   -7.090E+01   -7.083E+01   -7.077E+01   -7.071E+01   -7.065E+01
    -7.060E+01   -7.055E+01   -7.051E+01   -7.047E+01   -7.044E+01   -7.041E+01   -7.038E+01   -7.036E+01   -7.034E+01   -7.032E+01
    -7.031E+01   -7.030E+01   -7.030E+01   -7.030E+01   -7.030E+01   -7.031E+01   -7.031E+01   -7.032E+01   -7.034E+01   -7.035E+01
    -7.036E+01   -7.038E+01   -7.040E+01   -7.041E+01   -7.043E+01   -7.045E+01   -7.046E+01   -7.048E+01   -7.049E+01   -7.051E+01
    -7.052E+01   -7.053E+01   -7.054E+01   -7.054E+01   -7.054E+01   -7.054E+01   -7.054E+01   -7.053E+01   -7.051E+01   -7.050E+01
    -7.048E+01   -7.045E+01   -7.042E+01   -7.038E+01   -7.034E+01   -7.029E+01   -7.023E+01   -7.017E+01   -7.010E+01   -7.002E+01
    -6.994E+01   -6.985E+01   -6.975E+01   -6.964E+01   -6.952E+01   -6.939E+01   -6.926E+01   -6.911E+01   -6.895E+01   -6.879E+01
    -6.862E+01   -6.843E+01   -6.824E+01   -6.804E+01   -6.784E+01   -6.762E+01   -6.740E+01   -6.717E+01   -6.693E+01   -6.669E+01
    -6.644E+01   -6.619E+01   -6.593E+01   -6.566E+01   -6.539E+01   -6.511E+01   -6.483E+01   -6.455E+01   -6.426E+01   -6.397E+01
    -6.367E+01   -6.337E+01   -6.307E+01   -6.276E+01   -6.245E+01   -6.214E+01   -6.183E+01   -6.152E+01   -6.120E+01   -6.089E+01
    -6.057E+01   -6.026E+01   -5.994E+01   -5.962E+01   -5.931E+01   -5.899E+01   -5.868E+01   -5.836E+01   -5.805E+01   -5.774E+01
    -5.743E+01   -5.712E+01   -5.682E+01   -5.652E+01   -5.622E+01   -5.593E+01   -5.563E+01   -5.534E+01   -5.506E+01   -5.477E+01
    -5.449E+01   -5.421E+01   -5.393E+01   -5.366E+01   -5.338E+01   -5.311E+01   -5.285E+01   -5.258E+01   -5.232E+01   -5.206E+01
    -5.180E+01   -5.154E+01   -5.129E+01   -5.104E+01   -5.079E+01   -5.055E+01   -5.030E+01   -5.006E+01   -4.982E+01   -4.958E+01
    -4.935E+01   -4.912E+01   -4.889E+01   -4.866E+01   -4.843E+01   -4.821E+01   -4.799E+01   -4.777E+01   -4.755E+01   -4.733E+01
    -4.712E+01   -4.691E+01   -4.670E+01   -4.649E+01   -4.629E+01   -4.608E+01   -4.588E+01   -4.568E+01   -4.548E+01   -4.529E+01
    -4.510E+01   -4.490E+01   -4.471E+01   -4.453E+01   -4.434E+01   -4.416E+01   -4.397E+01   -4.379E+01   -4.361E+01   -4.344E+01
    -4.326E+01   -4.309E+01   -4.292E+01   -4.275E+01   -4.258E+01   -4.241E+01   -4.225E+01   -4.209E+01   -4.193E+01   -4.177E+01
    -4.161E+01   -4.145E+01   -4.130E+01   -4.115E+01   -4.100E+01   -4.085E+01   -4.070E+01   -4.056E+01   -4.041E+01   -4.027E+01
    -4.013E+01   -3.999E+01   -3.985E+01   -3.972E+01   -3.958E+01   -3.945E+01   -3.932E+01   -3.919E+01   -3.906E+01   -3.894E+01
    -3.881E+01   -3.869E+01   -3.857E+01   -3.845E+01   -3.833E+01   -3.821E+01   -3.810E+01   -3.798E+01   -3.787E+01   -3.776E+01
    -3.765E+01   -3.754E+01   -3.743E+01   -3.732E+01   -3.721E+01   -3.711E+01   -3.700E+01   -3.690E+01   -3.680E+01   -3.670E+01
    -3.660E+01   -3.650E+01   -3.640E+01   -3.630E+01   -3.620E+01   -3.610E+01   -3.600E+01   -3.591E+01   -3.581E+01   -3.571E+01
    -3.562E+01   -3.552E+01   -3.543E+01   -3.533E+01   -3.524E+01   -3.514E+01   -3.505E+01   -3.495E+01   -3.486E+01   -3.476E+01
    -3.467E+01   -3.457E+01   -3.448E+01   -3.438E+01   -3.429E+01   -3.419E+01   -3.409E+01   -3.400E+01
 Asp      Conc. = 8.61E+01
