 LCModel (Version 6.3-1L) Copyright: S.W. Provencher.          Ref.: Magn. Reson. Med. 30:672-679 (1993).                
 Slice#1 Row#4 Col#8  PD_24_press_2_raw_act
 36 lines in following concentration table = NCONC+1
    Conc.  %SD /Cr+PCr  Metabolite                                         
  689.584  49%   0.579 Ala                                                 
    0.000 999%   0.000 Asp                                                 
 1.19E+03  11%   1.000 Cr                                                  
    0.000 999%   0.000 PCr                                                 
  124.543 175%   0.105 GABA                                                
   64.761 328% 5.4E-02 Glc                                                 
 1.01E+03  67%   0.844 Gln                                                 
 1.88E+03  40%   1.575 Glu                                                 
  610.555   9%   0.513 GPC                                                 
    0.000 999%   0.000 PCh                                                 
  752.228  25%   0.632 GSH                                                 
 2.05E+03  31%   1.720 Ins                                                 
  102.659 351% 8.6E-02 Lac                                                 
 2.10E+03  13%   1.765 NAA                                                 
  494.340  64%   0.415 NAAG                                                
    0.000 999%   0.000 Scyllo                                              
    0.000 999%   0.000 Tau                                                 
    0.000 999%   0.000 -CrCH2                                              
  610.555   9%   0.513 GPC+PCh                                             
 2.60E+03   8%   2.180 NAA+NAAG                                            
 1.19E+03  11%   1.000 Cr+PCr                                              
 2.88E+03  40%   2.420 Glu+Gln                                             
 3.45E+03  36%   2.897 Lip13a                                              
    0.000 999%   0.000 Lip13b                                              
  617.115  99%   0.518 Lip09                                               
 4.07E+03  17%   3.422 MM09                                                
  621.088  66%   0.522 Lip20                                               
 6.43E+03  15%   5.403 MM20                                                
 1.31E+03  41%   1.103 MM12                                                
 3.86E+03  26%   3.241 MM14                                                
 4.74E+03  16%   3.978 MM17                                                
 3.45E+03  36%   2.897 Lip13a+Lip13b                                       
 8.62E+03  12%   7.241 MM14+Lip13a+Lip13b+MM12                             
 4.69E+03  10%   3.940 MM09+Lip09                                          
 7.05E+03  13%   5.925 MM20+Lip20                                          
   6 lines in following misc. output table
  FWHM = 0.061 ppm    S/N =   6                                            
  Data shift = 0.038 ppm                                                   
  Ph:   7 deg      15.5 deg/ppm                                            
  alphaB,S = 1.3E+00,   1.4E+02                                            
   14 spline knots.   Ns = 9(1)                                            
  (13) 2 infls.   (14) 1 extrs.                                            
  498 points on ppm-axis = NY
      4.000000     3.992357     3.984714     3.977070     3.969427     3.961784     3.954141     3.946497     3.938854     3.931211
      3.923568     3.915925     3.908281     3.900638     3.892995     3.885352     3.877708     3.870065     3.862422     3.854779
      3.847136     3.839492     3.831849     3.824206     3.816563     3.808919     3.801276     3.793633     3.785990     3.778347
      3.770703     3.763060     3.755417     3.747774     3.740130     3.732487     3.724844     3.717201     3.709558     3.701914
      3.694271     3.686628     3.678985     3.671341     3.663698     3.656055     3.648412     3.640769     3.633125     3.625482
      3.617839     3.610196     3.602552     3.594909     3.587266     3.579623     3.571980     3.564336     3.556693     3.549050
      3.541407     3.533763     3.526120     3.518477     3.510834     3.503191     3.495547     3.487904     3.480261     3.472618
      3.464974     3.457331     3.449688     3.442045     3.434402     3.426758     3.419115     3.411472     3.403829     3.396185
      3.388542     3.380899     3.373256     3.365613     3.357969     3.350326     3.342683     3.335040     3.327396     3.319753
      3.312110     3.304467     3.296824     3.289180     3.281537     3.273894     3.266251     3.258607     3.250964     3.243321
      3.235678     3.228034     3.220391     3.212748     3.205105     3.197462     3.189818     3.182175     3.174532     3.166889
      3.159245     3.151602     3.143959     3.136316     3.128673     3.121029     3.113386     3.105743     3.098100     3.090456
      3.082813     3.075170     3.067527     3.059884     3.052240     3.044597     3.036954     3.029311     3.021667     3.014024
      3.006381     2.998738     2.991095     2.983451     2.975808     2.968165     2.960522     2.952878     2.945235     2.937592
      2.929949     2.922306     2.914662     2.907019     2.899376     2.891733     2.884089     2.876446     2.868803     2.861160
      2.853517     2.845873     2.838230     2.830587     2.822944     2.815300     2.807657     2.800014     2.792371     2.784728
      2.777084     2.769441     2.761798     2.754155     2.746511     2.738868     2.731225     2.723582     2.715939     2.708295
      2.700652     2.693009     2.685366     2.677722     2.670079     2.662436     2.654793     2.647150     2.639506     2.631863
      2.624220     2.616577     2.608933     2.601290     2.593647     2.586004     2.578361     2.570717     2.563074     2.555431
      2.547788     2.540144     2.532501     2.524858     2.517215     2.509572     2.501928     2.494285     2.486642     2.478999
      2.471355     2.463712     2.456069     2.448426     2.440783     2.433139     2.425496     2.417853     2.410210     2.402566
      2.394923     2.387280     2.379637     2.371994     2.364350     2.356707     2.349064     2.341421     2.333777     2.326134
      2.318491     2.310848     2.303205     2.295561     2.287918     2.280275     2.272632     2.264988     2.257345     2.249702
      2.242059     2.234416     2.226772     2.219129     2.211486     2.203843     2.196199     2.188556     2.180913     2.173270
      2.165627     2.157983     2.150340     2.142697     2.135054     2.127410     2.119767     2.112124     2.104481     2.096838
      2.089194     2.081551     2.073908     2.066265     2.058621     2.050978     2.043335     2.035692     2.028049     2.020405
      2.012762     2.005119     1.997476     1.989833     1.982190     1.974546     1.966903     1.959260     1.951617     1.943974
      1.936331     1.928688     1.921045     1.913402     1.905759     1.898115     1.890472     1.882829     1.875186     1.867543
      1.859900     1.852257     1.844614     1.836971     1.829327     1.821684     1.814041     1.806398     1.798755     1.791112
      1.783469     1.775826     1.768183     1.760540     1.752896     1.745253     1.737610     1.729967     1.722324     1.714681
      1.707038     1.699395     1.691752     1.684108     1.676465     1.668822     1.661179     1.653536     1.645893     1.638250
      1.630607     1.622964     1.615321     1.607677     1.600034     1.592391     1.584748     1.577105     1.569462     1.561819
      1.554176     1.546533     1.538890     1.531246     1.523603     1.515960     1.508317     1.500674     1.493031     1.485388
      1.477745     1.470102     1.462458     1.454815     1.447172     1.439529     1.431886     1.424243     1.416600     1.408957
      1.401314     1.393671     1.386027     1.378384     1.370741     1.363098     1.355455     1.347812     1.340169     1.332526
      1.324883     1.317240     1.309596     1.301953     1.294310     1.286667     1.279024     1.271381     1.263738     1.256095
      1.248452     1.240808     1.233165     1.225522     1.217879     1.210236     1.202593     1.194950     1.187307     1.179664
      1.172021     1.164377     1.156734     1.149091     1.141448     1.133805     1.126162     1.118519     1.110876     1.103233
      1.095590     1.087946     1.080303     1.072660     1.065017     1.057374     1.049731     1.042088     1.034445     1.026802
      1.019158     1.011515     1.003872     0.996229     0.988586     0.980943     0.973300     0.965657     0.958014     0.950371
      0.942727     0.935084     0.927441     0.919798     0.912155     0.904512     0.896869     0.889226     0.881583     0.873940
      0.866296     0.858653     0.851010     0.843367     0.835724     0.828081     0.820438     0.812795     0.805152     0.797508
      0.789865     0.782222     0.774579     0.766936     0.759293     0.751650     0.744007     0.736364     0.728721     0.721077
      0.713434     0.705791     0.698148     0.690505     0.682862     0.675219     0.667576     0.659933     0.652290     0.644646
      0.637003     0.629360     0.621717     0.614074     0.606431     0.598788     0.591145     0.583502     0.575858     0.568215
      0.560572     0.552929     0.545286     0.537643     0.530000     0.522357     0.514714     0.507071     0.499427     0.491784
      0.484141     0.476498     0.468855     0.461212     0.453569     0.445925     0.438282     0.430639     0.422996     0.415353
      0.407710     0.400067     0.392424     0.384780     0.377137     0.369494     0.361851     0.354208     0.346565     0.338922
      0.331278     0.323635     0.315992     0.308349     0.300706     0.293063     0.285420     0.277777     0.270133     0.262490
      0.254847     0.247204     0.239561     0.231918     0.224275     0.216631     0.208988     0.201345
 NY phased data points follow
   5.90534E+01  6.52212E+01  5.62147E+01  5.85358E+01  5.57776E+01  6.55477E+01  5.49227E+01  7.13180E+01  5.96198E+01  6.90269E+01
   6.68209E+01  7.23736E+01  6.18032E+01  7.48396E+01  7.59385E+01  7.22567E+01  6.07773E+01  7.11923E+01  5.52009E+01  5.86177E+01
   4.78214E+01  6.21817E+01  5.08395E+01  5.07266E+01  4.91179E+01  5.15976E+01  4.95286E+01  5.67457E+01  5.38583E+01  5.71478E+01
   5.05766E+01  5.97941E+01  5.54681E+01  5.57578E+01  4.64808E+01  5.22615E+01  5.27924E+01  4.09239E+01  5.00149E+01  4.66057E+01
   5.48826E+01  6.27272E+01  3.92651E+01  5.53391E+01  3.44325E+01  5.88172E+01  5.13646E+01  4.52136E+01  4.06643E+01  6.46201E+01
   4.00617E+01  5.07743E+01  3.91558E+01  5.31402E+01  2.77641E+01  4.91109E+01  3.97081E+01  4.39636E+01  2.86603E+01  3.49446E+01
   3.68031E+01  4.46478E+01  3.51908E+01  3.94664E+01  3.54964E+01  3.28505E+01  2.09156E+01  3.77267E+01  2.41168E+01  3.37017E+01
   2.99585E+01  3.62338E+01  2.48339E+01  3.42856E+01  2.61002E+01  3.01757E+01  2.54029E+01  3.76296E+01  2.50385E+01  1.98801E+01
   3.18474E+01  2.99882E+01  1.64578E+01  1.96557E+01  1.92416E+01  3.53707E+01  9.38362E+00  2.12483E+01  1.36097E+01  2.21018E+01
   2.34048E+01  3.00447E+01  1.68559E+01  2.81750E+01  1.69219E+01  2.96801E+01  2.37937E+01  2.23591E+01  2.26787E+01  5.73243E+01
   6.07386E+01  6.80163E+01  7.17332E+01  6.43783E+01  5.98199E+01  4.84454E+01  5.29755E+01  5.04168E+01  3.71658E+01  4.68611E+01
   3.49941E+01  2.10943E+01  2.74597E+01  2.87591E+01  1.45477E+01  2.99765E+01  2.32862E+01  2.45501E+01  1.83495E+01  2.19009E+01
   8.36061E+00  3.02812E+01  2.48726E+01  3.71239E+01  4.94777E+01  5.38357E+01  5.93589E+01  5.46743E+01  4.61269E+01  4.38957E+01
   4.11524E+01  2.47219E+01  3.66833E+01  3.29251E+01  2.14410E+01  2.62971E+01  2.09613E+01  2.14119E+01  1.96354E+01  2.80814E+01
   1.61576E+01  2.44923E+01  2.65399E+01  1.16002E+01  2.40531E+01  1.27709E+01  2.34149E+01  1.19191E+01  2.71973E+01  1.81501E+01
   1.88471E+01  1.30892E+01  1.49776E+01  1.44190E+01  1.78761E+01  2.26745E+01  1.02022E+01  1.32171E+01  1.11356E+01  5.91559E+00
   7.60486E+00  1.42885E+01  3.71097E+00  7.87087E+00  1.47978E+01  1.08839E+01  6.43432E+00  6.22942E+00  1.97587E-01 -2.44059E+00
  -7.85646E+00 -2.43237E+00 -6.69729E+00 -4.30196E+00 -1.63481E+01 -1.85447E+01 -8.37681E+00 -1.50689E+00 -1.47152E+01 -1.81855E+01
  -1.88932E+01 -4.68468E+00 -9.04793E+00 -1.31840E+01 -1.90413E+01 -1.35532E+01 -1.09946E+01 -1.61272E+01 -4.80756E+00 -3.64383E+00
  -6.24334E+00 -2.82940E+00 -3.11122E+00 -3.66179E+00 -1.49416E+01  4.07107E+00 -8.43621E+00 -8.88744E+00 -1.38190E+01 -5.17702E+00
  -9.54927E+00 -3.80652E+00 -5.23453E+00  5.84394E+00 -1.28585E+01 -1.00668E+01 -4.79802E+00  2.81553E+00 -5.30522E+00  8.56953E-01
  -2.19063E+00  3.73264E+00  6.05403E+00  4.11864E+00  5.13019E+00  1.09204E+01  1.48407E+01  1.23295E+01 -9.28521E-01  4.65439E+00
  -1.15910E+00 -4.52898E+00  2.74882E-01 -7.94145E+00  5.60307E+00  7.17703E+00  8.42873E+00  9.11732E+00  1.58049E+01  7.26602E+00
   1.25224E+01  4.01724E+00  1.60659E+01  3.99862E+00  5.79347E+00  1.67433E+01  3.66660E+00  1.84464E+01  1.87679E+00  1.43964E+01
  -1.65885E+00  1.01452E+01  7.58188E+00  1.99608E+01  1.87244E+01  1.13504E+01  1.62780E+01  2.45265E+01  2.75844E+01  2.53918E+01
   2.61782E+01  3.70152E+01  2.98741E+01  4.51517E+01  5.52231E+01  5.15833E+01  5.25248E+01  7.20642E+01  8.86331E+01  9.95173E+01
   9.69703E+01  7.75125E+01  4.87553E+01  3.99894E+01  3.87300E+01  2.75806E+01  1.32519E+01  1.04533E+01 -3.04555E+00 -4.43701E+00
  -1.50942E+00  8.74312E+00 -7.92081E+00  3.93968E+00  3.51269E+00  3.50716E+00 -1.16351E+01  6.53052E+00 -1.31963E+01  5.14098E-01
  -1.78786E+01 -2.00419E+00  5.95515E-01  4.87343E+00 -1.54694E+01  1.37309E+00 -2.48080E-01  6.88288E+00  3.59187E+00  2.77613E+00
  -1.75232E+01 -8.62946E+00  4.76819E-01  6.81030E-01  1.44724E+00  4.13942E+00  3.05191E+00 -5.36435E+00  3.78981E+00  2.52753E+00
  -2.54239E+00  8.46555E-01  1.06600E+01  1.79398E+01  1.04708E+01  2.00597E+01  2.67587E+01  2.55705E+01  2.78644E+01  3.89698E+01
   2.57088E+01  3.35441E+01  2.67168E+01  2.61513E+01  3.83070E+01  3.14346E+01  2.22466E+01  2.50361E+01  2.75936E+01  2.95506E+01
   2.53669E+01  2.97685E+01  2.02991E+01  3.06692E+01  1.34775E+01  2.59275E+01  1.54008E+01  9.17297E+00  6.36296E+00  8.77385E+00
   5.73941E+00  1.16504E+01  8.32800E+00  8.61069E+00  1.55737E+01  1.55474E+01  1.00481E+01  3.15281E+00  9.23886E+00  1.23545E+01
   2.77199E+01  1.76561E+01  2.23674E+01  1.21570E+01  1.43210E+01  1.51277E+01  2.15126E+01  1.39000E+01  1.96403E+01  1.37855E+01
   1.00366E+01  2.20365E+01  3.97551E+00  1.85283E+01  9.58560E+00  7.35168E+00  6.45388E+00  2.28500E+01  1.51189E+01  1.28293E+01
   7.09282E+00  1.40311E+01  1.28945E+01  1.43947E+01  1.26294E+01  1.82214E+01  1.34204E+01  9.56491E+00  6.91541E+00  1.29903E+01
   6.51223E+00  3.95161E+00 -7.73545E+00 -1.19473E-01  8.08130E+00  2.53799E+00  1.18049E+01  5.22692E+00  2.56804E+00  3.43060E+00
   4.48706E+00  1.33260E+00 -1.79729E+01 -5.11002E+00  4.78018E+00 -5.89831E+00  6.13877E+00  3.53337E+00  4.22713E+00  1.76639E+01
  -1.86652E+01  1.64484E+01  2.22980E+01  1.49998E+01  2.57633E+01  3.11331E+01  2.87330E+01  2.26032E+01  1.36224E+01  2.81686E+01
   1.20209E+01  1.78968E+01  1.43122E+01  4.07226E+01  2.20716E+01  2.64412E+01  2.74380E+01  2.11718E+01  1.99330E+01  1.98180E+01
   1.55030E+01  2.40503E+01  1.34490E+01  1.26975E+01  8.13295E+00  6.82865E+00 -6.32835E-02 -9.40138E+00 -5.82386E+00  6.70336E+00
  -4.83608E-01 -1.40092E-01 -6.51828E-01  5.21991E+00 -1.50580E+01 -5.56756E+00 -9.42423E-01 -3.14304E+00 -7.22702E+00 -6.80889E+00
  -1.51157E+01  1.86643E+00  3.21401E+00 -3.89744E+00 -1.03534E+01 -1.84795E+00 -4.86390E+00 -7.15682E+00 -1.59063E+00 -1.21968E+01
  -9.46068E+00 -1.22537E+01 -1.68992E+01  1.26557E+00  8.18418E-01  5.04397E+00 -1.73503E+01 -6.65200E+00 -2.03272E-01 -1.40697E+01
  -1.77705E+01  5.59163E+00 -1.27599E+00  2.63330E+00 -1.25795E+01 -9.40916E+00 -7.84186E+00 -3.76821E+00 -6.75704E+00 -2.19873E+01
  -1.22134E+01 -1.91543E+01 -1.42815E+01 -1.47730E+01  1.37574E+01 -3.01203E+00 -2.06414E+01 -6.71266E+00 -8.44416E+00 -8.57407E+00
  -3.59870E+00 -5.51775E+00 -6.34924E+00 -1.01709E+01 -5.67867E+00 -1.79842E+01 -1.05896E+01 -5.76625E+00 -7.08805E+00 -9.07515E+00
  -2.33801E+01 -1.33658E+01 -1.52805E+01 -1.19654E+01 -1.44438E+01  1.58508E+00 -1.15774E+01 -1.23658E+01 -5.85225E+00 -6.02527E+00
  -1.51966E+01 -1.39445E+01 -1.26511E+01 -1.84204E+01 -1.46133E+01 -7.42968E+00 -1.01764E+01  1.41373E-01
 NY points of the fit to the data follow
   5.37165E+01  5.29900E+01  5.28215E+01  5.34818E+01  5.48827E+01  5.69965E+01  5.99056E+01  6.35827E+01  6.75855E+01  7.10489E+01
   7.30146E+01  7.29372E+01  7.10247E+01  6.80760E+01  6.49291E+01  6.20064E+01  5.93542E+01  5.68577E+01  5.45156E+01  5.24727E+01
   5.09039E+01  4.99154E+01  4.93167E+01  4.89783E+01  4.90633E+01  4.99588E+01  5.18828E+01  5.46041E+01  5.74637E+01  5.96049E+01
   6.04059E+01  5.97866E+01  5.80706E+01  5.57250E+01  5.31571E+01  5.06208E+01  4.82296E+01  4.61384E+01  4.46148E+01  4.38299E+01
   4.37770E+01  4.44485E+01  4.58299E+01  4.77633E+01  4.98593E+01  5.15233E+01  5.21616E+01  5.14767E+01  4.96416E+01  4.71800E+01
   4.46896E+01  4.25531E+01  4.08360E+01  3.94873E+01  3.85032E+01  3.79712E+01  3.79092E+01  3.81501E+01  3.83941E+01  3.83368E+01
   3.78133E+01  3.68777E+01  3.57578E+01  3.47417E+01  3.39980E+01  3.35479E+01  3.33307E+01  3.32827E+01  3.33510E+01  3.34697E+01
   3.35546E+01  3.35122E+01  3.32825E+01  3.28751E+01  3.23468E+01  3.17619E+01  3.11559E+01  3.05275E+01  2.98391E+01  2.90720E+01
   2.82166E+01  2.72579E+01  2.61550E+01  2.48884E+01  2.35074E+01  2.21648E+01  2.10642E+01  2.03861E+01  2.01947E+01  2.04009E+01
   2.08487E+01  2.13897E+01  2.19246E+01  2.24692E+01  2.35326E+01  2.56866E+01  2.88236E+01  3.32916E+01  3.96540E+01  4.79710E+01
   5.71228E+01  6.49711E+01  6.92591E+01  6.88702E+01  6.45135E+01  5.81205E+01  5.14861E+01  4.53770E+01  3.97064E+01  3.42496E+01
   2.91928E+01  2.51033E+01  2.23573E+01  2.07948E+01  2.00179E+01  1.96780E+01  1.95030E+01  1.94897E+01  2.00095E+01  2.14882E+01
   2.38591E+01  2.72699E+01  3.19882E+01  3.79802E+01  4.45151E+01  5.02242E+01  5.35973E+01  5.38534E+01  5.14043E+01  4.74306E+01
   4.30068E+01  3.85326E+01  3.38922E+01  2.90488E+01  2.43733E+01  2.05762E+01  1.81578E+01  1.70516E+01  1.68182E+01  1.69557E+01
   1.70533E+01  1.69615E+01  1.66882E+01  1.62863E+01  1.57955E+01  1.52159E+01  1.45235E+01  1.37286E+01  1.28740E+01  1.20177E+01
   1.12222E+01  1.05187E+01  9.89704E+00  9.36785E+00  8.91384E+00  8.48227E+00  8.01502E+00  7.45764E+00  6.84654E+00  6.29576E+00
   5.89993E+00  5.63952E+00  5.39047E+00  5.00969E+00  4.43583E+00  3.72931E+00  3.00693E+00  2.34472E+00  1.76083E+00  1.22009E+00
   6.46509E-01 -2.40523E-03 -7.05160E-01 -1.34378E+00 -1.80828E+00 -2.07008E+00 -2.22616E+00 -2.42470E+00 -2.74469E+00 -3.10593E+00
  -3.37570E+00 -3.47782E+00 -3.40565E+00 -3.16126E+00 -2.70014E+00 -1.93843E+00 -8.27857E-01  4.96745E-01  1.73209E+00  2.51309E+00
   2.67033E+00  2.23694E+00  1.38243E+00  3.49696E-01 -5.92318E-01 -1.18055E+00 -1.21108E+00 -6.03092E-01  5.29903E-01  1.93395E+00
   3.26034E+00  4.12018E+00  4.32221E+00  3.76889E+00  2.41092E+00  4.06051E-01 -1.84509E+00 -3.72205E+00 -4.74334E+00 -4.64623E+00
  -3.40128E+00 -1.26542E+00  1.25017E+00  3.47467E+00  4.81660E+00  4.97659E+00  3.97652E+00  2.08526E+00 -1.90761E-01 -2.24370E+00
  -3.53671E+00 -3.76565E+00 -2.95003E+00 -1.40411E+00  4.33862E-01  2.15587E+00  3.50491E+00  4.43006E+00  5.07045E+00  5.60467E+00
   6.14589E+00  6.78358E+00  7.60645E+00  8.58839E+00  9.57321E+00  1.04345E+01  1.10364E+01  1.12654E+01  1.11094E+01  1.07457E+01
   1.04679E+01  1.05635E+01  1.11793E+01  1.22492E+01  1.35714E+01  1.49318E+01  1.62820E+01  1.78164E+01  1.96212E+01  2.17616E+01
   2.45132E+01  2.87741E+01  3.47020E+01  4.16180E+01  4.93400E+01  5.80339E+01  6.75075E+01  7.65545E+01  8.30253E+01  8.47030E+01
   8.07441E+01  7.23796E+01  6.20618E+01  5.18651E+01  4.25866E+01  3.40483E+01  2.59850E+01  1.87171E+01  1.29202E+01  8.89947E+00
   6.35232E+00  4.80686E+00  3.78015E+00  2.90354E+00  2.05026E+00  1.18850E+00  3.25703E-01 -5.15562E-01 -1.31421E+00 -2.05915E+00
  -2.74111E+00 -3.35079E+00 -3.88224E+00 -4.33342E+00 -4.70595E+00 -5.00084E+00 -5.21406E+00 -5.33556E+00 -5.35326E+00 -5.25631E+00
  -5.03599E+00 -4.68267E+00 -4.18547E+00 -3.52975E+00 -2.69677E+00 -1.66703E+00 -4.23859E-01  1.04487E+00  2.74340E+00  4.66595E+00
   6.79523E+00  9.10145E+00  1.15432E+01  1.40702E+01  1.66237E+01  1.91383E+01  2.15442E+01  2.37708E+01  2.57517E+01  2.74286E+01
   2.87549E+01  2.96991E+01  3.02469E+01  3.04028E+01  3.01913E+01  2.96576E+01  2.88702E+01  2.79343E+01  2.69984E+01  2.60770E+01
   2.51423E+01  2.42416E+01  2.33484E+01  2.22731E+01  2.07021E+01  1.83750E+01  1.53909E+01  1.22060E+01  9.32571E+00  7.20133E+00
   6.11147E+00  6.14459E+00  7.20954E+00  9.03800E+00  1.12071E+01  1.32478E+01  1.48236E+01  1.58660E+01  1.65251E+01  1.69330E+01
   1.71153E+01  1.70613E+01  1.67858E+01  1.63754E+01  1.59188E+01  1.54395E+01  1.49563E+01  1.45039E+01  1.41174E+01  1.38503E+01
   1.37392E+01  1.37852E+01  1.39544E+01  1.41858E+01  1.44043E+01  1.45415E+01  1.45546E+01  1.44354E+01  1.41981E+01  1.38540E+01
   1.34030E+01  1.28446E+01  1.21889E+01  1.14609E+01  1.06872E+01  9.88423E+00  9.06305E+00  8.23126E+00  7.39612E+00  6.56801E+00
   5.75872E+00  4.98048E+00  4.24554E+00  3.56601E+00  2.95367E+00  2.41993E+00  1.97580E+00  1.63191E+00  1.39857E+00  1.28578E+00
   1.30314E+00  1.45966E+00  1.76355E+00  2.22187E+00  2.84014E+00  3.62175E+00  4.56728E+00  5.67374E+00  6.93393E+00  8.33578E+00
   9.86187E+00  1.14891E+01  1.31888E+01  1.49266E+01  1.66637E+01  1.83576E+01  1.99638E+01  2.14372E+01  2.27343E+01  2.38151E+01
   2.46450E+01  2.51969E+01  2.54520E+01  2.54012E+01  2.50454E+01  2.43951E+01  2.34701E+01  2.22978E+01  2.09124E+01  1.93520E+01
   1.76577E+01  1.58708E+01  1.40317E+01  1.21780E+01  1.03434E+01  8.55659E+00  6.84124E+00  5.21551E+00  3.69235E+00  2.27986E+00
   9.81849E-01 -2.01545E-01 -1.27308E+00 -2.23771E+00 -3.10193E+00 -3.87323E+00 -4.55965E+00 -5.16935E+00 -5.71030E+00 -6.19004E+00
  -6.61559E+00 -6.99337E+00 -7.32921E+00 -7.62830E+00 -7.89517E+00 -8.13380E+00 -8.34763E+00 -8.53969E+00 -8.71262E+00 -8.86869E+00
  -9.00982E+00 -9.13768E+00 -9.25372E+00 -9.35923E+00 -9.45533E+00 -9.54297E+00 -9.62299E+00 -9.69608E+00 -9.76292E+00 -9.82409E+00
  -9.88012E+00 -9.93144E+00 -9.97843E+00 -1.00214E+01 -1.00608E+01 -1.00968E+01 -1.01297E+01 -1.01597E+01 -1.01871E+01 -1.02119E+01
  -1.02345E+01 -1.02549E+01 -1.02733E+01 -1.02899E+01 -1.03046E+01 -1.03177E+01 -1.03292E+01 -1.03394E+01 -1.03481E+01 -1.03556E+01
  -1.03618E+01 -1.03668E+01 -1.03708E+01 -1.03738E+01 -1.03757E+01 -1.03768E+01 -1.03769E+01 -1.03762E+01 -1.03748E+01 -1.03726E+01
  -1.03697E+01 -1.03660E+01 -1.03617E+01 -1.03569E+01 -1.03514E+01 -1.03454E+01 -1.03388E+01 -1.03317E+01 -1.03241E+01 -1.03161E+01
  -1.03076E+01 -1.02986E+01 -1.02893E+01 -1.02795E+01 -1.02693E+01 -1.02588E+01 -1.02480E+01 -1.02368E+01
 NY background values follow
     4.784E+01    4.754E+01    4.725E+01    4.696E+01    4.667E+01    4.637E+01    4.608E+01    4.579E+01    4.550E+01    4.520E+01
     4.491E+01    4.462E+01    4.433E+01    4.403E+01    4.374E+01    4.345E+01    4.316E+01    4.287E+01    4.257E+01    4.228E+01
     4.199E+01    4.170E+01    4.141E+01    4.111E+01    4.082E+01    4.053E+01    4.024E+01    3.995E+01    3.966E+01    3.937E+01
     3.907E+01    3.878E+01    3.849E+01    3.820E+01    3.791E+01    3.762E+01    3.733E+01    3.704E+01    3.675E+01    3.646E+01
     3.617E+01    3.588E+01    3.560E+01    3.531E+01    3.502E+01    3.473E+01    3.444E+01    3.415E+01    3.387E+01    3.358E+01
     3.329E+01    3.301E+01    3.272E+01    3.243E+01    3.215E+01    3.186E+01    3.158E+01    3.129E+01    3.101E+01    3.072E+01
     3.044E+01    3.015E+01    2.987E+01    2.959E+01    2.931E+01    2.902E+01    2.874E+01    2.846E+01    2.818E+01    2.790E+01
     2.762E+01    2.734E+01    2.706E+01    2.678E+01    2.650E+01    2.623E+01    2.595E+01    2.567E+01    2.540E+01    2.512E+01
     2.484E+01    2.457E+01    2.429E+01    2.402E+01    2.375E+01    2.348E+01    2.320E+01    2.293E+01    2.266E+01    2.239E+01
     2.212E+01    2.185E+01    2.158E+01    2.132E+01    2.105E+01    2.078E+01    2.052E+01    2.025E+01    1.999E+01    1.972E+01
     1.946E+01    1.920E+01    1.893E+01    1.867E+01    1.841E+01    1.815E+01    1.789E+01    1.763E+01    1.738E+01    1.712E+01
     1.686E+01    1.660E+01    1.635E+01    1.609E+01    1.584E+01    1.559E+01    1.533E+01    1.508E+01    1.483E+01    1.458E+01
     1.433E+01    1.408E+01    1.383E+01    1.358E+01    1.334E+01    1.309E+01    1.284E+01    1.260E+01    1.235E+01    1.211E+01
     1.187E+01    1.162E+01    1.138E+01    1.114E+01    1.090E+01    1.066E+01    1.042E+01    1.019E+01    9.948E+00    9.711E+00
     9.476E+00    9.241E+00    9.007E+00    8.773E+00    8.541E+00    8.310E+00    8.079E+00    7.849E+00    7.620E+00    7.392E+00
     7.165E+00    6.939E+00    6.714E+00    6.490E+00    6.267E+00    6.045E+00    5.824E+00    5.604E+00    5.385E+00    5.167E+00
     4.950E+00    4.734E+00    4.520E+00    4.306E+00    4.094E+00    3.883E+00    3.673E+00    3.464E+00    3.256E+00    3.050E+00
     2.845E+00    2.641E+00    2.438E+00    2.237E+00    2.037E+00    1.839E+00    1.641E+00    1.445E+00    1.251E+00    1.057E+00
     8.654E-01    6.749E-01    4.859E-01    2.982E-01    1.120E-01   -7.281E-02   -2.562E-01   -4.382E-01   -6.189E-01   -7.981E-01
    -9.759E-01   -1.152E+00   -1.327E+00   -1.501E+00   -1.674E+00   -1.845E+00   -2.014E+00   -2.182E+00   -2.349E+00   -2.515E+00
    -2.679E+00   -2.842E+00   -3.003E+00   -3.163E+00   -3.322E+00   -3.480E+00   -3.636E+00   -3.791E+00   -3.944E+00   -4.097E+00
    -4.247E+00   -4.397E+00   -4.545E+00   -4.692E+00   -4.838E+00   -4.983E+00   -5.126E+00   -5.267E+00   -5.408E+00   -5.547E+00
    -5.685E+00   -5.822E+00   -5.958E+00   -6.092E+00   -6.225E+00   -6.356E+00   -6.487E+00   -6.616E+00   -6.744E+00   -6.871E+00
    -6.996E+00   -7.120E+00   -7.244E+00   -7.365E+00   -7.486E+00   -7.605E+00   -7.723E+00   -7.840E+00   -7.956E+00   -8.070E+00
    -8.184E+00   -8.296E+00   -8.406E+00   -8.516E+00   -8.624E+00   -8.732E+00   -8.838E+00   -8.942E+00   -9.046E+00   -9.148E+00
    -9.250E+00   -9.350E+00   -9.448E+00   -9.546E+00   -9.643E+00   -9.738E+00   -9.832E+00   -9.925E+00   -1.002E+01   -1.011E+01
    -1.020E+01   -1.029E+01   -1.037E+01   -1.046E+01   -1.054E+01   -1.063E+01   -1.071E+01   -1.079E+01   -1.087E+01   -1.095E+01
    -1.103E+01   -1.111E+01   -1.118E+01   -1.126E+01   -1.133E+01   -1.140E+01   -1.147E+01   -1.154E+01   -1.161E+01   -1.168E+01
    -1.175E+01   -1.181E+01   -1.188E+01   -1.194E+01   -1.200E+01   -1.206E+01   -1.213E+01   -1.218E+01   -1.224E+01   -1.230E+01
    -1.236E+01   -1.241E+01   -1.247E+01   -1.252E+01   -1.257E+01   -1.262E+01   -1.268E+01   -1.272E+01   -1.277E+01   -1.282E+01
    -1.287E+01   -1.291E+01   -1.296E+01   -1.300E+01   -1.305E+01   -1.309E+01   -1.313E+01   -1.317E+01   -1.321E+01   -1.325E+01
    -1.329E+01   -1.332E+01   -1.336E+01   -1.339E+01   -1.343E+01   -1.346E+01   -1.349E+01   -1.353E+01   -1.356E+01   -1.359E+01
    -1.362E+01   -1.365E+01   -1.367E+01   -1.370E+01   -1.373E+01   -1.375E+01   -1.378E+01   -1.380E+01   -1.383E+01   -1.385E+01
    -1.387E+01   -1.389E+01   -1.391E+01   -1.393E+01   -1.395E+01   -1.397E+01   -1.399E+01   -1.400E+01   -1.402E+01   -1.403E+01
    -1.405E+01   -1.406E+01   -1.408E+01   -1.409E+01   -1.410E+01   -1.411E+01   -1.412E+01   -1.413E+01   -1.414E+01   -1.415E+01
    -1.416E+01   -1.417E+01   -1.417E+01   -1.418E+01   -1.418E+01   -1.419E+01   -1.419E+01   -1.420E+01   -1.420E+01   -1.420E+01
    -1.420E+01   -1.421E+01   -1.421E+01   -1.421E+01   -1.421E+01   -1.420E+01   -1.420E+01   -1.420E+01   -1.420E+01   -1.420E+01
    -1.419E+01   -1.419E+01   -1.418E+01   -1.418E+01   -1.417E+01   -1.417E+01   -1.416E+01   -1.415E+01   -1.414E+01   -1.413E+01
    -1.413E+01   -1.412E+01   -1.411E+01   -1.410E+01   -1.409E+01   -1.408E+01   -1.406E+01   -1.405E+01   -1.404E+01   -1.403E+01
    -1.401E+01   -1.400E+01   -1.399E+01   -1.397E+01   -1.396E+01   -1.394E+01   -1.393E+01   -1.391E+01   -1.389E+01   -1.388E+01
    -1.386E+01   -1.384E+01   -1.382E+01   -1.381E+01   -1.379E+01   -1.377E+01   -1.375E+01   -1.373E+01   -1.371E+01   -1.369E+01
    -1.367E+01   -1.365E+01   -1.363E+01   -1.361E+01   -1.358E+01   -1.356E+01   -1.354E+01   -1.352E+01   -1.350E+01   -1.347E+01
    -1.345E+01   -1.343E+01   -1.340E+01   -1.338E+01   -1.335E+01   -1.333E+01   -1.331E+01   -1.328E+01   -1.326E+01   -1.323E+01
    -1.321E+01   -1.318E+01   -1.316E+01   -1.313E+01   -1.311E+01   -1.308E+01   -1.305E+01   -1.303E+01   -1.300E+01   -1.298E+01
    -1.295E+01   -1.292E+01   -1.290E+01   -1.287E+01   -1.284E+01   -1.282E+01   -1.279E+01   -1.276E+01   -1.274E+01   -1.271E+01
    -1.268E+01   -1.266E+01   -1.263E+01   -1.260E+01   -1.258E+01   -1.255E+01   -1.252E+01   -1.250E+01   -1.247E+01   -1.244E+01
    -1.242E+01   -1.239E+01   -1.236E+01   -1.234E+01   -1.231E+01   -1.228E+01   -1.226E+01   -1.223E+01   -1.221E+01   -1.218E+01
    -1.215E+01   -1.213E+01   -1.210E+01   -1.207E+01   -1.205E+01   -1.202E+01   -1.199E+01   -1.197E+01   -1.194E+01   -1.191E+01
    -1.189E+01   -1.186E+01   -1.183E+01   -1.181E+01   -1.178E+01   -1.175E+01   -1.173E+01   -1.170E+01   -1.167E+01   -1.165E+01
    -1.162E+01   -1.159E+01   -1.157E+01   -1.154E+01   -1.152E+01   -1.149E+01   -1.146E+01   -1.144E+01
 Ala      Conc. = 6.90E+02
