 LCModel (Version 6.3-1L) Copyright: S.W. Provencher.          Ref.: Magn. Reson. Med. 30:672-679 (1993).                
 Slice#1 Row#9 Col#9  PD_24_press_2_raw_act
 36 lines in following concentration table = NCONC+1
    Conc.  %SD /Cr+PCr  Metabolite                                         
  462.127  51%   0.244 Ala                                                 
    0.000 999%   0.000 Asp                                                 
  889.197  45%   0.469 Cr                                                  
 1.01E+03  40%   0.531 PCr                                                 
    0.000 999%   0.000 GABA                                                
    0.000 999%   0.000 Glc                                                 
 2.23E+03  23%   1.174 Gln                                                 
 1.94E+03  29%   1.022 Glu                                                 
  678.442   5%   0.358 GPC                                                 
    0.000 999%   0.000 PCh                                                 
  774.120  16%   0.408 GSH                                                 
 3.13E+03  14%   1.649 Ins                                                 
  481.044  57%   0.254 Lac                                                 
 3.66E+03   3%   1.931 NAA                                                 
    0.000 999%   0.000 NAAG                                                
  267.479  15%   0.141 Scyllo                                              
    0.000 999%   0.000 Tau                                                 
  204.792  82%   0.108 -CrCH2                                              
  678.442   5%   0.358 GPC+PCh                                             
 3.66E+03   3%   1.931 NAA+NAAG                                            
 1.90E+03   4%   1.000 Cr+PCr                                              
 4.16E+03  22%   2.196 Glu+Gln                                             
 2.80E+03  38%   1.476 Lip13a                                              
    0.000 999%   0.000 Lip13b                                              
  501.716  90%   0.265 Lip09                                               
 2.89E+03  18%   1.524 MM09                                                
  440.409  66%   0.232 Lip20                                               
 6.46E+03  10%   3.407 MM20                                                
 1.03E+03  41%   0.546 MM12                                                
 5.61E+03  16%   2.958 MM14                                                
  174.132 190% 9.2E-02 MM17                                                
 2.80E+03  38%   1.476 Lip13a+Lip13b                                       
 9.44E+03   7%   4.980 MM14+Lip13a+Lip13b+MM12                             
 3.39E+03   9%   1.788 MM09+Lip09                                          
 6.90E+03   9%   3.639 MM20+Lip20                                          
   6 lines in following misc. output table
  FWHM = 0.076 ppm    S/N =  13                                            
  Data shift =-0.008 ppm                                                   
  Ph: -30 deg      -8.1 deg/ppm                                            
  alphaB,S = 1.3E+00,   3.8E+02                                            
   14 spline knots.   Ns =10(1)                                            
  ( 5) 4 infls.   ( 1) 1 extrs.                                            
  498 points on ppm-axis = NY
      4.000000     3.992357     3.984714     3.977070     3.969427     3.961784     3.954141     3.946497     3.938854     3.931211
      3.923568     3.915925     3.908281     3.900638     3.892995     3.885352     3.877708     3.870065     3.862422     3.854779
      3.847136     3.839492     3.831849     3.824206     3.816563     3.808919     3.801276     3.793633     3.785990     3.778347
      3.770703     3.763060     3.755417     3.747774     3.740130     3.732487     3.724844     3.717201     3.709558     3.701914
      3.694271     3.686628     3.678985     3.671341     3.663698     3.656055     3.648412     3.640769     3.633125     3.625482
      3.617839     3.610196     3.602552     3.594909     3.587266     3.579623     3.571980     3.564336     3.556693     3.549050
      3.541407     3.533763     3.526120     3.518477     3.510834     3.503191     3.495547     3.487904     3.480261     3.472618
      3.464974     3.457331     3.449688     3.442045     3.434402     3.426758     3.419115     3.411472     3.403829     3.396185
      3.388542     3.380899     3.373256     3.365613     3.357969     3.350326     3.342683     3.335040     3.327396     3.319753
      3.312110     3.304467     3.296824     3.289180     3.281537     3.273894     3.266251     3.258607     3.250964     3.243321
      3.235678     3.228034     3.220391     3.212748     3.205105     3.197462     3.189818     3.182175     3.174532     3.166889
      3.159245     3.151602     3.143959     3.136316     3.128673     3.121029     3.113386     3.105743     3.098100     3.090456
      3.082813     3.075170     3.067527     3.059884     3.052240     3.044597     3.036954     3.029311     3.021667     3.014024
      3.006381     2.998738     2.991095     2.983451     2.975808     2.968165     2.960522     2.952878     2.945235     2.937592
      2.929949     2.922306     2.914662     2.907019     2.899376     2.891733     2.884089     2.876446     2.868803     2.861160
      2.853517     2.845873     2.838230     2.830587     2.822944     2.815300     2.807657     2.800014     2.792371     2.784728
      2.777084     2.769441     2.761798     2.754155     2.746511     2.738868     2.731225     2.723582     2.715939     2.708295
      2.700652     2.693009     2.685366     2.677722     2.670079     2.662436     2.654793     2.647150     2.639506     2.631863
      2.624220     2.616577     2.608933     2.601290     2.593647     2.586004     2.578361     2.570717     2.563074     2.555431
      2.547788     2.540144     2.532501     2.524858     2.517215     2.509572     2.501928     2.494285     2.486642     2.478999
      2.471355     2.463712     2.456069     2.448426     2.440783     2.433139     2.425496     2.417853     2.410210     2.402566
      2.394923     2.387280     2.379637     2.371994     2.364350     2.356707     2.349064     2.341421     2.333777     2.326134
      2.318491     2.310848     2.303205     2.295561     2.287918     2.280275     2.272632     2.264988     2.257345     2.249702
      2.242059     2.234416     2.226772     2.219129     2.211486     2.203843     2.196199     2.188556     2.180913     2.173270
      2.165627     2.157983     2.150340     2.142697     2.135054     2.127410     2.119767     2.112124     2.104481     2.096838
      2.089194     2.081551     2.073908     2.066265     2.058621     2.050978     2.043335     2.035692     2.028049     2.020405
      2.012762     2.005119     1.997476     1.989833     1.982190     1.974546     1.966903     1.959260     1.951617     1.943974
      1.936331     1.928688     1.921045     1.913402     1.905759     1.898115     1.890472     1.882829     1.875186     1.867543
      1.859900     1.852257     1.844614     1.836971     1.829327     1.821684     1.814041     1.806398     1.798755     1.791112
      1.783469     1.775826     1.768183     1.760540     1.752896     1.745253     1.737610     1.729967     1.722324     1.714681
      1.707038     1.699395     1.691752     1.684108     1.676465     1.668822     1.661179     1.653536     1.645893     1.638250
      1.630607     1.622964     1.615321     1.607677     1.600034     1.592391     1.584748     1.577105     1.569462     1.561819
      1.554176     1.546533     1.538890     1.531246     1.523603     1.515960     1.508317     1.500674     1.493031     1.485388
      1.477745     1.470102     1.462458     1.454815     1.447172     1.439529     1.431886     1.424243     1.416600     1.408957
      1.401314     1.393671     1.386027     1.378384     1.370741     1.363098     1.355455     1.347812     1.340169     1.332526
      1.324883     1.317240     1.309596     1.301953     1.294310     1.286667     1.279024     1.271381     1.263738     1.256095
      1.248452     1.240808     1.233165     1.225522     1.217879     1.210236     1.202593     1.194950     1.187307     1.179664
      1.172021     1.164377     1.156734     1.149091     1.141448     1.133805     1.126162     1.118519     1.110876     1.103233
      1.095590     1.087946     1.080303     1.072660     1.065017     1.057374     1.049731     1.042088     1.034445     1.026802
      1.019158     1.011515     1.003872     0.996229     0.988586     0.980943     0.973300     0.965657     0.958014     0.950371
      0.942727     0.935084     0.927441     0.919798     0.912155     0.904512     0.896869     0.889226     0.881583     0.873940
      0.866296     0.858653     0.851010     0.843367     0.835724     0.828081     0.820438     0.812795     0.805152     0.797508
      0.789865     0.782222     0.774579     0.766936     0.759293     0.751650     0.744007     0.736364     0.728721     0.721077
      0.713434     0.705791     0.698148     0.690505     0.682862     0.675219     0.667576     0.659933     0.652290     0.644646
      0.637003     0.629360     0.621717     0.614074     0.606431     0.598788     0.591145     0.583502     0.575858     0.568215
      0.560572     0.552929     0.545286     0.537643     0.530000     0.522357     0.514714     0.507071     0.499427     0.491784
      0.484141     0.476498     0.468855     0.461212     0.453569     0.445925     0.438282     0.430639     0.422996     0.415353
      0.407710     0.400067     0.392424     0.384780     0.377137     0.369494     0.361851     0.354208     0.346565     0.338922
      0.331278     0.323635     0.315992     0.308349     0.300706     0.293063     0.285420     0.277777     0.270133     0.262490
      0.254847     0.247204     0.239561     0.231918     0.224275     0.216631     0.208988     0.201345
 NY phased data points follow
   1.02176E+01 -1.15093E+00  1.79737E+00  2.33645E+00  8.77550E+00  5.90138E+00  1.74802E+01  1.91927E+01  2.52612E+01  1.69526E+01
   2.38804E+01  2.05782E+01  2.34053E+01  2.21530E+01  2.49563E+01  1.09565E+01  1.02494E+01  6.45195E+00  7.75213E+00  6.46599E-01
   7.92934E+00 -1.77193E+00 -7.80022E-01  6.46447E+00  5.81794E+00  3.18465E+00  6.75628E+00  5.54732E+00  9.58492E+00  4.03031E+00
   1.22807E+01  3.55793E+00  6.89530E+00  1.65037E+00  7.03623E+00  6.17789E+00  8.05945E+00  7.66793E+00  1.05765E+01  6.80297E+00
   7.65791E+00  2.73027E+00  9.79863E+00  5.17370E+00  1.34443E+01  7.67206E+00  1.55111E+01  7.88537E+00  1.25221E+01  1.12495E+01
   1.07211E+01  7.96003E+00  7.93980E+00  3.43538E+00  6.51931E+00  4.97305E+00  3.77528E+00  2.86425E+00  5.05460E+00  2.93999E+00
   2.44542E+00 -4.48770E+00 -1.97573E+00  1.65894E+00 -3.52517E+00 -6.39956E+00 -5.36646E+00 -4.48255E+00 -1.01842E+00 -4.10019E+00
  -2.68498E+00 -4.81485E+00 -9.35437E-01 -5.38554E+00 -2.26145E+00 -7.37375E+00 -4.74668E+00 -6.72946E+00 -6.83240E-01 -3.94597E+00
   4.91421E+00  2.82405E+00  4.77602E-01 -3.27271E+00  4.30811E-01  1.32963E+00  4.67920E+00 -1.29235E-01  2.96753E+00  2.65347E+00
   6.34684E-01 -3.28715E+00  4.91524E+00  7.61771E+00  6.67284E-01  3.53095E+00  1.22374E+01  9.06589E+00  1.66194E+01  1.94822E+01
   2.75425E+01  3.14507E+01  3.73258E+01  3.42834E+01  3.59139E+01  3.24204E+01  3.14540E+01  2.31409E+01  2.01148E+01  4.15076E+00
   5.44086E+00  2.97025E+00  1.28258E+00  1.33290E+00  2.30162E+00 -9.05438E-01  4.13519E+00  1.25722E+00  6.28941E+00  1.21104E+00
   5.96456E+00  8.65842E+00  2.24692E+01  1.90720E+01  3.14111E+01  3.48116E+01  3.84038E+01  3.97765E+01  4.12480E+01  4.44965E+01
   3.98210E+01  3.30811E+01  2.43759E+01  1.12894E+01  6.35639E+00  1.41360E+00  1.06645E+01  7.46799E+00  4.52388E+00 -7.54028E-01
   4.74653E+00 -1.26616E+00  3.09675E+00 -1.89985E+00  1.51269E+00 -1.40163E+00  4.78793E-02 -2.31901E+00 -2.12090E+00 -2.73929E+00
  -4.09848E+00 -3.77721E+00 -2.17768E+00 -5.77304E+00 -3.44528E+00 -2.25179E+00 -2.44185E+00 -5.08031E+00 -7.85579E+00 -9.43911E+00
  -4.56107E+00 -8.44926E+00 -6.29936E+00 -4.48480E+00 -6.18387E+00 -1.05049E+01 -1.68591E+01 -1.74231E+01 -1.31611E+01 -1.59354E+01
  -1.46340E+01 -1.71148E+01 -2.24854E+01 -2.64920E+01 -2.65721E+01 -2.18374E+01 -2.10370E+01 -2.22596E+01 -1.95511E+01 -2.06896E+01
  -1.92234E+01 -1.34352E+01 -1.35633E+01 -1.08970E+01 -1.72078E+01 -1.19225E+01 -1.45281E+01 -1.05947E+01 -5.30611E+00 -8.61229E+00
  -1.28545E+01 -1.12808E+01 -9.18301E+00 -7.36596E+00 -1.11736E+01 -1.09528E+01 -9.46606E+00 -9.99274E+00 -1.18656E+01 -6.76157E+00
  -5.25125E+00 -3.05751E+00 -4.39496E+00 -2.47820E+00 -8.66780E-01 -1.94143E+00 -3.92076E+00 -4.00875E+00 -1.06477E+00  1.35653E+00
   2.80368E+00  2.42376E+00  6.60791E+00  5.88565E+00  7.00617E+00  5.30153E+00  1.04105E+01  1.37269E+01  5.04990E+00  8.27082E+00
   5.42711E+00  1.16106E+00  5.32827E+00  3.25461E+00  2.00119E+00  4.11449E+00  1.27623E+01  5.88702E+00  9.85277E+00  9.78146E+00
   1.28489E+01  1.14669E+01  1.23772E+01  1.27886E+01  1.65746E+01  1.00860E+01  1.22269E+01  9.25456E+00  1.18303E+01  6.42634E+00
   1.06699E+01  9.70341E+00  1.32563E+01  9.16448E+00  9.90751E+00  1.13169E+01  1.13600E+01  1.49473E+01  1.53272E+01  1.71346E+01
   1.66433E+01  2.19662E+01  2.73818E+01  3.52272E+01  4.35676E+01  5.60808E+01  6.82919E+01  8.57445E+01  9.85767E+01  9.93255E+01
   1.03521E+02  1.00042E+02  9.72310E+01  9.31189E+01  7.98285E+01  6.25571E+01  4.81845E+01  3.49537E+01  2.69473E+01  2.23043E+01
   2.49596E+01  1.75275E+01  1.46432E+01  1.25759E+01  1.46976E+01  1.49591E+01  7.00949E+00  9.61617E+00  8.37878E+00 -1.45635E+00
   5.70915E+00  6.78349E+00  2.58731E+00  7.63196E-01  2.85901E+00  7.25440E-01  2.01672E-01  2.11417E+00  4.85425E+00 -2.36539E+00
   2.45629E+00  5.97477E-02  2.03962E+00  2.36370E+00  1.54144E+00  1.95414E+00 -5.53605E-01  3.70703E+00 -2.52486E+00  2.30359E+00
   2.41344E+00  2.29047E+00 -4.00930E-02 -2.67345E+00  2.87293E+00  4.84197E+00  7.38698E+00  4.51086E+00  2.90431E+00  2.29929E+00
   9.67773E+00  6.74891E+00  3.26889E+00  1.20506E+01  1.27315E+01  1.15653E+01  1.24838E+01  1.32531E+01  1.53384E+01  1.66883E+01
   1.32569E+01  1.74095E+01  1.79058E+01  1.94323E+01  1.95208E+01  2.01252E+01  1.98609E+01  2.40289E+01  2.69433E+01  2.46255E+01
   2.76437E+01  2.82612E+01  2.80001E+01  2.98420E+01  3.11400E+01  2.89353E+01  3.24397E+01  3.74256E+01  3.65236E+01  3.51522E+01
   3.65431E+01  3.42698E+01  3.45064E+01  3.71256E+01  3.45401E+01  3.58350E+01  3.73967E+01  2.83278E+01  2.82922E+01  3.14815E+01
   2.49595E+01  2.13019E+01  2.31591E+01  2.55006E+01  2.64709E+01  2.35860E+01  2.44812E+01  2.31847E+01  2.67199E+01  2.10568E+01
   2.40492E+01  2.42596E+01  2.10372E+01  2.07071E+01  2.21438E+01  2.23796E+01  2.22712E+01  2.11579E+01  1.86088E+01  2.51655E+01
   1.80143E+01  1.80517E+01  1.79007E+01  1.89258E+01  1.42429E+01  1.43144E+01  1.07672E+01  1.35748E+01  1.10924E+01  1.20201E+01
   1.10956E+01  1.73772E+01  1.56616E+01  1.67354E+01  4.74616E+00  8.93328E+00  8.61741E+00  1.47070E+01  1.14755E+01  1.30051E+01
   1.51623E+01  1.72483E+01  1.80039E+01  1.75083E+01  2.25297E+01  2.30973E+01  2.05594E+01  2.20673E+01  2.16829E+01  2.55761E+01
   2.41327E+01  2.40736E+01  2.69246E+01  2.24450E+01  2.78884E+01  2.72094E+01  2.58192E+01  2.94580E+01  2.99491E+01  2.62407E+01
   2.43879E+01  2.74115E+01  2.05519E+01  2.49306E+01  1.98408E+01  2.37505E+01  1.81161E+01  1.80621E+01  2.13892E+01  1.40186E+01
   1.78948E+01  1.63193E+01  1.61527E+01  1.79275E+01  1.73396E+01  1.24588E+01  1.45390E+01  1.21418E+01  1.40017E+01  8.13922E+00
   1.18048E+01  7.64018E+00  8.87520E+00  7.82973E+00  9.07772E+00  1.61167E+01  7.37608E+00  1.42681E+01  6.77169E+00  9.83897E+00
   1.09462E+01  1.11792E+01  6.84158E+00  8.78687E+00  8.20684E+00  8.93791E+00  5.41018E+00  6.46209E+00  9.82896E+00  7.38681E+00
   6.95818E+00  1.05071E+01  9.75332E+00  7.93356E+00  6.79812E+00  9.00842E+00  7.14399E+00  8.26385E+00  7.35676E+00  1.06094E+01
   6.50890E+00  5.80759E+00  8.09675E+00  9.46415E+00  5.42047E+00  7.09408E+00  7.54256E+00  8.68705E+00  6.17996E+00  1.08261E+01
   8.73886E+00  9.74060E+00  6.56144E+00  7.60298E+00  4.86832E+00  8.18634E+00  6.55094E+00  9.29915E+00  7.93275E+00  7.10720E+00
   8.39167E+00  5.23903E+00  7.60361E+00  8.01001E+00  6.33386E+00  1.11757E+01  7.57845E+00  1.06456E+01  7.33244E+00  1.08778E+01
   8.75390E+00  3.07643E+00  7.81521E+00  3.43668E+00  6.16643E+00  3.96069E+00  5.16051E+00  4.71377E+00
 NY points of the fit to the data follow
   1.82953E+00  1.94258E+00  2.93862E+00  4.71270E+00  7.24905E+00  1.04782E+01  1.40103E+01  1.74543E+01  2.04602E+01  2.26516E+01
   2.38076E+01  2.38861E+01  2.29146E+01  2.09452E+01  1.81413E+01  1.48362E+01  1.14533E+01  8.42071E+00  5.93293E+00  4.04538E+00
   2.68939E+00  1.77910E+00  1.42561E+00  1.67192E+00  2.70383E+00  4.27884E+00  6.11200E+00  7.95142E+00  9.60404E+00  1.09185E+01
   1.17712E+01  1.20327E+01  1.15844E+01  1.03949E+01  8.57293E+00  6.38531E+00  4.30444E+00  2.84417E+00  2.20551E+00  2.27841E+00
   2.85781E+00  4.01742E+00  5.74097E+00  7.67969E+00  9.53610E+00  1.09559E+01  1.17323E+01  1.17588E+01  1.10256E+01  9.66982E+00
   7.85849E+00  5.72286E+00  3.53812E+00  1.65629E+00  4.33086E-01 -3.12845E-03  7.54251E-02  2.18311E-01  2.00236E-01  1.30521E-01
   8.93692E-02 -3.38929E-02 -2.93616E-01 -6.71056E-01 -1.10546E+00 -1.50232E+00 -1.73955E+00 -1.71348E+00 -1.42501E+00 -1.01995E+00
  -6.82929E-01 -4.73188E-01 -3.89022E-01 -4.24385E-01 -5.52920E-01 -7.76501E-01 -1.02279E+00 -1.11267E+00 -1.03136E+00 -8.04297E-01
  -4.07785E-01  1.44765E-01  7.63383E-01  1.34116E+00  1.78838E+00  1.97957E+00  1.90924E+00  1.63971E+00  1.19241E+00  5.47020E-01
  -2.96790E-01 -1.22065E+00 -1.85811E+00 -1.38174E+00  4.60521E-01  3.33082E+00  7.06040E+00  1.16077E+01  1.69553E+01  2.28684E+01
   2.84582E+01  3.27910E+01  3.54549E+01  3.64300E+01  3.57566E+01  3.33319E+01  2.90766E+01  2.33070E+01  1.69123E+01  1.10076E+01
   6.41044E+00  3.24818E+00  9.38476E-01 -1.22145E+00 -3.20033E+00 -4.12261E+00 -3.98427E+00 -2.89255E+00 -5.49033E-01  2.76480E+00
   6.96572E+00  1.21142E+01  1.81591E+01  2.47551E+01  3.11621E+01  3.64648E+01  4.00528E+01  4.17734E+01  4.16738E+01  3.97300E+01
   3.58285E+01  3.01537E+01  2.34366E+01  1.68027E+01  1.12804E+01  7.27398E+00  4.40027E+00  1.92915E+00 -3.76135E-01 -1.80404E+00
  -2.06598E+00 -1.96473E+00 -1.88312E+00 -1.96798E+00 -2.22997E+00 -2.58259E+00 -2.97569E+00 -3.39292E+00 -3.79249E+00 -4.16518E+00
  -4.52675E+00 -4.90253E+00 -5.30060E+00 -5.66621E+00 -5.99442E+00 -6.28243E+00 -6.56118E+00 -6.85646E+00 -7.14058E+00 -7.37505E+00
  -7.55082E+00 -7.70325E+00 -7.88339E+00 -8.10715E+00 -8.35351E+00 -8.61342E+00 -8.94403E+00 -9.41898E+00 -1.00277E+01 -1.07376E+01
  -1.14622E+01 -1.21126E+01 -1.26330E+01 -1.30431E+01 -1.33690E+01 -1.36362E+01 -1.38537E+01 -1.40020E+01 -1.40710E+01 -1.40049E+01
  -1.37802E+01 -1.34344E+01 -1.30009E+01 -1.24683E+01 -1.17570E+01 -1.07978E+01 -9.65959E+00 -8.51549E+00 -7.58969E+00 -6.94675E+00
  -6.46667E+00 -6.07873E+00 -5.80032E+00 -5.67989E+00 -5.56451E+00 -5.21699E+00 -4.49029E+00 -3.35833E+00 -1.95926E+00 -6.28353E-01
   3.60211E-01  9.54489E-01  9.99713E-01  3.30378E-01 -1.01826E+00 -2.81461E+00 -4.63786E+00 -6.12658E+00 -7.08410E+00 -7.34667E+00
  -6.84141E+00 -5.55219E+00 -3.65235E+00 -1.50451E+00  4.31945E-01  1.79724E+00  2.47134E+00  2.48315E+00  2.00766E+00  1.31769E+00
   6.45923E-01  7.60894E-02 -2.34586E-01  6.34169E-02  9.41615E-01  2.06594E+00  3.22930E+00  4.41501E+00  5.59591E+00  6.59908E+00
   7.35281E+00  8.01260E+00  8.72072E+00  9.53202E+00  1.03633E+01  1.11011E+01  1.17160E+01  1.21722E+01  1.24015E+01  1.24227E+01
   1.23250E+01  1.21892E+01  1.20449E+01  1.19301E+01  1.20072E+01  1.24860E+01  1.33856E+01  1.45289E+01  1.57630E+01  1.71914E+01
   1.97566E+01  2.44605E+01  3.07966E+01  3.86642E+01  4.81752E+01  5.92705E+01  7.13618E+01  8.31271E+01  9.28198E+01  9.92023E+01
   1.02031E+02  1.01508E+02  9.75966E+01  8.99902E+01  7.88618E+01  6.55236E+01  5.21599E+01  4.08746E+01  3.25871E+01  2.65681E+01
   2.11746E+01  1.57090E+01  1.16826E+01  1.00047E+01  9.04644E+00  8.28378E+00  7.63279E+00  7.03937E+00  6.45865E+00  5.89977E+00
   5.37043E+00  4.88084E+00  4.43983E+00  4.04658E+00  3.69097E+00  3.37404E+00  3.10209E+00  2.87173E+00  2.67555E+00  2.51054E+00
   2.37762E+00  2.27768E+00  2.20719E+00  2.16122E+00  2.14097E+00  2.14707E+00  2.17868E+00  2.23475E+00  2.31466E+00  2.41845E+00
   2.54603E+00  2.69766E+00  2.87426E+00  3.07676E+00  3.30682E+00  3.56762E+00  3.86309E+00  4.19763E+00  4.57628E+00  5.00513E+00
   5.49155E+00  6.04400E+00  6.67159E+00  7.38408E+00  8.19276E+00  9.11339E+00  1.01740E+01  1.14223E+01  1.28302E+01  1.43241E+01
   1.58775E+01  1.74589E+01  1.90034E+01  2.04116E+01  2.15737E+01  2.24780E+01  2.32187E+01  2.38569E+01  2.44440E+01  2.50338E+01
   2.56998E+01  2.65401E+01  2.76335E+01  2.89778E+01  3.04791E+01  3.19932E+01  3.33843E+01  3.45927E+01  3.55927E+01  3.63178E+01
   3.66682E+01  3.66044E+01  3.62221E+01  3.55857E+01  3.46640E+01  3.34273E+01  3.19145E+01  3.02755E+01  2.87027E+01  2.72561E+01
   2.60035E+01  2.50409E+01  2.44532E+01  2.42581E+01  2.43895E+01  2.47154E+01  2.50701E+01  2.53051E+01  2.53485E+01  2.52140E+01
   2.48725E+01  2.42670E+01  2.35141E+01  2.27427E+01  2.19935E+01  2.12130E+01  2.03452E+01  1.94746E+01  1.86898E+01  1.79589E+01
   1.72643E+01  1.66025E+01  1.59754E+01  1.53869E+01  1.48418E+01  1.43451E+01  1.39019E+01  1.35174E+01  1.31964E+01  1.29436E+01
   1.27633E+01  1.26593E+01  1.26353E+01  1.26947E+01  1.28404E+01  1.30748E+01  1.33994E+01  1.38151E+01  1.43214E+01  1.49167E+01
   1.55977E+01  1.63589E+01  1.71926E+01  1.80888E+01  1.90350E+01  2.00163E+01  2.10154E+01  2.20130E+01  2.29879E+01  2.39184E+01
   2.47823E+01  2.55584E+01  2.62265E+01  2.67689E+01  2.71708E+01  2.74215E+01  2.75143E+01  2.74473E+01  2.72227E+01  2.68475E+01
   2.63322E+01  2.56913E+01  2.49419E+01  2.41026E+01  2.31934E+01  2.22342E+01  2.12446E+01  2.02431E+01  1.92461E+01  1.82682E+01
   1.73213E+01  1.64151E+01  1.55571E+01  1.47523E+01  1.40036E+01  1.33123E+01  1.26781E+01  1.20994E+01  1.15741E+01  1.10991E+01
   1.06712E+01  1.02866E+01  9.94150E+00  9.63250E+00  9.35615E+00  9.10923E+00  8.88863E+00  8.69155E+00  8.51545E+00  8.35821E+00
   8.21784E+00  8.09257E+00  7.98071E+00  7.88085E+00  7.79177E+00  7.71249E+00  7.64205E+00  7.57957E+00  7.52421E+00  7.47531E+00
   7.43235E+00  7.39487E+00  7.36239E+00  7.33442E+00  7.31053E+00  7.29044E+00  7.27390E+00  7.26071E+00  7.25054E+00  7.24312E+00
   7.23822E+00  7.23574E+00  7.23555E+00  7.23752E+00  7.24143E+00  7.24710E+00  7.25442E+00  7.26338E+00  7.27390E+00  7.28587E+00
   7.29911E+00  7.31353E+00  7.32910E+00  7.34585E+00  7.36368E+00  7.38250E+00  7.40218E+00  7.42269E+00  7.44403E+00  7.46623E+00
   7.48919E+00  7.51282E+00  7.53703E+00  7.56184E+00  7.58727E+00  7.61333E+00  7.63989E+00  7.66690E+00  7.69429E+00  7.72212E+00
   7.75040E+00  7.77910E+00  7.80810E+00  7.83735E+00  7.86683E+00  7.89662E+00  7.92667E+00  7.95693E+00
 NY background values follow
    -1.008E+01   -1.007E+01   -1.007E+01   -1.006E+01   -1.005E+01   -1.004E+01   -1.003E+01   -1.003E+01   -1.002E+01   -1.001E+01
    -1.000E+01   -9.996E+00   -9.988E+00   -9.981E+00   -9.973E+00   -9.965E+00   -9.958E+00   -9.950E+00   -9.942E+00   -9.934E+00
    -9.927E+00   -9.919E+00   -9.911E+00   -9.903E+00   -9.896E+00   -9.888E+00   -9.880E+00   -9.872E+00   -9.864E+00   -9.857E+00
    -9.849E+00   -9.841E+00   -9.833E+00   -9.825E+00   -9.818E+00   -9.810E+00   -9.802E+00   -9.794E+00   -9.786E+00   -9.779E+00
    -9.771E+00   -9.763E+00   -9.755E+00   -9.747E+00   -9.739E+00   -9.731E+00   -9.724E+00   -9.716E+00   -9.708E+00   -9.700E+00
    -9.692E+00   -9.684E+00   -9.676E+00   -9.668E+00   -9.660E+00   -9.652E+00   -9.644E+00   -9.636E+00   -9.628E+00   -9.620E+00
    -9.612E+00   -9.604E+00   -9.596E+00   -9.588E+00   -9.580E+00   -9.572E+00   -9.564E+00   -9.556E+00   -9.547E+00   -9.539E+00
    -9.531E+00   -9.522E+00   -9.514E+00   -9.506E+00   -9.497E+00   -9.489E+00   -9.480E+00   -9.472E+00   -9.463E+00   -9.454E+00
    -9.446E+00   -9.437E+00   -9.428E+00   -9.419E+00   -9.411E+00   -9.402E+00   -9.393E+00   -9.384E+00   -9.375E+00   -9.365E+00
    -9.356E+00   -9.347E+00   -9.338E+00   -9.328E+00   -9.319E+00   -9.309E+00   -9.300E+00   -9.290E+00   -9.281E+00   -9.271E+00
    -9.261E+00   -9.251E+00   -9.241E+00   -9.231E+00   -9.221E+00   -9.211E+00   -9.201E+00   -9.190E+00   -9.180E+00   -9.169E+00
    -9.159E+00   -9.148E+00   -9.137E+00   -9.127E+00   -9.116E+00   -9.105E+00   -9.094E+00   -9.082E+00   -9.071E+00   -9.060E+00
    -9.048E+00   -9.037E+00   -9.025E+00   -9.013E+00   -9.002E+00   -8.990E+00   -8.978E+00   -8.965E+00   -8.953E+00   -8.941E+00
    -8.928E+00   -8.916E+00   -8.903E+00   -8.890E+00   -8.877E+00   -8.864E+00   -8.851E+00   -8.838E+00   -8.824E+00   -8.811E+00
    -8.797E+00   -8.783E+00   -8.769E+00   -8.755E+00   -8.741E+00   -8.727E+00   -8.712E+00   -8.697E+00   -8.682E+00   -8.667E+00
    -8.652E+00   -8.636E+00   -8.621E+00   -8.605E+00   -8.588E+00   -8.572E+00   -8.555E+00   -8.539E+00   -8.521E+00   -8.504E+00
    -8.487E+00   -8.469E+00   -8.451E+00   -8.432E+00   -8.414E+00   -8.395E+00   -8.375E+00   -8.356E+00   -8.336E+00   -8.316E+00
    -8.296E+00   -8.275E+00   -8.254E+00   -8.232E+00   -8.211E+00   -8.189E+00   -8.166E+00   -8.144E+00   -8.121E+00   -8.097E+00
    -8.073E+00   -8.049E+00   -8.025E+00   -8.000E+00   -7.974E+00   -7.949E+00   -7.923E+00   -7.896E+00   -7.870E+00   -7.843E+00
    -7.815E+00   -7.788E+00   -7.760E+00   -7.732E+00   -7.703E+00   -7.674E+00   -7.645E+00   -7.616E+00   -7.586E+00   -7.556E+00
    -7.526E+00   -7.496E+00   -7.465E+00   -7.434E+00   -7.403E+00   -7.372E+00   -7.340E+00   -7.308E+00   -7.276E+00   -7.244E+00
    -7.212E+00   -7.179E+00   -7.147E+00   -7.114E+00   -7.081E+00   -7.047E+00   -7.014E+00   -6.980E+00   -6.947E+00   -6.913E+00
    -6.879E+00   -6.845E+00   -6.811E+00   -6.777E+00   -6.742E+00   -6.708E+00   -6.673E+00   -6.639E+00   -6.604E+00   -6.569E+00
    -6.534E+00   -6.499E+00   -6.464E+00   -6.429E+00   -6.394E+00   -6.358E+00   -6.323E+00   -6.287E+00   -6.252E+00   -6.216E+00
    -6.180E+00   -6.144E+00   -6.108E+00   -6.072E+00   -6.036E+00   -5.999E+00   -5.963E+00   -5.926E+00   -5.889E+00   -5.852E+00
    -5.815E+00   -5.778E+00   -5.740E+00   -5.703E+00   -5.665E+00   -5.627E+00   -5.590E+00   -5.552E+00   -5.513E+00   -5.475E+00
    -5.436E+00   -5.398E+00   -5.359E+00   -5.320E+00   -5.281E+00   -5.242E+00   -5.202E+00   -5.162E+00   -5.123E+00   -5.083E+00
    -5.043E+00   -5.002E+00   -4.962E+00   -4.921E+00   -4.880E+00   -4.839E+00   -4.798E+00   -4.757E+00   -4.715E+00   -4.673E+00
    -4.631E+00   -4.589E+00   -4.547E+00   -4.505E+00   -4.462E+00   -4.420E+00   -4.377E+00   -4.334E+00   -4.291E+00   -4.247E+00
    -4.204E+00   -4.160E+00   -4.117E+00   -4.073E+00   -4.029E+00   -3.985E+00   -3.940E+00   -3.896E+00   -3.851E+00   -3.806E+00
    -3.762E+00   -3.716E+00   -3.671E+00   -3.626E+00   -3.581E+00   -3.535E+00   -3.489E+00   -3.444E+00   -3.398E+00   -3.352E+00
    -3.306E+00   -3.259E+00   -3.213E+00   -3.166E+00   -3.120E+00   -3.073E+00   -3.026E+00   -2.979E+00   -2.932E+00   -2.885E+00
    -2.838E+00   -2.790E+00   -2.743E+00   -2.695E+00   -2.648E+00   -2.600E+00   -2.552E+00   -2.504E+00   -2.456E+00   -2.408E+00
    -2.359E+00   -2.311E+00   -2.263E+00   -2.214E+00   -2.165E+00   -2.117E+00   -2.068E+00   -2.019E+00   -1.970E+00   -1.921E+00
    -1.872E+00   -1.822E+00   -1.773E+00   -1.724E+00   -1.674E+00   -1.625E+00   -1.575E+00   -1.525E+00   -1.476E+00   -1.426E+00
    -1.376E+00   -1.326E+00   -1.276E+00   -1.225E+00   -1.175E+00   -1.125E+00   -1.075E+00   -1.024E+00   -9.737E-01   -9.231E-01
    -8.725E-01   -8.219E-01   -7.711E-01   -7.203E-01   -6.695E-01   -6.186E-01   -5.677E-01   -5.167E-01   -4.656E-01   -4.145E-01
    -3.633E-01   -3.121E-01   -2.608E-01   -2.095E-01   -1.582E-01   -1.068E-01   -5.531E-02   -3.810E-03    4.774E-02    9.932E-02
     1.510E-01    2.026E-01    2.543E-01    3.061E-01    3.579E-01    4.097E-01    4.616E-01    5.135E-01    5.654E-01    6.174E-01
     6.694E-01    7.215E-01    7.736E-01    8.257E-01    8.778E-01    9.300E-01    9.822E-01    1.034E+00    1.087E+00    1.139E+00
     1.191E+00    1.244E+00    1.296E+00    1.348E+00    1.401E+00    1.453E+00    1.506E+00    1.558E+00    1.610E+00    1.663E+00
     1.715E+00    1.768E+00    1.821E+00    1.873E+00    1.926E+00    1.978E+00    2.031E+00    2.083E+00    2.136E+00    2.188E+00
     2.241E+00    2.294E+00    2.346E+00    2.399E+00    2.451E+00    2.504E+00    2.556E+00    2.609E+00    2.661E+00    2.714E+00
     2.766E+00    2.819E+00    2.871E+00    2.923E+00    2.976E+00    3.028E+00    3.080E+00    3.133E+00    3.185E+00    3.237E+00
     3.289E+00    3.342E+00    3.394E+00    3.446E+00    3.498E+00    3.550E+00    3.602E+00    3.654E+00    3.706E+00    3.757E+00
     3.809E+00    3.861E+00    3.913E+00    3.964E+00    4.016E+00    4.067E+00    4.119E+00    4.170E+00    4.222E+00    4.273E+00
     4.324E+00    4.375E+00    4.427E+00    4.478E+00    4.529E+00    4.580E+00    4.631E+00    4.682E+00    4.733E+00    4.784E+00
     4.834E+00    4.885E+00    4.936E+00    4.987E+00    5.038E+00    5.088E+00    5.139E+00    5.190E+00    5.240E+00    5.291E+00
     5.341E+00    5.392E+00    5.442E+00    5.493E+00    5.543E+00    5.594E+00    5.644E+00    5.695E+00    5.745E+00    5.795E+00
     5.846E+00    5.896E+00    5.946E+00    5.997E+00    6.047E+00    6.097E+00    6.148E+00    6.198E+00
 Ala      Conc. = 4.62E+02
