 LCModel (Version 6.3-1L) Copyright: S.W. Provencher.          Ref.: Magn. Reson. Med. 30:672-679 (1993).                
 Slice#1 Row#8 Col#6  PD_24_press_2_raw_act
 36 lines in following concentration table = NCONC+1
    Conc.  %SD /Cr+PCr  Metabolite                                         
  333.187  49%   0.272 Ala                                                 
  340.475  66%   0.278 Asp                                                 
  952.290  29%   0.778 Cr                                                  
  272.408 104%   0.222 PCr                                                 
    0.000 999%   0.000 GABA                                                
   86.922 161% 7.1E-02 Glc                                                 
  678.380  47%   0.554 Gln                                                 
 1.46E+03  24%   1.192 Glu                                                 
  327.280   9%   0.267 GPC                                                 
    0.000 999%   0.000 PCh                                                 
  422.570  25%   0.345 GSH                                                 
 1.07E+03  30%   0.874 Ins                                                 
    7.565 999% 6.2E-03 Lac                                                 
 2.36E+03   4%   1.929 NAA                                                 
    0.000 999%   0.000 NAAG                                                
   77.179  42% 6.3E-02 Scyllo                                              
  253.251  82%   0.207 Tau                                                 
    0.000 999%   0.000 -CrCH2                                              
  327.280   9%   0.267 GPC+PCh                                             
 2.36E+03   4%   1.929 NAA+NAAG                                            
 1.22E+03   6%   1.000 Cr+PCr                                              
 2.14E+03  23%   1.746 Glu+Gln                                             
 3.73E+03  16%   3.049 Lip13a                                              
    0.000 999%   0.000 Lip13b                                              
  815.136  50%   0.666 Lip09                                               
 1.87E+03  22%   1.528 MM09                                                
  446.487  68%   0.365 Lip20                                               
 3.47E+03  15%   2.834 MM20                                                
  516.996  58%   0.422 MM12                                                
    0.000 999%   0.000 MM14                                                
 2.25E+03   9%   1.841 MM17                                                
 3.73E+03  16%   3.049 Lip13a+Lip13b                                       
 4.25E+03  12%   3.471 MM14+Lip13a+Lip13b+MM12                             
 2.69E+03  10%   2.193 MM09+Lip09                                          
 3.92E+03  13%   3.199 MM20+Lip20                                          
   6 lines in following misc. output table
  FWHM = 0.054 ppm    S/N =   8                                            
  Data shift = 0.015 ppm                                                   
  Ph: -12 deg      -2.7 deg/ppm                                            
  alphaB,S = 8.5E+01,   1.0E+02                                            
   14 spline knots.   Ns = 6(1)                                            
   2 inflections.     1 extrema                                            
  498 points on ppm-axis = NY
      4.000000     3.992357     3.984714     3.977070     3.969427     3.961784     3.954141     3.946497     3.938854     3.931211
      3.923568     3.915925     3.908281     3.900638     3.892995     3.885352     3.877708     3.870065     3.862422     3.854779
      3.847136     3.839492     3.831849     3.824206     3.816563     3.808919     3.801276     3.793633     3.785990     3.778347
      3.770703     3.763060     3.755417     3.747774     3.740130     3.732487     3.724844     3.717201     3.709558     3.701914
      3.694271     3.686628     3.678985     3.671341     3.663698     3.656055     3.648412     3.640769     3.633125     3.625482
      3.617839     3.610196     3.602552     3.594909     3.587266     3.579623     3.571980     3.564336     3.556693     3.549050
      3.541407     3.533763     3.526120     3.518477     3.510834     3.503191     3.495547     3.487904     3.480261     3.472618
      3.464974     3.457331     3.449688     3.442045     3.434402     3.426758     3.419115     3.411472     3.403829     3.396185
      3.388542     3.380899     3.373256     3.365613     3.357969     3.350326     3.342683     3.335040     3.327396     3.319753
      3.312110     3.304467     3.296824     3.289180     3.281537     3.273894     3.266251     3.258607     3.250964     3.243321
      3.235678     3.228034     3.220391     3.212748     3.205105     3.197462     3.189818     3.182175     3.174532     3.166889
      3.159245     3.151602     3.143959     3.136316     3.128673     3.121029     3.113386     3.105743     3.098100     3.090456
      3.082813     3.075170     3.067527     3.059884     3.052240     3.044597     3.036954     3.029311     3.021667     3.014024
      3.006381     2.998738     2.991095     2.983451     2.975808     2.968165     2.960522     2.952878     2.945235     2.937592
      2.929949     2.922306     2.914662     2.907019     2.899376     2.891733     2.884089     2.876446     2.868803     2.861160
      2.853517     2.845873     2.838230     2.830587     2.822944     2.815300     2.807657     2.800014     2.792371     2.784728
      2.777084     2.769441     2.761798     2.754155     2.746511     2.738868     2.731225     2.723582     2.715939     2.708295
      2.700652     2.693009     2.685366     2.677722     2.670079     2.662436     2.654793     2.647150     2.639506     2.631863
      2.624220     2.616577     2.608933     2.601290     2.593647     2.586004     2.578361     2.570717     2.563074     2.555431
      2.547788     2.540144     2.532501     2.524858     2.517215     2.509572     2.501928     2.494285     2.486642     2.478999
      2.471355     2.463712     2.456069     2.448426     2.440783     2.433139     2.425496     2.417853     2.410210     2.402566
      2.394923     2.387280     2.379637     2.371994     2.364350     2.356707     2.349064     2.341421     2.333777     2.326134
      2.318491     2.310848     2.303205     2.295561     2.287918     2.280275     2.272632     2.264988     2.257345     2.249702
      2.242059     2.234416     2.226772     2.219129     2.211486     2.203843     2.196199     2.188556     2.180913     2.173270
      2.165627     2.157983     2.150340     2.142697     2.135054     2.127410     2.119767     2.112124     2.104481     2.096838
      2.089194     2.081551     2.073908     2.066265     2.058621     2.050978     2.043335     2.035692     2.028049     2.020405
      2.012762     2.005119     1.997476     1.989833     1.982190     1.974546     1.966903     1.959260     1.951617     1.943974
      1.936331     1.928688     1.921045     1.913402     1.905759     1.898115     1.890472     1.882829     1.875186     1.867543
      1.859900     1.852257     1.844614     1.836971     1.829327     1.821684     1.814041     1.806398     1.798755     1.791112
      1.783469     1.775826     1.768183     1.760540     1.752896     1.745253     1.737610     1.729967     1.722324     1.714681
      1.707038     1.699395     1.691752     1.684108     1.676465     1.668822     1.661179     1.653536     1.645893     1.638250
      1.630607     1.622964     1.615321     1.607677     1.600034     1.592391     1.584748     1.577105     1.569462     1.561819
      1.554176     1.546533     1.538890     1.531246     1.523603     1.515960     1.508317     1.500674     1.493031     1.485388
      1.477745     1.470102     1.462458     1.454815     1.447172     1.439529     1.431886     1.424243     1.416600     1.408957
      1.401314     1.393671     1.386027     1.378384     1.370741     1.363098     1.355455     1.347812     1.340169     1.332526
      1.324883     1.317240     1.309596     1.301953     1.294310     1.286667     1.279024     1.271381     1.263738     1.256095
      1.248452     1.240808     1.233165     1.225522     1.217879     1.210236     1.202593     1.194950     1.187307     1.179664
      1.172021     1.164377     1.156734     1.149091     1.141448     1.133805     1.126162     1.118519     1.110876     1.103233
      1.095590     1.087946     1.080303     1.072660     1.065017     1.057374     1.049731     1.042088     1.034445     1.026802
      1.019158     1.011515     1.003872     0.996229     0.988586     0.980943     0.973300     0.965657     0.958014     0.950371
      0.942727     0.935084     0.927441     0.919798     0.912155     0.904512     0.896869     0.889226     0.881583     0.873940
      0.866296     0.858653     0.851010     0.843367     0.835724     0.828081     0.820438     0.812795     0.805152     0.797508
      0.789865     0.782222     0.774579     0.766936     0.759293     0.751650     0.744007     0.736364     0.728721     0.721077
      0.713434     0.705791     0.698148     0.690505     0.682862     0.675219     0.667576     0.659933     0.652290     0.644646
      0.637003     0.629360     0.621717     0.614074     0.606431     0.598788     0.591145     0.583502     0.575858     0.568215
      0.560572     0.552929     0.545286     0.537643     0.530000     0.522357     0.514714     0.507071     0.499427     0.491784
      0.484141     0.476498     0.468855     0.461212     0.453569     0.445925     0.438282     0.430639     0.422996     0.415353
      0.407710     0.400067     0.392424     0.384780     0.377137     0.369494     0.361851     0.354208     0.346565     0.338922
      0.331278     0.323635     0.315992     0.308349     0.300706     0.293063     0.285420     0.277777     0.270133     0.262490
      0.254847     0.247204     0.239561     0.231918     0.224275     0.216631     0.208988     0.201345
 NY phased data points follow
   1.95157E+01 -3.11251E+00  1.91047E+01  1.34594E+01  1.12737E+01  1.51066E+01  2.25198E+01  2.09284E+01  3.24064E+01  2.93198E+01
   4.27095E+01  4.22027E+01  2.83738E+01  2.74563E+01  2.43364E+01  2.07389E+01  2.43016E+01  1.36730E+01  1.34905E+01  1.42129E+01
   1.65459E+01  1.50771E+01  9.70036E+00  2.15672E+01  1.43454E+01  1.01433E+01  1.06286E+01  9.26940E+00  2.40205E+01  2.32724E+01
   1.66217E+01  1.69613E+01  1.31044E+01  1.24243E+01  1.76856E+01  6.75524E+00  2.02564E+01  1.42444E+01  1.09553E+01  1.51353E+01
   1.02154E+01  1.79620E+01  8.79489E+00  1.00182E+01  1.02577E+01  1.74817E+01  2.65092E+01  1.55609E+01  1.99018E+01  1.15331E+01
   2.11691E+01  9.45956E+00  9.95919E+00  1.71565E+01  8.82083E+00  1.36615E+01  8.46921E+00  8.84623E+00  1.03333E+01  1.42687E+01
   2.35969E+00  7.12575E+00  7.54173E+00  1.54691E+01  3.65157E+00  7.42102E+00  7.65896E+00  1.16745E+01  5.45409E+00  4.72583E-01
   7.50471E-01  8.32446E+00  5.75433E+00  3.22056E+00  1.10454E+01  9.42858E+00  7.57041E+00  1.39099E+01  5.63982E+00  8.43318E+00
   1.22386E+00  1.51634E+01  5.92879E+00  9.66626E+00  6.85735E+00  9.70034E+00  1.80536E+01  1.27766E+01  1.19156E+01  7.76347E+00
   8.72535E+00  7.83956E+00  6.37805E+00  3.93889E+00  1.19443E+01  1.27311E+01  9.74161E+00  1.65083E+01  5.85492E+00  2.16551E+01
   2.09274E+01  3.04118E+01  2.84688E+01  3.91911E+01  3.12172E+01  3.66376E+01  2.27579E+01  3.37742E+01  2.29957E+01  1.89457E+01
   1.67405E+01  2.34811E+01  1.11047E+01 -8.49038E-01  1.47308E+01  1.19486E+01  8.14016E+00  8.85647E+00  7.74212E+00  1.17216E+01
   7.86394E+00  6.36112E+00  1.46974E+01  1.74327E+01  2.37774E+01  4.72313E+01  4.67920E+01  5.47878E+01  5.02027E+01  3.76028E+01
   3.37109E+01  2.93858E+01  1.76086E+01  1.51499E+01  1.60983E+01  1.72856E+01  1.12745E+01  1.24324E+01 -2.30346E+00  1.62891E+01
   4.91772E+00  6.54549E+00 -1.82142E+00  4.80177E-01 -8.86069E-01  5.52251E+00 -4.75661E-01  6.87526E+00  6.69270E+00  9.99028E+00
   4.57860E+00  1.04429E+01 -8.42064E-01  2.26987E+00  8.40843E+00 -3.54699E+00  6.21584E+00  1.80128E+00  4.85248E+00  1.04056E+01
   4.06774E+00 -1.09480E+00 -8.01281E+00  1.97010E+00  3.37386E+00 -1.82842E+00  2.01220E+00 -7.37291E+00 -1.12467E+00  7.68907E+00
   3.84745E+00 -5.47927E+00 -2.29515E+00 -5.87417E-01 -7.01326E+00 -4.40310E+00 -6.30642E+00 -5.36397E+00 -7.95152E+00  2.69988E+00
  -6.73338E+00 -3.70471E+00 -2.61813E+00 -1.70430E+00  9.08415E+00 -4.21722E+00  2.23520E+00  1.46756E+01  3.20134E+00  1.52942E+01
   9.22319E+00  2.96546E+00  5.23013E+00  6.85706E+00  1.54814E-01 -2.23139E+00 -6.21269E-01 -3.39927E-01 -7.92525E+00  1.10890E+00
   1.68867E+00  1.53954E+01  8.36635E+00  3.13723E+00  1.09260E+01  9.06685E-01  2.07926E+01  6.14784E+00  3.41545E+00  5.47711E+00
   4.21879E+00  9.54450E-01  5.26930E+00  5.68901E+00  2.14187E+01  1.59902E+01  1.95116E+01  1.33491E+01  1.40948E+01  1.98664E+01
   6.51991E-01  6.16706E+00 -7.27580E+00  1.65827E+01  8.78654E+00  6.87258E+00  7.75489E+00  4.72651E+00  1.68271E+01  1.55153E+01
   1.85277E+01  1.61126E+01  1.68722E+01  9.83867E+00  1.38185E+01  1.72551E+01  1.11316E+01  9.64522E+00  1.31459E+01  1.43591E+01
   2.95635E+00  1.29403E+01  5.62942E+00  1.13528E+01  1.21949E+01  1.72801E+01  1.78980E+01  1.48103E+01  1.87042E+01  1.59239E+01
   1.89890E+01  1.91022E+01  2.16538E+01  2.69864E+01  2.16230E+01  2.45776E+01  3.66495E+01  6.33852E+01  7.85563E+01  1.07688E+02
   9.73089E+01  8.42291E+01  7.84183E+01  7.09151E+01  5.57022E+01  3.50124E+01  2.41861E+01  2.74902E+01  1.63464E+01  1.40306E+01
   1.85503E+01  7.42404E+00  9.60395E+00  1.03373E+01  7.66215E+00  1.19993E+01  9.24141E+00  8.57023E+00  4.83947E+00  1.49730E+01
   1.35437E+01 -2.82313E+00  1.44593E+01  6.83485E+00  4.78469E+00  7.13854E+00  5.53036E+00  1.65281E+01  1.43448E+01  1.20056E+01
   1.75461E+00  2.73719E+00  3.63627E+00  6.92754E+00  2.11321E+00  6.47827E+00  6.43998E-01  1.36149E+01  1.42380E+01  7.50940E+00
   6.78161E+00  6.38334E+00  1.56120E+01  1.15474E+01  4.57824E+00  1.61479E+01  2.50240E+01  2.42115E+01  3.02497E+01  2.47418E+01
   2.25818E+01  2.80470E+01  3.51246E+01  2.13313E+01  2.67915E+01  2.35801E+01  2.36207E+01  1.44506E+01  1.03361E+01  1.81597E+01
   1.36376E+01  1.49809E+01  2.17291E+01  1.14745E+01  3.47573E+00  8.13644E+00  6.23907E+00  3.18259E+00  8.66558E+00  9.32277E+00
   6.02856E+00  2.30885E+00 -9.48351E+00  7.09328E+00  4.02513E-01  4.53707E+00  3.57808E+00  1.27049E+01  1.16458E+01  1.51456E+01
   1.02984E+01  1.32895E+01  8.62581E+00  2.11592E+01  2.05753E+01  2.34438E+01  2.74293E+01  2.42539E+01  2.32332E+01  2.77410E+01
   1.42577E+01  2.22138E+01  2.62127E+01  3.07149E+01  1.86608E+01  2.15369E+01  2.04602E+01  1.81756E+01  1.78315E+01  1.71603E+01
   1.67276E+01  2.46639E+01  1.79024E+01  1.64668E+01  2.10426E+01  1.95191E+01  1.75293E+01  2.67594E+01  1.88359E+01  1.64294E+01
   9.37704E+00  9.51498E+00  1.20339E+01  1.28407E+01  7.07368E-01  1.10194E+01  1.11209E+01  1.71530E+01  1.15250E+01  1.28294E+01
   4.56765E+00  5.00984E+00  7.05254E+00  3.97625E+00  3.73114E+00  9.43622E+00  6.57384E+00  1.20118E+01  7.64187E+00  6.35485E+00
   2.19400E+00  1.23506E+01  8.80076E+00  9.21767E+00  1.46414E+01  1.46330E+01  1.74280E+01  1.57801E+01  1.43514E+01  1.78623E+01
   1.71691E+01  2.25665E+01  2.09159E+01  2.13547E+01  1.92988E+01  2.57113E+01  1.90221E+01  3.01094E+01  2.52372E+01  1.27692E+01
   2.97627E+01  3.00445E+01  1.67585E+01  2.85512E+01  1.33909E+01  2.25277E+01  1.04256E+01  1.68123E+01  2.25715E+01  1.23229E+01
   1.84642E+01  4.96470E+00  1.27835E+01  1.33866E+01  8.04638E+00  7.17310E+00  1.00702E+01  6.04166E+00  5.05356E+00  4.81000E+00
  -3.39906E+00  1.23154E+01  3.60853E+00  5.10221E+00 -2.74533E+00  8.00459E+00  5.40525E+00  1.14175E+01  2.97638E+00  3.40869E+00
  -1.65171E+00  7.38966E+00  3.79243E+00  2.65063E-01  5.12168E+00 -8.90744E-01  1.26575E-01 -6.41328E-01 -1.12656E+00 -3.06180E+00
   4.77685E+00  7.01219E+00  5.07955E+00  1.12071E+01  4.58409E+00  3.72530E+00 -4.46036E+00 -1.74944E+00 -3.65351E+00  5.05691E+00
   1.07231E+01 -1.08893E+00 -2.09683E+00 -2.74746E+00  4.04463E+00 -1.10582E+00  5.54142E+00 -4.02511E+00 -2.17130E+00  3.95640E+00
   5.19048E+00  9.15608E+00 -4.10518E+00  9.41628E-01  5.37387E+00  6.41955E+00 -8.98465E+00  1.60140E+00  6.75485E-01  1.03693E+01
   9.47055E+00  5.00708E+00  4.35524E+00  4.74034E+00  2.15323E+00  6.75826E-01 -2.11108E+00  4.72111E+00 -2.75807E+00  6.67238E+00
   4.80668E+00 -5.93181E-01  4.88799E-01 -2.95035E+00  2.78309E+00  2.68039E+00  9.00626E-01  9.56239E+00
 NY points of the fit to the data follow
   1.12833E+01  1.11176E+01  1.12869E+01  1.18710E+01  1.30949E+01  1.52537E+01  1.87131E+01  2.34449E+01  2.88456E+01  3.36783E+01
   3.65283E+01  3.65713E+01  3.41239E+01  3.02963E+01  2.60141E+01  2.16736E+01  1.75237E+01  1.40767E+01  1.16049E+01  1.04048E+01
   1.04592E+01  1.08217E+01  1.10653E+01  1.11351E+01  1.12506E+01  1.16893E+01  1.27521E+01  1.44881E+01  1.65108E+01  1.82683E+01
   1.94187E+01  1.98510E+01  1.94370E+01  1.81233E+01  1.60700E+01  1.37188E+01  1.14830E+01  9.81615E+00  8.97189E+00  8.58504E+00
   8.59044E+00  9.06863E+00  1.00840E+01  1.16211E+01  1.34930E+01  1.53820E+01  1.67169E+01  1.70015E+01  1.62431E+01  1.48259E+01
   1.31594E+01  1.15212E+01  1.00583E+01  8.85604E+00  8.05282E+00  7.84827E+00  8.28830E+00  9.10445E+00  9.93604E+00  1.05202E+01
   1.06879E+01  1.04446E+01  9.93753E+00  9.36839E+00  8.89464E+00  8.57274E+00  8.40125E+00  8.41128E+00  8.63211E+00  9.02332E+00
   9.53480E+00  1.00459E+01  1.04482E+01  1.06705E+01  1.06577E+01  1.03853E+01  9.89978E+00  9.35783E+00  8.89638E+00  8.60069E+00
   8.61070E+00  8.97327E+00  9.61530E+00  1.03940E+01  1.10064E+01  1.10886E+01  1.05575E+01  9.68477E+00  8.82847E+00  8.16139E+00
   7.67331E+00  7.31986E+00  7.12306E+00  7.15587E+00  7.51346E+00  8.07612E+00  8.66913E+00  9.55878E+00  1.16273E+01  1.56746E+01
   2.18808E+01  2.91787E+01  3.53693E+01  3.83572E+01  3.76061E+01  3.42798E+01  2.97997E+01  2.49135E+01  1.98769E+01  1.50991E+01
   1.10611E+01  8.29929E+00  7.34624E+00  7.22305E+00  7.27394E+00  7.37245E+00  7.50982E+00  7.68581E+00  7.94098E+00  8.36469E+00
   9.18820E+00  1.11910E+01  1.54700E+01  2.26046E+01  3.20159E+01  4.14832E+01  4.79952E+01  4.96946E+01  4.71270E+01  4.22105E+01
   3.63051E+01  2.97906E+01  2.29049E+01  1.62639E+01  1.06900E+01  7.40682E+00  6.37464E+00  6.23050E+00  6.47215E+00  6.86026E+00
   7.24492E+00  7.59056E+00  7.85921E+00  7.96944E+00  7.89186E+00  7.61859E+00  7.18402E+00  6.70786E+00  6.25608E+00  5.87851E+00
   5.56081E+00  5.27986E+00  5.06504E+00  4.93033E+00  4.84938E+00  4.70659E+00  4.37771E+00  3.82855E+00  3.15815E+00  2.61236E+00
   2.40884E+00  2.58647E+00  2.95918E+00  3.27555E+00  3.41045E+00  3.38800E+00  3.29234E+00  3.15343E+00  2.91708E+00  2.51306E+00
   1.99201E+00  1.38957E+00  7.71099E-01  2.74628E-01 -3.17158E-02 -7.84142E-02  6.06175E-02  1.74571E-01  1.47063E-01  7.54912E-02
   1.17355E-01  2.66933E-01  3.92357E-01  4.37431E-01  5.22878E-01  9.83931E-01  2.05595E+00  3.55720E+00  5.06938E+00  6.18101E+00
   6.78415E+00  6.93213E+00  6.69719E+00  6.17283E+00  5.43706E+00  4.60904E+00  4.02845E+00  3.99692E+00  4.63091E+00  5.86501E+00
   7.49776E+00  9.19073E+00  1.05639E+01  1.12804E+01  1.10557E+01  9.79352E+00  7.62114E+00  4.97056E+00  2.42748E+00  6.37678E-01
   1.50997E-01  1.21827E+00  3.69175E+00  7.02287E+00  1.03272E+01  1.26140E+01  1.32621E+01  1.22476E+01  9.79517E+00  6.55523E+00
   3.37677E+00  1.06170E+00  3.17126E-01  1.21091E+00  3.32542E+00  5.92469E+00  8.34034E+00  1.02734E+01  1.15652E+01  1.22151E+01
   1.23267E+01  1.21425E+01  1.20205E+01  1.21820E+01  1.26009E+01  1.32185E+01  1.38863E+01  1.43349E+01  1.44066E+01  1.40860E+01
   1.35274E+01  1.30332E+01  1.29016E+01  1.32537E+01  1.39143E+01  1.47169E+01  1.55118E+01  1.61815E+01  1.67167E+01  1.71945E+01
   1.77374E+01  1.83060E+01  1.89782E+01  2.01136E+01  2.33380E+01  3.09105E+01  4.42534E+01  6.23849E+01  8.08116E+01  9.34045E+01
   9.64207E+01  9.10396E+01  8.10186E+01  6.90041E+01  5.59768E+01  4.27916E+01  3.06370E+01  2.06811E+01  1.50569E+01  1.29208E+01
   1.17488E+01  1.09662E+01  1.04448E+01  1.00747E+01  9.73030E+00  9.38831E+00  9.03203E+00  8.64629E+00  8.22742E+00  7.78978E+00
   7.35262E+00  6.94746E+00  6.60003E+00  6.31067E+00  6.06965E+00  5.87325E+00  5.72134E+00  5.61557E+00  5.55815E+00  5.55112E+00
   5.60845E+00  5.74508E+00  5.97405E+00  6.30701E+00  6.75419E+00  7.32478E+00  8.02550E+00  8.85928E+00  9.82572E+00  1.09178E+01
   1.21211E+01  1.34149E+01  1.47710E+01  1.61539E+01  1.75225E+01  1.88324E+01  2.00381E+01  2.10954E+01  2.19640E+01  2.26100E+01
   2.30080E+01  2.31432E+01  2.30130E+01  2.26265E+01  2.20046E+01  2.11785E+01  2.01883E+01  1.90812E+01  1.79111E+01  1.67391E+01
   1.56415E+01  1.47310E+01  1.40910E+01  1.36656E+01  1.32473E+01  1.25109E+01  1.12013E+01  9.34107E+00  7.22774E+00  5.22648E+00
   3.62989E+00  2.66802E+00  2.58666E+00  3.49946E+00  5.19888E+00  7.26333E+00  9.20861E+00  1.07451E+01  1.19571E+01  1.29309E+01
   1.36949E+01  1.42935E+01  1.47797E+01  1.52877E+01  1.60091E+01  1.68651E+01  1.77683E+01  1.86737E+01  1.95548E+01  2.03923E+01
   2.11677E+01  2.18634E+01  2.24640E+01  2.29525E+01  2.33088E+01  2.35150E+01  2.35586E+01  2.34363E+01  2.31559E+01  2.27281E+01
   2.21668E+01  2.14891E+01  2.07146E+01  1.98677E+01  1.89703E+01  1.80398E+01  1.70936E+01  1.61483E+01  1.52188E+01  1.43182E+01
   1.34572E+01  1.26445E+01  1.18864E+01  1.11876E+01  1.05515E+01  9.98031E+00  9.47502E+00  9.03606E+00  8.66358E+00  8.35779E+00
   8.11922E+00  7.94876E+00  7.84765E+00  7.81766E+00  7.86125E+00  7.98153E+00  8.18210E+00  8.46660E+00  8.83848E+00  9.30066E+00
   9.85528E+00  1.05031E+01  1.12429E+01  1.20708E+01  1.29799E+01  1.39600E+01  1.49974E+01  1.60747E+01  1.71713E+01  1.82632E+01
   1.93242E+01  2.03268E+01  2.12434E+01  2.20474E+01  2.27144E+01  2.32234E+01  2.35582E+01  2.37081E+01  2.36686E+01  2.34412E+01
   2.30338E+01  2.24593E+01  2.17359E+01  2.08855E+01  1.99325E+01  1.89026E+01  1.78214E+01  1.67135E+01  1.56017E+01  1.45060E+01
   1.34435E+01  1.24277E+01  1.14686E+01  1.05730E+01  9.74485E+00  8.98574E+00  8.29489E+00  7.66982E+00  7.10688E+00  6.60168E+00
   6.14946E+00  5.74524E+00  5.38399E+00  5.06083E+00  4.77123E+00  4.51116E+00  4.27702E+00  4.06554E+00  3.87377E+00  3.69911E+00
   3.53939E+00  3.39283E+00  3.25786E+00  3.13309E+00  3.01722E+00  2.90919E+00  2.80816E+00  2.71345E+00  2.62445E+00  2.54050E+00
   2.46104E+00  2.38561E+00  2.31393E+00  2.24572E+00  2.18067E+00  2.11844E+00  2.05873E+00  2.00138E+00  1.94626E+00  1.89326E+00
   1.84216E+00  1.79274E+00  1.74487E+00  1.69850E+00  1.65360E+00  1.61007E+00  1.56774E+00  1.52647E+00  1.48622E+00  1.44700E+00
   1.40880E+00  1.37150E+00  1.33498E+00  1.29917E+00  1.26408E+00  1.22974E+00  1.19612E+00  1.16310E+00  1.13059E+00  1.09856E+00
   1.06707E+00  1.03613E+00  1.00568E+00  9.75604E-01  9.45859E-01  9.16467E-01  8.87478E-01  8.58879E-01  8.30583E-01  8.02502E-01
   7.74619E-01  7.46987E-01  7.19634E-01  6.92512E-01  6.65519E-01  6.38595E-01  6.11760E-01  5.85061E-01
 NY background values follow
     5.599E+00    5.587E+00    5.575E+00    5.562E+00    5.550E+00    5.538E+00    5.525E+00    5.513E+00    5.501E+00    5.488E+00
     5.476E+00    5.464E+00    5.451E+00    5.439E+00    5.426E+00    5.414E+00    5.402E+00    5.389E+00    5.377E+00    5.364E+00
     5.352E+00    5.340E+00    5.327E+00    5.315E+00    5.302E+00    5.290E+00    5.277E+00    5.265E+00    5.252E+00    5.240E+00
     5.227E+00    5.215E+00    5.203E+00    5.190E+00    5.178E+00    5.165E+00    5.153E+00    5.140E+00    5.128E+00    5.115E+00
     5.103E+00    5.090E+00    5.078E+00    5.065E+00    5.052E+00    5.040E+00    5.027E+00    5.015E+00    5.002E+00    4.990E+00
     4.977E+00    4.965E+00    4.952E+00    4.940E+00    4.927E+00    4.914E+00    4.902E+00    4.889E+00    4.877E+00    4.864E+00
     4.851E+00    4.839E+00    4.826E+00    4.814E+00    4.801E+00    4.788E+00    4.776E+00    4.763E+00    4.750E+00    4.738E+00
     4.725E+00    4.713E+00    4.700E+00    4.687E+00    4.675E+00    4.662E+00    4.649E+00    4.637E+00    4.624E+00    4.611E+00
     4.599E+00    4.586E+00    4.573E+00    4.561E+00    4.548E+00    4.535E+00    4.522E+00    4.510E+00    4.497E+00    4.484E+00
     4.472E+00    4.459E+00    4.446E+00    4.433E+00    4.421E+00    4.408E+00    4.395E+00    4.383E+00    4.370E+00    4.357E+00
     4.344E+00    4.332E+00    4.319E+00    4.306E+00    4.293E+00    4.281E+00    4.268E+00    4.255E+00    4.242E+00    4.229E+00
     4.217E+00    4.204E+00    4.191E+00    4.178E+00    4.165E+00    4.153E+00    4.140E+00    4.127E+00    4.114E+00    4.101E+00
     4.089E+00    4.076E+00    4.063E+00    4.050E+00    4.037E+00    4.025E+00    4.012E+00    3.999E+00    3.986E+00    3.973E+00
     3.960E+00    3.947E+00    3.935E+00    3.922E+00    3.909E+00    3.896E+00    3.883E+00    3.870E+00    3.857E+00    3.845E+00
     3.832E+00    3.819E+00    3.806E+00    3.793E+00    3.780E+00    3.767E+00    3.754E+00    3.742E+00    3.729E+00    3.716E+00
     3.703E+00    3.690E+00    3.677E+00    3.664E+00    3.651E+00    3.638E+00    3.625E+00    3.612E+00    3.600E+00    3.587E+00
     3.574E+00    3.561E+00    3.548E+00    3.535E+00    3.522E+00    3.509E+00    3.496E+00    3.483E+00    3.470E+00    3.457E+00
     3.444E+00    3.431E+00    3.418E+00    3.405E+00    3.393E+00    3.380E+00    3.367E+00    3.354E+00    3.341E+00    3.328E+00
     3.315E+00    3.302E+00    3.289E+00    3.276E+00    3.263E+00    3.250E+00    3.237E+00    3.224E+00    3.211E+00    3.198E+00
     3.185E+00    3.172E+00    3.159E+00    3.146E+00    3.133E+00    3.120E+00    3.107E+00    3.094E+00    3.081E+00    3.068E+00
     3.055E+00    3.042E+00    3.029E+00    3.016E+00    3.003E+00    2.990E+00    2.977E+00    2.964E+00    2.951E+00    2.938E+00
     2.925E+00    2.912E+00    2.899E+00    2.886E+00    2.873E+00    2.860E+00    2.847E+00    2.833E+00    2.820E+00    2.807E+00
     2.794E+00    2.781E+00    2.768E+00    2.755E+00    2.742E+00    2.729E+00    2.716E+00    2.703E+00    2.690E+00    2.677E+00
     2.664E+00    2.651E+00    2.638E+00    2.625E+00    2.612E+00    2.599E+00    2.586E+00    2.572E+00    2.559E+00    2.546E+00
     2.533E+00    2.520E+00    2.507E+00    2.494E+00    2.481E+00    2.468E+00    2.455E+00    2.442E+00    2.429E+00    2.416E+00
     2.403E+00    2.389E+00    2.376E+00    2.363E+00    2.350E+00    2.337E+00    2.324E+00    2.311E+00    2.298E+00    2.285E+00
     2.272E+00    2.259E+00    2.246E+00    2.233E+00    2.219E+00    2.206E+00    2.193E+00    2.180E+00    2.167E+00    2.154E+00
     2.141E+00    2.128E+00    2.115E+00    2.102E+00    2.089E+00    2.075E+00    2.062E+00    2.049E+00    2.036E+00    2.023E+00
     2.010E+00    1.997E+00    1.984E+00    1.971E+00    1.958E+00    1.944E+00    1.931E+00    1.918E+00    1.905E+00    1.892E+00
     1.879E+00    1.866E+00    1.853E+00    1.840E+00    1.827E+00    1.813E+00    1.800E+00    1.787E+00    1.774E+00    1.761E+00
     1.748E+00    1.735E+00    1.722E+00    1.709E+00    1.696E+00    1.682E+00    1.669E+00    1.656E+00    1.643E+00    1.630E+00
     1.617E+00    1.604E+00    1.591E+00    1.578E+00    1.565E+00    1.551E+00    1.538E+00    1.525E+00    1.512E+00    1.499E+00
     1.486E+00    1.473E+00    1.460E+00    1.447E+00    1.433E+00    1.420E+00    1.407E+00    1.394E+00    1.381E+00    1.368E+00
     1.355E+00    1.342E+00    1.329E+00    1.316E+00    1.303E+00    1.289E+00    1.276E+00    1.263E+00    1.250E+00    1.237E+00
     1.224E+00    1.211E+00    1.198E+00    1.185E+00    1.172E+00    1.159E+00    1.145E+00    1.132E+00    1.119E+00    1.106E+00
     1.093E+00    1.080E+00    1.067E+00    1.054E+00    1.041E+00    1.028E+00    1.015E+00    1.001E+00    9.884E-01    9.753E-01
     9.623E-01    9.492E-01    9.361E-01    9.230E-01    9.100E-01    8.969E-01    8.838E-01    8.707E-01    8.577E-01    8.446E-01
     8.315E-01    8.185E-01    8.054E-01    7.923E-01    7.793E-01    7.662E-01    7.531E-01    7.401E-01    7.270E-01    7.140E-01
     7.009E-01    6.879E-01    6.748E-01    6.618E-01    6.487E-01    6.356E-01    6.226E-01    6.096E-01    5.965E-01    5.835E-01
     5.704E-01    5.574E-01    5.443E-01    5.313E-01    5.183E-01    5.052E-01    4.922E-01    4.792E-01    4.661E-01    4.531E-01
     4.401E-01    4.270E-01    4.140E-01    4.010E-01    3.880E-01    3.749E-01    3.619E-01    3.489E-01    3.359E-01    3.229E-01
     3.099E-01    2.969E-01    2.839E-01    2.708E-01    2.578E-01    2.448E-01    2.318E-01    2.188E-01    2.058E-01    1.928E-01
     1.799E-01    1.669E-01    1.539E-01    1.409E-01    1.279E-01    1.149E-01    1.019E-01    8.895E-02    7.597E-02    6.299E-02
     5.002E-02    3.705E-02    2.408E-02    1.111E-02   -1.856E-03   -1.482E-02   -2.778E-02   -4.074E-02   -5.370E-02   -6.665E-02
    -7.961E-02   -9.256E-02   -1.055E-01   -1.185E-01   -1.314E-01   -1.443E-01   -1.573E-01   -1.702E-01   -1.831E-01   -1.961E-01
    -2.090E-01   -2.219E-01   -2.349E-01   -2.478E-01   -2.607E-01   -2.736E-01   -2.865E-01   -2.994E-01   -3.124E-01   -3.253E-01
    -3.382E-01   -3.511E-01   -3.640E-01   -3.769E-01   -3.898E-01   -4.027E-01   -4.155E-01   -4.284E-01   -4.413E-01   -4.542E-01
    -4.671E-01   -4.800E-01   -4.928E-01   -5.057E-01   -5.186E-01   -5.314E-01   -5.443E-01   -5.572E-01   -5.700E-01   -5.829E-01
    -5.957E-01   -6.086E-01   -6.214E-01   -6.343E-01   -6.471E-01   -6.599E-01   -6.728E-01   -6.856E-01   -6.984E-01   -7.112E-01
    -7.241E-01   -7.369E-01   -7.497E-01   -7.625E-01   -7.753E-01   -7.881E-01   -8.009E-01   -8.137E-01
 Ala      Conc. = 3.33E+02
