 LCModel (Version 6.3-1L) Copyright: S.W. Provencher.          Ref.: Magn. Reson. Med. 30:672-679 (1993).                
 Slice#1 Row#11 Col#9  PD_24_press_2_raw_act
 36 lines in following concentration table = NCONC+1
    Conc.  %SD /Cr+PCr  Metabolite                                         
 2.43E+03  23%   0.000 Ala                                                 
   30.012  41%   0.000 Asp                                                 
    0.000 999%   0.000 Cr                                                  
    0.000 999%   0.000 PCr                                                 
   17.331  43%   0.000 GABA                                                
   17.951  42%   0.000 Glc                                                 
 1.97E+03  38%   0.000 Gln                                                 
 1.89E+03  48%   0.000 Glu                                                 
   32.415  58%   0.000 GPC                                                 
    0.000 999%   0.000 PCh                                                 
   66.688 174%   0.000 GSH                                                 
  738.600  28%   0.000 Ins                                                 
    0.000 999%   0.000 Lac                                                 
   12.108 999%   0.000 NAA                                                 
  467.496  38%   0.000 NAAG                                                
    6.299  39%   0.000 Scyllo                                              
   30.441  41%   0.000 Tau                                                 
    0.000 999%   0.000 -CrCH2                                              
   32.415  58%   0.000 GPC+PCh                                             
  479.605  20%   0.000 NAA+NAAG                                            
    0.000 999%   0.000 Cr+PCr                                              
 3.87E+03  40%   0.000 Glu+Gln                                             
 5.88E+03  12%   0.000 Lip13a                                              
    0.000 999%   0.000 Lip13b                                              
 1.78E+03  14%   0.000 Lip09                                               
    0.000 999%   0.000 MM09                                                
  970.763  19%   0.000 Lip20                                               
  578.000  49%   0.000 MM20                                                
    0.000 999%   0.000 MM12                                                
 1.65E+03  20%   0.000 MM14                                                
    0.000 999%   0.000 MM17                                                
 5.88E+03  12%   0.000 Lip13a+Lip13b                                       
 7.53E+03  11%   0.000 MM14+Lip13a+Lip13b+MM12                             
 1.78E+03  14%   0.000 MM09+Lip09                                          
 1.55E+03  19%   0.000 MM20+Lip20                                          
   6 lines in following misc. output table
  FWHM = 0.168 ppm    S/N =   5                                            
  Data shift = 0.107 ppm                                                   
  Ph: -80 deg     114.8 deg/ppm                                            
  alphaB,S = 8.5E+01,   2.2E+02                                            
    6 spline knots.   Ns = 9(2)                                            
  ( 9) 2 infls.   ( 5) 1 extrs.                                            
  498 points on ppm-axis = NY
      4.000000     3.992357     3.984714     3.977070     3.969427     3.961784     3.954141     3.946497     3.938854     3.931211
      3.923568     3.915925     3.908281     3.900638     3.892995     3.885352     3.877708     3.870065     3.862422     3.854779
      3.847136     3.839492     3.831849     3.824206     3.816563     3.808919     3.801276     3.793633     3.785990     3.778347
      3.770703     3.763060     3.755417     3.747774     3.740130     3.732487     3.724844     3.717201     3.709558     3.701914
      3.694271     3.686628     3.678985     3.671341     3.663698     3.656055     3.648412     3.640769     3.633125     3.625482
      3.617839     3.610196     3.602552     3.594909     3.587266     3.579623     3.571980     3.564336     3.556693     3.549050
      3.541407     3.533763     3.526120     3.518477     3.510834     3.503191     3.495547     3.487904     3.480261     3.472618
      3.464974     3.457331     3.449688     3.442045     3.434402     3.426758     3.419115     3.411472     3.403829     3.396185
      3.388542     3.380899     3.373256     3.365613     3.357969     3.350326     3.342683     3.335040     3.327396     3.319753
      3.312110     3.304467     3.296824     3.289180     3.281537     3.273894     3.266251     3.258607     3.250964     3.243321
      3.235678     3.228034     3.220391     3.212748     3.205105     3.197462     3.189818     3.182175     3.174532     3.166889
      3.159245     3.151602     3.143959     3.136316     3.128673     3.121029     3.113386     3.105743     3.098100     3.090456
      3.082813     3.075170     3.067527     3.059884     3.052240     3.044597     3.036954     3.029311     3.021667     3.014024
      3.006381     2.998738     2.991095     2.983451     2.975808     2.968165     2.960522     2.952878     2.945235     2.937592
      2.929949     2.922306     2.914662     2.907019     2.899376     2.891733     2.884089     2.876446     2.868803     2.861160
      2.853517     2.845873     2.838230     2.830587     2.822944     2.815300     2.807657     2.800014     2.792371     2.784728
      2.777084     2.769441     2.761798     2.754155     2.746511     2.738868     2.731225     2.723582     2.715939     2.708295
      2.700652     2.693009     2.685366     2.677722     2.670079     2.662436     2.654793     2.647150     2.639506     2.631863
      2.624220     2.616577     2.608933     2.601290     2.593647     2.586004     2.578361     2.570717     2.563074     2.555431
      2.547788     2.540144     2.532501     2.524858     2.517215     2.509572     2.501928     2.494285     2.486642     2.478999
      2.471355     2.463712     2.456069     2.448426     2.440783     2.433139     2.425496     2.417853     2.410210     2.402566
      2.394923     2.387280     2.379637     2.371994     2.364350     2.356707     2.349064     2.341421     2.333777     2.326134
      2.318491     2.310848     2.303205     2.295561     2.287918     2.280275     2.272632     2.264988     2.257345     2.249702
      2.242059     2.234416     2.226772     2.219129     2.211486     2.203843     2.196199     2.188556     2.180913     2.173270
      2.165627     2.157983     2.150340     2.142697     2.135054     2.127410     2.119767     2.112124     2.104481     2.096838
      2.089194     2.081551     2.073908     2.066265     2.058621     2.050978     2.043335     2.035692     2.028049     2.020405
      2.012762     2.005119     1.997476     1.989833     1.982190     1.974546     1.966903     1.959260     1.951617     1.943974
      1.936331     1.928688     1.921045     1.913402     1.905759     1.898115     1.890472     1.882829     1.875186     1.867543
      1.859900     1.852257     1.844614     1.836971     1.829327     1.821684     1.814041     1.806398     1.798755     1.791112
      1.783469     1.775826     1.768183     1.760540     1.752896     1.745253     1.737610     1.729967     1.722324     1.714681
      1.707038     1.699395     1.691752     1.684108     1.676465     1.668822     1.661179     1.653536     1.645893     1.638250
      1.630607     1.622964     1.615321     1.607677     1.600034     1.592391     1.584748     1.577105     1.569462     1.561819
      1.554176     1.546533     1.538890     1.531246     1.523603     1.515960     1.508317     1.500674     1.493031     1.485388
      1.477745     1.470102     1.462458     1.454815     1.447172     1.439529     1.431886     1.424243     1.416600     1.408957
      1.401314     1.393671     1.386027     1.378384     1.370741     1.363098     1.355455     1.347812     1.340169     1.332526
      1.324883     1.317240     1.309596     1.301953     1.294310     1.286667     1.279024     1.271381     1.263738     1.256095
      1.248452     1.240808     1.233165     1.225522     1.217879     1.210236     1.202593     1.194950     1.187307     1.179664
      1.172021     1.164377     1.156734     1.149091     1.141448     1.133805     1.126162     1.118519     1.110876     1.103233
      1.095590     1.087946     1.080303     1.072660     1.065017     1.057374     1.049731     1.042088     1.034445     1.026802
      1.019158     1.011515     1.003872     0.996229     0.988586     0.980943     0.973300     0.965657     0.958014     0.950371
      0.942727     0.935084     0.927441     0.919798     0.912155     0.904512     0.896869     0.889226     0.881583     0.873940
      0.866296     0.858653     0.851010     0.843367     0.835724     0.828081     0.820438     0.812795     0.805152     0.797508
      0.789865     0.782222     0.774579     0.766936     0.759293     0.751650     0.744007     0.736364     0.728721     0.721077
      0.713434     0.705791     0.698148     0.690505     0.682862     0.675219     0.667576     0.659933     0.652290     0.644646
      0.637003     0.629360     0.621717     0.614074     0.606431     0.598788     0.591145     0.583502     0.575858     0.568215
      0.560572     0.552929     0.545286     0.537643     0.530000     0.522357     0.514714     0.507071     0.499427     0.491784
      0.484141     0.476498     0.468855     0.461212     0.453569     0.445925     0.438282     0.430639     0.422996     0.415353
      0.407710     0.400067     0.392424     0.384780     0.377137     0.369494     0.361851     0.354208     0.346565     0.338922
      0.331278     0.323635     0.315992     0.308349     0.300706     0.293063     0.285420     0.277777     0.270133     0.262490
      0.254847     0.247204     0.239561     0.231918     0.224275     0.216631     0.208988     0.201345
 NY phased data points follow
   5.99849E+00  4.43795E+00  5.66905E+00  6.20896E+00  7.79079E+00  7.87383E+00  4.76138E+00  9.10462E+00  6.41603E+00  6.46271E+00
   5.00747E+00  6.56484E+00  4.91908E+00  6.23646E+00  4.99229E+00  3.72338E+00  5.24168E+00  3.91724E+00  7.09808E+00  6.23021E+00
   5.32705E+00  5.38468E+00  4.48490E+00  3.87516E+00  5.84543E+00  5.30291E+00  4.89396E+00  5.77342E+00  4.91848E+00  3.03476E+00
   4.64036E+00  3.36809E+00  4.08332E+00  4.59006E+00  2.36932E+00  4.27718E+00  3.34842E+00  4.01838E+00  5.91943E+00  2.87596E+00
   2.77670E+00  2.31250E+00  2.65491E+00  4.70309E+00  2.14291E+00  5.68424E+00  3.27455E+00  3.21608E+00  2.68646E+00  3.54089E+00
   3.12790E+00  2.72894E+00  4.65087E+00  3.17618E+00  5.97950E+00  3.75662E-02  3.31166E+00  3.65198E+00  2.70395E+00  5.88506E+00
   4.08271E+00  3.43075E+00  2.72752E+00  5.32313E+00  2.91258E+00  1.80876E+00  3.44292E+00  2.32102E+00  3.49104E+00  5.34910E-01
   4.48538E+00  1.69140E+00  2.46114E+00  3.76173E+00  3.75947E+00  1.48023E+00  3.72637E+00  8.70309E-01  1.92603E+00  3.29183E-01
   3.37918E+00  2.62514E+00  7.30563E-01  2.93992E+00  2.50894E+00  2.91415E+00  4.23345E-01  1.56110E+00  4.40694E+00  3.52888E+00
   4.54719E+00  2.68864E+00  2.12230E+00  8.94140E-01  2.01419E+00  1.13409E+00  4.12814E-01  2.07831E+00  1.50396E+00  2.60188E+00
   4.83777E+00  2.65674E+00  2.21622E+00 -3.65572E-01  1.60996E+00  6.06251E-01  1.99815E+00 -1.69486E+00  2.61127E+00  2.63648E+00
   2.54363E+00  1.20983E+00  1.80556E+00  2.65800E+00  3.81778E+00  3.24786E-01  1.14342E+00  1.37794E+00  1.25005E+00 -1.01669E+00
   1.49168E+00  6.55746E-01  2.36009E+00  2.60934E+00  2.95206E+00  1.46343E+00  1.77569E+00  3.84737E+00  1.10000E+00  2.56659E+00
   1.76617E+00  2.93179E+00  2.10466E+00  1.33739E-01  2.65037E+00 -1.33061E+00  4.64919E-01  7.41820E-01  2.70963E+00  2.50789E+00
   3.44193E-02  1.70769E+00  2.19917E+00  8.23228E-01  8.72871E-01  2.35527E+00 -1.22958E-01  1.63546E+00  1.30359E+00 -2.45485E-01
   5.28180E-01  1.18126E+00  8.05108E-01 -1.21233E+00 -1.20288E+00  2.25198E+00  4.47570E-01 -1.94575E+00 -2.10751E+00 -9.44096E-02
  -9.69173E-01 -7.88527E-02  3.91128E-01  2.68250E+00  1.50525E+00  1.91146E-01 -6.26300E-01 -1.93735E+00  5.74020E-02  6.38206E-01
  -8.33840E-01  7.23415E-01 -1.08614E+00 -6.47873E-01  1.89963E-01 -2.22233E-01 -3.08503E-01 -2.26452E+00 -2.00490E+00 -3.40107E+00
  -2.06595E+00 -3.04738E+00 -2.53173E+00 -1.49759E+00 -1.67084E+00 -2.96693E+00 -2.31284E+00  3.14386E-01  9.10359E-01 -1.08962E+00
   4.98575E-02 -1.70915E+00 -1.78543E+00 -1.19770E+00 -1.83719E+00 -1.40917E+00 -1.81504E+00 -3.46892E+00 -2.54058E+00  2.06250E-01
  -5.14655E+00 -3.91348E+00 -3.22398E+00 -1.69491E+00 -3.15727E+00 -7.51493E-01 -2.27384E+00 -3.19489E+00 -2.01011E+00 -6.52921E-01
  -5.24436E+00  6.20867E-02 -5.08389E-01 -2.30730E+00 -3.36021E+00 -3.67822E+00 -1.52980E+00 -2.11899E+00  1.41081E-01 -1.93864E+00
  -5.32802E-01 -3.75868E-01 -2.23840E+00  1.63177E+00 -6.08919E-01 -1.08794E+00 -3.18189E+00 -1.86394E+00  1.11653E-01 -4.33920E-01
  -1.13747E+00 -7.54764E-01  6.09458E-01 -2.14060E+00 -3.12759E-01  4.64798E-01 -1.35025E+00  5.56535E-01 -6.67382E-01 -1.83863E+00
  -2.31363E-01  7.67783E-01  3.98584E+00  7.79831E-01 -6.48898E-01 -9.10541E-01  6.50196E-01 -7.00987E-01  1.11222E+00  6.27889E-02
   1.46256E+00  3.20901E+00  2.63937E+00  6.88989E-01  3.50429E-01  2.07937E+00 -8.08175E-01  3.92225E-01  2.08584E+00 -2.29008E+00
  -1.83169E+00 -8.14476E-01 -7.90812E-02 -2.03736E+00 -9.22882E-01  6.05846E-01 -5.25452E+00 -3.32791E+00 -5.22573E+00 -5.67279E+00
  -8.91904E+00 -6.64498E+00 -6.79513E+00 -7.49185E+00 -1.12353E+01 -9.56462E+00 -1.18596E+01 -8.69104E+00 -1.01665E+01 -8.85700E+00
  -8.07394E+00 -1.00208E+01 -9.66950E+00 -1.07008E+01 -8.51344E+00 -1.12436E+01 -8.10246E+00 -1.17948E+01 -1.08372E+01 -1.10679E+01
  -1.04070E+01 -1.12804E+01 -1.21314E+01 -1.02182E+01 -1.25918E+01 -1.03120E+01 -1.21264E+01 -1.34456E+01 -1.13256E+01 -1.36940E+01
  -1.07239E+01 -1.08344E+01 -9.27632E+00 -1.07784E+01 -6.52419E+00 -7.82100E+00 -8.26790E+00 -5.19394E+00 -5.49781E+00 -6.37519E+00
  -4.35553E+00 -3.58960E+00 -3.73036E+00 -3.99692E+00 -1.05130E+00  6.92580E-01 -1.11014E+00 -2.42731E+00  2.44503E+00 -8.03929E-01
   7.88287E-01  1.14122E+00  1.49048E+00  1.22126E-01  1.16994E+00  7.98565E-01  3.48114E+00  8.71571E-01  2.00509E+00 -2.51386E-01
   3.71699E-01  3.63059E+00  9.21671E-01  8.40257E-01  2.06113E+00  4.01183E+00  9.36718E-01  3.20864E+00  3.51549E+00  2.16673E+00
   2.37075E+00  1.33693E+00  4.66976E+00  1.82502E+00  3.19472E+00  1.82218E+00  1.82985E+00  2.12702E+00  1.61416E+00  2.82826E+00
   4.26825E+00  3.33763E+00  2.97378E+00  2.78777E-01  1.44549E+00  2.53386E+00  1.49893E+00  4.64324E-01 -8.81299E-01  1.87617E+00
   5.90647E-01  1.35265E+00 -5.64499E-02  1.74674E-01 -4.19960E-02 -2.63049E-01  1.53623E+00  1.71856E+00  3.19793E+00  2.89595E+00
   6.64433E-01  7.92356E-02  1.04056E+00 -1.27519E-01 -1.03648E+00  1.39743E+00  8.38626E-01 -4.16270E-01  2.98166E+00  1.76818E-01
   1.80309E+00  3.75480E-02  1.16487E+00  4.39367E-02  2.20446E+00 -1.08660E-01  9.91872E-01  8.87808E-01 -1.20852E+00 -5.96472E-01
  -8.72526E-01  6.81566E-01 -1.81268E+00 -1.68328E+00  2.52229E-01  2.72455E+00  8.65665E-01  8.92592E-01 -1.06795E+00 -2.02821E+00
  -1.80721E-01 -1.38594E+00 -5.24073E-02 -1.33599E+00 -7.83474E-01  3.53695E-03  2.81353E-01 -2.71005E+00 -1.98663E-01 -1.08605E+00
  -5.17249E-01  4.49090E-01  1.12666E+00 -1.98523E-01  1.59876E+00 -1.26288E+00  1.01650E+00  1.12545E+00  1.42050E+00 -4.97609E-01
   2.40544E-01 -2.00509E+00 -1.11504E+00  1.82581E+00  1.25340E+00 -2.23724E+00  4.68102E-01  1.71284E+00 -7.38800E-01  1.44859E-01
   1.48357E+00 -9.67947E-01  7.80028E-01  2.69279E+00 -7.14738E-01 -3.27831E+00  2.58363E+00  1.18782E+00  1.87824E+00  1.67792E+00
   1.04519E+00  2.77112E-01 -4.00043E-01  3.80995E-02 -2.94702E-01  1.79132E-01 -2.95142E+00 -1.27518E+00  7.73251E-01  2.04614E+00
   1.28592E+00  8.63002E-01  3.14263E+00  3.71296E-01 -1.22780E+00 -9.51634E-01  4.58980E-01 -7.75172E-01 -4.13918E-01 -1.37326E+00
   3.68737E-02  6.68643E-01  5.79506E-01 -1.17080E+00 -4.10692E-01 -1.60080E+00  1.34198E+00  8.01029E-01 -1.30448E-01  1.31389E-01
  -1.30417E+00  1.28607E+00  1.04413E+00 -1.35800E+00 -1.68939E+00  2.40774E+00  2.27662E-01  2.83864E+00  3.16950E-02  2.67096E+00
   2.89090E-01  1.87538E+00 -4.71185E-01 -4.86981E-01  4.80976E-03 -6.30123E-02  5.89914E-01  9.94710E-01 -1.73629E+00  1.88976E+00
  -2.11744E+00 -1.59483E+00  4.54426E-01  6.44207E-01  1.07657E+00 -4.26245E-01  1.06016E+00  2.17842E+00
 NY points of the fit to the data follow
   4.74634E+00  4.84244E+00  4.98262E+00  5.11171E+00  5.29397E+00  5.41804E+00  5.56559E+00  5.50115E+00  5.54719E+00  5.45225E+00
   5.48737E+00  5.47639E+00  5.53085E+00  5.68953E+00  5.73712E+00  5.92897E+00  5.81146E+00  5.98252E+00  5.73630E+00  5.87955E+00
   5.58789E+00  5.71173E+00  5.38793E+00  5.54066E+00  5.22824E+00  5.41054E+00  5.12702E+00  5.28911E+00  5.01579E+00  5.10729E+00
   4.79820E+00  4.82507E+00  4.54203E+00  4.58678E+00  4.34977E+00  4.40073E+00  4.17126E+00  4.14268E+00  3.88863E+00  3.80573E+00
   3.58375E+00  3.54193E+00  3.36863E+00  3.37601E+00  3.21766E+00  3.19928E+00  3.00603E+00  2.96420E+00  2.77534E+00  2.80162E+00
   2.68763E+00  2.80708E+00  2.75590E+00  2.89725E+00  2.84339E+00  2.91945E+00  2.84439E+00  2.87785E+00  2.83807E+00  2.86758E+00
   2.86255E+00  2.88847E+00  2.89250E+00  2.90826E+00  2.91313E+00  2.91169E+00  2.91656E+00  2.89704E+00  2.88172E+00  2.81934E+00
   2.78878E+00  2.70271E+00  2.68402E+00  2.59987E+00  2.60672E+00  2.53119E+00  2.57372E+00  2.50443E+00  2.59001E+00  2.52268E+00
   2.64311E+00  2.58024E+00  2.73773E+00  2.69310E+00  2.89304E+00  2.80623E+00  3.03461E+00  2.91451E+00  3.16570E+00  3.00596E+00
   3.26490E+00  3.05607E+00  3.31316E+00  3.06468E+00  3.31605E+00  3.04065E+00  3.27643E+00  2.97828E+00  3.18545E+00  2.87652E+00
   3.05080E+00  2.74917E+00  2.89269E+00  2.62021E+00  2.73768E+00  2.50763E+00  2.60077E+00  2.40234E+00  2.46922E+00  2.30828E+00
   2.35842E+00  2.24646E+00  2.28825E+00  2.22363E+00  2.25975E+00  2.22620E+00  2.24655E+00  2.22484E+00  2.22883E+00  2.21439E+00
   2.20836E+00  2.20822E+00  2.19987E+00  2.19839E+00  2.18044E+00  2.16624E+00  2.13382E+00  2.11504E+00  2.07131E+00  2.04647E+00
   1.99353E+00  1.96270E+00  1.90243E+00  1.86639E+00  1.79934E+00  1.75501E+00  1.67724E+00  1.63066E+00  1.54655E+00  1.49753E+00
   1.40971E+00  1.35414E+00  1.25626E+00  1.19936E+00  1.09266E+00  1.03412E+00  9.14828E-01  8.51251E-01  7.17117E-01  6.49356E-01
   5.01934E-01  4.29580E-01  2.73622E-01  2.10371E-01  4.43830E-02 -1.49320E-02 -1.94821E-01 -2.56214E-01 -4.39860E-01 -4.91909E-01
  -6.72928E-01 -7.16360E-01 -8.93255E-01 -9.34158E-01 -1.10681E+00 -1.13563E+00 -1.28735E+00 -1.31042E+00 -1.43725E+00 -1.45766E+00
  -1.55504E+00 -1.57620E+00 -1.64193E+00 -1.66941E+00 -1.71492E+00 -1.77990E+00 -1.83384E+00 -1.92491E+00 -2.02159E+00 -2.10673E+00
  -2.22618E+00 -2.25595E+00 -2.36872E+00 -2.25791E+00 -2.35473E+00 -2.13313E+00 -2.24279E+00 -1.89865E+00 -2.10862E+00 -1.75132E+00
  -2.13808E+00 -1.90296E+00 -2.53044E+00 -2.13390E+00 -2.88087E+00 -2.30584E+00 -3.10569E+00 -2.29044E+00 -3.05533E+00 -2.16353E+00
  -2.91772E+00 -2.05369E+00 -2.77609E+00 -2.08891E+00 -2.80459E+00 -2.24842E+00 -2.76483E+00 -2.31659E+00 -2.64552E+00 -2.29503E+00
  -2.44852E+00 -2.22903E+00 -2.24065E+00 -2.17271E+00 -2.10193E+00 -2.07676E+00 -1.94922E+00 -1.96446E+00 -1.83812E+00 -1.76686E+00
  -1.63157E+00 -1.47120E+00 -1.41412E+00 -1.12504E+00 -1.30637E+00 -9.76119E-01 -1.31600E+00 -9.59985E-01 -1.40931E+00 -1.12081E+00
  -1.65099E+00 -1.43004E+00 -1.93622E+00 -1.72903E+00 -2.06830E+00 -1.87191E+00 -1.94215E+00 -1.70438E+00 -1.33785E+00 -1.29335E+00
  -6.68486E-01 -8.26696E-01  7.96342E-02 -2.65136E-01  9.00839E-01  3.63558E-01  1.70556E+00  9.40436E-01  2.33598E+00  1.39753E+00
   2.75516E+00  1.64728E+00  2.84216E+00  1.59502E+00  2.53362E+00  1.20704E+00  1.84876E+00  5.38117E-01  8.95390E-01 -3.11031E-01
  -1.73037E-01 -1.27625E+00 -1.39800E+00 -2.42263E+00 -2.75026E+00 -3.66352E+00 -4.10212E+00 -4.84576E+00 -5.30958E+00 -5.90217E+00
  -6.36151E+00 -6.82201E+00 -7.25529E+00 -7.58840E+00 -7.96100E+00 -8.16283E+00 -8.41296E+00 -8.54307E+00 -8.69847E+00 -8.82959E+00
  -8.95079E+00 -9.08649E+00 -9.16834E+00 -9.29864E+00 -9.34898E+00 -9.47617E+00 -9.50300E+00 -9.61968E+00 -9.63425E+00 -9.73423E+00
  -9.74043E+00 -9.82331E+00 -9.82283E+00 -9.88297E+00 -9.86891E+00 -9.89832E+00 -9.86282E+00 -9.85713E+00 -9.79485E+00 -9.74672E+00
  -9.64631E+00 -9.54159E+00 -9.38252E+00 -9.19691E+00 -8.94403E+00 -8.63319E+00 -8.22129E+00 -7.67966E+00 -6.88850E+00 -5.80597E+00
  -5.11344E+00 -3.93139E+00 -3.44173E+00 -2.25107E+00 -2.09926E+00 -1.11849E+00 -1.53896E+00 -4.47497E-01 -9.15973E-01  1.43405E-01
  -3.00137E-01  6.74463E-01  3.03739E-01  1.06850E+00  8.99373E-01  1.31878E+00  1.40225E+00  1.41327E+00  1.77931E+00  1.48146E+00
   2.22773E+00  1.67937E+00  2.67167E+00  1.76560E+00  2.89493E+00  1.67310E+00  2.87454E+00  1.50897E+00  2.74139E+00  1.49503E+00
   2.77563E+00  1.65785E+00  2.86100E+00  1.83572E+00  2.83527E+00  1.94078E+00  2.72861E+00  2.14695E+00  2.73010E+00  2.36807E+00
   2.70261E+00  2.37384E+00  2.49104E+00  2.18598E+00  2.08399E+00  1.88850E+00  1.76723E+00  1.72467E+00  1.72380E+00  1.74435E+00
   1.77384E+00  1.80369E+00  1.82772E+00  1.84136E+00  1.84137E+00  1.82547E+00  1.79227E+00  1.74110E+00  1.67190E+00  1.58516E+00
   1.48181E+00  1.36316E+00  1.23085E+00  1.08677E+00  9.32991E-01  7.71710E-01  6.05216E-01  4.35828E-01  2.65864E-01  9.75954E-02
  -6.67738E-02 -2.25156E-01 -3.75577E-01 -5.16205E-01 -6.45366E-01 -7.61571E-01 -8.63511E-01 -9.50078E-01 -1.02037E+00 -1.07370E+00
  -1.10961E+00 -1.12788E+00 -1.12852E+00 -1.11180E+00 -1.07823E+00 -1.02857E+00 -9.63807E-01 -8.85185E-01 -7.94154E-01 -6.92362E-01
  -5.81634E-01 -4.63932E-01 -3.41327E-01 -2.15961E-01 -8.99940E-02  3.44381E-02  1.55267E-01  2.70544E-01  3.78464E-01  4.77421E-01
   5.66029E-01  6.43161E-01  7.07943E-01  7.59783E-01  7.98359E-01  8.23615E-01  8.35747E-01  8.35187E-01  8.22567E-01  7.98690E-01
   7.64503E-01  7.21060E-01  6.69493E-01  6.10974E-01  5.46688E-01  4.77813E-01  4.05480E-01  3.30779E-01  2.54726E-01  1.78260E-01
   1.02225E-01  2.73883E-02 -4.55897E-02 -1.16118E-01 -1.83715E-01 -2.47957E-01 -3.08524E-01 -3.65132E-01 -4.17596E-01 -4.65744E-01
  -5.09499E-01 -5.48775E-01 -5.83574E-01 -6.13882E-01 -6.39748E-01 -6.61207E-01 -6.78340E-01 -6.91216E-01 -6.99938E-01 -7.04596E-01
  -7.05297E-01 -7.02145E-01 -6.95250E-01 -6.84724E-01 -6.70673E-01 -6.53211E-01 -6.32437E-01 -6.08464E-01 -5.81387E-01 -5.51314E-01
  -5.18336E-01 -4.82554E-01 -4.44052E-01 -4.02926E-01 -3.59256E-01 -3.13136E-01 -2.64639E-01 -2.13847E-01 -1.60834E-01 -1.05677E-01
  -4.84489E-02  1.07759E-02  7.19321E-02  1.34950E-01  1.99761E-01  2.66299E-01  3.34497E-01  4.04286E-01  4.75602E-01  5.48378E-01
   6.22549E-01  6.98039E-01  7.74780E-01  8.52696E-01  9.31711E-01  1.01174E+00  1.09271E+00  1.17450E+00  1.25703E+00  1.34019E+00
   1.42383E+00  1.50784E+00  1.59203E+00  1.67623E+00  1.76020E+00  1.84368E+00  1.92633E+00  2.00773E+00
 NY background values follow
     3.383E+00    3.376E+00    3.367E+00    3.358E+00    3.349E+00    3.339E+00    3.328E+00    3.317E+00    3.305E+00    3.293E+00
     3.280E+00    3.267E+00    3.253E+00    3.238E+00    3.223E+00    3.208E+00    3.191E+00    3.174E+00    3.157E+00    3.139E+00
     3.120E+00    3.101E+00    3.082E+00    3.061E+00    3.040E+00    3.019E+00    2.997E+00    2.974E+00    2.951E+00    2.927E+00
     2.903E+00    2.878E+00    2.852E+00    2.826E+00    2.799E+00    2.772E+00    2.744E+00    2.716E+00    2.687E+00    2.657E+00
     2.627E+00    2.596E+00    2.564E+00    2.532E+00    2.500E+00    2.467E+00    2.433E+00    2.399E+00    2.364E+00    2.328E+00
     2.292E+00    2.255E+00    2.218E+00    2.180E+00    2.142E+00    2.103E+00    2.063E+00    2.023E+00    1.983E+00    1.941E+00
     1.900E+00    1.857E+00    1.814E+00    1.771E+00    1.727E+00    1.682E+00    1.637E+00    1.591E+00    1.544E+00    1.498E+00
     1.450E+00    1.402E+00    1.354E+00    1.304E+00    1.255E+00    1.205E+00    1.154E+00    1.103E+00    1.051E+00    9.984E-01
     9.456E-01    8.921E-01    8.382E-01    7.838E-01    7.288E-01    6.733E-01    6.173E-01    5.608E-01    5.037E-01    4.462E-01
     3.881E-01    3.296E-01    2.706E-01    2.110E-01    1.510E-01    9.048E-02    2.949E-02   -3.199E-02   -9.394E-02   -1.564E-01
    -2.193E-01   -2.826E-01   -3.465E-01   -4.107E-01   -4.755E-01   -5.407E-01   -6.063E-01   -6.724E-01   -7.389E-01   -8.059E-01
    -8.732E-01   -9.411E-01   -1.009E+00   -1.078E+00   -1.147E+00   -1.216E+00   -1.286E+00   -1.357E+00   -1.427E+00   -1.498E+00
    -1.570E+00   -1.642E+00   -1.714E+00   -1.786E+00   -1.859E+00   -1.933E+00   -2.006E+00   -2.080E+00   -2.155E+00   -2.230E+00
    -2.305E+00   -2.380E+00   -2.456E+00   -2.532E+00   -2.608E+00   -2.685E+00   -2.762E+00   -2.839E+00   -2.917E+00   -2.994E+00
    -3.073E+00   -3.151E+00   -3.230E+00   -3.309E+00   -3.388E+00   -3.467E+00   -3.547E+00   -3.627E+00   -3.707E+00   -3.788E+00
    -3.868E+00   -3.949E+00   -4.030E+00   -4.112E+00   -4.193E+00   -4.275E+00   -4.357E+00   -4.439E+00   -4.521E+00   -4.604E+00
    -4.686E+00   -4.769E+00   -4.852E+00   -4.935E+00   -5.018E+00   -5.101E+00   -5.185E+00   -5.268E+00   -5.352E+00   -5.436E+00
    -5.520E+00   -5.604E+00   -5.688E+00   -5.772E+00   -5.856E+00   -5.940E+00   -6.025E+00   -6.109E+00   -6.193E+00   -6.278E+00
    -6.362E+00   -6.447E+00   -6.532E+00   -6.616E+00   -6.701E+00   -6.785E+00   -6.870E+00   -6.954E+00   -7.039E+00   -7.123E+00
    -7.208E+00   -7.292E+00   -7.376E+00   -7.461E+00   -7.545E+00   -7.629E+00   -7.713E+00   -7.797E+00   -7.881E+00   -7.965E+00
    -8.048E+00   -8.132E+00   -8.215E+00   -8.299E+00   -8.382E+00   -8.465E+00   -8.548E+00   -8.630E+00   -8.713E+00   -8.795E+00
    -8.877E+00   -8.959E+00   -9.041E+00   -9.122E+00   -9.204E+00   -9.285E+00   -9.366E+00   -9.446E+00   -9.527E+00   -9.607E+00
    -9.687E+00   -9.766E+00   -9.846E+00   -9.925E+00   -1.000E+01   -1.008E+01   -1.016E+01   -1.024E+01   -1.032E+01   -1.039E+01
    -1.047E+01   -1.055E+01   -1.062E+01   -1.070E+01   -1.077E+01   -1.085E+01   -1.092E+01   -1.100E+01   -1.107E+01   -1.115E+01
    -1.122E+01   -1.129E+01   -1.136E+01   -1.144E+01   -1.151E+01   -1.158E+01   -1.165E+01   -1.172E+01   -1.179E+01   -1.186E+01
    -1.193E+01   -1.199E+01   -1.206E+01   -1.213E+01   -1.220E+01   -1.226E+01   -1.233E+01   -1.239E+01   -1.246E+01   -1.252E+01
    -1.259E+01   -1.265E+01   -1.271E+01   -1.277E+01   -1.283E+01   -1.289E+01   -1.295E+01   -1.301E+01   -1.307E+01   -1.313E+01
    -1.319E+01   -1.324E+01   -1.330E+01   -1.336E+01   -1.341E+01   -1.347E+01   -1.352E+01   -1.357E+01   -1.363E+01   -1.368E+01
    -1.373E+01   -1.378E+01   -1.383E+01   -1.388E+01   -1.393E+01   -1.397E+01   -1.402E+01   -1.407E+01   -1.411E+01   -1.416E+01
    -1.420E+01   -1.424E+01   -1.428E+01   -1.433E+01   -1.437E+01   -1.441E+01   -1.445E+01   -1.448E+01   -1.452E+01   -1.456E+01
    -1.459E+01   -1.463E+01   -1.466E+01   -1.470E+01   -1.473E+01   -1.476E+01   -1.479E+01   -1.482E+01   -1.485E+01   -1.488E+01
    -1.491E+01   -1.493E+01   -1.496E+01   -1.499E+01   -1.501E+01   -1.503E+01   -1.506E+01   -1.508E+01   -1.510E+01   -1.512E+01
    -1.514E+01   -1.515E+01   -1.517E+01   -1.519E+01   -1.520E+01   -1.521E+01   -1.523E+01   -1.524E+01   -1.525E+01   -1.526E+01
    -1.527E+01   -1.528E+01   -1.529E+01   -1.529E+01   -1.530E+01   -1.530E+01   -1.531E+01   -1.531E+01   -1.531E+01   -1.531E+01
    -1.531E+01   -1.531E+01   -1.531E+01   -1.530E+01   -1.530E+01   -1.529E+01   -1.529E+01   -1.528E+01   -1.527E+01   -1.526E+01
    -1.525E+01   -1.524E+01   -1.522E+01   -1.521E+01   -1.520E+01   -1.518E+01   -1.516E+01   -1.515E+01   -1.513E+01   -1.511E+01
    -1.509E+01   -1.506E+01   -1.504E+01   -1.502E+01   -1.499E+01   -1.496E+01   -1.494E+01   -1.491E+01   -1.488E+01   -1.485E+01
    -1.482E+01   -1.478E+01   -1.475E+01   -1.471E+01   -1.468E+01   -1.464E+01   -1.460E+01   -1.456E+01   -1.452E+01   -1.448E+01
    -1.444E+01   -1.440E+01   -1.435E+01   -1.431E+01   -1.426E+01   -1.421E+01   -1.416E+01   -1.411E+01   -1.406E+01   -1.401E+01
    -1.396E+01   -1.390E+01   -1.385E+01   -1.379E+01   -1.373E+01   -1.367E+01   -1.361E+01   -1.355E+01   -1.349E+01   -1.343E+01
    -1.336E+01   -1.330E+01   -1.323E+01   -1.317E+01   -1.310E+01   -1.303E+01   -1.296E+01   -1.289E+01   -1.281E+01   -1.274E+01
    -1.266E+01   -1.259E+01   -1.251E+01   -1.243E+01   -1.235E+01   -1.227E+01   -1.219E+01   -1.211E+01   -1.203E+01   -1.194E+01
    -1.186E+01   -1.177E+01   -1.168E+01   -1.160E+01   -1.151E+01   -1.142E+01   -1.132E+01   -1.123E+01   -1.114E+01   -1.104E+01
    -1.095E+01   -1.085E+01   -1.075E+01   -1.066E+01   -1.056E+01   -1.045E+01   -1.035E+01   -1.025E+01   -1.015E+01   -1.004E+01
    -9.937E+00   -9.830E+00   -9.723E+00   -9.614E+00   -9.505E+00   -9.394E+00   -9.283E+00   -9.171E+00   -9.057E+00   -8.943E+00
    -8.828E+00   -8.712E+00   -8.595E+00   -8.477E+00   -8.358E+00   -8.239E+00   -8.118E+00   -7.996E+00   -7.874E+00   -7.751E+00
    -7.627E+00   -7.502E+00   -7.376E+00   -7.249E+00   -7.121E+00   -6.993E+00   -6.863E+00   -6.733E+00   -6.602E+00   -6.470E+00
    -6.338E+00   -6.204E+00   -6.070E+00   -5.935E+00   -5.799E+00   -5.662E+00   -5.525E+00   -5.386E+00   -5.247E+00   -5.108E+00
    -4.967E+00   -4.826E+00   -4.684E+00   -4.541E+00   -4.398E+00   -4.253E+00   -4.108E+00   -3.963E+00   -3.817E+00   -3.670E+00
    -3.522E+00   -3.374E+00   -3.225E+00   -3.075E+00   -2.925E+00   -2.774E+00   -2.622E+00   -2.470E+00
 Ala      Conc. = 2.43E+03
