 LCModel (Version 6.3-1L) Copyright: S.W. Provencher.          Ref.: Magn. Reson. Med. 30:672-679 (1993).                
 Slice#3 Row#9 Col#7  PD_24_press_2_raw_act
 36 lines in following concentration table = NCONC+1
    Conc.  %SD /Cr+PCr  Metabolite                                         
    0.000 999%   0.000 Ala                                                 
    0.000 999%   0.000 Asp                                                 
  857.087  28%   0.365 Cr                                                  
 1.49E+03  16%   0.635 PCr                                                 
    0.000 999%   0.000 GABA                                                
    0.000 999%   0.000 Glc                                                 
  969.906  24%   0.413 Gln                                                 
 1.62E+03  16%   0.690 Glu                                                 
  588.764   4%   0.251 GPC                                                 
    0.000 999%   0.000 PCh                                                 
  662.364  12%   0.282 GSH                                                 
 1.81E+03  15%   0.773 Ins                                                 
  161.827  78% 6.9E-02 Lac                                                 
 2.69E+03   3%   1.145 NAA                                                 
    0.000 999%   0.000 NAAG                                                
  111.370  27% 4.7E-02 Scyllo                                              
    0.000 999%   0.000 Tau                                                 
    0.000 999%   0.000 -CrCH2                                              
  588.764   4%   0.251 GPC+PCh                                             
 2.69E+03   3%   1.145 NAA+NAAG                                            
 2.35E+03   3%   1.000 Cr+PCr                                              
 2.59E+03  14%   1.103 Glu+Gln                                             
  823.810  66%   0.351 Lip13a                                              
   67.410 385% 2.9E-02 Lip13b                                              
    0.000 999%   0.000 Lip09                                               
 1.71E+03  15%   0.729 MM09                                                
  164.113  74% 7.0E-02 Lip20                                               
 3.99E+03  11%   1.699 MM20                                                
  570.221  27%   0.243 MM12                                                
 1.76E+03  21%   0.752 MM14                                                
  975.475  25%   0.416 MM17                                                
  891.221  44%   0.380 Lip13a+Lip13b                                       
 3.23E+03  15%   1.375 MM14+Lip13a+Lip13b+MM12                             
 1.71E+03  15%   0.729 MM09+Lip09                                          
 4.15E+03  10%   1.769 MM20+Lip20                                          
   6 lines in following misc. output table
  FWHM = 0.046 ppm    S/N =  13                                            
  Data shift = 0.023 ppm                                                   
  Ph:  -2 deg       1.3 deg/ppm                                            
  alphaB,S = 1.2E+00,   1.1E+02                                            
   14 spline knots.   Ns = 6(1)                                            
  (12) 4 infls.   (11) 1 extrs.                                            
  498 points on ppm-axis = NY
      4.000000     3.992357     3.984714     3.977070     3.969427     3.961784     3.954141     3.946497     3.938854     3.931211
      3.923568     3.915925     3.908281     3.900638     3.892995     3.885352     3.877708     3.870065     3.862422     3.854779
      3.847136     3.839492     3.831849     3.824206     3.816563     3.808919     3.801276     3.793633     3.785990     3.778347
      3.770703     3.763060     3.755417     3.747774     3.740130     3.732487     3.724844     3.717201     3.709558     3.701914
      3.694271     3.686628     3.678985     3.671341     3.663698     3.656055     3.648412     3.640769     3.633125     3.625482
      3.617839     3.610196     3.602552     3.594909     3.587266     3.579623     3.571980     3.564336     3.556693     3.549050
      3.541407     3.533763     3.526120     3.518477     3.510834     3.503191     3.495547     3.487904     3.480261     3.472618
      3.464974     3.457331     3.449688     3.442045     3.434402     3.426758     3.419115     3.411472     3.403829     3.396185
      3.388542     3.380899     3.373256     3.365613     3.357969     3.350326     3.342683     3.335040     3.327396     3.319753
      3.312110     3.304467     3.296824     3.289180     3.281537     3.273894     3.266251     3.258607     3.250964     3.243321
      3.235678     3.228034     3.220391     3.212748     3.205105     3.197462     3.189818     3.182175     3.174532     3.166889
      3.159245     3.151602     3.143959     3.136316     3.128673     3.121029     3.113386     3.105743     3.098100     3.090456
      3.082813     3.075170     3.067527     3.059884     3.052240     3.044597     3.036954     3.029311     3.021667     3.014024
      3.006381     2.998738     2.991095     2.983451     2.975808     2.968165     2.960522     2.952878     2.945235     2.937592
      2.929949     2.922306     2.914662     2.907019     2.899376     2.891733     2.884089     2.876446     2.868803     2.861160
      2.853517     2.845873     2.838230     2.830587     2.822944     2.815300     2.807657     2.800014     2.792371     2.784728
      2.777084     2.769441     2.761798     2.754155     2.746511     2.738868     2.731225     2.723582     2.715939     2.708295
      2.700652     2.693009     2.685366     2.677722     2.670079     2.662436     2.654793     2.647150     2.639506     2.631863
      2.624220     2.616577     2.608933     2.601290     2.593647     2.586004     2.578361     2.570717     2.563074     2.555431
      2.547788     2.540144     2.532501     2.524858     2.517215     2.509572     2.501928     2.494285     2.486642     2.478999
      2.471355     2.463712     2.456069     2.448426     2.440783     2.433139     2.425496     2.417853     2.410210     2.402566
      2.394923     2.387280     2.379637     2.371994     2.364350     2.356707     2.349064     2.341421     2.333777     2.326134
      2.318491     2.310848     2.303205     2.295561     2.287918     2.280275     2.272632     2.264988     2.257345     2.249702
      2.242059     2.234416     2.226772     2.219129     2.211486     2.203843     2.196199     2.188556     2.180913     2.173270
      2.165627     2.157983     2.150340     2.142697     2.135054     2.127410     2.119767     2.112124     2.104481     2.096838
      2.089194     2.081551     2.073908     2.066265     2.058621     2.050978     2.043335     2.035692     2.028049     2.020405
      2.012762     2.005119     1.997476     1.989833     1.982190     1.974546     1.966903     1.959260     1.951617     1.943974
      1.936331     1.928688     1.921045     1.913402     1.905759     1.898115     1.890472     1.882829     1.875186     1.867543
      1.859900     1.852257     1.844614     1.836971     1.829327     1.821684     1.814041     1.806398     1.798755     1.791112
      1.783469     1.775826     1.768183     1.760540     1.752896     1.745253     1.737610     1.729967     1.722324     1.714681
      1.707038     1.699395     1.691752     1.684108     1.676465     1.668822     1.661179     1.653536     1.645893     1.638250
      1.630607     1.622964     1.615321     1.607677     1.600034     1.592391     1.584748     1.577105     1.569462     1.561819
      1.554176     1.546533     1.538890     1.531246     1.523603     1.515960     1.508317     1.500674     1.493031     1.485388
      1.477745     1.470102     1.462458     1.454815     1.447172     1.439529     1.431886     1.424243     1.416600     1.408957
      1.401314     1.393671     1.386027     1.378384     1.370741     1.363098     1.355455     1.347812     1.340169     1.332526
      1.324883     1.317240     1.309596     1.301953     1.294310     1.286667     1.279024     1.271381     1.263738     1.256095
      1.248452     1.240808     1.233165     1.225522     1.217879     1.210236     1.202593     1.194950     1.187307     1.179664
      1.172021     1.164377     1.156734     1.149091     1.141448     1.133805     1.126162     1.118519     1.110876     1.103233
      1.095590     1.087946     1.080303     1.072660     1.065017     1.057374     1.049731     1.042088     1.034445     1.026802
      1.019158     1.011515     1.003872     0.996229     0.988586     0.980943     0.973300     0.965657     0.958014     0.950371
      0.942727     0.935084     0.927441     0.919798     0.912155     0.904512     0.896869     0.889226     0.881583     0.873940
      0.866296     0.858653     0.851010     0.843367     0.835724     0.828081     0.820438     0.812795     0.805152     0.797508
      0.789865     0.782222     0.774579     0.766936     0.759293     0.751650     0.744007     0.736364     0.728721     0.721077
      0.713434     0.705791     0.698148     0.690505     0.682862     0.675219     0.667576     0.659933     0.652290     0.644646
      0.637003     0.629360     0.621717     0.614074     0.606431     0.598788     0.591145     0.583502     0.575858     0.568215
      0.560572     0.552929     0.545286     0.537643     0.530000     0.522357     0.514714     0.507071     0.499427     0.491784
      0.484141     0.476498     0.468855     0.461212     0.453569     0.445925     0.438282     0.430639     0.422996     0.415353
      0.407710     0.400067     0.392424     0.384780     0.377137     0.369494     0.361851     0.354208     0.346565     0.338922
      0.331278     0.323635     0.315992     0.308349     0.300706     0.293063     0.285420     0.277777     0.270133     0.262490
      0.254847     0.247204     0.239561     0.231918     0.224275     0.216631     0.208988     0.201345
 NY phased data points follow
  -7.56553E+00 -3.24086E+00 -9.60422E+00 -4.80298E-01  7.56987E+00  1.19833E+01  1.64134E+01  2.90796E+01  4.10622E+01  4.56889E+01
   5.33731E+01  4.93793E+01  4.49798E+01  3.33354E+01  2.69200E+01  1.56915E+01  1.20077E+01  1.06334E+01 -9.59276E-02 -1.47472E+00
  -4.05542E+00 -6.00222E-01 -7.25124E+00 -3.22787E-01  1.61884E+00  5.16260E+00  1.99738E+00  1.12729E+01  1.13536E+01  1.54465E+01
   1.45284E+01  1.24389E+01  7.81017E+00  8.77679E+00  8.97104E+00  4.35187E+00 -1.65667E+00  5.35397E-02  3.85381E+00 -4.82571E+00
  -2.39184E-01 -6.30635E-01  4.99138E+00 -8.12588E-02 -7.18901E-01  6.88835E+00  1.18938E+01  1.83401E+01  1.30938E+01  1.00559E+01
   8.17721E+00  5.98279E+00 -3.73456E+00  3.13256E+00 -5.72320E+00  3.22584E+00 -4.08915E+00  2.42898E+00  5.27136E+00 -1.43972E-02
  -3.12697E-01 -3.21680E+00 -8.26692E+00 -1.91844E+00 -7.37997E+00 -6.38209E+00 -1.67315E+01 -1.02291E+01 -1.65046E+01 -5.68505E+00
  -6.95144E+00 -7.89821E+00 -5.54442E+00 -4.60340E+00 -6.64695E+00 -4.75089E+00 -5.34350E+00 -5.93099E+00 -1.38535E+01 -7.83070E+00
  -9.28106E+00 -1.11198E+01 -8.09603E+00 -7.77470E+00 -5.25667E+00 -2.36762E+00 -8.69590E+00  3.01865E-02 -7.35254E+00 -7.52038E+00
  -9.09806E+00 -7.49241E+00 -2.66544E+00 -3.46713E+00 -3.39934E+00 -9.42265E+00  9.20190E-01  1.70018E+00  4.97022E-01  9.09113E+00
   2.23377E+01  2.87822E+01  4.38750E+01  4.58918E+01  4.59913E+01  3.73757E+01  2.21321E+01  1.64820E+01  1.07651E+01  5.01262E+00
   4.22677E+00 -1.86195E-01 -2.89433E+00 -4.15850E+00 -3.99935E+00 -5.41732E+00 -9.53566E+00 -6.48169E+00 -1.01005E+01 -4.36592E+00
  -4.55730E+00  2.16757E+00  4.58237E+00  1.95854E+01  3.04307E+01  5.01222E+01  6.87160E+01  7.97781E+01  7.41367E+01  5.93988E+01
   4.36853E+01  2.38267E+01  1.68740E+01  1.56889E+01  7.93691E+00  5.39688E+00 -9.08323E-01 -1.45022E+00 -4.43113E+00 -2.76560E+00
  -7.03825E+00 -9.40671E+00 -9.88260E+00 -1.10746E+01 -1.31800E+01 -9.21463E+00 -1.62832E+01 -6.83561E+00 -7.50470E+00 -7.82175E+00
  -7.30005E+00 -1.07943E+01 -1.29039E+01 -9.13357E+00 -1.53853E+01 -8.24152E+00 -5.01760E+00 -1.20845E+01 -1.38894E+01 -8.68859E+00
  -1.02840E+01 -1.32771E+01 -1.51961E+01 -1.67785E+01 -1.34236E+01 -1.46530E+01 -1.21310E+01 -9.72963E+00 -1.52392E+01 -1.85310E+01
  -2.04866E+01 -1.66557E+01 -2.26781E+01 -2.34376E+01 -2.51864E+01 -2.98834E+01 -2.77440E+01 -1.85027E+01 -1.89229E+01 -2.24531E+01
  -2.21982E+01 -3.07077E+01 -2.33831E+01 -3.00276E+01 -2.59525E+01 -2.43310E+01 -2.11630E+01 -1.85416E+01 -1.75155E+01 -1.02612E+01
  -1.00713E+01 -8.52863E+00 -4.34433E+00 -7.37344E+00 -1.04439E+01 -3.16128E+00 -8.83023E+00 -1.01023E+01 -1.06113E+01 -1.69293E+01
  -1.37220E+01 -1.20358E+01 -6.06525E+00 -5.48515E+00 -7.22720E+00 -1.21357E+01 -5.56946E+00 -1.51235E+01 -1.79989E+01 -1.94708E+01
  -2.00420E+01 -1.42541E+01 -8.93331E+00 -8.50706E+00  5.60275E+00  6.29137E+00 -1.17453E+00  3.28820E+00 -2.91065E+00 -2.87925E+00
  -5.73597E+00 -1.48307E+01 -1.43790E+01 -1.11577E+01 -6.27586E+00 -2.83658E-02 -2.34602E+00  2.70022E+00  1.23176E-01  2.57311E+00
   1.80642E+00  4.45924E+00  6.68572E-01  3.56857E+00 -2.05917E-01 -1.45374E+00 -6.04533E+00 -3.64993E+00  7.34101E-01 -4.49423E-01
  -4.06340E+00 -1.15060E+00 -5.89457E-02 -3.95077E+00  1.17032E-01 -2.04397E+00  7.42264E+00  4.21915E+00  7.28736E+00  6.26480E+00
   2.90020E+00  3.30108E+00  8.12779E+00  1.05452E+01  1.49265E+01  2.01828E+01  3.10436E+01  5.17050E+01  7.48186E+01  9.58899E+01
   9.87581E+01  9.86907E+01  7.65431E+01  5.15440E+01  3.49750E+01  2.21901E+01  1.64942E+01  1.09468E+01  8.08465E+00 -4.45578E+00
   5.56049E+00  5.50019E+00  4.54038E+00 -2.05458E+00 -6.46675E+00 -5.37773E+00  5.06292E-01 -1.92899E+00 -9.51752E+00 -8.77107E+00
  -3.74638E+00 -2.59727E+00 -4.28684E+00 -2.03807E+00 -3.20714E+00 -1.23463E+01 -1.14755E+01 -1.11123E+01 -1.09942E+01 -8.75880E+00
  -1.04040E+01 -4.37430E+00 -2.71265E+00 -1.45845E+01 -8.18450E+00 -7.57391E+00 -2.87389E+00 -4.64012E+00 -5.88643E+00 -8.35090E+00
  -6.31916E+00 -1.39746E+00 -2.47785E+00 -1.18474E+00 -4.88782E+00 -5.09156E+00  5.44878E+00 -1.35645E+00 -6.86052E-01  2.80930E+00
   2.83758E+00  3.12121E+00  2.46922E-02 -8.70805E-01 -4.36268E+00 -4.31049E+00 -3.45151E+00 -7.53951E+00 -2.27541E+00 -9.63218E+00
  -6.76245E+00 -6.20141E+00 -2.07366E+00 -5.00162E+00  2.13709E+00 -1.04489E+01 -3.47004E+00 -3.98660E-01 -2.41403E+00 -5.25697E-01
   6.83221E-01 -6.72990E+00  2.30718E+00 -1.19038E+00  2.83732E+00  3.49490E+00  3.34492E+00  3.72691E+00  3.16156E+00  5.23149E+00
   4.87957E+00 -1.30486E+00 -6.42566E+00  3.51442E-01  4.45961E+00  5.15959E+00  5.57584E-02  3.39415E+00 -1.07242E+00 -1.76059E+00
   2.17378E+00 -2.24510E+00 -2.22293E+00 -1.47305E-01  5.77533E-02  3.55330E+00  3.66738E+00 -2.07868E+00  2.62914E+00 -2.60330E+00
   2.74464E+00  1.23087E+00  2.43975E+00  1.73723E-02 -1.50211E+00 -7.05472E+00 -6.22925E+00  9.21971E-02  1.70884E+00 -4.68459E+00
   3.76717E-01 -1.28120E+00  1.05899E+00  1.23892E+00 -7.12820E+00 -4.58930E+00  2.06291E-01 -2.93727E+00 -5.17339E+00 -2.59232E+00
  -4.53173E+00 -5.15079E+00 -4.97344E+00 -7.86155E+00 -5.62352E+00 -5.32079E+00 -9.94667E+00 -5.86177E+00 -5.85877E+00 -6.90875E+00
  -2.62503E+00 -6.25307E+00 -2.49955E+00 -3.70076E-01 -5.77331E+00 -1.90349E+00 -9.86869E-01  5.72169E+00 -2.08336E+00  6.53279E-01
   3.51396E+00  1.07231E+00 -3.61273E+00 -3.49787E+00  2.05306E+00  1.52591E+00  2.76901E+00  4.78931E+00 -8.31415E-01 -2.14181E-01
   2.09123E+00  3.52076E+00  5.61058E+00  1.24175E+00 -1.05266E+00 -2.67376E+00 -3.83241E+00 -3.25929E+00 -2.88639E+00 -3.45577E+00
  -2.51960E+00 -9.31639E+00 -6.34118E+00 -9.21174E+00 -3.43278E+00 -4.63272E+00 -1.08499E+01 -2.56316E+00 -7.38374E+00 -3.39373E+00
  -4.69866E+00 -5.86237E-01 -5.53026E+00 -6.41851E+00 -7.97857E+00 -5.06028E+00 -4.99762E+00 -4.41725E+00 -5.64730E+00 -7.46867E+00
  -4.40472E+00 -8.76259E+00 -2.83515E+00 -7.38249E+00 -4.60673E+00 -5.93401E+00 -5.74426E+00 -3.09866E+00 -5.28882E+00 -1.14196E+01
  -3.41783E+00 -4.36044E+00 -8.86642E+00 -5.31356E+00 -7.50398E+00 -6.53918E+00 -5.61018E+00 -1.22703E+01 -4.40417E+00 -7.43206E+00
  -7.81932E+00 -4.13068E+00 -3.33638E+00 -1.15668E+01 -6.76698E+00 -3.09008E-01 -2.17374E+00 -1.04070E+01 -8.42888E+00 -1.19862E+01
  -5.53486E+00 -8.70665E+00 -9.58966E+00 -4.85181E+00 -8.04383E+00 -8.04134E+00 -2.85730E+00 -5.16400E+00 -2.81765E+00 -3.08640E+00
  -7.06878E+00 -3.21462E+00 -7.27117E+00 -4.89935E+00 -6.55600E+00 -7.12346E+00 -3.52362E+00 -4.00891E+00 -3.72745E+00 -1.09265E+01
  -4.45508E+00 -2.58832E+00 -3.60696E+00 -4.91732E+00 -8.33880E+00 -8.30614E+00 -5.66056E+00 -8.51871E+00
 NY points of the fit to the data follow
  -1.79851E+00 -2.35957E+00 -2.26304E+00 -9.97285E-01  2.60443E+00  8.59785E+00  1.73400E+01  2.81362E+01  3.92322E+01  4.79184E+01
   5.15687E+01  4.90736E+01  4.17352E+01  3.24912E+01  2.40857E+01  1.74765E+01  1.19942E+01  7.41596E+00  4.26985E+00  2.01839E+00
   8.49287E-01  6.66514E-02 -6.65042E-01 -9.10169E-01 -3.52144E-01  8.57214E-01  3.08573E+00  6.38654E+00  1.00240E+01  1.30089E+01
   1.44963E+01  1.40998E+01  1.21146E+01  9.37101E+00  6.50687E+00  3.54681E+00  4.45589E-01 -1.72304E+00 -2.46828E+00 -2.76926E+00
  -2.75597E+00 -2.07137E+00 -5.94062E-01  1.56073E+00  4.23366E+00  7.27491E+00  9.96961E+00  1.12958E+01  1.06114E+01  7.92865E+00
   4.12784E+00  6.01740E-01 -1.82882E+00 -3.31588E+00 -4.26845E+00 -4.65816E+00 -4.17998E+00 -3.08242E+00 -1.86321E+00 -9.25588E-01
  -6.23129E-01 -1.15198E+00 -2.41318E+00 -3.97903E+00 -5.28097E+00 -5.99958E+00 -6.13423E+00 -5.83881E+00 -5.25961E+00 -4.59885E+00
  -3.94913E+00 -3.48733E+00 -3.33814E+00 -3.53837E+00 -4.03767E+00 -4.64953E+00 -5.17421E+00 -5.54542E+00 -5.82436E+00 -6.10091E+00
  -6.16157E+00 -5.84175E+00 -5.33833E+00 -4.75325E+00 -4.15636E+00 -3.84870E+00 -4.21106E+00 -5.33343E+00 -6.87947E+00 -8.25086E+00
  -8.91220E+00 -8.77048E+00 -8.28661E+00 -7.97865E+00 -7.88471E+00 -7.67330E+00 -7.15298E+00 -4.79878E+00  6.34104E-01  8.79450E+00
   1.98844E+01  3.27015E+01  4.37464E+01  4.89380E+01  4.62546E+01  3.70334E+01  2.52774E+01  1.51805E+01  8.32466E+00  3.18689E+00
  -2.10105E+00 -6.10420E+00 -7.47186E+00 -7.91725E+00 -8.11350E+00 -8.21875E+00 -8.27717E+00 -8.28332E+00 -8.16560E+00 -7.78139E+00
  -6.62318E+00 -2.48512E+00  6.28064E+00  1.85959E+01  3.45746E+01  5.28282E+01  6.87720E+01  7.68134E+01  7.38321E+01  6.12999E+01
   4.48130E+01  3.02767E+01  1.99036E+01  1.15249E+01  2.39557E+00 -5.02559E+00 -7.75712E+00 -8.15206E+00 -7.51356E+00 -6.60930E+00
  -5.94384E+00 -5.62636E+00 -5.71685E+00 -6.17574E+00 -6.76921E+00 -7.36382E+00 -7.94945E+00 -8.49855E+00 -9.08035E+00 -9.58570E+00
  -1.00062E+01 -1.03583E+01 -1.06174E+01 -1.07628E+01 -1.08313E+01 -1.09750E+01 -1.12400E+01 -1.16473E+01 -1.22191E+01 -1.27987E+01
  -1.32214E+01 -1.33111E+01 -1.29983E+01 -1.24985E+01 -1.22091E+01 -1.24367E+01 -1.31412E+01 -1.39588E+01 -1.45555E+01 -1.50051E+01
  -1.55072E+01 -1.61828E+01 -1.69231E+01 -1.75372E+01 -1.79859E+01 -1.82371E+01 -1.81518E+01 -1.77622E+01 -1.73853E+01 -1.73136E+01
  -1.75563E+01 -1.79369E+01 -1.81209E+01 -1.79369E+01 -1.75777E+01 -1.70255E+01 -1.58386E+01 -1.38881E+01 -1.15041E+01 -9.44967E+00
  -8.37504E+00 -8.44489E+00 -9.42560E+00 -1.07854E+01 -1.20714E+01 -1.30967E+01 -1.35706E+01 -1.32105E+01 -1.19935E+01 -1.00902E+01
  -7.79732E+00 -5.57648E+00 -3.86928E+00 -3.02654E+00 -3.57418E+00 -5.56049E+00 -8.55796E+00 -1.20809E+01 -1.53456E+01 -1.73972E+01
  -1.74794E+01 -1.55595E+01 -1.21157E+01 -7.91263E+00 -3.96924E+00 -1.38835E+00 -8.98477E-01 -2.58837E+00 -6.10684E+00 -1.01708E+01
  -1.34727E+01 -1.54289E+01 -1.57070E+01 -1.42411E+01 -1.12295E+01 -7.75983E+00 -5.08725E+00 -3.59495E+00 -2.99459E+00 -2.78129E+00
  -2.79822E+00 -2.85089E+00 -2.59565E+00 -1.90957E+00 -1.07853E+00 -3.22523E-01  2.38648E-01  4.14292E-01  2.94087E-01 -1.15612E-01
  -7.64745E-01 -1.34751E+00 -1.43284E+00 -8.89822E-01  5.23346E-02  1.28895E+00  2.47289E+00  3.24029E+00  3.65009E+00  4.09467E+00
   4.85690E+00  5.67248E+00  6.61223E+00  8.26826E+00  1.32409E+01  2.31347E+01  3.67054E+01  5.45389E+01  7.50546E+01  9.25406E+01
   1.00130E+02  9.43986E+01  7.75581E+01  5.66596E+01  3.90420E+01  2.73477E+01  1.85494E+01  9.02161E+00  1.55248E+00 -1.08976E+00
  -2.26895E+00 -3.03169E+00 -3.48509E+00 -3.73573E+00 -3.97496E+00 -4.25804E+00 -4.61485E+00 -5.03123E+00 -5.45910E+00 -5.86150E+00
  -6.24344E+00 -6.58709E+00 -6.85585E+00 -7.04898E+00 -7.19083E+00 -7.29863E+00 -7.37216E+00 -7.39977E+00 -7.37895E+00 -7.31885E+00
  -7.21224E+00 -7.05353E+00 -6.84218E+00 -6.58012E+00 -6.27016E+00 -5.91576E+00 -5.52355E+00 -5.10162E+00 -4.65684E+00 -4.20010E+00
  -3.74509E+00 -3.30409E+00 -2.88974E+00 -2.51521E+00 -2.19296E+00 -1.93352E+00 -1.74413E+00 -1.62801E+00 -1.58485E+00 -1.61180E+00
  -1.70350E+00 -1.85101E+00 -2.04237E+00 -2.26414E+00 -2.50145E+00 -2.73941E+00 -2.96399E+00 -3.16230E+00 -3.32278E+00 -3.43563E+00
  -3.49364E+00 -3.49262E+00 -3.43123E+00 -3.31040E+00 -3.13290E+00 -2.90335E+00 -2.62821E+00 -2.31564E+00 -1.97471E+00 -1.61464E+00
  -1.24446E+00 -8.72957E-01 -5.08646E-01 -1.59374E-01  1.68430E-01  4.70349E-01  7.44235E-01  9.90440E-01  1.21279E+00  1.42167E+00
   1.64360E+00  1.93083E+00  2.24240E+00  2.49417E+00  2.65187E+00  2.60670E+00  2.21812E+00  1.44208E+00  4.05716E-01 -5.54482E-01
  -1.15286E+00 -1.29077E+00 -1.00177E+00 -4.31993E-01  2.51775E-01  9.40269E-01  1.40089E+00  1.43286E+00  1.13821E+00  7.22543E-01
   3.21475E-01 -9.16792E-02 -6.00824E-01 -1.09842E+00 -1.51124E+00 -1.87814E+00 -2.21685E+00 -2.53418E+00 -2.83333E+00 -3.11569E+00
  -3.38158E+00 -3.63059E+00 -3.86175E+00 -4.07352E+00 -4.26379E+00 -4.43019E+00 -4.57038E+00 -4.68221E+00 -4.76368E+00 -4.81276E+00
  -4.82743E+00 -4.80582E+00 -4.74645E+00 -4.64814E+00 -4.50995E+00 -4.33105E+00 -4.11088E+00 -3.84946E+00 -3.54757E+00 -3.20675E+00
  -2.82929E+00 -2.41824E+00 -1.97774E+00 -1.51322E+00 -1.03138E+00 -5.40101E-01 -4.80966E-02  4.35147E-01  8.99447E-01  1.33415E+00
   1.72858E+00  2.07260E+00  2.35713E+00  2.57441E+00  2.71819E+00  2.78402E+00  2.76961E+00  2.67508E+00  2.50293E+00  2.25773E+00
   1.94582E+00  1.57503E+00  1.15450E+00  6.94307E-01  2.04959E-01 -3.03190E-01 -8.20357E-01 -1.33753E+00 -1.84657E+00 -2.34035E+00
  -2.81304E+00 -3.26024E+00 -3.67888E+00 -4.06701E+00 -4.42356E+00 -4.74828E+00 -5.04171E+00 -5.30511E+00 -5.54021E+00 -5.74887E+00
  -5.93302E+00 -6.09461E+00 -6.23575E+00 -6.35856E+00 -6.46504E+00 -6.55693E+00 -6.63571E+00 -6.70277E+00 -6.75951E+00 -6.80721E+00
  -6.84696E+00 -6.87957E+00 -6.90573E+00 -6.92612E+00 -6.94148E+00 -6.95246E+00 -6.95951E+00 -6.96292E+00 -6.96297E+00 -6.96005E+00
  -6.95456E+00 -6.94681E+00 -6.93693E+00 -6.92501E+00 -6.91117E+00 -6.89568E+00 -6.87879E+00 -6.86061E+00 -6.84115E+00 -6.82040E+00
  -6.79850E+00 -6.77565E+00 -6.75197E+00 -6.72748E+00 -6.70211E+00 -6.67587E+00 -6.64892E+00 -6.62140E+00 -6.59337E+00 -6.56477E+00
  -6.53552E+00 -6.50568E+00 -6.47538E+00 -6.44474E+00 -6.41373E+00 -6.38225E+00 -6.35027E+00 -6.31789E+00 -6.28524E+00 -6.25235E+00
  -6.21916E+00 -6.18557E+00 -6.15159E+00 -6.11733E+00 -6.08291E+00 -6.04828E+00 -6.01335E+00 -5.97804E+00 -5.94243E+00 -5.90663E+00
  -5.87068E+00 -5.83450E+00 -5.79797E+00 -5.76108E+00 -5.72391E+00 -5.68656E+00 -5.64898E+00 -5.61106E+00
 NY background values follow
    -5.699E+00   -5.748E+00   -5.798E+00   -5.848E+00   -5.897E+00   -5.947E+00   -5.997E+00   -6.047E+00   -6.097E+00   -6.147E+00
    -6.197E+00   -6.246E+00   -6.296E+00   -6.346E+00   -6.397E+00   -6.447E+00   -6.497E+00   -6.547E+00   -6.597E+00   -6.647E+00
    -6.697E+00   -6.748E+00   -6.798E+00   -6.848E+00   -6.899E+00   -6.949E+00   -6.999E+00   -7.050E+00   -7.100E+00   -7.150E+00
    -7.201E+00   -7.251E+00   -7.302E+00   -7.352E+00   -7.403E+00   -7.453E+00   -7.504E+00   -7.554E+00   -7.605E+00   -7.656E+00
    -7.706E+00   -7.757E+00   -7.808E+00   -7.858E+00   -7.909E+00   -7.959E+00   -8.010E+00   -8.061E+00   -8.112E+00   -8.162E+00
    -8.213E+00   -8.264E+00   -8.314E+00   -8.365E+00   -8.416E+00   -8.466E+00   -8.517E+00   -8.567E+00   -8.618E+00   -8.668E+00
    -8.719E+00   -8.769E+00   -8.820E+00   -8.870E+00   -8.920E+00   -8.970E+00   -9.021E+00   -9.071E+00   -9.121E+00   -9.171E+00
    -9.221E+00   -9.271E+00   -9.320E+00   -9.370E+00   -9.420E+00   -9.469E+00   -9.519E+00   -9.568E+00   -9.617E+00   -9.666E+00
    -9.715E+00   -9.764E+00   -9.813E+00   -9.862E+00   -9.910E+00   -9.959E+00   -1.001E+01   -1.006E+01   -1.010E+01   -1.015E+01
    -1.020E+01   -1.025E+01   -1.029E+01   -1.034E+01   -1.039E+01   -1.044E+01   -1.048E+01   -1.053E+01   -1.058E+01   -1.062E+01
    -1.067E+01   -1.071E+01   -1.076E+01   -1.081E+01   -1.085E+01   -1.090E+01   -1.094E+01   -1.099E+01   -1.103E+01   -1.107E+01
    -1.112E+01   -1.116E+01   -1.121E+01   -1.125E+01   -1.129E+01   -1.133E+01   -1.138E+01   -1.142E+01   -1.146E+01   -1.150E+01
    -1.154E+01   -1.158E+01   -1.162E+01   -1.166E+01   -1.171E+01   -1.174E+01   -1.178E+01   -1.182E+01   -1.186E+01   -1.190E+01
    -1.194E+01   -1.198E+01   -1.201E+01   -1.205E+01   -1.209E+01   -1.212E+01   -1.216E+01   -1.219E+01   -1.223E+01   -1.226E+01
    -1.230E+01   -1.233E+01   -1.236E+01   -1.240E+01   -1.243E+01   -1.246E+01   -1.249E+01   -1.252E+01   -1.255E+01   -1.258E+01
    -1.261E+01   -1.264E+01   -1.267E+01   -1.270E+01   -1.272E+01   -1.275E+01   -1.277E+01   -1.280E+01   -1.282E+01   -1.284E+01
    -1.287E+01   -1.289E+01   -1.291E+01   -1.293E+01   -1.295E+01   -1.296E+01   -1.298E+01   -1.300E+01   -1.301E+01   -1.303E+01
    -1.304E+01   -1.306E+01   -1.307E+01   -1.308E+01   -1.309E+01   -1.310E+01   -1.311E+01   -1.311E+01   -1.312E+01   -1.312E+01
    -1.313E+01   -1.313E+01   -1.313E+01   -1.313E+01   -1.313E+01   -1.313E+01   -1.313E+01   -1.313E+01   -1.312E+01   -1.312E+01
    -1.311E+01   -1.310E+01   -1.310E+01   -1.309E+01   -1.308E+01   -1.307E+01   -1.306E+01   -1.305E+01   -1.303E+01   -1.302E+01
    -1.301E+01   -1.299E+01   -1.298E+01   -1.296E+01   -1.295E+01   -1.293E+01   -1.292E+01   -1.290E+01   -1.288E+01   -1.286E+01
    -1.284E+01   -1.283E+01   -1.281E+01   -1.279E+01   -1.277E+01   -1.275E+01   -1.273E+01   -1.271E+01   -1.269E+01   -1.267E+01
    -1.265E+01   -1.263E+01   -1.260E+01   -1.258E+01   -1.256E+01   -1.254E+01   -1.252E+01   -1.250E+01   -1.248E+01   -1.246E+01
    -1.244E+01   -1.242E+01   -1.240E+01   -1.238E+01   -1.236E+01   -1.234E+01   -1.232E+01   -1.230E+01   -1.228E+01   -1.226E+01
    -1.223E+01   -1.221E+01   -1.220E+01   -1.218E+01   -1.216E+01   -1.214E+01   -1.212E+01   -1.210E+01   -1.208E+01   -1.206E+01
    -1.204E+01   -1.202E+01   -1.200E+01   -1.198E+01   -1.196E+01   -1.194E+01   -1.192E+01   -1.190E+01   -1.188E+01   -1.187E+01
    -1.185E+01   -1.183E+01   -1.181E+01   -1.179E+01   -1.177E+01   -1.175E+01   -1.174E+01   -1.172E+01   -1.170E+01   -1.168E+01
    -1.166E+01   -1.165E+01   -1.163E+01   -1.161E+01   -1.159E+01   -1.157E+01   -1.156E+01   -1.154E+01   -1.152E+01   -1.150E+01
    -1.149E+01   -1.147E+01   -1.145E+01   -1.144E+01   -1.142E+01   -1.140E+01   -1.138E+01   -1.137E+01   -1.135E+01   -1.133E+01
    -1.132E+01   -1.130E+01   -1.128E+01   -1.127E+01   -1.125E+01   -1.123E+01   -1.122E+01   -1.120E+01   -1.118E+01   -1.117E+01
    -1.115E+01   -1.113E+01   -1.112E+01   -1.110E+01   -1.108E+01   -1.107E+01   -1.105E+01   -1.103E+01   -1.102E+01   -1.100E+01
    -1.098E+01   -1.097E+01   -1.095E+01   -1.093E+01   -1.092E+01   -1.090E+01   -1.088E+01   -1.087E+01   -1.085E+01   -1.083E+01
    -1.082E+01   -1.080E+01   -1.078E+01   -1.077E+01   -1.075E+01   -1.073E+01   -1.072E+01   -1.070E+01   -1.068E+01   -1.066E+01
    -1.065E+01   -1.063E+01   -1.061E+01   -1.059E+01   -1.058E+01   -1.056E+01   -1.054E+01   -1.052E+01   -1.051E+01   -1.049E+01
    -1.047E+01   -1.045E+01   -1.044E+01   -1.042E+01   -1.040E+01   -1.038E+01   -1.036E+01   -1.034E+01   -1.033E+01   -1.031E+01
    -1.029E+01   -1.027E+01   -1.025E+01   -1.023E+01   -1.021E+01   -1.019E+01   -1.017E+01   -1.016E+01   -1.014E+01   -1.012E+01
    -1.010E+01   -1.008E+01   -1.006E+01   -1.004E+01   -1.002E+01   -9.997E+00   -9.976E+00   -9.956E+00   -9.935E+00   -9.914E+00
    -9.893E+00   -9.872E+00   -9.851E+00   -9.829E+00   -9.808E+00   -9.786E+00   -9.764E+00   -9.742E+00   -9.719E+00   -9.697E+00
    -9.674E+00   -9.651E+00   -9.628E+00   -9.604E+00   -9.581E+00   -9.557E+00   -9.532E+00   -9.508E+00   -9.483E+00   -9.458E+00
    -9.433E+00   -9.408E+00   -9.382E+00   -9.356E+00   -9.330E+00   -9.303E+00   -9.276E+00   -9.249E+00   -9.221E+00   -9.193E+00
    -9.165E+00   -9.137E+00   -9.108E+00   -9.079E+00   -9.049E+00   -9.019E+00   -8.989E+00   -8.959E+00   -8.928E+00   -8.896E+00
    -8.865E+00   -8.833E+00   -8.800E+00   -8.768E+00   -8.735E+00   -8.702E+00   -8.668E+00   -8.634E+00   -8.600E+00   -8.566E+00
    -8.531E+00   -8.496E+00   -8.461E+00   -8.426E+00   -8.390E+00   -8.354E+00   -8.318E+00   -8.282E+00   -8.245E+00   -8.208E+00
    -8.171E+00   -8.134E+00   -8.097E+00   -8.059E+00   -8.022E+00   -7.984E+00   -7.946E+00   -7.908E+00   -7.870E+00   -7.831E+00
    -7.793E+00   -7.754E+00   -7.716E+00   -7.677E+00   -7.638E+00   -7.599E+00   -7.560E+00   -7.521E+00   -7.482E+00   -7.443E+00
    -7.404E+00   -7.364E+00   -7.325E+00   -7.286E+00   -7.246E+00   -7.207E+00   -7.168E+00   -7.128E+00   -7.089E+00   -7.049E+00
    -7.010E+00   -6.971E+00   -6.931E+00   -6.892E+00   -6.852E+00   -6.813E+00   -6.773E+00   -6.734E+00   -6.694E+00   -6.655E+00
    -6.615E+00   -6.575E+00   -6.536E+00   -6.496E+00   -6.457E+00   -6.417E+00   -6.378E+00   -6.338E+00   -6.298E+00   -6.259E+00
    -6.219E+00   -6.180E+00   -6.140E+00   -6.101E+00   -6.061E+00   -6.022E+00   -5.982E+00   -5.942E+00   -5.903E+00   -5.863E+00
    -5.824E+00   -5.784E+00   -5.745E+00   -5.706E+00   -5.666E+00   -5.627E+00   -5.587E+00   -5.548E+00
 Cr       Conc. = 8.57E+02
