 LCModel (Version 6.3-1L) Copyright: S.W. Provencher.          Ref.: Magn. Reson. Med. 30:672-679 (1993).                
 Slice#2 Row#1 Col#2  PD_24_press_2_raw_act
 36 lines in following concentration table = NCONC+1
    Conc.  %SD /Cr+PCr  Metabolite                                         
  709.196  41%   4.721 Ala                                                 
   35.730 113%   0.238 Asp                                                 
  150.225  50%   1.000 Cr                                                  
    0.000 999%   0.000 PCr                                                 
   23.877 102%   0.159 GABA                                                
   26.664  92%   0.177 Glc                                                 
    0.000 999%   0.000 Gln                                                 
    0.000 999%   0.000 Glu                                                 
  110.226  27%   0.734 GPC                                                 
    0.000 999%   0.000 PCh                                                 
    0.000 999%   0.000 GSH                                                 
  265.321 138%   1.766 Ins                                                 
    0.000 999%   0.000 Lac                                                 
   25.145 557%   0.167 NAA                                                 
  308.668  45%   2.055 NAAG                                                
    9.895  82% 6.6E-02 Scyllo                                              
   44.905  89%   0.299 Tau                                                 
   14.269 266% 9.5E-02 -CrCH2                                              
  110.226  27%   0.734 GPC+PCh                                             
  333.813  30%   2.222 NAA+NAAG                                            
  150.225  50%   1.000 Cr+PCr                                              
    0.000 999%   0.000 Glu+Gln                                             
  581.407  72%   3.870 Lip13a                                              
    0.000 999%   0.000 Lip13b                                              
  135.356 103%   0.901 Lip09                                               
  480.835  41%   3.201 MM09                                                
   90.833  95%   0.605 Lip20                                               
  567.066  60%   3.775 MM20                                                
  163.196  58%   1.086 MM12                                                
 1.03E+03  23%   6.867 MM14                                                
  329.041  54%   2.190 MM17                                                
  581.407  72%   3.870 Lip13a+Lip13b                                       
 1.78E+03  24%  11.824 MM14+Lip13a+Lip13b+MM12                             
  616.191  31%   4.102 MM09+Lip09                                          
  657.899  51%   4.379 MM20+Lip20                                          
   6 lines in following misc. output table
  FWHM = 0.084 ppm    S/N =   1                                            
  Data shift = 0.031 ppm                                                   
  Ph: 125 deg      63.8 deg/ppm                                            
  alphaB,S = 8.5E+01,   1.0E+02                                            
   14 spline knots.   Ns =10(1)                                            
  ( 4) 2 infls.   ( 1) 1 extrs.                                            
  498 points on ppm-axis = NY
      4.000000     3.992357     3.984714     3.977070     3.969427     3.961784     3.954141     3.946497     3.938854     3.931211
      3.923568     3.915925     3.908281     3.900638     3.892995     3.885352     3.877708     3.870065     3.862422     3.854779
      3.847136     3.839492     3.831849     3.824206     3.816563     3.808919     3.801276     3.793633     3.785990     3.778347
      3.770703     3.763060     3.755417     3.747774     3.740130     3.732487     3.724844     3.717201     3.709558     3.701914
      3.694271     3.686628     3.678985     3.671341     3.663698     3.656055     3.648412     3.640769     3.633125     3.625482
      3.617839     3.610196     3.602552     3.594909     3.587266     3.579623     3.571980     3.564336     3.556693     3.549050
      3.541407     3.533763     3.526120     3.518477     3.510834     3.503191     3.495547     3.487904     3.480261     3.472618
      3.464974     3.457331     3.449688     3.442045     3.434402     3.426758     3.419115     3.411472     3.403829     3.396185
      3.388542     3.380899     3.373256     3.365613     3.357969     3.350326     3.342683     3.335040     3.327396     3.319753
      3.312110     3.304467     3.296824     3.289180     3.281537     3.273894     3.266251     3.258607     3.250964     3.243321
      3.235678     3.228034     3.220391     3.212748     3.205105     3.197462     3.189818     3.182175     3.174532     3.166889
      3.159245     3.151602     3.143959     3.136316     3.128673     3.121029     3.113386     3.105743     3.098100     3.090456
      3.082813     3.075170     3.067527     3.059884     3.052240     3.044597     3.036954     3.029311     3.021667     3.014024
      3.006381     2.998738     2.991095     2.983451     2.975808     2.968165     2.960522     2.952878     2.945235     2.937592
      2.929949     2.922306     2.914662     2.907019     2.899376     2.891733     2.884089     2.876446     2.868803     2.861160
      2.853517     2.845873     2.838230     2.830587     2.822944     2.815300     2.807657     2.800014     2.792371     2.784728
      2.777084     2.769441     2.761798     2.754155     2.746511     2.738868     2.731225     2.723582     2.715939     2.708295
      2.700652     2.693009     2.685366     2.677722     2.670079     2.662436     2.654793     2.647150     2.639506     2.631863
      2.624220     2.616577     2.608933     2.601290     2.593647     2.586004     2.578361     2.570717     2.563074     2.555431
      2.547788     2.540144     2.532501     2.524858     2.517215     2.509572     2.501928     2.494285     2.486642     2.478999
      2.471355     2.463712     2.456069     2.448426     2.440783     2.433139     2.425496     2.417853     2.410210     2.402566
      2.394923     2.387280     2.379637     2.371994     2.364350     2.356707     2.349064     2.341421     2.333777     2.326134
      2.318491     2.310848     2.303205     2.295561     2.287918     2.280275     2.272632     2.264988     2.257345     2.249702
      2.242059     2.234416     2.226772     2.219129     2.211486     2.203843     2.196199     2.188556     2.180913     2.173270
      2.165627     2.157983     2.150340     2.142697     2.135054     2.127410     2.119767     2.112124     2.104481     2.096838
      2.089194     2.081551     2.073908     2.066265     2.058621     2.050978     2.043335     2.035692     2.028049     2.020405
      2.012762     2.005119     1.997476     1.989833     1.982190     1.974546     1.966903     1.959260     1.951617     1.943974
      1.936331     1.928688     1.921045     1.913402     1.905759     1.898115     1.890472     1.882829     1.875186     1.867543
      1.859900     1.852257     1.844614     1.836971     1.829327     1.821684     1.814041     1.806398     1.798755     1.791112
      1.783469     1.775826     1.768183     1.760540     1.752896     1.745253     1.737610     1.729967     1.722324     1.714681
      1.707038     1.699395     1.691752     1.684108     1.676465     1.668822     1.661179     1.653536     1.645893     1.638250
      1.630607     1.622964     1.615321     1.607677     1.600034     1.592391     1.584748     1.577105     1.569462     1.561819
      1.554176     1.546533     1.538890     1.531246     1.523603     1.515960     1.508317     1.500674     1.493031     1.485388
      1.477745     1.470102     1.462458     1.454815     1.447172     1.439529     1.431886     1.424243     1.416600     1.408957
      1.401314     1.393671     1.386027     1.378384     1.370741     1.363098     1.355455     1.347812     1.340169     1.332526
      1.324883     1.317240     1.309596     1.301953     1.294310     1.286667     1.279024     1.271381     1.263738     1.256095
      1.248452     1.240808     1.233165     1.225522     1.217879     1.210236     1.202593     1.194950     1.187307     1.179664
      1.172021     1.164377     1.156734     1.149091     1.141448     1.133805     1.126162     1.118519     1.110876     1.103233
      1.095590     1.087946     1.080303     1.072660     1.065017     1.057374     1.049731     1.042088     1.034445     1.026802
      1.019158     1.011515     1.003872     0.996229     0.988586     0.980943     0.973300     0.965657     0.958014     0.950371
      0.942727     0.935084     0.927441     0.919798     0.912155     0.904512     0.896869     0.889226     0.881583     0.873940
      0.866296     0.858653     0.851010     0.843367     0.835724     0.828081     0.820438     0.812795     0.805152     0.797508
      0.789865     0.782222     0.774579     0.766936     0.759293     0.751650     0.744007     0.736364     0.728721     0.721077
      0.713434     0.705791     0.698148     0.690505     0.682862     0.675219     0.667576     0.659933     0.652290     0.644646
      0.637003     0.629360     0.621717     0.614074     0.606431     0.598788     0.591145     0.583502     0.575858     0.568215
      0.560572     0.552929     0.545286     0.537643     0.530000     0.522357     0.514714     0.507071     0.499427     0.491784
      0.484141     0.476498     0.468855     0.461212     0.453569     0.445925     0.438282     0.430639     0.422996     0.415353
      0.407710     0.400067     0.392424     0.384780     0.377137     0.369494     0.361851     0.354208     0.346565     0.338922
      0.331278     0.323635     0.315992     0.308349     0.300706     0.293063     0.285420     0.277777     0.270133     0.262490
      0.254847     0.247204     0.239561     0.231918     0.224275     0.216631     0.208988     0.201345
 NY phased data points follow
   1.64911E+01  2.84338E+00  4.37826E+00  3.72363E+00  4.55960E+00  1.09045E+01  1.62770E+01  8.26235E+00  8.60166E+00  4.08154E+00
   8.03961E+00  1.67558E+01  1.17299E+01  1.01038E+01  1.14570E+01  1.40625E+00  9.82381E+00  8.15026E+00  1.36122E+01  9.15069E+00
   1.54727E+01  8.59297E+00  1.99376E+01  5.65351E+00  1.11248E+01 -2.83997E+00  5.89354E+00  1.09946E+01  3.70338E-01  6.56192E+00
   3.66799E+00  4.55211E+00  1.48219E+01  4.44510E+00 -5.39046E+00  1.26202E+01  1.00661E+01  2.64054E+00  1.08726E+01  2.46404E+00
   5.89048E+00  4.28051E+00  9.22965E+00  7.59786E+00  9.64761E+00  1.32830E+01  7.21462E+00  4.91819E+00  2.35010E+00  4.74896E+00
   7.53915E+00  9.53163E+00  4.37490E+00 -2.92559E+00  3.57534E+00  5.26364E+00  1.42011E+01  8.70383E+00  8.87439E+00  8.13560E+00
   7.32024E+00  6.79037E+00  3.80246E+00  9.18024E+00  2.04486E+00  8.71202E-01 -4.46291E+00 -3.54977E+00  1.03362E+01 -4.21555E+00
   6.35717E+00  1.13664E+01  1.41180E+01  5.24880E+00  9.76279E+00  9.96780E+00  8.36888E+00  6.05836E+00  8.55948E+00  1.52983E+00
   9.04691E+00  9.96022E+00  6.75969E+00  8.16708E+00  7.14628E+00 -1.81055E-01  6.24613E+00  5.10136E+00  1.14019E+01  1.31400E+01
   3.14952E+00  6.49601E+00  4.01285E+00  2.92565E+00 -3.36155E+00 -1.75213E+00  2.91046E+00  5.51951E+00  3.22418E+00  3.68394E+00
   3.52406E+00  1.31087E+01  4.27209E+00  1.12892E+01  9.07534E+00  1.05953E+01  1.73689E+01  1.33456E+01  1.57293E+01  5.35352E+00
   8.48013E-01  6.43503E+00  1.88668E+00  5.10895E+00  7.72699E+00  2.76603E+00 -3.17953E+00  2.74468E+00 -1.18299E+00  1.45972E+00
   8.28709E+00 -6.18724E+00  5.71837E-01  7.30482E+00  3.44516E-01  3.51873E+00  9.34763E+00  9.20123E+00  9.84801E+00  3.94965E+00
   1.48873E+00  1.18707E+01  2.35199E+00  3.34747E+00  1.01472E+00  4.61748E+00 -1.51429E+00  5.57404E+00  1.55945E+00  7.48598E+00
   2.78290E+00 -6.50380E+00  5.28720E+00  5.33899E+00  8.72182E+00  5.71044E+00  4.39437E+00  2.55419E+00  7.41360E+00  5.01466E+00
   2.81255E+00  8.96808E+00 -1.60855E+00  5.24790E+00  1.98378E+00  5.69439E+00  7.18358E+00 -1.18574E+00  2.28272E+00  8.24388E+00
  -2.32962E+00  8.88270E+00  4.37918E+00  7.21202E+00  2.21223E+00  1.02507E+00 -3.23618E+00 -1.56822E+00 -2.87441E+00  4.20547E+00
  -2.79282E+00  7.70535E-01  2.97090E+00  3.91452E+00  2.24678E+00  5.78108E+00  3.54933E+00  5.53485E+00 -2.82734E+00 -5.13508E+00
  -2.75263E+00 -3.59751E+00  2.35400E+00 -5.29948E-01  2.11895E+00 -1.42631E+00 -2.39296E+00 -4.10297E+00  1.14167E+00 -2.92856E+00
  -6.32285E+00 -4.92966E+00  8.92804E-01 -1.71589E+00  4.30486E-02  2.90982E+00  2.94312E+00  2.30610E+00 -7.79206E-01 -3.22645E+00
   1.36010E+00 -2.70147E+00 -5.60501E+00 -7.61078E-01 -7.35685E+00  3.86887E+00 -8.23098E+00  5.62103E+00 -3.25062E+00  2.38954E+00
   2.79368E+00  1.47161E+00 -2.74770E+00  9.42347E-01  1.61548E+00  1.96230E+00 -1.55950E+00 -7.19809E+00 -1.93056E+00  2.51372E+00
   9.57456E-01 -2.43265E+00 -4.21419E+00 -2.52876E+00 -2.02660E+00 -5.28581E+00 -2.12754E+00  1.56086E+00  8.28039E+00 -2.98420E+00
  -5.11564E+00 -4.26906E-02 -1.15938E+00  2.69730E+00  4.78574E+00 -3.95347E-01 -3.37347E+00  5.07284E-01 -3.33806E+00  8.46741E-02
  -2.96480E-01 -9.86216E+00 -2.06606E+00  3.68631E+00 -3.92593E+00 -2.32740E+00 -8.10826E+00 -5.34026E+00 -5.94903E+00  8.49077E+00
  -3.70567E+00  1.66159E+00 -9.69913E-01  1.83839E+00 -1.35496E+00  1.29350E+00  1.40245E+00  9.38071E+00  4.70680E+00  6.89038E+00
   6.38145E+00  6.00240E+00  5.45187E+00  1.44192E+01  9.82645E+00  6.27542E+00  2.99363E-01 -9.62784E-01  9.92441E-02 -1.23073E-02
   4.87123E+00 -3.38557E+00 -1.33597E+00  7.46756E-01 -2.06091E+00 -2.81977E+00 -5.27289E+00 -2.92703E+00 -5.43503E+00  2.77159E+00
  -3.79268E-01 -9.35492E+00 -3.25317E+00 -7.73772E+00 -9.71761E+00  1.04248E-01 -3.01550E-01  1.80955E+00 -1.01228E+01 -7.34215E+00
  -1.02503E+01 -6.87266E-01 -3.30481E+00 -6.43298E+00 -2.98324E+00 -9.05809E+00 -8.49773E+00 -1.17622E+00 -6.34545E+00 -1.66862E+00
  -8.40500E+00 -6.98416E+00 -7.79544E+00  2.67291E+00 -6.05036E+00 -1.13242E+00 -3.26219E+00 -7.26982E+00 -1.35791E+01 -8.12724E+00
  -3.72199E-01  1.02922E+00 -6.36753E+00 -9.29427E+00 -5.79748E+00 -5.60153E+00 -6.42501E+00 -5.54549E-01  2.76934E+00  1.20355E+00
  -2.51368E+00  7.16161E+00  3.56640E+00 -7.75105E-01  7.30076E+00  1.06271E+01  5.76733E+00  7.09364E+00  5.28474E+00 -1.32858E+00
   4.52375E+00  1.11174E+01  2.27921E+00  4.06334E+00  1.65919E+00  1.91815E+00 -2.60935E+00  9.57276E-01  5.72960E+00  7.05298E+00
  -7.95022E+00  6.17386E+00 -3.18973E+00 -1.64206E-01 -1.93513E+00  3.02843E+00  6.00997E+00  3.95515E-01  1.30836E+00  5.55453E+00
   4.30861E+00  1.33136E+01 -1.31781E+00 -2.55237E+00  6.62763E-01 -3.61599E-01 -3.79702E-01  2.10402E+00 -5.85607E+00 -1.60592E+00
  -3.50946E+00 -8.44088E-01  1.32293E+00  3.68011E+00 -2.73264E+00  2.36213E+00 -1.05439E+00 -8.05987E+00  1.21203E+00  8.10661E+00
   2.86327E+00  8.46050E-01  3.67276E+00 -1.80439E+00  2.52161E+00  3.75619E+00 -4.94190E+00  4.12971E+00  2.59308E+00  6.11152E+00
  -5.39262E+00  3.64859E+00  4.14905E-01  4.33251E+00  4.23341E+00  1.14142E+00  1.32355E+00 -2.33281E+00 -2.89969E+00  1.06421E+01
  -1.52211E+00 -7.11035E+00 -7.82096E+00  5.82129E+00  2.57101E+00  4.11267E+00 -8.04931E+00 -5.43130E+00 -6.19336E+00  1.63602E+00
  -8.61591E+00 -1.82488E+00  7.33723E-01 -4.11550E+00  3.86501E-01  7.26678E+00 -9.29643E-01  3.35904E+00 -5.94501E+00  1.53602E+00
  -9.28776E+00 -1.55564E+00 -6.19513E+00 -7.03310E-01  5.20951E+00  5.97719E+00 -2.21785E+00 -6.31771E+00 -5.95960E+00  6.82400E-01
   5.81316E+00  6.37692E+00  2.88814E+00  6.00699E-01  4.89737E+00  5.96557E+00  5.09646E+00  1.09771E+01  8.10228E+00  1.05479E+00
  -7.40679E+00 -1.58806E-02 -2.37466E-01  4.81259E+00 -1.41604E+00  4.95181E+00 -2.67785E+00 -1.75443E+00 -1.85480E+00 -8.14892E+00
  -7.09728E+00  1.87369E+00  2.78038E+00 -6.82784E-01 -3.63502E+00 -4.00740E+00 -2.66890E+00  4.23015E+00 -7.77745E+00 -4.63145E+00
  -7.07315E+00 -2.33963E-01  2.40311E-01 -6.81359E+00 -3.49733E-01  3.74006E+00 -1.79282E+00  1.55899E+00  4.00661E+00 -4.42426E+00
  -2.68715E+00 -1.65436E+00  7.63150E-01  2.34731E+00 -7.75900E+00  2.35833E+00 -7.27996E+00 -7.55152E+00  1.02391E+00 -5.71284E+00
  -3.39558E+00  3.44072E+00 -3.74833E+00 -2.29214E+00 -4.07138E+00 -5.02050E+00 -1.48490E+01  4.49172E+00  3.02045E-01 -4.73764E-01
  -4.94301E+00 -4.08617E-01 -2.64710E+00 -3.04681E+00  6.12076E-01 -9.08650E-01 -3.30529E-01 -8.77902E-01 -2.06621E+00 -4.98890E+00
  -5.45444E-01 -1.58104E+00 -3.82890E+00 -2.75813E-01 -9.52141E+00 -2.77129E+00  5.50736E-01 -3.24263E+00
 NY points of the fit to the data follow
   8.93097E+00  8.75557E+00  8.58856E+00  8.50166E+00  8.53515E+00  8.68086E+00  8.89212E+00  9.13852E+00  9.41157E+00  9.67383E+00
   9.87822E+00  1.00028E+01  1.00458E+01  1.00100E+01  9.89485E+00  9.70556E+00  9.49300E+00  9.31557E+00  9.17025E+00  9.01811E+00
   8.82674E+00  8.59283E+00  8.34265E+00  8.09985E+00  7.83095E+00  7.51781E+00  7.19992E+00  6.91206E+00  6.66698E+00  6.47385E+00
   6.34770E+00  6.31467E+00  6.35763E+00  6.43599E+00  6.53669E+00  6.66632E+00  6.82037E+00  6.97678E+00  7.08898E+00  7.14444E+00
   7.17926E+00  7.20661E+00  7.21476E+00  7.19280E+00  7.14431E+00  7.10505E+00  7.10856E+00  7.13052E+00  7.15367E+00  7.16798E+00
   7.16275E+00  7.12649E+00  7.04602E+00  6.91938E+00  6.77576E+00  6.63290E+00  6.48641E+00  6.33372E+00  6.19371E+00  6.08890E+00
   6.02373E+00  5.97938E+00  5.93361E+00  5.87659E+00  5.81042E+00  5.73759E+00  5.66160E+00  5.59139E+00  5.53301E+00  5.48541E+00
   5.44406E+00  5.41130E+00  5.38839E+00  5.36959E+00  5.34897E+00  5.31617E+00  5.26299E+00  5.19492E+00  5.12484E+00  5.05662E+00
   4.98092E+00  4.89031E+00  4.78175E+00  4.65887E+00  4.53090E+00  4.39827E+00  4.25877E+00  4.11682E+00  3.97735E+00  3.83563E+00
   3.68976E+00  3.53899E+00  3.36372E+00  3.11349E+00  2.91946E+00  2.99209E+00  3.40252E+00  4.09617E+00  4.97931E+00  5.96449E+00
   6.97741E+00  7.94645E+00  8.80877E+00  9.52140E+00  1.00489E+01  1.03502E+01  1.03867E+01  1.01511E+01  9.68786E+00  9.05927E+00
   8.30932E+00  7.45747E+00  6.52776E+00  5.58752E+00  4.76979E+00  4.24641E+00  3.93687E+00  3.67041E+00  3.44128E+00  3.33723E+00
   3.40449E+00  3.62396E+00  3.95069E+00  4.34578E+00  4.77956E+00  5.21909E+00  5.62826E+00  5.97980E+00  6.25300E+00  6.42568E+00
   6.47598E+00  6.39402E+00  6.19368E+00  5.90336E+00  5.54583E+00  5.13079E+00  4.66907E+00  4.19025E+00  3.75130E+00  3.43838E+00
   3.25081E+00  3.11406E+00  3.00142E+00  2.90429E+00  2.81894E+00  2.74192E+00  2.66506E+00  2.58183E+00  2.49077E+00  2.39267E+00
   2.29484E+00  2.20428E+00  2.12052E+00  2.03979E+00  1.95850E+00  1.87534E+00  1.79146E+00  1.70744E+00  1.62454E+00  1.54334E+00
   1.46275E+00  1.37697E+00  1.27839E+00  1.16987E+00  1.06042E+00  9.57948E-01  8.62630E-01  7.66652E-01  6.69926E-01  5.76545E-01
   4.92420E-01  4.21611E-01  3.59060E-01  2.99909E-01  2.35544E-01  1.59411E-01  7.46846E-02 -9.89988E-03 -8.66051E-02 -1.51124E-01
  -2.03533E-01 -2.47157E-01 -2.86392E-01 -3.13846E-01 -3.14869E-01 -2.90164E-01 -2.49046E-01 -2.06046E-01 -1.73851E-01 -1.54482E-01
  -1.50735E-01 -1.60776E-01 -1.81032E-01 -2.11858E-01 -2.57385E-01 -3.18791E-01 -3.84178E-01 -4.44466E-01 -4.98478E-01 -5.45665E-01
  -5.90976E-01 -6.41579E-01 -7.00576E-01 -7.66332E-01 -8.35120E-01 -9.08444E-01 -9.90761E-01 -1.08020E+00 -1.17447E+00 -1.27206E+00
  -1.37094E+00 -1.46546E+00 -1.54698E+00 -1.61568E+00 -1.67459E+00 -1.72427E+00 -1.76288E+00 -1.78875E+00 -1.80050E+00 -1.79983E+00
  -1.79322E+00 -1.78672E+00 -1.78233E+00 -1.78275E+00 -1.79115E+00 -1.81149E+00 -1.84309E+00 -1.87869E+00 -1.91012E+00 -1.93679E+00
  -1.96155E+00 -1.98523E+00 -2.00434E+00 -2.01967E+00 -2.03950E+00 -2.06763E+00 -2.10028E+00 -2.13309E+00 -2.16464E+00 -2.19402E+00
  -2.22322E+00 -2.25356E+00 -2.28777E+00 -2.33555E+00 -2.39982E+00 -2.49290E+00 -2.67988E+00 -2.89072E+00 -2.92033E+00 -2.65292E+00
  -2.10297E+00 -1.33928E+00 -4.13855E-01  6.32234E-01  1.73502E+00  2.82219E+00  3.83952E+00  4.73942E+00  5.46815E+00  5.96732E+00
   6.19587E+00  6.15722E+00  5.88804E+00  5.42458E+00  4.78307E+00  3.98145E+00  3.07079E+00  2.16869E+00  1.47374E+00  1.00044E+00
   6.21848E-01  2.90912E-01  6.14988E-04 -2.48680E-01 -4.73494E-01 -6.83524E-01 -8.82923E-01 -1.07411E+00 -1.25731E+00 -1.43299E+00
  -1.60243E+00 -1.76628E+00 -1.92699E+00 -2.08529E+00 -2.23774E+00 -2.38144E+00 -2.51423E+00 -2.63476E+00 -2.74373E+00 -2.84451E+00
  -2.93871E+00 -3.02687E+00 -3.10910E+00 -3.18526E+00 -3.25439E+00 -3.31423E+00 -3.36269E+00 -3.40071E+00 -3.42764E+00 -3.44327E+00
  -3.44824E+00 -3.44346E+00 -3.43013E+00 -3.40953E+00 -3.38014E+00 -3.34124E+00 -3.29396E+00 -3.23944E+00 -3.17849E+00 -3.11175E+00
  -3.03989E+00 -2.96391E+00 -2.88310E+00 -2.79477E+00 -2.69597E+00 -2.58332E+00 -2.45655E+00 -2.33244E+00 -2.14485E+00 -1.67457E+00
  -8.58914E-01  1.87870E-01  1.30358E+00  2.36719E+00  3.30613E+00  3.99965E+00  4.20914E+00  3.91119E+00  3.27348E+00  2.46534E+00
   1.58040E+00  6.75944E-01 -1.60538E-01 -8.22433E-01 -1.25425E+00 -1.45375E+00 -1.42593E+00 -1.14602E+00 -5.75806E-01  3.13771E-01
   1.40099E+00  2.39411E+00  3.20261E+00  3.81321E+00  4.18814E+00  4.27477E+00  4.03498E+00  3.56061E+00  3.12401E+00  2.78502E+00
   2.51381E+00  2.29173E+00  2.10775E+00  1.95432E+00  1.82566E+00  1.71694E+00  1.62391E+00  1.54277E+00  1.46998E+00  1.40237E+00
   1.33702E+00  1.27139E+00  1.20331E+00  1.13099E+00  1.05301E+00  9.68342E-01  8.76308E-01  7.76574E-01  6.69120E-01  5.54198E-01
   4.32287E-01  3.04054E-01  1.70310E-01  3.19805E-02 -1.09931E-01 -2.54374E-01 -4.00272E-01 -5.46540E-01 -6.92089E-01 -8.35821E-01
  -9.76626E-01 -1.11337E+00 -1.24487E+00 -1.36991E+00 -1.48714E+00 -1.59515E+00 -1.69239E+00 -1.77721E+00 -1.84782E+00 -1.90237E+00
  -1.93893E+00 -1.95558E+00 -1.95051E+00 -1.92205E+00 -1.86885E+00 -1.78992E+00 -1.68484E+00 -1.55377E+00 -1.39764E+00 -1.21813E+00
  -1.01777E+00 -7.99862E-01 -5.68477E-01 -3.28306E-01 -8.45258E-02  1.57401E-01  3.91937E-01  6.13705E-01  8.17714E-01  9.99561E-01
   1.15561E+00  1.28313E+00  1.38036E+00  1.44654E+00  1.48189E+00  1.48751E+00  1.46530E+00  1.41774E+00  1.34782E+00  1.25879E+00
   1.15402E+00  1.03690E+00  9.10630E-01  7.78197E-01  6.42262E-01  5.05139E-01  3.68762E-01  2.34701E-01  1.04173E-01 -2.19221E-02
  -1.42963E-01 -2.58565E-01 -3.68538E-01 -4.72849E-01 -5.71582E-01 -6.64902E-01 -7.53037E-01 -8.36251E-01 -9.14828E-01 -9.89056E-01
  -1.05923E+00 -1.12561E+00 -1.18848E+00 -1.24808E+00 -1.30464E+00 -1.35837E+00 -1.40947E+00 -1.45812E+00 -1.50449E+00 -1.54872E+00
  -1.59094E+00 -1.63129E+00 -1.66988E+00 -1.70681E+00 -1.74218E+00 -1.77607E+00 -1.80857E+00 -1.83974E+00 -1.86966E+00 -1.89839E+00
  -1.92599E+00 -1.95250E+00 -1.97799E+00 -2.00249E+00 -2.02605E+00 -2.04871E+00 -2.07051E+00 -2.09148E+00 -2.11165E+00 -2.13106E+00
  -2.14974E+00 -2.16771E+00 -2.18499E+00 -2.20162E+00 -2.21762E+00 -2.23301E+00 -2.24780E+00 -2.26203E+00 -2.27571E+00 -2.28886E+00
  -2.30150E+00 -2.31365E+00 -2.32532E+00 -2.33653E+00 -2.34730E+00 -2.35765E+00 -2.36759E+00 -2.37714E+00 -2.38632E+00 -2.39514E+00
  -2.40363E+00 -2.41179E+00 -2.41967E+00 -2.42726E+00 -2.43460E+00 -2.44172E+00 -2.44863E+00 -2.45537E+00
 NY background values follow
     8.035E+00    7.993E+00    7.951E+00    7.909E+00    7.867E+00    7.826E+00    7.784E+00    7.742E+00    7.700E+00    7.658E+00
     7.616E+00    7.574E+00    7.532E+00    7.490E+00    7.448E+00    7.406E+00    7.364E+00    7.323E+00    7.281E+00    7.239E+00
     7.197E+00    7.155E+00    7.113E+00    7.071E+00    7.029E+00    6.987E+00    6.945E+00    6.903E+00    6.861E+00    6.820E+00
     6.778E+00    6.736E+00    6.694E+00    6.652E+00    6.610E+00    6.568E+00    6.526E+00    6.485E+00    6.443E+00    6.401E+00
     6.359E+00    6.317E+00    6.276E+00    6.234E+00    6.192E+00    6.150E+00    6.109E+00    6.067E+00    6.025E+00    5.984E+00
     5.942E+00    5.900E+00    5.859E+00    5.817E+00    5.775E+00    5.734E+00    5.692E+00    5.651E+00    5.609E+00    5.568E+00
     5.526E+00    5.485E+00    5.444E+00    5.402E+00    5.361E+00    5.320E+00    5.278E+00    5.237E+00    5.196E+00    5.154E+00
     5.113E+00    5.072E+00    5.031E+00    4.990E+00    4.949E+00    4.908E+00    4.867E+00    4.826E+00    4.785E+00    4.744E+00
     4.703E+00    4.662E+00    4.621E+00    4.580E+00    4.540E+00    4.499E+00    4.458E+00    4.418E+00    4.377E+00    4.336E+00
     4.296E+00    4.255E+00    4.215E+00    4.174E+00    4.134E+00    4.094E+00    4.053E+00    4.013E+00    3.973E+00    3.933E+00
     3.893E+00    3.853E+00    3.813E+00    3.773E+00    3.733E+00    3.693E+00    3.653E+00    3.613E+00    3.573E+00    3.534E+00
     3.494E+00    3.454E+00    3.415E+00    3.375E+00    3.336E+00    3.296E+00    3.257E+00    3.218E+00    3.178E+00    3.139E+00
     3.100E+00    3.061E+00    3.022E+00    2.983E+00    2.944E+00    2.905E+00    2.866E+00    2.828E+00    2.789E+00    2.750E+00
     2.712E+00    2.673E+00    2.635E+00    2.596E+00    2.558E+00    2.520E+00    2.481E+00    2.443E+00    2.405E+00    2.367E+00
     2.329E+00    2.291E+00    2.253E+00    2.216E+00    2.178E+00    2.140E+00    2.103E+00    2.065E+00    2.028E+00    1.990E+00
     1.953E+00    1.916E+00    1.879E+00    1.842E+00    1.805E+00    1.768E+00    1.731E+00    1.694E+00    1.657E+00    1.620E+00
     1.584E+00    1.547E+00    1.511E+00    1.475E+00    1.438E+00    1.402E+00    1.366E+00    1.330E+00    1.294E+00    1.258E+00
     1.222E+00    1.186E+00    1.151E+00    1.115E+00    1.080E+00    1.044E+00    1.009E+00    9.735E-01    9.383E-01    9.032E-01
     8.681E-01    8.332E-01    7.983E-01    7.635E-01    7.289E-01    6.943E-01    6.597E-01    6.253E-01    5.910E-01    5.567E-01
     5.225E-01    4.884E-01    4.544E-01    4.205E-01    3.867E-01    3.530E-01    3.194E-01    2.858E-01    2.524E-01    2.190E-01
     1.857E-01    1.525E-01    1.195E-01    8.647E-02    5.357E-02    2.077E-02   -1.194E-02   -4.455E-02   -7.707E-02   -1.095E-01
    -1.418E-01   -1.740E-01   -2.062E-01   -2.382E-01   -2.701E-01   -3.020E-01   -3.337E-01   -3.654E-01   -3.969E-01   -4.283E-01
    -4.597E-01   -4.909E-01   -5.220E-01   -5.531E-01   -5.840E-01   -6.148E-01   -6.455E-01   -6.761E-01   -7.067E-01   -7.371E-01
    -7.674E-01   -7.976E-01   -8.277E-01   -8.576E-01   -8.875E-01   -9.173E-01   -9.469E-01   -9.765E-01   -1.006E+00   -1.035E+00
    -1.065E+00   -1.094E+00   -1.123E+00   -1.152E+00   -1.180E+00   -1.209E+00   -1.238E+00   -1.266E+00   -1.294E+00   -1.323E+00
    -1.351E+00   -1.379E+00   -1.407E+00   -1.434E+00   -1.462E+00   -1.489E+00   -1.517E+00   -1.544E+00   -1.571E+00   -1.598E+00
    -1.625E+00   -1.652E+00   -1.679E+00   -1.706E+00   -1.732E+00   -1.758E+00   -1.785E+00   -1.811E+00   -1.837E+00   -1.863E+00
    -1.888E+00   -1.914E+00   -1.940E+00   -1.965E+00   -1.990E+00   -2.015E+00   -2.040E+00   -2.065E+00   -2.090E+00   -2.115E+00
    -2.139E+00   -2.164E+00   -2.188E+00   -2.212E+00   -2.236E+00   -2.260E+00   -2.284E+00   -2.307E+00   -2.331E+00   -2.354E+00
    -2.377E+00   -2.401E+00   -2.424E+00   -2.446E+00   -2.469E+00   -2.492E+00   -2.514E+00   -2.537E+00   -2.559E+00   -2.581E+00
    -2.603E+00   -2.625E+00   -2.646E+00   -2.668E+00   -2.689E+00   -2.710E+00   -2.732E+00   -2.753E+00   -2.773E+00   -2.794E+00
    -2.815E+00   -2.835E+00   -2.856E+00   -2.876E+00   -2.896E+00   -2.916E+00   -2.936E+00   -2.955E+00   -2.975E+00   -2.994E+00
    -3.013E+00   -3.032E+00   -3.051E+00   -3.070E+00   -3.089E+00   -3.107E+00   -3.126E+00   -3.144E+00   -3.162E+00   -3.180E+00
    -3.198E+00   -3.215E+00   -3.233E+00   -3.250E+00   -3.267E+00   -3.285E+00   -3.302E+00   -3.318E+00   -3.335E+00   -3.352E+00
    -3.368E+00   -3.384E+00   -3.400E+00   -3.416E+00   -3.432E+00   -3.448E+00   -3.463E+00   -3.478E+00   -3.494E+00   -3.509E+00
    -3.523E+00   -3.538E+00   -3.553E+00   -3.567E+00   -3.582E+00   -3.596E+00   -3.610E+00   -3.624E+00   -3.637E+00   -3.651E+00
    -3.664E+00   -3.677E+00   -3.691E+00   -3.703E+00   -3.716E+00   -3.729E+00   -3.741E+00   -3.754E+00   -3.766E+00   -3.778E+00
    -3.790E+00   -3.802E+00   -3.813E+00   -3.824E+00   -3.836E+00   -3.847E+00   -3.858E+00   -3.869E+00   -3.879E+00   -3.890E+00
    -3.900E+00   -3.910E+00   -3.920E+00   -3.930E+00   -3.940E+00   -3.949E+00   -3.959E+00   -3.968E+00   -3.977E+00   -3.986E+00
    -3.994E+00   -4.003E+00   -4.011E+00   -4.020E+00   -4.028E+00   -4.036E+00   -4.043E+00   -4.051E+00   -4.059E+00   -4.066E+00
    -4.073E+00   -4.080E+00   -4.087E+00   -4.093E+00   -4.100E+00   -4.106E+00   -4.112E+00   -4.118E+00   -4.124E+00   -4.130E+00
    -4.135E+00   -4.141E+00   -4.146E+00   -4.151E+00   -4.156E+00   -4.160E+00   -4.165E+00   -4.169E+00   -4.173E+00   -4.177E+00
    -4.181E+00   -4.185E+00   -4.189E+00   -4.192E+00   -4.195E+00   -4.198E+00   -4.201E+00   -4.204E+00   -4.206E+00   -4.209E+00
    -4.211E+00   -4.213E+00   -4.215E+00   -4.216E+00   -4.218E+00   -4.219E+00   -4.220E+00   -4.221E+00   -4.222E+00   -4.223E+00
    -4.223E+00   -4.224E+00   -4.224E+00   -4.224E+00   -4.224E+00   -4.223E+00   -4.223E+00   -4.222E+00   -4.221E+00   -4.220E+00
    -4.219E+00   -4.218E+00   -4.216E+00   -4.215E+00   -4.213E+00   -4.211E+00   -4.208E+00   -4.206E+00   -4.203E+00   -4.201E+00
    -4.198E+00   -4.195E+00   -4.191E+00   -4.188E+00   -4.184E+00   -4.181E+00   -4.177E+00   -4.173E+00   -4.168E+00   -4.164E+00
    -4.159E+00   -4.154E+00   -4.149E+00   -4.144E+00   -4.139E+00   -4.133E+00   -4.128E+00   -4.122E+00   -4.116E+00   -4.110E+00
    -4.103E+00   -4.097E+00   -4.090E+00   -4.083E+00   -4.076E+00   -4.069E+00   -4.061E+00   -4.054E+00   -4.046E+00   -4.038E+00
    -4.030E+00   -4.022E+00   -4.013E+00   -4.004E+00   -3.996E+00   -3.987E+00   -3.977E+00   -3.968E+00
 Ala      Conc. = 7.09E+02
