 LCModel (Version 6.3-1L) Copyright: S.W. Provencher.          Ref.: Magn. Reson. Med. 30:672-679 (1993).                
 Slice#3 Row#10 Col#12  PD_24_press_2_raw_act
 36 lines in following concentration table = NCONC+1
    Conc.  %SD /Cr+PCr  Metabolite                                         
 2.30E+04  28%   0.000 Ala                                                 
   63.017 200%   0.000 Asp                                                 
    0.000 999%   0.000 Cr                                                  
    0.000 999%   0.000 PCr                                                 
   14.464 529%   0.000 GABA                                                
   58.830 129%   0.000 Glc                                                 
    0.000 999%   0.000 Gln                                                 
 1.76E+03  80%   0.000 Glu                                                 
    6.305 659%   0.000 GPC                                                 
    0.000 999%   0.000 PCh                                                 
    0.000 999%   0.000 GSH                                                 
  615.937  80%   0.000 Ins                                                 
 1.47E+03 324%   0.000 Lac                                                 
  911.888  18%   0.000 NAA                                                 
    0.000 999%   0.000 NAAG                                                
   45.521  52%   0.000 Scyllo                                              
  140.720  88%   0.000 Tau                                                 
  138.791 111%   0.000 -CrCH2                                              
    6.305 659%   0.000 GPC+PCh                                             
  911.888  18%   0.000 NAA+NAAG                                            
    0.000 999%   0.000 Cr+PCr                                              
 1.76E+03  80%   0.000 Glu+Gln                                             
 4.63E+04  20%   0.000 Lip13a                                              
 1.52E+04  45%   0.000 Lip13b                                              
 2.23E+04  15%   0.000+Lip09                                               
 2.54E+04   9%   0.000 MM09                                                
    0.000 999%   0.000-Lip20                                               
 3.76E+04   9%   0.000 MM20                                                
 7.62E+03   9%   0.000 MM12                                                
 1.98E+04   8%   0.000 MM14                                                
 9.85E+03   9%   0.000 MM17                                                
 6.15E+04  13%   0.000 Lip13a+Lip13b                                       
 8.89E+04   8%   0.000 MM14+Lip13a+Lip13b+MM12                             
 4.76E+04   8%   0.000 MM09+Lip09                                          
 3.76E+04   9%   0.000 MM20+Lip20                                          
   6 lines in following misc. output table
  FWHM = 0.153 ppm    S/N =  50                                            
  Data shift = 0.222 ppm                                                   
  Ph:-146 deg      45.8 deg/ppm                                            
  alphaB,S = 1.6E+00,   6.7E+02                                            
    8 spline knots.   Ns = 9(2)                                            
  ( 8) 2 infls.   ( 1) 1 extrs.                                            
  498 points on ppm-axis = NY
      4.000000     3.992357     3.984714     3.977070     3.969427     3.961784     3.954141     3.946497     3.938854     3.931211
      3.923568     3.915925     3.908281     3.900638     3.892995     3.885352     3.877708     3.870065     3.862422     3.854779
      3.847136     3.839492     3.831849     3.824206     3.816563     3.808919     3.801276     3.793633     3.785990     3.778347
      3.770703     3.763060     3.755417     3.747774     3.740130     3.732487     3.724844     3.717201     3.709558     3.701914
      3.694271     3.686628     3.678985     3.671341     3.663698     3.656055     3.648412     3.640769     3.633125     3.625482
      3.617839     3.610196     3.602552     3.594909     3.587266     3.579623     3.571980     3.564336     3.556693     3.549050
      3.541407     3.533763     3.526120     3.518477     3.510834     3.503191     3.495547     3.487904     3.480261     3.472618
      3.464974     3.457331     3.449688     3.442045     3.434402     3.426758     3.419115     3.411472     3.403829     3.396185
      3.388542     3.380899     3.373256     3.365613     3.357969     3.350326     3.342683     3.335040     3.327396     3.319753
      3.312110     3.304467     3.296824     3.289180     3.281537     3.273894     3.266251     3.258607     3.250964     3.243321
      3.235678     3.228034     3.220391     3.212748     3.205105     3.197462     3.189818     3.182175     3.174532     3.166889
      3.159245     3.151602     3.143959     3.136316     3.128673     3.121029     3.113386     3.105743     3.098100     3.090456
      3.082813     3.075170     3.067527     3.059884     3.052240     3.044597     3.036954     3.029311     3.021667     3.014024
      3.006381     2.998738     2.991095     2.983451     2.975808     2.968165     2.960522     2.952878     2.945235     2.937592
      2.929949     2.922306     2.914662     2.907019     2.899376     2.891733     2.884089     2.876446     2.868803     2.861160
      2.853517     2.845873     2.838230     2.830587     2.822944     2.815300     2.807657     2.800014     2.792371     2.784728
      2.777084     2.769441     2.761798     2.754155     2.746511     2.738868     2.731225     2.723582     2.715939     2.708295
      2.700652     2.693009     2.685366     2.677722     2.670079     2.662436     2.654793     2.647150     2.639506     2.631863
      2.624220     2.616577     2.608933     2.601290     2.593647     2.586004     2.578361     2.570717     2.563074     2.555431
      2.547788     2.540144     2.532501     2.524858     2.517215     2.509572     2.501928     2.494285     2.486642     2.478999
      2.471355     2.463712     2.456069     2.448426     2.440783     2.433139     2.425496     2.417853     2.410210     2.402566
      2.394923     2.387280     2.379637     2.371994     2.364350     2.356707     2.349064     2.341421     2.333777     2.326134
      2.318491     2.310848     2.303205     2.295561     2.287918     2.280275     2.272632     2.264988     2.257345     2.249702
      2.242059     2.234416     2.226772     2.219129     2.211486     2.203843     2.196199     2.188556     2.180913     2.173270
      2.165627     2.157983     2.150340     2.142697     2.135054     2.127410     2.119767     2.112124     2.104481     2.096838
      2.089194     2.081551     2.073908     2.066265     2.058621     2.050978     2.043335     2.035692     2.028049     2.020405
      2.012762     2.005119     1.997476     1.989833     1.982190     1.974546     1.966903     1.959260     1.951617     1.943974
      1.936331     1.928688     1.921045     1.913402     1.905759     1.898115     1.890472     1.882829     1.875186     1.867543
      1.859900     1.852257     1.844614     1.836971     1.829327     1.821684     1.814041     1.806398     1.798755     1.791112
      1.783469     1.775826     1.768183     1.760540     1.752896     1.745253     1.737610     1.729967     1.722324     1.714681
      1.707038     1.699395     1.691752     1.684108     1.676465     1.668822     1.661179     1.653536     1.645893     1.638250
      1.630607     1.622964     1.615321     1.607677     1.600034     1.592391     1.584748     1.577105     1.569462     1.561819
      1.554176     1.546533     1.538890     1.531246     1.523603     1.515960     1.508317     1.500674     1.493031     1.485388
      1.477745     1.470102     1.462458     1.454815     1.447172     1.439529     1.431886     1.424243     1.416600     1.408957
      1.401314     1.393671     1.386027     1.378384     1.370741     1.363098     1.355455     1.347812     1.340169     1.332526
      1.324883     1.317240     1.309596     1.301953     1.294310     1.286667     1.279024     1.271381     1.263738     1.256095
      1.248452     1.240808     1.233165     1.225522     1.217879     1.210236     1.202593     1.194950     1.187307     1.179664
      1.172021     1.164377     1.156734     1.149091     1.141448     1.133805     1.126162     1.118519     1.110876     1.103233
      1.095590     1.087946     1.080303     1.072660     1.065017     1.057374     1.049731     1.042088     1.034445     1.026802
      1.019158     1.011515     1.003872     0.996229     0.988586     0.980943     0.973300     0.965657     0.958014     0.950371
      0.942727     0.935084     0.927441     0.919798     0.912155     0.904512     0.896869     0.889226     0.881583     0.873940
      0.866296     0.858653     0.851010     0.843367     0.835724     0.828081     0.820438     0.812795     0.805152     0.797508
      0.789865     0.782222     0.774579     0.766936     0.759293     0.751650     0.744007     0.736364     0.728721     0.721077
      0.713434     0.705791     0.698148     0.690505     0.682862     0.675219     0.667576     0.659933     0.652290     0.644646
      0.637003     0.629360     0.621717     0.614074     0.606431     0.598788     0.591145     0.583502     0.575858     0.568215
      0.560572     0.552929     0.545286     0.537643     0.530000     0.522357     0.514714     0.507071     0.499427     0.491784
      0.484141     0.476498     0.468855     0.461212     0.453569     0.445925     0.438282     0.430639     0.422996     0.415353
      0.407710     0.400067     0.392424     0.384780     0.377137     0.369494     0.361851     0.354208     0.346565     0.338922
      0.331278     0.323635     0.315992     0.308349     0.300706     0.293063     0.285420     0.277777     0.270133     0.262490
      0.254847     0.247204     0.239561     0.231918     0.224275     0.216631     0.208988     0.201345
 NY phased data points follow
  -1.21208E+01 -1.03656E+01 -1.26402E+01 -1.09522E+01 -1.26604E+01 -1.26319E+01 -1.35613E+01 -1.20422E+01 -1.11611E+01 -1.06091E+01
  -1.13114E+01 -1.13027E+01 -1.22664E+01 -1.21725E+01 -1.26511E+01 -1.29698E+01 -1.34935E+01 -1.16507E+01 -1.38001E+01 -1.26909E+01
  -1.26581E+01 -1.12085E+01 -1.33875E+01 -1.17586E+01 -1.21169E+01 -1.08837E+01 -1.39893E+01 -1.12506E+01 -1.30430E+01 -1.38505E+01
  -1.19137E+01 -1.26629E+01 -1.34658E+01 -1.41330E+01 -1.18709E+01 -1.27521E+01 -1.33937E+01 -1.60368E+01 -1.45354E+01 -1.24974E+01
  -1.51046E+01 -1.52626E+01 -1.27986E+01 -1.58616E+01 -1.37895E+01 -1.28708E+01 -1.64004E+01 -1.30362E+01 -1.50745E+01 -1.46311E+01
  -1.57564E+01 -1.28110E+01 -1.40578E+01 -1.50328E+01 -1.51168E+01 -1.29761E+01 -1.39115E+01 -1.77021E+01 -1.26618E+01 -1.26083E+01
  -1.62296E+01 -1.53040E+01 -1.40917E+01 -1.39044E+01 -1.77778E+01 -1.52559E+01 -1.30914E+01 -1.80681E+01 -1.22380E+01 -1.48528E+01
  -1.57714E+01 -1.27392E+01 -1.34193E+01 -1.55791E+01 -1.48337E+01 -1.72749E+01 -1.79467E+01 -1.61695E+01 -1.72409E+01 -1.59597E+01
  -1.65684E+01 -1.64912E+01 -1.70878E+01 -1.70565E+01 -1.59732E+01 -1.72427E+01 -1.48950E+01 -1.71693E+01 -1.70161E+01 -1.65019E+01
  -1.85498E+01 -1.70192E+01 -1.75327E+01 -1.58009E+01 -1.66201E+01 -1.76534E+01 -1.54389E+01 -1.43708E+01 -1.84971E+01 -1.79231E+01
  -1.97076E+01 -1.84014E+01 -1.97545E+01 -2.02388E+01 -1.88526E+01 -2.16180E+01 -2.05757E+01 -1.68767E+01 -2.06380E+01 -2.30269E+01
  -2.15207E+01 -1.90179E+01 -2.03450E+01 -1.99998E+01 -1.97950E+01 -1.94492E+01 -2.03207E+01 -2.17012E+01 -2.09124E+01 -2.17881E+01
  -2.12490E+01 -1.95957E+01 -2.19443E+01 -2.37741E+01 -2.18530E+01 -2.48126E+01 -2.34079E+01 -2.19381E+01 -2.27336E+01 -2.53082E+01
  -2.03837E+01 -2.41733E+01 -2.33268E+01 -2.23546E+01 -2.29661E+01 -2.55315E+01 -2.30603E+01 -2.37564E+01 -2.67163E+01 -2.59851E+01
  -2.15860E+01 -2.25463E+01 -2.42127E+01 -2.63060E+01 -2.64140E+01 -2.35300E+01 -2.81069E+01 -2.69729E+01 -2.83774E+01 -2.90947E+01
  -2.84656E+01 -2.74048E+01 -2.70806E+01 -3.02628E+01 -2.85072E+01 -2.97083E+01 -2.79605E+01 -2.91490E+01 -3.00951E+01 -2.95812E+01
  -3.03232E+01 -3.10038E+01 -2.89898E+01 -3.30296E+01 -2.99137E+01 -3.24472E+01 -3.17369E+01 -2.96104E+01 -3.29269E+01 -3.30627E+01
  -3.34380E+01 -3.27834E+01 -3.40896E+01 -3.26039E+01 -3.34715E+01 -3.24414E+01 -3.54979E+01 -3.51693E+01 -3.42250E+01 -3.60891E+01
  -3.43366E+01 -3.73850E+01 -3.38901E+01 -3.67342E+01 -3.51815E+01 -3.37186E+01 -3.39086E+01 -3.52681E+01 -3.76358E+01 -3.52927E+01
  -3.94631E+01 -3.78519E+01 -3.44222E+01 -3.50993E+01 -3.55398E+01 -3.74339E+01 -3.67620E+01 -3.66533E+01 -3.99526E+01 -3.69824E+01
  -3.74366E+01 -3.88957E+01 -3.61188E+01 -3.81852E+01 -3.99590E+01 -3.90170E+01 -3.79975E+01 -3.81392E+01 -3.93554E+01 -3.92470E+01
  -4.15573E+01 -3.98565E+01 -4.39093E+01 -4.06538E+01 -3.99508E+01 -4.25064E+01 -4.21418E+01 -4.40940E+01 -4.37890E+01 -4.38659E+01
  -4.48809E+01 -4.33962E+01 -4.54201E+01 -4.59579E+01 -4.48066E+01 -4.52031E+01 -4.60695E+01 -4.62768E+01 -4.57048E+01 -4.45982E+01
  -4.71135E+01 -4.90387E+01 -5.16772E+01 -5.11187E+01 -5.48757E+01 -4.99460E+01 -5.10446E+01 -5.10463E+01 -5.08776E+01 -5.21942E+01
  -5.14205E+01 -5.25766E+01 -5.22776E+01 -5.45989E+01 -5.34869E+01 -5.38405E+01 -5.65862E+01 -5.45434E+01 -5.79242E+01 -5.71578E+01
  -5.70735E+01 -6.06245E+01 -6.19917E+01 -6.21426E+01 -6.36749E+01 -6.55475E+01 -6.74972E+01 -6.49630E+01 -6.72053E+01 -6.83323E+01
  -6.90709E+01 -7.22797E+01 -7.25195E+01 -7.36970E+01 -7.49889E+01 -7.97794E+01 -7.80851E+01 -8.03758E+01 -8.30366E+01 -8.85102E+01
  -8.81466E+01 -8.99600E+01 -9.06614E+01 -9.49887E+01 -1.00643E+02 -1.02433E+02 -1.03102E+02 -1.07422E+02 -1.09876E+02 -1.11035E+02
  -1.14201E+02 -1.14895E+02 -1.14707E+02 -1.17508E+02 -1.17363E+02 -1.16438E+02 -1.15557E+02 -1.15510E+02 -1.13486E+02 -1.06753E+02
  -1.04215E+02 -1.01997E+02 -9.77837E+01 -8.79407E+01 -8.34950E+01 -7.70293E+01 -6.34053E+01 -5.43506E+01 -4.14342E+01 -2.97532E+01
  -1.33810E+01  2.31014E+00  1.88317E+01  3.58151E+01  5.38189E+01  7.20730E+01  9.00608E+01  1.10553E+02  1.27432E+02  1.38811E+02
   1.57009E+02  1.66740E+02  1.78015E+02  1.83091E+02  1.94117E+02  1.95994E+02  1.97191E+02  1.95793E+02  1.93510E+02  1.91833E+02
   1.88263E+02  1.86918E+02  1.78806E+02  1.75673E+02  1.70790E+02  1.66402E+02  1.63659E+02  1.59905E+02  1.53890E+02  1.50247E+02
   1.44535E+02  1.43560E+02  1.38053E+02  1.35834E+02  1.30243E+02  1.27297E+02  1.24830E+02  1.23238E+02  1.19106E+02  1.16613E+02
   1.14080E+02  1.11860E+02  1.09017E+02  1.07555E+02  1.03424E+02  1.00223E+02  9.68250E+01  9.16293E+01  9.05086E+01  8.89801E+01
   8.81592E+01  8.31610E+01  8.34663E+01  8.18503E+01  8.09406E+01  7.59005E+01  7.48507E+01  7.35164E+01  7.15744E+01  6.74529E+01
   6.85439E+01  6.79263E+01  6.41243E+01  6.63768E+01  6.41699E+01  6.24037E+01  6.06716E+01  5.66701E+01  5.70917E+01  5.48887E+01
   5.59942E+01  5.21674E+01  4.97232E+01  5.01945E+01  5.05766E+01  4.61453E+01  4.69714E+01  4.57547E+01  4.57660E+01  4.29036E+01
   4.30275E+01  4.58262E+01  4.16241E+01  4.02542E+01  3.99743E+01  3.95745E+01  3.87245E+01  3.82869E+01  3.73715E+01  3.68408E+01
   3.51550E+01  3.65169E+01  3.35199E+01  3.38649E+01  3.44485E+01  3.03456E+01  3.25029E+01  2.97859E+01  3.22045E+01  3.02709E+01
   3.15530E+01  3.11067E+01  2.90377E+01  2.73784E+01  2.89249E+01  2.96317E+01  2.70262E+01  2.74136E+01  2.92457E+01  2.58388E+01
   2.86765E+01  2.40042E+01  2.58741E+01  2.56518E+01  2.60960E+01  2.54410E+01  2.44511E+01  2.39323E+01  2.67302E+01  2.20773E+01
   2.19104E+01  2.42949E+01  2.23475E+01  2.20982E+01  2.22641E+01  2.17588E+01  1.85324E+01  1.98446E+01  1.82776E+01  1.86045E+01
   1.96730E+01  2.03803E+01  1.73729E+01  1.77606E+01  2.01504E+01  1.67745E+01  1.67169E+01  1.63911E+01  1.46335E+01  1.55397E+01
   1.53739E+01  1.21391E+01  1.50644E+01  1.52079E+01  1.32330E+01  1.36299E+01  1.35768E+01  1.22042E+01  1.44931E+01  1.11730E+01
   1.47202E+01  1.09305E+01  1.23902E+01  1.12073E+01  1.20517E+01  9.80014E+00  1.07675E+01  1.04038E+01  1.26072E+01  9.97387E+00
   8.77499E+00  1.06987E+01  8.89897E+00  9.64268E+00  7.64935E+00  9.00251E+00  7.04832E+00  8.60514E+00  9.09909E+00  5.40567E+00
   6.98292E+00  9.75352E+00  7.37072E+00  4.24859E+00  6.06626E+00  4.10500E+00  2.53183E+00  6.66631E+00  7.49943E+00  5.41103E+00
   4.89112E+00  5.76232E+00  1.72722E+00  3.57468E+00  4.27816E+00  3.63963E+00  2.82482E+00  3.99646E+00  1.98621E+00 -1.53116E+00
   1.82474E+00  4.06695E-01  2.98057E+00  2.95421E+00  2.91597E+00  2.73940E-01  2.26821E+00  2.30588E+00
 NY points of the fit to the data follow
  -1.08621E+01 -1.11921E+01 -1.12361E+01 -1.16244E+01 -1.15302E+01 -1.17088E+01 -1.12781E+01 -1.15366E+01 -1.09584E+01 -1.13669E+01
  -1.07594E+01 -1.14360E+01 -1.09498E+01 -1.19600E+01 -1.13273E+01 -1.24040E+01 -1.16843E+01 -1.27443E+01 -1.19281E+01 -1.28991E+01
  -1.20488E+01 -1.29623E+01 -1.22570E+01 -1.30413E+01 -1.26207E+01 -1.32658E+01 -1.32216E+01 -1.36527E+01 -1.39806E+01 -1.40044E+01
  -1.46293E+01 -1.42833E+01 -1.51676E+01 -1.43160E+01 -1.53014E+01 -1.39043E+01 -1.49344E+01 -1.31503E+01 -1.42408E+01 -1.24837E+01
  -1.36389E+01 -1.20080E+01 -1.33044E+01 -1.19064E+01 -1.31641E+01 -1.18293E+01 -1.26984E+01 -1.19405E+01 -1.29114E+01 -1.25412E+01
  -1.35286E+01 -1.35285E+01 -1.45692E+01 -1.48890E+01 -1.52700E+01 -1.51776E+01 -1.51939E+01 -1.50168E+01 -1.49186E+01 -1.47766E+01
  -1.47028E+01 -1.48713E+01 -1.49761E+01 -1.52053E+01 -1.53256E+01 -1.55591E+01 -1.56793E+01 -1.59056E+01 -1.59960E+01 -1.61812E+01
  -1.62226E+01 -1.63982E+01 -1.64483E+01 -1.66334E+01 -1.66828E+01 -1.68727E+01 -1.69222E+01 -1.71205E+01 -1.71713E+01 -1.73754E+01
  -1.74321E+01 -1.76245E+01 -1.76768E+01 -1.78574E+01 -1.79170E+01 -1.80910E+01 -1.81714E+01 -1.83291E+01 -1.84315E+01 -1.85578E+01
  -1.86827E+01 -1.87659E+01 -1.89097E+01 -1.89516E+01 -1.91044E+01 -1.91043E+01 -1.92657E+01 -1.92126E+01 -1.93659E+01 -1.92761E+01
  -1.94152E+01 -1.92997E+01 -1.94239E+01 -1.92941E+01 -1.93988E+01 -1.92670E+01 -1.93526E+01 -1.92229E+01 -1.92542E+01 -1.91466E+01
  -1.91787E+01 -1.91093E+01 -1.91366E+01 -1.90975E+01 -1.91217E+01 -1.91170E+01 -1.91496E+01 -1.91772E+01 -1.92220E+01 -1.92767E+01
  -1.93404E+01 -1.94208E+01 -1.95175E+01 -1.96256E+01 -1.97494E+01 -1.98823E+01 -2.00400E+01 -2.01964E+01 -2.03829E+01 -2.05640E+01
  -2.07755E+01 -2.09832E+01 -2.12199E+01 -2.14523E+01 -2.17120E+01 -2.19667E+01 -2.22473E+01 -2.25217E+01 -2.28208E+01 -2.31115E+01
  -2.34259E+01 -2.37301E+01 -2.40601E+01 -2.43823E+01 -2.47219E+01 -2.50587E+01 -2.53991E+01 -2.57440E+01 -2.60889E+01 -2.64423E+01
  -2.67905E+01 -2.71500E+01 -2.74991E+01 -2.78594E+01 -2.82128E+01 -2.85730E+01 -2.89348E+01 -2.92962E+01 -2.96709E+01 -3.00261E+01
  -3.04069E+01 -3.07520E+01 -3.11412E+01 -3.14820E+01 -3.18765E+01 -3.22083E+01 -3.26010E+01 -3.29248E+01 -3.33104E+01 -3.36352E+01
  -3.39994E+01 -3.43216E+01 -3.46546E+01 -3.49753E+01 -3.52684E+01 -3.55935E+01 -3.58342E+01 -3.61597E+01 -3.63331E+01 -3.66461E+01
  -3.67606E+01 -3.70591E+01 -3.71334E+01 -3.74245E+01 -3.74558E+01 -3.77127E+01 -3.77032E+01 -3.79156E+01 -3.78945E+01 -3.80760E+01
  -3.80627E+01 -3.82090E+01 -3.82403E+01 -3.83580E+01 -3.84527E+01 -3.85514E+01 -3.87026E+01 -3.87607E+01 -3.89198E+01 -3.89378E+01
  -3.91127E+01 -3.91213E+01 -3.93192E+01 -3.93632E+01 -3.96134E+01 -3.97266E+01 -4.00112E+01 -4.01772E+01 -4.05139E+01 -4.07300E+01
  -4.10846E+01 -4.13257E+01 -4.16870E+01 -4.19453E+01 -4.23129E+01 -4.25664E+01 -4.29469E+01 -4.31883E+01 -4.35783E+01 -4.37929E+01
  -4.42027E+01 -4.43730E+01 -4.48002E+01 -4.49285E+01 -4.53874E+01 -4.54709E+01 -4.59257E+01 -4.59711E+01 -4.63976E+01 -4.64567E+01
  -4.68208E+01 -4.69228E+01 -4.72961E+01 -4.75349E+01 -4.79657E+01 -4.84026E+01 -4.88809E+01 -4.95145E+01 -4.99635E+01 -5.08318E+01
  -5.13915E+01 -5.24288E+01 -5.28591E+01 -5.40335E+01 -5.44685E+01 -5.57867E+01 -5.61119E+01 -5.74204E+01 -5.76273E+01 -5.89087E+01
  -5.90481E+01 -6.03284E+01 -6.05351E+01 -6.18571E+01 -6.21965E+01 -6.35655E+01 -6.40873E+01 -6.55375E+01 -6.63220E+01 -6.78777E+01
  -6.89812E+01 -7.06687E+01 -7.21712E+01 -7.40372E+01 -7.59808E+01 -7.80257E+01 -8.03034E+01 -8.24501E+01 -8.50343E+01 -8.72471E+01
  -9.00138E+01 -9.22087E+01 -9.50164E+01 -9.71090E+01 -9.97165E+01 -1.01594E+02 -1.03874E+02 -1.05512E+02 -1.07467E+02 -1.08842E+02
  -1.10439E+02 -1.11396E+02 -1.12151E+02 -1.12626E+02 -1.12879E+02 -1.12809E+02 -1.12365E+02 -1.11499E+02 -1.10076E+02 -1.08035E+02
  -1.05228E+02 -1.01571E+02 -9.69125E+01 -9.11617E+01 -8.41909E+01 -7.59156E+01 -6.62668E+01 -5.52180E+01 -4.27853E+01 -2.90215E+01
  -1.40478E+01  1.98988E+00  1.88702E+01  3.63761E+01  5.42403E+01  7.22452E+01  9.02104E+01  1.08135E+02  1.25666E+02  1.41267E+02
   1.56037E+02  1.67777E+02  1.78694E+02  1.85707E+02  1.92085E+02  1.93824E+02  1.96812E+02  1.94861E+02  1.95053E+02  1.90576E+02
   1.88990E+02  1.83137E+02  1.80762E+02  1.74669E+02  1.71927E+02  1.66375E+02  1.63114E+02  1.58151E+02  1.54232E+02  1.50241E+02
   1.45702E+02  1.43034E+02  1.38001E+02  1.36328E+02  1.30545E+02  1.29866E+02  1.23583E+02  1.23917E+02  1.17519E+02  1.18420E+02
   1.12581E+02  1.13462E+02  1.07703E+02  1.07494E+02  1.01601E+02  1.00277E+02  9.53423E+01  9.42877E+01  9.21802E+01  8.97581E+01
   8.79249E+01  8.48051E+01  8.35719E+01  7.98135E+01  7.84740E+01  7.39527E+01  7.47092E+01  7.19355E+01  7.30555E+01  7.03018E+01
   7.07236E+01  6.76972E+01  6.73474E+01  6.41939E+01  6.33488E+01  6.04087E+01  5.94349E+01  5.70603E+01  5.62381E+01  5.47148E+01
   5.40227E+01  5.27645E+01  5.20638E+01  5.09117E+01  5.00393E+01  4.87972E+01  4.76289E+01  4.65050E+01  4.53588E+01  4.42014E+01
   4.30365E+01  4.19020E+01  4.08114E+01  3.98019E+01  3.88798E+01  3.80707E+01  3.73666E+01  3.67781E+01  3.62835E+01  3.58815E+01
   3.55410E+01  3.52546E+01  3.49885E+01  3.47352E+01  3.44639E+01  3.41719E+01  3.38346E+01  3.34563E+01  3.30202E+01  3.25376E+01
   3.19986E+01  3.14206E+01  3.07984E+01  3.01528E+01  2.94812E+01  2.88057E+01  2.81240E+01  2.74576E+01  2.68030E+01  2.61797E+01
   2.55821E+01  2.50272E+01  2.45065E+01  2.40341E+01  2.35991E+01  2.32131E+01  2.28627E+01  2.25574E+01  2.22821E+01  2.20447E+01
   2.18290E+01  2.16418E+01  2.14665E+01  2.13096E+01  2.11543E+01  2.10074E+01  2.08524E+01  2.06967E+01  2.05247E+01  2.03444E+01
   2.01413E+01  1.99243E+01  1.96802E+01  1.94189E+01  1.91281E+01  1.88188E+01  1.84798E+01  1.81230E+01  1.77381E+01  1.73375E+01
   1.69120E+01  1.64743E+01  1.60157E+01  1.55495E+01  1.50670E+01  1.45817E+01  1.40853E+01  1.35910E+01  1.30906E+01  1.25970E+01
   1.21020E+01  1.16182E+01  1.11370E+01  1.06710E+01  1.02110E+01  9.76914E+00  9.33620E+00  8.92383E+00  8.52244E+00  8.14329E+00
   7.77652E+00  7.43302E+00  7.10270E+00  6.79612E+00  6.50294E+00  6.23346E+00  5.97718E+00  5.74414E+00  5.52372E+00  5.32575E+00
   5.13954E+00  4.97472E+00  4.82058E+00  4.68663E+00  4.56213E+00  4.45646E+00  4.35889E+00  4.27875E+00  4.20533E+00  4.14788E+00
   4.09574E+00  4.05813E+00  4.02442E+00  4.00380E+00  3.98574E+00  3.97937E+00  3.97424E+00  3.97947E+00  3.98468E+00  3.99899E+00
   4.01212E+00  4.03316E+00  4.05194E+00  4.07756E+00  4.09997E+00  4.12830E+00  4.15265E+00  4.18227E+00
 NY background values follow
    -1.638E+01   -1.625E+01   -1.613E+01   -1.602E+01   -1.593E+01   -1.584E+01   -1.577E+01   -1.571E+01   -1.565E+01   -1.561E+01
    -1.558E+01   -1.555E+01   -1.554E+01   -1.554E+01   -1.555E+01   -1.556E+01   -1.559E+01   -1.562E+01   -1.567E+01   -1.572E+01
    -1.578E+01   -1.585E+01   -1.593E+01   -1.601E+01   -1.610E+01   -1.621E+01   -1.631E+01   -1.643E+01   -1.655E+01   -1.669E+01
    -1.682E+01   -1.697E+01   -1.712E+01   -1.728E+01   -1.744E+01   -1.761E+01   -1.779E+01   -1.797E+01   -1.816E+01   -1.835E+01
    -1.855E+01   -1.875E+01   -1.896E+01   -1.918E+01   -1.940E+01   -1.962E+01   -1.985E+01   -2.008E+01   -2.032E+01   -2.056E+01
    -2.080E+01   -2.105E+01   -2.130E+01   -2.155E+01   -2.181E+01   -2.207E+01   -2.233E+01   -2.260E+01   -2.287E+01   -2.314E+01
    -2.341E+01   -2.368E+01   -2.396E+01   -2.424E+01   -2.452E+01   -2.480E+01   -2.508E+01   -2.536E+01   -2.565E+01   -2.593E+01
    -2.622E+01   -2.650E+01   -2.679E+01   -2.708E+01   -2.736E+01   -2.765E+01   -2.793E+01   -2.822E+01   -2.850E+01   -2.879E+01
    -2.907E+01   -2.935E+01   -2.963E+01   -2.991E+01   -3.018E+01   -3.046E+01   -3.073E+01   -3.100E+01   -3.127E+01   -3.153E+01
    -3.179E+01   -3.205E+01   -3.231E+01   -3.256E+01   -3.281E+01   -3.306E+01   -3.330E+01   -3.354E+01   -3.378E+01   -3.401E+01
    -3.424E+01   -3.446E+01   -3.468E+01   -3.489E+01   -3.511E+01   -3.531E+01   -3.552E+01   -3.572E+01   -3.592E+01   -3.612E+01
    -3.631E+01   -3.651E+01   -3.670E+01   -3.689E+01   -3.708E+01   -3.727E+01   -3.745E+01   -3.764E+01   -3.782E+01   -3.801E+01
    -3.820E+01   -3.838E+01   -3.857E+01   -3.876E+01   -3.895E+01   -3.914E+01   -3.933E+01   -3.952E+01   -3.971E+01   -3.991E+01
    -4.011E+01   -4.031E+01   -4.052E+01   -4.072E+01   -4.093E+01   -4.115E+01   -4.137E+01   -4.159E+01   -4.181E+01   -4.204E+01
    -4.228E+01   -4.252E+01   -4.276E+01   -4.301E+01   -4.327E+01   -4.353E+01   -4.380E+01   -4.407E+01   -4.435E+01   -4.464E+01
    -4.493E+01   -4.523E+01   -4.554E+01   -4.586E+01   -4.618E+01   -4.651E+01   -4.685E+01   -4.720E+01   -4.755E+01   -4.792E+01
    -4.829E+01   -4.868E+01   -4.907E+01   -4.947E+01   -4.989E+01   -5.031E+01   -5.074E+01   -5.119E+01   -5.164E+01   -5.211E+01
    -5.259E+01   -5.308E+01   -5.358E+01   -5.409E+01   -5.462E+01   -5.515E+01   -5.571E+01   -5.627E+01   -5.685E+01   -5.744E+01
    -5.804E+01   -5.866E+01   -5.929E+01   -5.994E+01   -6.060E+01   -6.127E+01   -6.196E+01   -6.267E+01   -6.339E+01   -6.413E+01
    -6.488E+01   -6.565E+01   -6.643E+01   -6.724E+01   -6.806E+01   -6.889E+01   -6.974E+01   -7.061E+01   -7.150E+01   -7.241E+01
    -7.333E+01   -7.427E+01   -7.523E+01   -7.621E+01   -7.720E+01   -7.820E+01   -7.922E+01   -8.026E+01   -8.131E+01   -8.237E+01
    -8.345E+01   -8.454E+01   -8.564E+01   -8.675E+01   -8.788E+01   -8.901E+01   -9.016E+01   -9.131E+01   -9.247E+01   -9.364E+01
    -9.482E+01   -9.601E+01   -9.720E+01   -9.841E+01   -9.961E+01   -1.008E+02   -1.020E+02   -1.033E+02   -1.045E+02   -1.057E+02
    -1.070E+02   -1.082E+02   -1.094E+02   -1.107E+02   -1.119E+02   -1.131E+02   -1.144E+02   -1.156E+02   -1.169E+02   -1.181E+02
    -1.193E+02   -1.206E+02   -1.218E+02   -1.230E+02   -1.243E+02   -1.255E+02   -1.267E+02   -1.279E+02   -1.291E+02   -1.303E+02
    -1.315E+02   -1.327E+02   -1.339E+02   -1.350E+02   -1.362E+02   -1.373E+02   -1.385E+02   -1.396E+02   -1.407E+02   -1.418E+02
    -1.429E+02   -1.440E+02   -1.451E+02   -1.461E+02   -1.472E+02   -1.482E+02   -1.492E+02   -1.502E+02   -1.512E+02   -1.522E+02
    -1.531E+02   -1.540E+02   -1.550E+02   -1.559E+02   -1.567E+02   -1.576E+02   -1.584E+02   -1.592E+02   -1.600E+02   -1.608E+02
    -1.616E+02   -1.623E+02   -1.630E+02   -1.637E+02   -1.644E+02   -1.650E+02   -1.656E+02   -1.662E+02   -1.668E+02   -1.673E+02
    -1.678E+02   -1.683E+02   -1.687E+02   -1.692E+02   -1.696E+02   -1.699E+02   -1.703E+02   -1.706E+02   -1.709E+02   -1.711E+02
    -1.713E+02   -1.715E+02   -1.717E+02   -1.718E+02   -1.719E+02   -1.720E+02   -1.720E+02   -1.720E+02   -1.720E+02   -1.719E+02
    -1.719E+02   -1.718E+02   -1.716E+02   -1.715E+02   -1.713E+02   -1.711E+02   -1.709E+02   -1.706E+02   -1.703E+02   -1.700E+02
    -1.697E+02   -1.693E+02   -1.689E+02   -1.685E+02   -1.681E+02   -1.677E+02   -1.672E+02   -1.667E+02   -1.662E+02   -1.657E+02
    -1.651E+02   -1.645E+02   -1.639E+02   -1.633E+02   -1.627E+02   -1.620E+02   -1.614E+02   -1.607E+02   -1.600E+02   -1.593E+02
    -1.585E+02   -1.578E+02   -1.570E+02   -1.562E+02   -1.554E+02   -1.546E+02   -1.537E+02   -1.529E+02   -1.520E+02   -1.511E+02
    -1.502E+02   -1.493E+02   -1.484E+02   -1.475E+02   -1.465E+02   -1.456E+02   -1.446E+02   -1.436E+02   -1.426E+02   -1.416E+02
    -1.406E+02   -1.396E+02   -1.386E+02   -1.375E+02   -1.365E+02   -1.354E+02   -1.344E+02   -1.333E+02   -1.322E+02   -1.311E+02
    -1.300E+02   -1.289E+02   -1.278E+02   -1.267E+02   -1.256E+02   -1.244E+02   -1.233E+02   -1.222E+02   -1.210E+02   -1.199E+02
    -1.187E+02   -1.176E+02   -1.164E+02   -1.153E+02   -1.141E+02   -1.130E+02   -1.118E+02   -1.107E+02   -1.095E+02   -1.083E+02
    -1.072E+02   -1.060E+02   -1.049E+02   -1.037E+02   -1.025E+02   -1.014E+02   -1.002E+02   -9.908E+01   -9.793E+01   -9.679E+01
    -9.564E+01   -9.451E+01   -9.337E+01   -9.224E+01   -9.111E+01   -8.998E+01   -8.886E+01   -8.775E+01   -8.663E+01   -8.552E+01
    -8.442E+01   -8.332E+01   -8.222E+01   -8.113E+01   -8.004E+01   -7.896E+01   -7.788E+01   -7.680E+01   -7.573E+01   -7.467E+01
    -7.361E+01   -7.255E+01   -7.151E+01   -7.046E+01   -6.942E+01   -6.839E+01   -6.736E+01   -6.634E+01   -6.532E+01   -6.431E+01
    -6.331E+01   -6.231E+01   -6.132E+01   -6.033E+01   -5.935E+01   -5.838E+01   -5.741E+01   -5.645E+01   -5.549E+01   -5.455E+01
    -5.360E+01   -5.267E+01   -5.174E+01   -5.082E+01   -4.991E+01   -4.901E+01   -4.811E+01   -4.722E+01   -4.634E+01   -4.546E+01
    -4.459E+01   -4.373E+01   -4.288E+01   -4.204E+01   -4.120E+01   -4.038E+01   -3.956E+01   -3.875E+01   -3.794E+01   -3.715E+01
    -3.636E+01   -3.559E+01   -3.482E+01   -3.406E+01   -3.331E+01   -3.257E+01   -3.184E+01   -3.112E+01   -3.041E+01   -2.970E+01
    -2.901E+01   -2.833E+01   -2.765E+01   -2.699E+01   -2.633E+01   -2.569E+01   -2.506E+01   -2.443E+01   -2.382E+01   -2.321E+01
    -2.262E+01   -2.204E+01   -2.147E+01   -2.091E+01   -2.036E+01   -1.982E+01   -1.929E+01   -1.877E+01   -1.827E+01   -1.777E+01
    -1.729E+01   -1.682E+01   -1.636E+01   -1.591E+01   -1.548E+01   -1.505E+01   -1.464E+01   -1.424E+01
 Ala      Conc. = 2.30E+04
