 LCModel (Version 6.3-1L) Copyright: S.W. Provencher.          Ref.: Magn. Reson. Med. 30:672-679 (1993).                
 Slice#1 Row#6 Col#1  PD_24_press_2_raw_act
 36 lines in following concentration table = NCONC+1
    Conc.  %SD /Cr+PCr  Metabolite                                         
    0.000 999%   0.000 Ala                                                 
    0.000 999%   0.000 Asp                                                 
    0.000 999%   0.000 Cr                                                  
    0.000 999%   0.000 PCr                                                 
    0.590 999%   0.000 GABA                                                
    0.000 999%   0.000 Glc                                                 
    0.000 999%   0.000 Gln                                                 
 5.34E+03  37%   0.000 Glu                                                 
    0.000 999%   0.000 GPC                                                 
    0.000 999%   0.000 PCh                                                 
    0.000 999%   0.000 GSH                                                 
 1.97E+03  31%   0.000 Ins                                                 
    0.000 999%   0.000 Lac                                                 
    0.000 999%   0.000 NAA                                                 
    0.000 999%   0.000 NAAG                                                
    0.181 999%   0.000 Scyllo                                              
    0.000 999%   0.000 Tau                                                 
    0.000 999%   0.000 -CrCH2                                              
    0.000 999%   0.000 GPC+PCh                                             
    0.000 999%   0.000 NAA+NAAG                                            
    0.000 999%   0.000 Cr+PCr                                              
 5.34E+03  37%   0.000 Glu+Gln                                             
 6.15E+03  23%   0.000 Lip13a                                              
    0.000 999%   0.000 Lip13b                                              
    0.000 999%   0.000 Lip09                                               
 3.08E+03  17%   0.000 MM09                                                
 3.40E+03  16%   0.000+Lip20                                               
 7.71E+03  10%   0.000 MM20                                                
  960.817  36%   0.000 MM12                                                
 3.71E+03  23%   0.000 MM14                                                
 2.64E+03  15%   0.000 MM17                                                
 6.15E+03  23%   0.000 Lip13a+Lip13b                                       
 1.08E+04  13%   0.000 MM14+Lip13a+Lip13b+MM12                             
 3.08E+03  17%   0.000 MM09+Lip09                                          
 1.11E+04   7%   0.000 MM20+Lip20                                          
   6 lines in following misc. output table
  FWHM = 0.107 ppm    S/N =   4                                            
  Data shift = 0.245 ppm                                                   
  Ph: -94 deg      67.7 deg/ppm                                            
  alphaB,S = 4.6E-01,   2.4E+01                                            
   10 spline knots.   Ns = 9(2)                                            
  (13) 6 infls.   (10) 2 extrs.                                            
  498 points on ppm-axis = NY
      4.000000     3.992357     3.984714     3.977070     3.969427     3.961784     3.954141     3.946497     3.938854     3.931211
      3.923568     3.915925     3.908281     3.900638     3.892995     3.885352     3.877708     3.870065     3.862422     3.854779
      3.847136     3.839492     3.831849     3.824206     3.816563     3.808919     3.801276     3.793633     3.785990     3.778347
      3.770703     3.763060     3.755417     3.747774     3.740130     3.732487     3.724844     3.717201     3.709558     3.701914
      3.694271     3.686628     3.678985     3.671341     3.663698     3.656055     3.648412     3.640769     3.633125     3.625482
      3.617839     3.610196     3.602552     3.594909     3.587266     3.579623     3.571980     3.564336     3.556693     3.549050
      3.541407     3.533763     3.526120     3.518477     3.510834     3.503191     3.495547     3.487904     3.480261     3.472618
      3.464974     3.457331     3.449688     3.442045     3.434402     3.426758     3.419115     3.411472     3.403829     3.396185
      3.388542     3.380899     3.373256     3.365613     3.357969     3.350326     3.342683     3.335040     3.327396     3.319753
      3.312110     3.304467     3.296824     3.289180     3.281537     3.273894     3.266251     3.258607     3.250964     3.243321
      3.235678     3.228034     3.220391     3.212748     3.205105     3.197462     3.189818     3.182175     3.174532     3.166889
      3.159245     3.151602     3.143959     3.136316     3.128673     3.121029     3.113386     3.105743     3.098100     3.090456
      3.082813     3.075170     3.067527     3.059884     3.052240     3.044597     3.036954     3.029311     3.021667     3.014024
      3.006381     2.998738     2.991095     2.983451     2.975808     2.968165     2.960522     2.952878     2.945235     2.937592
      2.929949     2.922306     2.914662     2.907019     2.899376     2.891733     2.884089     2.876446     2.868803     2.861160
      2.853517     2.845873     2.838230     2.830587     2.822944     2.815300     2.807657     2.800014     2.792371     2.784728
      2.777084     2.769441     2.761798     2.754155     2.746511     2.738868     2.731225     2.723582     2.715939     2.708295
      2.700652     2.693009     2.685366     2.677722     2.670079     2.662436     2.654793     2.647150     2.639506     2.631863
      2.624220     2.616577     2.608933     2.601290     2.593647     2.586004     2.578361     2.570717     2.563074     2.555431
      2.547788     2.540144     2.532501     2.524858     2.517215     2.509572     2.501928     2.494285     2.486642     2.478999
      2.471355     2.463712     2.456069     2.448426     2.440783     2.433139     2.425496     2.417853     2.410210     2.402566
      2.394923     2.387280     2.379637     2.371994     2.364350     2.356707     2.349064     2.341421     2.333777     2.326134
      2.318491     2.310848     2.303205     2.295561     2.287918     2.280275     2.272632     2.264988     2.257345     2.249702
      2.242059     2.234416     2.226772     2.219129     2.211486     2.203843     2.196199     2.188556     2.180913     2.173270
      2.165627     2.157983     2.150340     2.142697     2.135054     2.127410     2.119767     2.112124     2.104481     2.096838
      2.089194     2.081551     2.073908     2.066265     2.058621     2.050978     2.043335     2.035692     2.028049     2.020405
      2.012762     2.005119     1.997476     1.989833     1.982190     1.974546     1.966903     1.959260     1.951617     1.943974
      1.936331     1.928688     1.921045     1.913402     1.905759     1.898115     1.890472     1.882829     1.875186     1.867543
      1.859900     1.852257     1.844614     1.836971     1.829327     1.821684     1.814041     1.806398     1.798755     1.791112
      1.783469     1.775826     1.768183     1.760540     1.752896     1.745253     1.737610     1.729967     1.722324     1.714681
      1.707038     1.699395     1.691752     1.684108     1.676465     1.668822     1.661179     1.653536     1.645893     1.638250
      1.630607     1.622964     1.615321     1.607677     1.600034     1.592391     1.584748     1.577105     1.569462     1.561819
      1.554176     1.546533     1.538890     1.531246     1.523603     1.515960     1.508317     1.500674     1.493031     1.485388
      1.477745     1.470102     1.462458     1.454815     1.447172     1.439529     1.431886     1.424243     1.416600     1.408957
      1.401314     1.393671     1.386027     1.378384     1.370741     1.363098     1.355455     1.347812     1.340169     1.332526
      1.324883     1.317240     1.309596     1.301953     1.294310     1.286667     1.279024     1.271381     1.263738     1.256095
      1.248452     1.240808     1.233165     1.225522     1.217879     1.210236     1.202593     1.194950     1.187307     1.179664
      1.172021     1.164377     1.156734     1.149091     1.141448     1.133805     1.126162     1.118519     1.110876     1.103233
      1.095590     1.087946     1.080303     1.072660     1.065017     1.057374     1.049731     1.042088     1.034445     1.026802
      1.019158     1.011515     1.003872     0.996229     0.988586     0.980943     0.973300     0.965657     0.958014     0.950371
      0.942727     0.935084     0.927441     0.919798     0.912155     0.904512     0.896869     0.889226     0.881583     0.873940
      0.866296     0.858653     0.851010     0.843367     0.835724     0.828081     0.820438     0.812795     0.805152     0.797508
      0.789865     0.782222     0.774579     0.766936     0.759293     0.751650     0.744007     0.736364     0.728721     0.721077
      0.713434     0.705791     0.698148     0.690505     0.682862     0.675219     0.667576     0.659933     0.652290     0.644646
      0.637003     0.629360     0.621717     0.614074     0.606431     0.598788     0.591145     0.583502     0.575858     0.568215
      0.560572     0.552929     0.545286     0.537643     0.530000     0.522357     0.514714     0.507071     0.499427     0.491784
      0.484141     0.476498     0.468855     0.461212     0.453569     0.445925     0.438282     0.430639     0.422996     0.415353
      0.407710     0.400067     0.392424     0.384780     0.377137     0.369494     0.361851     0.354208     0.346565     0.338922
      0.331278     0.323635     0.315992     0.308349     0.300706     0.293063     0.285420     0.277777     0.270133     0.262490
      0.254847     0.247204     0.239561     0.231918     0.224275     0.216631     0.208988     0.201345
 NY phased data points follow
  -3.59335E+01 -3.72458E+01 -3.31534E+01 -3.33414E+01 -3.86424E+01 -3.53833E+01 -3.15464E+01 -3.26254E+01 -3.64794E+01 -3.15466E+01
  -2.65798E+01 -3.36391E+01 -2.96273E+01 -2.62534E+01 -2.95226E+01 -2.93116E+01 -2.96228E+01 -2.68365E+01 -3.43461E+01 -2.96240E+01
  -2.46463E+01 -2.33661E+01 -2.06978E+01 -2.01034E+01 -1.86557E+01 -1.68203E+01 -9.48668E+00 -1.31246E+01 -2.37778E+01 -1.47396E+01
  -1.38473E+01 -1.18819E+01 -1.83647E+01 -1.80278E+01 -3.41171E+00 -8.42741E+00 -1.65538E+01 -5.67198E-01 -3.17789E+00 -1.04431E+01
  -6.48175E+00 -1.12197E+01 -1.06017E+01 -7.26534E+00 -5.35928E+00 -1.23243E+00 -6.95028E+00  1.46835E+00 -5.46646E+00 -3.21684E+00
  -1.00821E+00 -4.55828E+00  2.49662E-01  5.35444E+00 -5.18019E+00 -2.05220E+00 -6.76876E+00  3.15212E+00 -8.72887E+00 -3.27056E-01
  -6.69726E+00 -1.44935E+01 -1.69933E+01 -1.05271E+01 -1.21211E+01 -1.79920E+01 -8.76832E+00 -6.20616E+00 -1.03246E+01 -1.90272E+00
  -4.08715E+00 -4.04254E+00 -8.66314E+00 -1.43130E+00 -4.02665E+00 -6.35642E+00 -1.16243E+01 -9.55750E+00 -1.31436E+01 -2.39991E+00
  -3.50093E+00  5.05913E+00  3.19155E+00  4.01477E+00 -5.19072E+00  1.12896E+00 -9.60722E+00 -6.62830E+00 -5.90451E+00 -6.01059E+00
  -6.13615E+00 -1.11869E+00 -3.15189E+00 -1.90381E+00 -3.61998E+00 -1.50100E+00  2.71090E+00 -4.22367E-01  2.65187E+00  1.92479E+00
  -4.84323E+00  1.78328E+00 -8.96824E-01  8.05120E+00  6.14668E+00  1.86348E+01  1.39122E+01  1.85834E+01  7.83494E+00  1.91389E+01
   1.74069E+01  1.52684E+01  1.19760E+01  1.47360E+01 -2.93568E+00  1.85952E+01  1.48316E+01  1.53733E+01  8.13825E+00  1.84195E+01
   1.11863E+01  1.19449E+01  1.83326E+01  1.23484E+01  1.77681E+01  2.08676E+01  2.10267E+01  2.22457E+01  2.12934E+01  2.50325E+01
   2.63754E+01  3.00456E+01  2.59060E+01  1.94973E+01  2.94358E+01  3.00803E+01  3.56691E+01  2.98438E+01  2.92559E+01  2.92655E+01
   2.57910E+01  3.20520E+01  2.49664E+01  2.64397E+01  2.04889E+01  2.04780E+01  2.67216E+01  3.33118E+01  2.92319E+01  3.58179E+01
   2.80799E+01  2.67134E+01  1.86341E+01  3.06115E+01  3.23590E+01  3.18788E+01  2.84994E+01  2.99061E+01  3.01151E+01  3.60770E+01
   2.82984E+01  2.60775E+01  2.51276E+01  2.76107E+01  2.14770E+01  2.68585E+01  2.82231E+01  3.05128E+01  2.46842E+01  2.66621E+01
   2.49852E+01  2.91984E+01  2.19285E+01  2.27706E+01  2.66220E+01  2.45279E+01  2.17792E+01  2.77737E+01  2.30388E+01  2.58746E+01
   2.30993E+01  2.52241E+01  2.32611E+01  2.81374E+01  2.13496E+01  2.36197E+01  2.37512E+01  2.70368E+01  1.66061E+01  1.92896E+01
   1.48746E+01  2.14436E+01  1.57789E+01  2.35452E+01  8.58386E+00  1.47961E+01  1.47882E+01  1.34326E+01  9.16311E+00  1.16238E+01
   8.55424E+00  1.01703E+01  6.10113E+00  9.13801E+00  6.91189E+00  4.13142E+00  1.84838E+00  2.63110E+00 -2.49018E+00 -3.71511E+00
  -7.42343E+00 -7.74856E+00 -1.68035E+00 -7.35733E+00 -1.08667E+01 -1.25371E+01 -1.19341E+01 -1.59555E+01 -1.10618E+01 -6.37429E+00
  -7.31741E-01  7.20860E+00  9.93659E+00  1.38512E+01  2.32096E+01  2.54578E+01  1.95195E+01  2.33782E+01  2.53550E+01  3.08287E+01
   3.08021E+01  4.24485E+01  2.53098E+01  2.74428E+01  3.16585E+01  3.94473E+01  4.04496E+01  4.40071E+01  3.42086E+01  3.79016E+01
   3.15305E+01  4.25807E+01  3.42970E+01  3.56112E+01  3.15814E+01  3.97027E+01  3.53944E+01  3.76756E+01  3.53821E+01  3.93173E+01
   3.84253E+01  3.61802E+01  3.66172E+01  2.90635E+01  3.54278E+01  3.67792E+01  3.30794E+01  3.68916E+01  3.14827E+01  3.55654E+01
   3.55242E+01  3.13121E+01  3.27986E+01  3.14856E+01  2.56559E+01  3.23630E+01  2.88644E+01  2.83099E+01  2.26671E+01  2.41636E+01
   2.28907E+01  2.19693E+01  2.18112E+01  1.23858E+01  1.69548E+01  1.14221E+01  1.79718E+00  6.24336E+00  3.34639E+00  4.63447E+00
  -7.74724E+00 -6.56082E+00 -1.39919E+01 -5.88991E+00 -1.79177E+01 -1.81863E+01 -1.98454E+01 -1.58626E+01 -2.54563E+01 -1.81156E+01
  -1.51942E+01 -2.15646E+01 -2.40739E+01 -1.69366E+01 -2.14832E+01 -1.55939E+01 -1.43075E+01 -1.52424E+01 -1.51011E+01 -1.03534E+01
  -5.50590E+00 -9.61757E+00 -4.35456E+00 -8.28416E+00  2.96706E+00  8.35301E+00  7.09453E+00  3.66049E+00  8.20874E+00  1.34184E+01
   8.75737E+00  3.85949E+00  1.21074E+01  1.55242E+01  1.01360E+01  1.28024E+01  9.50878E+00  9.71241E+00  1.06484E+01  6.45442E+00
   1.39894E+01  1.27931E+01  1.52075E+01  1.36792E+01  1.21019E+01  2.07334E+01  1.26227E+01  1.39880E+01  1.11179E+01  1.30947E+01
   1.59094E+01  1.04930E+01  1.37874E+01  7.97003E+00  1.04759E+01  1.01367E+01  1.12686E+01  1.54588E+01  1.05534E+01  8.56733E+00
   1.46653E+01  1.19722E+01  8.20785E+00  8.51990E+00  1.44064E+01  1.05482E+01  8.30154E+00  1.42768E+01  1.50726E+01  1.33128E+01
   1.68646E+01  1.43771E+01  9.86830E+00  4.97207E+00  1.29649E+01  1.22319E+01  1.45914E+01  1.39059E+01  7.30155E+00  1.35395E+01
   3.53363E+00  7.37785E+00  7.49641E+00  5.83941E+00  1.22327E+01  7.12034E+00  1.07848E+01  8.63792E+00  1.01028E+01  1.01187E+01
   6.12764E+00 -5.16240E-01  1.09879E+01  7.93046E+00  1.37470E+01  4.41318E+00  9.80547E+00  5.72592E+00  6.21399E+00  6.94346E+00
   2.56147E+00  4.35185E+00  7.98084E+00  4.19221E+00  3.91405E+00  1.39272E+01  7.45316E+00  3.43069E+00  8.24754E+00  4.58128E+00
   7.34059E+00  5.23356E+00  1.21995E+00  2.35673E+00  8.10484E+00  7.67569E+00  6.50919E+00  8.23058E+00  1.44196E+00  1.64338E+00
   6.97196E+00  3.01779E+00  1.41256E+00  4.39181E+00  3.72903E+00 -2.54963E+00  7.75240E-01  4.24987E+00  6.33330E+00 -1.99371E+00
   3.44268E+00  4.51912E+00  2.76129E-01  5.87601E+00  2.53645E+00  1.98257E+00  9.75994E-01 -1.85262E+00  3.31882E+00  4.43021E+00
   2.28155E+00  4.97194E+00 -3.18528E+00 -4.94650E-01  8.98629E-01  1.48854E+00  6.78481E+00  8.67021E-01 -9.46323E-01  3.74540E+00
   2.87009E+00 -3.28553E-01 -4.04321E+00 -6.42796E+00  3.12288E+00 -3.44599E-01 -1.16908E+00  8.87966E+00 -1.49356E+00 -4.25004E+00
   1.22492E+00  9.16062E-01  3.07931E+00 -7.39563E-01 -9.97712E-01  4.12175E+00 -2.19768E+00 -4.48299E+00 -1.25287E+00 -1.97316E+00
  -9.00746E+00  1.59839E+00 -3.56007E+00 -7.13817E+00 -6.43896E+00  1.43952E+00 -1.57101E+00 -1.53494E-01  2.65315E+00 -3.44302E+00
  -2.45085E+00 -1.43919E+00  1.46590E+00 -1.53308E+00  3.29694E+00  1.09570E+00 -2.85723E-01  5.22282E-01 -1.87511E+00 -4.95388E+00
  -2.10602E+00 -1.81941E+00 -1.80974E+00 -6.59658E+00 -6.50865E+00  3.16314E-01 -1.97300E+00 -1.08957E+00  1.21618E-01 -8.79917E+00
  -4.89012E+00 -6.14530E+00 -2.17624E+00 -2.26752E+00 -1.04117E+00 -3.17840E-01 -7.73627E+00 -6.05924E+00 -8.61186E-01 -2.56316E+00
  -4.90214E+00 -7.56805E-01 -2.46410E+00 -2.51174E-01 -6.35362E+00 -4.94165E+00 -1.85686E+00 -1.93529E+00
 NY points of the fit to the data follow
  -3.64368E+01 -3.68696E+01 -3.73315E+01 -3.73101E+01 -3.72945E+01 -3.68446E+01 -3.61199E+01 -3.48765E+01 -3.37158E+01 -3.33935E+01
  -3.21321E+01 -3.19812E+01 -3.02743E+01 -2.98883E+01 -2.60545E+01 -2.60000E+01 -2.21958E+01 -2.27184E+01 -1.92018E+01 -2.10982E+01
  -1.77939E+01 -1.94267E+01 -1.64079E+01 -1.87111E+01 -1.63199E+01 -1.80763E+01 -1.59868E+01 -1.63732E+01 -1.46847E+01 -1.44540E+01
  -1.29185E+01 -1.22991E+01 -1.20693E+01 -1.13869E+01 -1.17029E+01 -9.60399E+00 -9.50108E+00 -6.94590E+00 -7.34629E+00 -5.82840E+00
  -6.93322E+00 -5.70900E+00 -6.43020E+00 -4.42581E+00 -4.89088E+00 -3.84179E+00 -5.57702E+00 -7.50495E+00 -1.00290E+01 -1.06577E+01
  -1.16163E+01 -1.02401E+01 -9.23132E+00 -7.88197E+00 -7.85485E+00 -8.27024E+00 -9.18343E+00 -9.13667E+00 -9.87211E+00 -7.89674E+00
  -8.14790E+00 -6.98487E+00 -7.54737E+00 -6.62324E+00 -6.73273E+00 -5.39194E+00 -4.63455E+00 -2.60640E+00 -1.07856E+00  7.78401E-01
   4.01101E-01 -1.11939E-01 -1.29939E+00 -1.99995E+00 -3.07874E+00 -3.76354E+00 -4.64459E+00 -4.94126E+00 -5.36813E+00 -5.16996E+00
  -5.01981E+00 -4.38194E+00 -4.51125E+00 -4.05106E+00 -4.53511E+00 -4.26331E+00 -4.42675E+00 -4.04074E+00 -3.45363E+00 -2.71461E+00
  -1.70636E+00 -9.09762E-01  3.09071E-02  8.37004E-01  1.58195E+00  1.98926E+00  2.71874E+00  3.11576E+00  3.98129E+00  4.52160E+00
   5.47376E+00  6.18281E+00  7.20324E+00  7.95594E+00  8.93664E+00  9.60994E+00  1.03621E+01  1.08080E+01  1.10922E+01  1.14060E+01
   1.18261E+01  1.24436E+01  1.31619E+01  1.39481E+01  1.47816E+01  1.56560E+01  1.64271E+01  1.71339E+01  1.77617E+01  1.80544E+01
   1.85237E+01  1.88069E+01  1.92994E+01  1.95777E+01  2.00438E+01  2.03633E+01  2.08391E+01  2.12461E+01  2.16262E+01  2.19789E+01
   2.22937E+01  2.25996E+01  2.28611E+01  2.31204E+01  2.33278E+01  2.35286E+01  2.36820E+01  2.38199E+01  2.39355E+01  2.40331E+01
   2.41247E+01  2.42137E+01  2.43073E+01  2.44039E+01  2.45060E+01  2.46116E+01  2.47219E+01  2.48338E+01  2.49459E+01  2.50547E+01
   2.51562E+01  2.52489E+01  2.53243E+01  2.53807E+01  2.54123E+01  2.54159E+01  2.53908E+01  2.53277E+01  2.52282E+01  2.50859E+01
   2.49048E+01  2.46775E+01  2.44110E+01  2.41079E+01  2.37665E+01  2.33956E+01  2.29898E+01  2.25621E+01  2.21037E+01  2.16497E+01
   2.11688E+01  2.07062E+01  2.02143E+01  1.97606E+01  1.92819E+01  1.88574E+01  1.84125E+01  1.80258E+01  1.76384E+01  1.73181E+01
   1.70195E+01  1.67563E+01  1.65406E+01  1.63590E+01  1.62769E+01  1.62533E+01  1.64288E+01  1.67049E+01  1.67167E+01  1.67829E+01
   1.69023E+01  1.58483E+01  1.58918E+01  1.41278E+01  1.44860E+01  1.28211E+01  1.46782E+01  1.55537E+01  1.80216E+01  1.85126E+01
   2.06521E+01  2.07715E+01  2.15560E+01  1.90789E+01  1.72086E+01  1.40625E+01  1.24547E+01  9.47906E+00  8.05410E+00  5.90379E+00
   4.67085E+00  3.00245E+00  1.99630E+00 -1.04989E+00 -1.90798E+00 -5.22383E+00 -4.92349E+00 -6.05916E+00 -3.19854E+00 -1.00337E+00
   4.21298E+00  7.47191E+00  1.25843E+01  1.56877E+01  1.84776E+01  2.10542E+01  2.17023E+01  2.35189E+01  2.32109E+01  2.45555E+01
   2.35370E+01  2.61383E+01  2.47325E+01  2.96968E+01  2.87428E+01  3.53910E+01  3.29203E+01  3.49216E+01  3.07609E+01  3.06619E+01
   2.61487E+01  2.50524E+01  2.27292E+01  2.45051E+01  2.69839E+01  2.87423E+01  3.17854E+01  3.31705E+01  3.68990E+01  3.74821E+01
   4.08810E+01  4.02137E+01  4.31976E+01  4.14471E+01  4.40100E+01  4.18590E+01  4.41610E+01  4.13746E+01  4.25352E+01  3.88488E+01
   3.82487E+01  3.44558E+01  3.29417E+01  3.01142E+01  2.90948E+01  2.69721E+01  2.49156E+01  2.29275E+01  2.02324E+01  1.77199E+01
   1.45316E+01  1.28017E+01  1.04977E+01  9.50593E+00  7.03817E+00  5.75166E+00  3.18588E+00  1.64216E+00 -6.36953E-01 -1.05179E+00
  -2.53516E+00 -2.72669E+00 -4.14511E+00 -4.36980E+00 -5.63062E+00 -6.49277E+00 -7.29660E+00 -8.07240E+00 -8.84749E+00 -9.60484E+00
  -1.01652E+01 -1.07229E+01 -1.08467E+01 -1.08129E+01 -1.05800E+01 -1.03898E+01 -9.96558E+00 -9.52366E+00 -8.84983E+00 -8.11064E+00
  -7.18140E+00 -6.02652E+00 -4.69491E+00 -3.20493E+00 -1.58799E+00  1.20348E-01  1.88073E+00  3.64072E+00  5.35128E+00  6.98287E+00
   8.47332E+00  9.78625E+00  1.08982E+01  1.17831E+01  1.24378E+01  1.28605E+01  1.30732E+01  1.30968E+01  1.29730E+01  1.27355E+01
   1.24351E+01  1.21055E+01  1.17935E+01  1.15224E+01  1.13148E+01  1.11856E+01  1.11401E+01  1.11748E+01  1.12794E+01  1.14379E+01
   1.16310E+01  1.18381E+01  1.20392E+01  1.22163E+01  1.23551E+01  1.24456E+01  1.24828E+01  1.24663E+01  1.24003E+01  1.22927E+01
   1.21541E+01  1.19971E+01  1.18351E+01  1.16810E+01  1.15464E+01  1.14411E+01  1.13721E+01  1.13434E+01  1.13558E+01  1.14072E+01
   1.14922E+01  1.16031E+01  1.17303E+01  1.18626E+01  1.19881E+01  1.20947E+01  1.21706E+01  1.22050E+01  1.21887E+01  1.21142E+01
   1.19758E+01  1.17706E+01  1.14973E+01  1.11576E+01  1.07547E+01  1.02942E+01  9.78328E+00  9.23057E+00  8.64581E+00  8.03960E+00
   7.42306E+00  6.80750E+00  6.20414E+00  5.62383E+00  5.07687E+00  4.57284E+00  4.12035E+00  3.72696E+00  3.39902E+00  3.14166E+00
   2.95862E+00  2.85231E+00  2.82368E+00  2.87218E+00  2.99573E+00  3.19075E+00  3.45216E+00  3.77339E+00  4.14645E+00  4.56199E+00
   5.00949E+00  5.47748E+00  5.95374E+00  6.42562E+00  6.88035E+00  7.30539E+00  7.68882E+00  8.01976E+00  8.28868E+00  8.48769E+00
   8.61080E+00  8.65410E+00  8.61588E+00  8.49660E+00  8.29882E+00  8.02701E+00  7.68728E+00  7.28714E+00  6.83514E+00  6.34052E+00
   5.81281E+00  5.26157E+00  4.69599E+00  4.12472E+00  3.55565E+00  2.99578E+00  2.45104E+00  1.92634E+00  1.42556E+00  9.51570E-01
   5.06375E-01  9.11279E-02 -2.93710E-01 -6.48321E-01 -9.73290E-01 -1.26966E+00 -1.53864E+00 -1.78175E+00 -2.00048E+00 -2.19651E+00
  -2.37135E+00 -2.52667E+00 -2.66390E+00 -2.78458E+00 -2.89003E+00 -2.98160E+00 -3.06042E+00 -3.12762E+00 -3.18414E+00 -3.23099E+00
  -3.26894E+00 -3.29883E+00 -3.32129E+00 -3.33698E+00 -3.34645E+00 -3.35026E+00 -3.34886E+00 -3.34271E+00 -3.33216E+00 -3.31759E+00
  -3.29933E+00 -3.27768E+00 -3.25291E+00 -3.22527E+00 -3.19499E+00 -3.16228E+00 -3.12734E+00 -3.09036E+00 -3.05150E+00 -3.01090E+00
  -2.96869E+00 -2.92501E+00 -2.87997E+00 -2.83371E+00 -2.78631E+00 -2.73787E+00 -2.68848E+00 -2.63821E+00 -2.58717E+00 -2.53542E+00
  -2.48303E+00 -2.43005E+00 -2.37656E+00 -2.32261E+00 -2.26827E+00 -2.21359E+00 -2.15859E+00 -2.10334E+00 -2.04789E+00 -1.99229E+00
  -1.93658E+00 -1.88080E+00 -1.82498E+00 -1.76917E+00 -1.71341E+00 -1.65774E+00 -1.60220E+00 -1.54684E+00 -1.49168E+00 -1.43680E+00
  -1.38221E+00 -1.32799E+00 -1.27418E+00 -1.22083E+00 -1.16801E+00 -1.11578E+00 -1.06421E+00 -1.01336E+00
 NY background values follow
    -3.586E+01   -3.540E+01   -3.494E+01   -3.448E+01   -3.402E+01   -3.356E+01   -3.310E+01   -3.264E+01   -3.219E+01   -3.173E+01
    -3.127E+01   -3.081E+01   -3.035E+01   -2.989E+01   -2.944E+01   -2.898E+01   -2.852E+01   -2.806E+01   -2.761E+01   -2.715E+01
    -2.669E+01   -2.624E+01   -2.578E+01   -2.532E+01   -2.487E+01   -2.441E+01   -2.396E+01   -2.350E+01   -2.305E+01   -2.259E+01
    -2.214E+01   -2.169E+01   -2.123E+01   -2.078E+01   -2.033E+01   -1.988E+01   -1.942E+01   -1.897E+01   -1.852E+01   -1.807E+01
    -1.762E+01   -1.717E+01   -1.672E+01   -1.627E+01   -1.583E+01   -1.538E+01   -1.493E+01   -1.448E+01   -1.404E+01   -1.359E+01
    -1.315E+01   -1.270E+01   -1.226E+01   -1.182E+01   -1.137E+01   -1.093E+01   -1.049E+01   -1.005E+01   -9.607E+00   -9.167E+00
    -8.728E+00   -8.289E+00   -7.852E+00   -7.414E+00   -6.978E+00   -6.542E+00   -6.107E+00   -5.672E+00   -5.238E+00   -4.805E+00
    -4.373E+00   -3.942E+00   -3.511E+00   -3.081E+00   -2.652E+00   -2.224E+00   -1.798E+00   -1.373E+00   -9.490E-01   -5.268E-01
    -1.063E-01    3.124E-01    7.291E-01    1.144E+00    1.556E+00    1.967E+00    2.375E+00    2.780E+00    3.183E+00    3.583E+00
     3.980E+00    4.374E+00    4.766E+00    5.154E+00    5.538E+00    5.920E+00    6.297E+00    6.672E+00    7.042E+00    7.408E+00
     7.771E+00    8.129E+00    8.483E+00    8.833E+00    9.178E+00    9.519E+00    9.855E+00    1.019E+01    1.051E+01    1.083E+01
     1.115E+01    1.146E+01    1.177E+01    1.207E+01    1.236E+01    1.265E+01    1.293E+01    1.321E+01    1.348E+01    1.374E+01
     1.400E+01    1.425E+01    1.450E+01    1.474E+01    1.497E+01    1.519E+01    1.541E+01    1.562E+01    1.583E+01    1.602E+01
     1.621E+01    1.639E+01    1.657E+01    1.673E+01    1.689E+01    1.704E+01    1.718E+01    1.731E+01    1.744E+01    1.756E+01
     1.766E+01    1.776E+01    1.785E+01    1.793E+01    1.801E+01    1.807E+01    1.812E+01    1.817E+01    1.821E+01    1.824E+01
     1.826E+01    1.827E+01    1.828E+01    1.828E+01    1.826E+01    1.825E+01    1.822E+01    1.819E+01    1.814E+01    1.810E+01
     1.804E+01    1.798E+01    1.791E+01    1.783E+01    1.774E+01    1.765E+01    1.756E+01    1.745E+01    1.734E+01    1.722E+01
     1.710E+01    1.697E+01    1.683E+01    1.669E+01    1.654E+01    1.639E+01    1.623E+01    1.607E+01    1.590E+01    1.572E+01
     1.554E+01    1.535E+01    1.516E+01    1.496E+01    1.476E+01    1.455E+01    1.434E+01    1.413E+01    1.391E+01    1.368E+01
     1.345E+01    1.322E+01    1.298E+01    1.274E+01    1.249E+01    1.224E+01    1.199E+01    1.173E+01    1.147E+01    1.121E+01
     1.094E+01    1.067E+01    1.039E+01    1.012E+01    9.835E+00    9.552E+00    9.266E+00    8.977E+00    8.686E+00    8.392E+00
     8.096E+00    7.797E+00    7.496E+00    7.193E+00    6.888E+00    6.582E+00    6.273E+00    5.962E+00    5.650E+00    5.337E+00
     5.021E+00    4.705E+00    4.387E+00    4.068E+00    3.748E+00    3.427E+00    3.105E+00    2.782E+00    2.458E+00    2.134E+00
     1.809E+00    1.484E+00    1.159E+00    8.327E-01    5.067E-01    1.806E-01   -1.455E-01   -4.715E-01   -7.973E-01   -1.123E+00
    -1.448E+00   -1.773E+00   -2.097E+00   -2.420E+00   -2.743E+00   -3.065E+00   -3.386E+00   -3.706E+00   -4.024E+00   -4.342E+00
    -4.658E+00   -4.973E+00   -5.287E+00   -5.598E+00   -5.909E+00   -6.217E+00   -6.523E+00   -6.828E+00   -7.131E+00   -7.431E+00
    -7.729E+00   -8.025E+00   -8.319E+00   -8.610E+00   -8.898E+00   -9.184E+00   -9.467E+00   -9.747E+00   -1.002E+01   -1.030E+01
    -1.057E+01   -1.084E+01   -1.110E+01   -1.136E+01   -1.162E+01   -1.187E+01   -1.212E+01   -1.237E+01   -1.261E+01   -1.285E+01
    -1.308E+01   -1.332E+01   -1.354E+01   -1.376E+01   -1.398E+01   -1.419E+01   -1.440E+01   -1.460E+01   -1.480E+01   -1.500E+01
    -1.519E+01   -1.538E+01   -1.556E+01   -1.573E+01   -1.591E+01   -1.608E+01   -1.624E+01   -1.640E+01   -1.656E+01   -1.671E+01
    -1.686E+01   -1.700E+01   -1.714E+01   -1.727E+01   -1.740E+01   -1.753E+01   -1.765E+01   -1.777E+01   -1.788E+01   -1.799E+01
    -1.810E+01   -1.820E+01   -1.830E+01   -1.840E+01   -1.849E+01   -1.857E+01   -1.866E+01   -1.873E+01   -1.881E+01   -1.888E+01
    -1.895E+01   -1.901E+01   -1.907E+01   -1.913E+01   -1.918E+01   -1.923E+01   -1.927E+01   -1.931E+01   -1.935E+01   -1.938E+01
    -1.941E+01   -1.944E+01   -1.946E+01   -1.948E+01   -1.950E+01   -1.951E+01   -1.952E+01   -1.952E+01   -1.953E+01   -1.952E+01
    -1.952E+01   -1.951E+01   -1.950E+01   -1.948E+01   -1.946E+01   -1.944E+01   -1.942E+01   -1.939E+01   -1.936E+01   -1.932E+01
    -1.928E+01   -1.924E+01   -1.920E+01   -1.915E+01   -1.910E+01   -1.905E+01   -1.899E+01   -1.893E+01   -1.887E+01   -1.880E+01
    -1.873E+01   -1.866E+01   -1.859E+01   -1.851E+01   -1.843E+01   -1.835E+01   -1.826E+01   -1.817E+01   -1.809E+01   -1.799E+01
    -1.790E+01   -1.780E+01   -1.770E+01   -1.760E+01   -1.750E+01   -1.739E+01   -1.729E+01   -1.718E+01   -1.707E+01   -1.695E+01
    -1.684E+01   -1.672E+01   -1.661E+01   -1.649E+01   -1.637E+01   -1.624E+01   -1.612E+01   -1.599E+01   -1.587E+01   -1.574E+01
    -1.561E+01   -1.548E+01   -1.535E+01   -1.522E+01   -1.509E+01   -1.495E+01   -1.482E+01   -1.468E+01   -1.455E+01   -1.441E+01
    -1.427E+01   -1.413E+01   -1.399E+01   -1.386E+01   -1.372E+01   -1.358E+01   -1.344E+01   -1.330E+01   -1.315E+01   -1.301E+01
    -1.287E+01   -1.273E+01   -1.259E+01   -1.245E+01   -1.231E+01   -1.217E+01   -1.203E+01   -1.189E+01   -1.175E+01   -1.161E+01
    -1.147E+01   -1.134E+01   -1.120E+01   -1.106E+01   -1.093E+01   -1.079E+01   -1.066E+01   -1.052E+01   -1.039E+01   -1.026E+01
    -1.013E+01   -9.999E+00   -9.870E+00   -9.742E+00   -9.615E+00   -9.489E+00   -9.363E+00   -9.238E+00   -9.115E+00   -8.992E+00
    -8.869E+00   -8.748E+00   -8.627E+00   -8.508E+00   -8.389E+00   -8.271E+00   -8.153E+00   -8.037E+00   -7.921E+00   -7.807E+00
    -7.692E+00   -7.579E+00   -7.467E+00   -7.355E+00   -7.244E+00   -7.134E+00   -7.025E+00   -6.916E+00   -6.808E+00   -6.701E+00
    -6.595E+00   -6.489E+00   -6.385E+00   -6.281E+00   -6.177E+00   -6.075E+00   -5.973E+00   -5.872E+00   -5.771E+00   -5.672E+00
    -5.573E+00   -5.475E+00   -5.377E+00   -5.280E+00   -5.184E+00   -5.089E+00   -4.994E+00   -4.900E+00   -4.807E+00   -4.715E+00
    -4.623E+00   -4.531E+00   -4.441E+00   -4.351E+00   -4.262E+00   -4.173E+00   -4.085E+00   -3.998E+00   -3.912E+00   -3.826E+00
    -3.740E+00   -3.656E+00   -3.572E+00   -3.488E+00   -3.406E+00   -3.323E+00   -3.242E+00   -3.161E+00
 GABA     Conc. = 5.90E-01
