 LCModel (Version 6.3-1L) Copyright: S.W. Provencher.          Ref.: Magn. Reson. Med. 30:672-679 (1993).                
 Slice#3 Row#5 Col#6  PD_24_press_2_raw_act
 36 lines in following concentration table = NCONC+1
    Conc.  %SD /Cr+PCr  Metabolite                                         
   79.559 182%   0.104 Ala                                                 
   59.460 342% 7.8E-02 Asp                                                 
    0.000 999%   0.000 Cr                                                  
  763.418  12%   1.000 PCr                                                 
  126.267  96%   0.165 GABA                                                
  165.530  76%   0.217 Glc                                                 
  362.746  78%   0.475 Gln                                                 
  745.672  43%   0.977 Glu                                                 
  484.596   8%   0.635 GPC                                                 
    0.000 999%   0.000 PCh                                                 
  525.117  22%   0.688 GSH                                                 
 1.81E+03  22%   2.366 Ins                                                 
  174.515  89%   0.229 Lac                                                 
 1.50E+03   7%   1.958 NAA                                                 
    0.000 999%   0.000 NAAG                                                
   69.314  48% 9.1E-02 Scyllo                                              
  290.261  68%   0.380 Tau                                                 
   59.813 236% 7.8E-02 -CrCH2                                              
  484.596   8%   0.635 GPC+PCh                                             
 1.50E+03   7%   1.958 NAA+NAAG                                            
  763.418  12%   1.000 Cr+PCr                                              
 1.11E+03  36%   1.452 Glu+Gln                                             
    0.000 999%   0.000 Lip13a                                              
  703.599  33%   0.922 Lip13b                                              
  171.153 158%   0.224 Lip09                                               
  325.982  94%   0.427 MM09                                                
   52.676 384% 6.9E-02 Lip20                                               
  172.660 297%   0.226 MM20                                                
  100.822 142%   0.132 MM12                                                
    0.000 999%   0.000 MM14                                                
 1.47E+03  16%   1.922+MM17                                                
  703.599  33%   0.922 Lip13a+Lip13b                                       
  804.421  33%   1.054 MM14+Lip13a+Lip13b+MM12                             
  497.135  63%   0.651 MM09+Lip09                                          
  225.336 234%   0.295 MM20+Lip20                                          
   6 lines in following misc. output table
  FWHM = 0.046 ppm    S/N =   4                                            
  Data shift = 0.015 ppm                                                   
  Ph: -25 deg      -0.4 deg/ppm                                            
  alphaB,S = 8.2E-01,   1.2E+01                                            
   14 spline knots.   Ns = 5(1)                                            
  ( 8) 2 infls.   ( 8) 2 extrs.                                            
  498 points on ppm-axis = NY
      4.000000     3.992357     3.984714     3.977070     3.969427     3.961784     3.954141     3.946497     3.938854     3.931211
      3.923568     3.915925     3.908281     3.900638     3.892995     3.885352     3.877708     3.870065     3.862422     3.854779
      3.847136     3.839492     3.831849     3.824206     3.816563     3.808919     3.801276     3.793633     3.785990     3.778347
      3.770703     3.763060     3.755417     3.747774     3.740130     3.732487     3.724844     3.717201     3.709558     3.701914
      3.694271     3.686628     3.678985     3.671341     3.663698     3.656055     3.648412     3.640769     3.633125     3.625482
      3.617839     3.610196     3.602552     3.594909     3.587266     3.579623     3.571980     3.564336     3.556693     3.549050
      3.541407     3.533763     3.526120     3.518477     3.510834     3.503191     3.495547     3.487904     3.480261     3.472618
      3.464974     3.457331     3.449688     3.442045     3.434402     3.426758     3.419115     3.411472     3.403829     3.396185
      3.388542     3.380899     3.373256     3.365613     3.357969     3.350326     3.342683     3.335040     3.327396     3.319753
      3.312110     3.304467     3.296824     3.289180     3.281537     3.273894     3.266251     3.258607     3.250964     3.243321
      3.235678     3.228034     3.220391     3.212748     3.205105     3.197462     3.189818     3.182175     3.174532     3.166889
      3.159245     3.151602     3.143959     3.136316     3.128673     3.121029     3.113386     3.105743     3.098100     3.090456
      3.082813     3.075170     3.067527     3.059884     3.052240     3.044597     3.036954     3.029311     3.021667     3.014024
      3.006381     2.998738     2.991095     2.983451     2.975808     2.968165     2.960522     2.952878     2.945235     2.937592
      2.929949     2.922306     2.914662     2.907019     2.899376     2.891733     2.884089     2.876446     2.868803     2.861160
      2.853517     2.845873     2.838230     2.830587     2.822944     2.815300     2.807657     2.800014     2.792371     2.784728
      2.777084     2.769441     2.761798     2.754155     2.746511     2.738868     2.731225     2.723582     2.715939     2.708295
      2.700652     2.693009     2.685366     2.677722     2.670079     2.662436     2.654793     2.647150     2.639506     2.631863
      2.624220     2.616577     2.608933     2.601290     2.593647     2.586004     2.578361     2.570717     2.563074     2.555431
      2.547788     2.540144     2.532501     2.524858     2.517215     2.509572     2.501928     2.494285     2.486642     2.478999
      2.471355     2.463712     2.456069     2.448426     2.440783     2.433139     2.425496     2.417853     2.410210     2.402566
      2.394923     2.387280     2.379637     2.371994     2.364350     2.356707     2.349064     2.341421     2.333777     2.326134
      2.318491     2.310848     2.303205     2.295561     2.287918     2.280275     2.272632     2.264988     2.257345     2.249702
      2.242059     2.234416     2.226772     2.219129     2.211486     2.203843     2.196199     2.188556     2.180913     2.173270
      2.165627     2.157983     2.150340     2.142697     2.135054     2.127410     2.119767     2.112124     2.104481     2.096838
      2.089194     2.081551     2.073908     2.066265     2.058621     2.050978     2.043335     2.035692     2.028049     2.020405
      2.012762     2.005119     1.997476     1.989833     1.982190     1.974546     1.966903     1.959260     1.951617     1.943974
      1.936331     1.928688     1.921045     1.913402     1.905759     1.898115     1.890472     1.882829     1.875186     1.867543
      1.859900     1.852257     1.844614     1.836971     1.829327     1.821684     1.814041     1.806398     1.798755     1.791112
      1.783469     1.775826     1.768183     1.760540     1.752896     1.745253     1.737610     1.729967     1.722324     1.714681
      1.707038     1.699395     1.691752     1.684108     1.676465     1.668822     1.661179     1.653536     1.645893     1.638250
      1.630607     1.622964     1.615321     1.607677     1.600034     1.592391     1.584748     1.577105     1.569462     1.561819
      1.554176     1.546533     1.538890     1.531246     1.523603     1.515960     1.508317     1.500674     1.493031     1.485388
      1.477745     1.470102     1.462458     1.454815     1.447172     1.439529     1.431886     1.424243     1.416600     1.408957
      1.401314     1.393671     1.386027     1.378384     1.370741     1.363098     1.355455     1.347812     1.340169     1.332526
      1.324883     1.317240     1.309596     1.301953     1.294310     1.286667     1.279024     1.271381     1.263738     1.256095
      1.248452     1.240808     1.233165     1.225522     1.217879     1.210236     1.202593     1.194950     1.187307     1.179664
      1.172021     1.164377     1.156734     1.149091     1.141448     1.133805     1.126162     1.118519     1.110876     1.103233
      1.095590     1.087946     1.080303     1.072660     1.065017     1.057374     1.049731     1.042088     1.034445     1.026802
      1.019158     1.011515     1.003872     0.996229     0.988586     0.980943     0.973300     0.965657     0.958014     0.950371
      0.942727     0.935084     0.927441     0.919798     0.912155     0.904512     0.896869     0.889226     0.881583     0.873940
      0.866296     0.858653     0.851010     0.843367     0.835724     0.828081     0.820438     0.812795     0.805152     0.797508
      0.789865     0.782222     0.774579     0.766936     0.759293     0.751650     0.744007     0.736364     0.728721     0.721077
      0.713434     0.705791     0.698148     0.690505     0.682862     0.675219     0.667576     0.659933     0.652290     0.644646
      0.637003     0.629360     0.621717     0.614074     0.606431     0.598788     0.591145     0.583502     0.575858     0.568215
      0.560572     0.552929     0.545286     0.537643     0.530000     0.522357     0.514714     0.507071     0.499427     0.491784
      0.484141     0.476498     0.468855     0.461212     0.453569     0.445925     0.438282     0.430639     0.422996     0.415353
      0.407710     0.400067     0.392424     0.384780     0.377137     0.369494     0.361851     0.354208     0.346565     0.338922
      0.331278     0.323635     0.315992     0.308349     0.300706     0.293063     0.285420     0.277777     0.270133     0.262490
      0.254847     0.247204     0.239561     0.231918     0.224275     0.216631     0.208988     0.201345
 NY phased data points follow
  -2.12729E+02 -2.13478E+02 -2.01469E+02 -1.99999E+02 -1.85621E+02 -1.84750E+02 -1.79298E+02 -1.73418E+02 -1.59065E+02 -1.47417E+02
  -1.34197E+02 -1.54811E+02 -1.56041E+02 -1.46831E+02 -1.62835E+02 -1.65049E+02 -1.62704E+02 -1.65118E+02 -1.55340E+02 -1.61409E+02
  -1.56305E+02 -1.50010E+02 -1.53873E+02 -1.45586E+02 -1.34545E+02 -1.43054E+02 -1.29635E+02 -1.42647E+02 -1.20071E+02 -1.25136E+02
  -1.33894E+02 -1.24062E+02 -1.31308E+02 -1.49855E+02 -1.32874E+02 -1.32562E+02 -1.22493E+02 -1.30090E+02 -1.25628E+02 -1.30413E+02
  -1.23178E+02 -1.20779E+02 -1.20323E+02 -1.24167E+02 -1.20586E+02 -1.15762E+02 -1.10616E+02 -1.09038E+02 -1.03486E+02 -1.03749E+02
  -1.12156E+02 -1.07645E+02 -1.09445E+02 -1.18970E+02 -1.15689E+02 -1.09931E+02 -1.19320E+02 -1.19681E+02 -9.76913E+01 -1.01215E+02
  -1.07408E+02 -1.11409E+02 -1.14365E+02 -1.05891E+02 -1.12086E+02 -1.05416E+02 -1.06197E+02 -1.08416E+02 -1.09827E+02 -9.13165E+01
  -9.91642E+01 -9.83096E+01 -8.87715E+01 -1.06949E+02 -9.60113E+01 -9.38619E+01 -1.12968E+02 -9.35574E+01 -9.88968E+01 -1.02180E+02
  -9.96002E+01 -9.77140E+01 -9.12013E+01 -9.84389E+01 -8.03507E+01 -9.43122E+01 -9.51347E+01 -9.64871E+01 -8.81726E+01 -9.04859E+01
  -1.01780E+02 -9.37454E+01 -9.72773E+01 -8.90273E+01 -9.40387E+01 -9.39336E+01 -9.47602E+01 -9.01483E+01 -9.39068E+01 -8.16249E+01
  -6.60672E+01 -6.35473E+01 -3.61014E+01 -2.73596E+01 -2.88922E+01 -4.31605E+01 -4.85951E+01 -5.86498E+01 -7.52464E+01 -7.56480E+01
  -7.30029E+01 -8.35811E+01 -1.03297E+02 -9.06732E+01 -8.66405E+01 -8.20733E+01 -9.24284E+01 -8.12309E+01 -8.40396E+01 -9.32909E+01
  -8.68295E+01 -9.79777E+01 -9.44656E+01 -8.76657E+01 -8.34874E+01 -7.03295E+01 -4.64499E+01 -5.15091E+01 -4.63335E+01 -5.16898E+01
  -4.36616E+01 -6.57585E+01 -6.96821E+01 -6.36254E+01 -7.15450E+01 -7.28312E+01 -6.72620E+01 -7.83098E+01 -8.45678E+01 -7.87265E+01
  -8.01535E+01 -7.40633E+01 -8.22309E+01 -7.34323E+01 -7.60660E+01 -6.93511E+01 -7.23508E+01 -7.43720E+01 -7.75321E+01 -8.00947E+01
  -6.62614E+01 -7.48918E+01 -7.23564E+01 -7.71606E+01 -7.64541E+01 -6.39957E+01 -7.15386E+01 -8.40237E+01 -6.96823E+01 -7.10923E+01
  -7.33617E+01 -6.42283E+01 -7.20446E+01 -7.56286E+01 -6.82369E+01 -7.46022E+01 -5.96187E+01 -5.74695E+01 -6.71478E+01 -7.58459E+01
  -6.85211E+01 -6.64562E+01 -8.29555E+01 -8.40075E+01 -6.94349E+01 -7.26461E+01 -7.28579E+01 -6.23228E+01 -7.80750E+01 -7.33961E+01
  -7.43722E+01 -7.95233E+01 -6.67052E+01 -6.95984E+01 -7.84606E+01 -7.38974E+01 -7.35622E+01 -6.72156E+01 -7.21953E+01 -6.35571E+01
  -5.24004E+01 -5.98961E+01 -5.42265E+01 -5.97753E+01 -5.32085E+01 -4.75121E+01 -6.04731E+01 -6.22918E+01 -6.40789E+01 -6.81831E+01
  -6.18250E+01 -6.05874E+01 -5.25930E+01 -5.99437E+01 -5.86721E+01 -5.89670E+01 -6.40873E+01 -6.64521E+01 -6.45081E+01 -7.96872E+01
  -6.72738E+01 -6.85255E+01 -6.22918E+01 -6.47697E+01 -6.15404E+01 -5.07236E+01 -4.91071E+01 -4.38329E+01 -4.79215E+01 -5.21796E+01
  -5.91279E+01 -6.37426E+01 -5.68809E+01 -6.03833E+01 -5.76626E+01 -5.45984E+01 -4.88146E+01 -5.83711E+01 -5.40094E+01 -5.72311E+01
  -6.34379E+01 -5.79288E+01 -5.60248E+01 -6.27376E+01 -5.31144E+01 -6.50679E+01 -5.58261E+01 -6.29169E+01 -5.53952E+01 -5.75035E+01
  -5.53103E+01 -5.99794E+01 -6.34953E+01 -6.11452E+01 -6.47651E+01 -4.81321E+01 -5.45883E+01 -5.30150E+01 -4.18321E+01 -4.57523E+01
  -4.17896E+01 -4.51749E+01 -5.88021E+01 -5.48667E+01 -5.39006E+01 -5.33264E+01 -6.49345E+01 -5.29904E+01 -2.42845E+01  8.26946E+00
   1.20163E+00  1.17211E+01  1.10410E+01  4.11447E-01 -2.19512E+01 -3.87532E+01 -4.36975E+01 -5.36951E+01 -6.57159E+01 -5.87990E+01
  -6.11421E+01 -5.33540E+01 -5.60429E+01 -5.24303E+01 -5.71333E+01 -5.76609E+01 -5.03078E+01 -4.82707E+01 -4.47564E+01 -4.92066E+01
  -4.66274E+01 -4.52964E+01 -5.03680E+01 -5.83653E+01 -4.52203E+01 -5.16509E+01 -4.98425E+01 -5.67656E+01 -4.99713E+01 -5.88557E+01
  -5.46790E+01 -5.13957E+01 -5.60697E+01 -4.47375E+01 -4.66524E+01 -4.19186E+01 -5.02721E+01 -3.74499E+01 -3.64198E+01 -2.80524E+01
  -3.91050E+01 -2.92505E+01 -3.66790E+01 -3.39635E+01 -2.39051E+01 -1.83107E+01 -2.55826E+01 -1.90998E+01 -3.16615E+01 -2.95723E+01
  -1.91455E+01 -2.72148E+01 -1.86112E+01 -2.42018E+01 -3.00948E+01 -3.72099E+01 -2.41792E+01 -3.53402E+01 -3.57914E+01 -3.94281E+01
  -3.31566E+01 -4.43014E+01 -2.94374E+01 -4.60902E+01 -4.24319E+01 -3.12998E+01 -4.21095E+01 -4.63928E+01 -3.62349E+01 -4.14290E+01
  -4.66204E+01 -3.56811E+01 -4.64066E+01 -4.40716E+01 -4.00484E+01 -3.85470E+01 -3.97031E+01 -3.60535E+01 -4.42142E+01 -4.64547E+01
  -4.49015E+01 -3.64742E+01 -4.08195E+01 -3.78393E+01 -4.46900E+01 -2.02550E+01 -3.12892E+01 -2.78300E+01 -2.70185E+01 -3.59619E+01
  -4.25405E+01 -3.20480E+01 -2.63155E+01 -2.38311E+01 -3.05462E+01 -2.60398E+01 -2.35720E+01 -3.29610E+01 -2.60058E+01 -2.63240E+01
  -2.97108E+01 -3.10483E+01 -2.84093E+01 -3.65434E+01 -2.93613E+01 -2.93162E+01 -4.22960E+01 -3.18257E+01 -3.33634E+01 -3.19163E+01
  -2.71898E+01 -3.49616E+01 -2.66691E+01 -3.40391E+01 -3.69763E+01 -3.47286E+01 -2.75338E+01 -2.38891E+01 -3.21413E+01 -4.37745E+01
  -3.11681E+01 -3.28688E+01 -3.91215E+01 -3.97641E+01 -4.17644E+01 -3.61177E+01 -4.88310E+01 -3.56009E+01 -1.44111E+01 -3.43713E+01
  -1.11312E+01 -3.90328E+01 -3.63927E+01 -3.17618E+01 -2.75468E+01 -2.48343E+01 -3.36438E+01 -2.44079E+01 -2.48701E+01 -2.38994E+01
  -3.33918E+01 -3.59152E+01 -3.67415E+01 -3.60296E+01 -2.61529E+01 -2.84940E+01 -2.65032E+01 -3.64919E+01 -3.50892E+01 -2.71850E+01
  -3.73793E+01 -2.06909E+01 -2.06714E+01 -2.95290E+01 -3.20977E+01 -2.03997E+01 -2.65024E+01 -2.53555E+01 -3.45074E+01 -2.08912E+01
  -3.37161E+01 -2.96263E+01 -2.49860E+01 -2.30405E+01 -2.56288E+01 -3.57293E+01 -3.03182E+01 -3.41606E+01 -1.94877E+01 -1.90970E+01
  -2.85951E+01 -2.12716E+01 -2.91468E+01 -2.85935E+01 -2.82837E+01 -2.01148E+01 -2.86662E+01 -2.22906E+01 -2.78717E+01 -2.10028E+01
  -2.47305E+01 -3.28892E+01 -3.01193E+01 -2.78884E+01 -4.55200E+01 -2.49894E+01 -3.61498E+01 -3.75319E+01 -3.93682E+01 -2.86435E+01
  -3.47141E+01 -3.80878E+01 -2.70991E+01 -2.84267E+01 -3.99429E+01 -3.56804E+01 -3.63717E+01 -3.14386E+01 -2.53403E+01 -3.29865E+01
  -2.91007E+01 -4.09906E+01 -3.47782E+01 -3.66703E+01 -3.40524E+01 -3.52747E+01 -3.49896E+01 -3.03071E+01 -2.61228E+01 -3.12306E+01
  -2.42837E+01 -2.78893E+01 -3.33086E+01 -2.65455E+01 -4.09584E+01 -3.77727E+01 -3.11323E+01 -3.55595E+01 -2.81283E+01 -3.58415E+01
  -2.84709E+01 -3.33112E+01 -2.76892E+01 -3.12141E+01 -3.92915E+01 -2.64078E+01 -2.49195E+01 -3.21524E+01 -3.21982E+01 -3.24650E+01
  -2.09940E+01 -3.30070E+01 -4.86437E+00 -2.90223E+01 -2.78236E+01 -2.92527E+01 -4.13840E+01 -2.94541E+01
 NY points of the fit to the data follow
  -1.82905E+02 -1.82506E+02 -1.81621E+02 -1.80274E+02 -1.79171E+02 -1.77972E+02 -1.73248E+02 -1.65109E+02 -1.56393E+02 -1.50747E+02
  -1.48466E+02 -1.48278E+02 -1.50171E+02 -1.53848E+02 -1.57184E+02 -1.58690E+02 -1.59350E+02 -1.58905E+02 -1.57840E+02 -1.56618E+02
  -1.55599E+02 -1.54778E+02 -1.53939E+02 -1.53028E+02 -1.52938E+02 -1.52376E+02 -1.48638E+02 -1.42197E+02 -1.35742E+02 -1.31433E+02
  -1.28696E+02 -1.27103E+02 -1.27602E+02 -1.30011E+02 -1.31870E+02 -1.32557E+02 -1.32823E+02 -1.32914E+02 -1.33227E+02 -1.33247E+02
  -1.32725E+02 -1.32232E+02 -1.32031E+02 -1.30625E+02 -1.25930E+02 -1.18482E+02 -1.11576E+02 -1.07605E+02 -1.06508E+02 -1.07678E+02
  -1.10909E+02 -1.15266E+02 -1.18804E+02 -1.20464E+02 -1.20748E+02 -1.20018E+02 -1.18257E+02 -1.15409E+02 -1.11959E+02 -1.08973E+02
  -1.07030E+02 -1.06323E+02 -1.06855E+02 -1.08070E+02 -1.09252E+02 -1.09713E+02 -1.09345E+02 -1.08375E+02 -1.06865E+02 -1.04877E+02
  -1.02925E+02 -1.01444E+02 -1.00159E+02 -9.88307E+01 -9.76139E+01 -9.71367E+01 -9.72762E+01 -9.76369E+01 -9.81214E+01 -9.84716E+01
  -9.84742E+01 -9.82288E+01 -9.71303E+01 -9.50425E+01 -9.30351E+01 -9.25159E+01 -9.35310E+01 -9.49923E+01 -9.61348E+01 -9.68649E+01
  -9.69412E+01 -9.61488E+01 -9.47846E+01 -9.32252E+01 -9.18922E+01 -9.09352E+01 -9.04775E+01 -9.12329E+01 -9.41736E+01 -9.06052E+01
  -7.53477E+01 -5.35691E+01 -3.66615E+01 -2.98791E+01 -3.01700E+01 -3.61499E+01 -4.85039E+01 -6.35491E+01 -7.43359E+01 -8.09288E+01
  -8.38777E+01 -8.44984E+01 -8.45718E+01 -8.44188E+01 -8.41673E+01 -8.38668E+01 -8.36612E+01 -8.35944E+01 -8.35553E+01 -8.34668E+01
  -8.33034E+01 -8.32453E+01 -8.42941E+01 -8.40482E+01 -7.72981E+01 -6.52422E+01 -5.34682E+01 -4.73215E+01 -4.61178E+01 -4.74350E+01
  -5.16606E+01 -5.90036E+01 -6.62992E+01 -7.18127E+01 -7.62456E+01 -7.89161E+01 -8.06799E+01 -8.09999E+01 -7.97351E+01 -7.76230E+01
  -7.54944E+01 -7.38363E+01 -7.29322E+01 -7.27251E+01 -7.29542E+01 -7.34000E+01 -7.36465E+01 -7.37713E+01 -7.37914E+01 -7.37561E+01
  -7.37384E+01 -7.37651E+01 -7.37599E+01 -7.36159E+01 -7.33189E+01 -7.29189E+01 -7.23780E+01 -7.19779E+01 -7.20388E+01 -7.25335E+01
  -7.30826E+01 -7.30795E+01 -7.24842E+01 -7.16528E+01 -7.09216E+01 -7.04378E+01 -7.02392E+01 -7.02828E+01 -7.05451E+01 -7.08224E+01
  -7.08325E+01 -7.06757E+01 -7.06265E+01 -7.10431E+01 -7.16280E+01 -7.18564E+01 -7.14030E+01 -7.07435E+01 -7.04186E+01 -7.02310E+01
  -6.99007E+01 -6.95732E+01 -6.94539E+01 -6.96489E+01 -7.01461E+01 -7.03350E+01 -6.97366E+01 -6.80752E+01 -6.56739E+01 -6.32875E+01
  -6.14047E+01 -6.03455E+01 -6.04127E+01 -6.15662E+01 -6.33985E+01 -6.51433E+01 -6.60396E+01 -6.59461E+01 -6.51877E+01 -6.40094E+01
  -6.23612E+01 -6.04479E+01 -5.86074E+01 -5.72464E+01 -5.66547E+01 -5.67151E+01 -5.77817E+01 -5.98394E+01 -6.21245E+01 -6.38942E+01
  -6.50529E+01 -6.56519E+01 -6.49156E+01 -6.22649E+01 -5.88154E+01 -5.62121E+01 -5.48501E+01 -5.44971E+01 -5.53792E+01 -5.78346E+01
  -6.12509E+01 -6.37941E+01 -6.44750E+01 -6.35853E+01 -6.17901E+01 -5.95087E+01 -5.70830E+01 -5.56721E+01 -5.59162E+01 -5.70868E+01
  -5.80487E+01 -5.83547E+01 -5.82123E+01 -5.73224E+01 -5.55636E+01 -5.36534E+01 -5.27184E+01 -5.28873E+01 -5.35218E+01 -5.47203E+01
  -5.66354E+01 -5.85042E+01 -5.90967E+01 -5.84900E+01 -5.73355E+01 -5.60221E+01 -5.46032E+01 -5.34346E+01 -5.30957E+01 -5.33668E+01
  -5.37109E+01 -5.37903E+01 -5.35387E+01 -5.30269E+01 -5.27704E+01 -5.50148E+01 -5.60633E+01 -4.47297E+01 -2.25228E+01 -1.02371E-01
   1.14088E+01  1.29177E+01  8.37795E+00 -2.90995E+00 -2.00540E+01 -3.52920E+01 -4.43238E+01 -4.97673E+01 -5.15198E+01 -5.21042E+01
  -5.23441E+01 -5.23546E+01 -5.20893E+01 -5.16238E+01 -5.10619E+01 -5.05155E+01 -5.00607E+01 -4.97846E+01 -4.96691E+01 -4.96567E+01
  -4.96929E+01 -4.97020E+01 -4.96255E+01 -4.94391E+01 -4.91421E+01 -4.87705E+01 -4.83586E+01 -4.79034E+01 -4.74222E+01 -4.69249E+01
  -4.63986E+01 -4.58222E+01 -4.51884E+01 -4.44879E+01 -4.37079E+01 -4.28438E+01 -4.19019E+01 -4.08890E+01 -3.98180E+01 -3.87138E+01
  -3.75975E+01 -3.64958E+01 -3.54380E+01 -3.44549E+01 -3.35760E+01 -3.28279E+01 -3.22327E+01 -3.18072E+01 -3.15608E+01 -3.14959E+01
  -3.16077E+01 -3.18834E+01 -3.23035E+01 -3.28430E+01 -3.34737E+01 -3.41655E+01 -3.48882E+01 -3.56124E+01 -3.63114E+01 -3.69625E+01
  -3.75488E+01 -3.80626E+01 -3.84850E+01 -3.86330E+01 -3.85182E+01 -3.84407E+01 -3.86614E+01 -3.91576E+01 -3.97058E+01 -4.02286E+01
  -4.08359E+01 -4.13703E+01 -4.13968E+01 -4.08644E+01 -3.99982E+01 -3.91338E+01 -3.84177E+01 -3.78236E+01 -3.74158E+01 -3.72494E+01
  -3.71691E+01 -3.70384E+01 -3.68130E+01 -3.60425E+01 -3.46825E+01 -3.33832E+01 -3.27402E+01 -3.27485E+01 -3.28964E+01 -3.30219E+01
  -3.34125E+01 -3.35222E+01 -3.25090E+01 -3.04864E+01 -2.82545E+01 -2.65114E+01 -2.54886E+01 -2.51527E+01 -2.56321E+01 -2.68560E+01
  -2.83148E+01 -2.97545E+01 -3.10210E+01 -3.20276E+01 -3.28131E+01 -3.33990E+01 -3.38077E+01 -3.40674E+01 -3.42088E+01 -3.42616E+01
  -3.42515E+01 -3.41990E+01 -3.41189E+01 -3.40212E+01 -3.39121E+01 -3.37953E+01 -3.36728E+01 -3.35456E+01 -3.34137E+01 -3.32765E+01
  -3.31336E+01 -3.29842E+01 -3.28279E+01 -3.26639E+01 -3.24916E+01 -3.23101E+01 -3.21189E+01 -3.19176E+01 -3.17064E+01 -3.14853E+01
  -3.12547E+01 -3.10151E+01 -3.07681E+01 -3.05156E+01 -3.02598E+01 -3.00035E+01 -2.97497E+01 -2.95020E+01 -2.92643E+01 -2.90407E+01
  -2.88353E+01 -2.86517E+01 -2.84932E+01 -2.83626E+01 -2.82623E+01 -2.81938E+01 -2.81576E+01 -2.81529E+01 -2.81785E+01 -2.82323E+01
  -2.83114E+01 -2.84126E+01 -2.85317E+01 -2.86646E+01 -2.88073E+01 -2.89558E+01 -2.91067E+01 -2.92566E+01 -2.94025E+01 -2.95421E+01
  -2.96736E+01 -2.97959E+01 -2.99083E+01 -3.00103E+01 -3.01018E+01 -3.01829E+01 -3.02544E+01 -3.03169E+01 -3.03712E+01 -3.04181E+01
  -3.04581E+01 -3.04921E+01 -3.05211E+01 -3.05458E+01 -3.05667E+01 -3.05842E+01 -3.05989E+01 -3.06111E+01 -3.06215E+01 -3.06304E+01
  -3.06379E+01 -3.06440E+01 -3.06491E+01 -3.06533E+01 -3.06570E+01 -3.06600E+01 -3.06624E+01 -3.06642E+01 -3.06655E+01 -3.06665E+01
  -3.06671E+01 -3.06674E+01 -3.06672E+01 -3.06664E+01 -3.06653E+01 -3.06639E+01 -3.06623E+01 -3.06603E+01 -3.06579E+01 -3.06551E+01
  -3.06520E+01 -3.06488E+01 -3.06453E+01 -3.06414E+01 -3.06370E+01 -3.06323E+01 -3.06274E+01 -3.06222E+01 -3.06167E+01 -3.06106E+01
  -3.06042E+01 -3.05974E+01 -3.05904E+01 -3.05830E+01 -3.05750E+01 -3.05666E+01 -3.05577E+01 -3.05484E+01 -3.05387E+01 -3.05285E+01
  -3.05178E+01 -3.05064E+01 -3.04945E+01 -3.04822E+01 -3.04693E+01 -3.04558E+01 -3.04416E+01 -3.04267E+01 -3.04112E+01 -3.03952E+01
  -3.03785E+01 -3.03609E+01 -3.03425E+01 -3.03233E+01 -3.03035E+01 -3.02829E+01 -3.02614E+01 -3.02389E+01
 NY background values follow
    -1.870E+02   -1.857E+02   -1.844E+02   -1.830E+02   -1.817E+02   -1.803E+02   -1.790E+02   -1.776E+02   -1.763E+02   -1.750E+02
    -1.736E+02   -1.723E+02   -1.710E+02   -1.697E+02   -1.683E+02   -1.670E+02   -1.657E+02   -1.644E+02   -1.631E+02   -1.618E+02
    -1.605E+02   -1.593E+02   -1.580E+02   -1.567E+02   -1.555E+02   -1.542E+02   -1.530E+02   -1.517E+02   -1.505E+02   -1.493E+02
    -1.480E+02   -1.468E+02   -1.457E+02   -1.445E+02   -1.433E+02   -1.421E+02   -1.410E+02   -1.398E+02   -1.387E+02   -1.376E+02
    -1.365E+02   -1.354E+02   -1.343E+02   -1.332E+02   -1.322E+02   -1.311E+02   -1.301E+02   -1.291E+02   -1.281E+02   -1.271E+02
    -1.261E+02   -1.251E+02   -1.242E+02   -1.233E+02   -1.223E+02   -1.214E+02   -1.205E+02   -1.196E+02   -1.188E+02   -1.179E+02
    -1.170E+02   -1.162E+02   -1.154E+02   -1.146E+02   -1.138E+02   -1.130E+02   -1.122E+02   -1.114E+02   -1.107E+02   -1.099E+02
    -1.092E+02   -1.085E+02   -1.077E+02   -1.070E+02   -1.063E+02   -1.057E+02   -1.050E+02   -1.043E+02   -1.037E+02   -1.030E+02
    -1.024E+02   -1.018E+02   -1.012E+02   -1.006E+02   -9.995E+01   -9.937E+01   -9.879E+01   -9.822E+01   -9.766E+01   -9.711E+01
    -9.656E+01   -9.603E+01   -9.550E+01   -9.498E+01   -9.447E+01   -9.396E+01   -9.347E+01   -9.298E+01   -9.250E+01   -9.202E+01
    -9.156E+01   -9.110E+01   -9.064E+01   -9.020E+01   -8.976E+01   -8.932E+01   -8.890E+01   -8.848E+01   -8.806E+01   -8.765E+01
    -8.725E+01   -8.685E+01   -8.646E+01   -8.607E+01   -8.569E+01   -8.531E+01   -8.494E+01   -8.457E+01   -8.421E+01   -8.385E+01
    -8.350E+01   -8.315E+01   -8.280E+01   -8.246E+01   -8.213E+01   -8.179E+01   -8.146E+01   -8.113E+01   -8.081E+01   -8.049E+01
    -8.017E+01   -7.986E+01   -7.955E+01   -7.924E+01   -7.893E+01   -7.863E+01   -7.832E+01   -7.802E+01   -7.772E+01   -7.743E+01
    -7.713E+01   -7.684E+01   -7.655E+01   -7.627E+01   -7.598E+01   -7.570E+01   -7.542E+01   -7.514E+01   -7.486E+01   -7.458E+01
    -7.431E+01   -7.404E+01   -7.377E+01   -7.350E+01   -7.324E+01   -7.298E+01   -7.272E+01   -7.246E+01   -7.220E+01   -7.195E+01
    -7.169E+01   -7.144E+01   -7.120E+01   -7.095E+01   -7.071E+01   -7.046E+01   -7.022E+01   -6.999E+01   -6.975E+01   -6.952E+01
    -6.928E+01   -6.905E+01   -6.883E+01   -6.860E+01   -6.838E+01   -6.816E+01   -6.794E+01   -6.772E+01   -6.750E+01   -6.729E+01
    -6.708E+01   -6.687E+01   -6.666E+01   -6.646E+01   -6.625E+01   -6.605E+01   -6.585E+01   -6.565E+01   -6.546E+01   -6.526E+01
    -6.507E+01   -6.488E+01   -6.469E+01   -6.450E+01   -6.432E+01   -6.414E+01   -6.395E+01   -6.377E+01   -6.359E+01   -6.342E+01
    -6.324E+01   -6.307E+01   -6.289E+01   -6.272E+01   -6.255E+01   -6.238E+01   -6.222E+01   -6.205E+01   -6.189E+01   -6.172E+01
    -6.156E+01   -6.140E+01   -6.124E+01   -6.108E+01   -6.092E+01   -6.077E+01   -6.061E+01   -6.046E+01   -6.031E+01   -6.015E+01
    -6.000E+01   -5.985E+01   -5.970E+01   -5.956E+01   -5.941E+01   -5.926E+01   -5.912E+01   -5.897E+01   -5.883E+01   -5.868E+01
    -5.854E+01   -5.840E+01   -5.826E+01   -5.811E+01   -5.797E+01   -5.783E+01   -5.769E+01   -5.755E+01   -5.741E+01   -5.727E+01
    -5.712E+01   -5.698E+01   -5.684E+01   -5.670E+01   -5.655E+01   -5.641E+01   -5.626E+01   -5.612E+01   -5.597E+01   -5.583E+01
    -5.568E+01   -5.553E+01   -5.538E+01   -5.522E+01   -5.507E+01   -5.492E+01   -5.476E+01   -5.460E+01   -5.444E+01   -5.428E+01
    -5.412E+01   -5.396E+01   -5.379E+01   -5.362E+01   -5.345E+01   -5.328E+01   -5.310E+01   -5.292E+01   -5.274E+01   -5.256E+01
    -5.238E+01   -5.219E+01   -5.200E+01   -5.181E+01   -5.161E+01   -5.141E+01   -5.121E+01   -5.101E+01   -5.081E+01   -5.060E+01
    -5.039E+01   -5.018E+01   -4.997E+01   -4.976E+01   -4.954E+01   -4.933E+01   -4.911E+01   -4.890E+01   -4.868E+01   -4.846E+01
    -4.824E+01   -4.802E+01   -4.780E+01   -4.758E+01   -4.736E+01   -4.714E+01   -4.692E+01   -4.670E+01   -4.648E+01   -4.626E+01
    -4.604E+01   -4.582E+01   -4.560E+01   -4.538E+01   -4.517E+01   -4.495E+01   -4.474E+01   -4.453E+01   -4.432E+01   -4.411E+01
    -4.390E+01   -4.369E+01   -4.349E+01   -4.329E+01   -4.309E+01   -4.289E+01   -4.270E+01   -4.251E+01   -4.232E+01   -4.213E+01
    -4.195E+01   -4.177E+01   -4.159E+01   -4.141E+01   -4.123E+01   -4.106E+01   -4.089E+01   -4.072E+01   -4.056E+01   -4.039E+01
    -4.023E+01   -4.007E+01   -3.991E+01   -3.975E+01   -3.960E+01   -3.945E+01   -3.930E+01   -3.915E+01   -3.900E+01   -3.885E+01
    -3.871E+01   -3.856E+01   -3.842E+01   -3.828E+01   -3.814E+01   -3.801E+01   -3.787E+01   -3.773E+01   -3.760E+01   -3.747E+01
    -3.733E+01   -3.720E+01   -3.707E+01   -3.695E+01   -3.682E+01   -3.669E+01   -3.656E+01   -3.644E+01   -3.631E+01   -3.619E+01
    -3.607E+01   -3.594E+01   -3.582E+01   -3.570E+01   -3.558E+01   -3.546E+01   -3.534E+01   -3.522E+01   -3.510E+01   -3.498E+01
    -3.486E+01   -3.475E+01   -3.463E+01   -3.452E+01   -3.441E+01   -3.429E+01   -3.418E+01   -3.407E+01   -3.396E+01   -3.386E+01
    -3.375E+01   -3.364E+01   -3.354E+01   -3.344E+01   -3.334E+01   -3.324E+01   -3.314E+01   -3.304E+01   -3.295E+01   -3.285E+01
    -3.276E+01   -3.267E+01   -3.258E+01   -3.249E+01   -3.241E+01   -3.232E+01   -3.224E+01   -3.216E+01   -3.209E+01   -3.201E+01
    -3.194E+01   -3.186E+01   -3.180E+01   -3.173E+01   -3.166E+01   -3.160E+01   -3.154E+01   -3.148E+01   -3.142E+01   -3.137E+01
    -3.132E+01   -3.127E+01   -3.122E+01   -3.118E+01   -3.113E+01   -3.109E+01   -3.105E+01   -3.102E+01   -3.098E+01   -3.095E+01
    -3.091E+01   -3.088E+01   -3.085E+01   -3.083E+01   -3.080E+01   -3.077E+01   -3.075E+01   -3.073E+01   -3.071E+01   -3.069E+01
    -3.067E+01   -3.065E+01   -3.064E+01   -3.062E+01   -3.061E+01   -3.060E+01   -3.058E+01   -3.057E+01   -3.056E+01   -3.055E+01
    -3.054E+01   -3.054E+01   -3.053E+01   -3.052E+01   -3.051E+01   -3.051E+01   -3.050E+01   -3.050E+01   -3.049E+01   -3.048E+01
    -3.048E+01   -3.047E+01   -3.047E+01   -3.046E+01   -3.046E+01   -3.045E+01   -3.045E+01   -3.045E+01   -3.044E+01   -3.044E+01
    -3.043E+01   -3.042E+01   -3.042E+01   -3.041E+01   -3.041E+01   -3.040E+01   -3.040E+01   -3.039E+01   -3.038E+01   -3.038E+01
    -3.037E+01   -3.036E+01   -3.035E+01   -3.035E+01   -3.034E+01   -3.033E+01   -3.032E+01   -3.031E+01   -3.030E+01   -3.029E+01
    -3.028E+01   -3.027E+01   -3.026E+01   -3.025E+01   -3.024E+01   -3.022E+01   -3.021E+01   -3.020E+01   -3.018E+01   -3.017E+01
    -3.015E+01   -3.013E+01   -3.012E+01   -3.010E+01   -3.008E+01   -3.006E+01   -3.004E+01   -3.002E+01
 Ala      Conc. = 7.96E+01
