 LCModel (Version 6.3-1L) Copyright: S.W. Provencher.          Ref.: Magn. Reson. Med. 30:672-679 (1993).                
 Slice#1 Row#7 Col#6  PD_24_press_2_raw_act
 36 lines in following concentration table = NCONC+1
    Conc.  %SD /Cr+PCr  Metabolite                                         
    0.000 999%   0.000 Ala                                                 
  258.430  84%   0.219 Asp                                                 
  388.618 104%   0.329 Cr                                                  
  793.741  52%   0.671 PCr                                                 
   67.272 197% 5.7E-02 GABA                                                
   81.221 163% 6.9E-02 Glc                                                 
  862.573  53%   0.730 Gln                                                 
 1.36E+03  38%   1.147 Glu                                                 
   80.277 361% 6.8E-02 GPC                                                 
  337.202  85%   0.285 PCh                                                 
  344.866  43%   0.292 GSH                                                 
  597.509  80%   0.505 Ins                                                 
   33.446 757% 2.8E-02 Lac                                                 
 1.83E+03   7%   1.544 NAA                                                 
    0.000 999%   0.000 NAAG                                                
   57.741  63% 4.9E-02 Scyllo                                              
  220.481  95%   0.186 Tau                                                 
  243.726  78%   0.206 -CrCH2                                              
  417.478  10%   0.353 GPC+PCh                                             
 1.83E+03   7%   1.544 NAA+NAAG                                            
 1.18E+03   9%   1.000 Cr+PCr                                              
 2.22E+03  32%   1.876 Glu+Gln                                             
 3.99E+03  18%   3.376 Lip13a                                              
    0.000 999%   0.000 Lip13b                                              
 1.10E+03  40%   0.934 Lip09                                               
 1.55E+03  30%   1.314 MM09                                                
  661.071  50%   0.559 Lip20                                               
 2.46E+03  26%   2.084 MM20                                                
  271.493 117%   0.230 MM12                                                
    0.000 999%   0.000 MM14                                                
 2.70E+03  10%   2.287 MM17                                                
 3.99E+03  18%   3.376 Lip13a+Lip13b                                       
 4.26E+03  14%   3.605 MM14+Lip13a+Lip13b+MM12                             
 2.66E+03  12%   2.248 MM09+Lip09                                          
 3.13E+03  20%   2.643 MM20+Lip20                                          
   6 lines in following misc. output table
  FWHM = 0.054 ppm    S/N =   4                                            
  Data shift = 0.008 ppm                                                   
  Ph: -52 deg      -8.4 deg/ppm                                            
  alphaB,S = 8.5E+01,   1.0E+02                                            
   14 spline knots.   Ns = 6(1)                                            
   2 inflections.     1 extrema                                            
  498 points on ppm-axis = NY
      4.000000     3.992357     3.984714     3.977070     3.969427     3.961784     3.954141     3.946497     3.938854     3.931211
      3.923568     3.915925     3.908281     3.900638     3.892995     3.885352     3.877708     3.870065     3.862422     3.854779
      3.847136     3.839492     3.831849     3.824206     3.816563     3.808919     3.801276     3.793633     3.785990     3.778347
      3.770703     3.763060     3.755417     3.747774     3.740130     3.732487     3.724844     3.717201     3.709558     3.701914
      3.694271     3.686628     3.678985     3.671341     3.663698     3.656055     3.648412     3.640769     3.633125     3.625482
      3.617839     3.610196     3.602552     3.594909     3.587266     3.579623     3.571980     3.564336     3.556693     3.549050
      3.541407     3.533763     3.526120     3.518477     3.510834     3.503191     3.495547     3.487904     3.480261     3.472618
      3.464974     3.457331     3.449688     3.442045     3.434402     3.426758     3.419115     3.411472     3.403829     3.396185
      3.388542     3.380899     3.373256     3.365613     3.357969     3.350326     3.342683     3.335040     3.327396     3.319753
      3.312110     3.304467     3.296824     3.289180     3.281537     3.273894     3.266251     3.258607     3.250964     3.243321
      3.235678     3.228034     3.220391     3.212748     3.205105     3.197462     3.189818     3.182175     3.174532     3.166889
      3.159245     3.151602     3.143959     3.136316     3.128673     3.121029     3.113386     3.105743     3.098100     3.090456
      3.082813     3.075170     3.067527     3.059884     3.052240     3.044597     3.036954     3.029311     3.021667     3.014024
      3.006381     2.998738     2.991095     2.983451     2.975808     2.968165     2.960522     2.952878     2.945235     2.937592
      2.929949     2.922306     2.914662     2.907019     2.899376     2.891733     2.884089     2.876446     2.868803     2.861160
      2.853517     2.845873     2.838230     2.830587     2.822944     2.815300     2.807657     2.800014     2.792371     2.784728
      2.777084     2.769441     2.761798     2.754155     2.746511     2.738868     2.731225     2.723582     2.715939     2.708295
      2.700652     2.693009     2.685366     2.677722     2.670079     2.662436     2.654793     2.647150     2.639506     2.631863
      2.624220     2.616577     2.608933     2.601290     2.593647     2.586004     2.578361     2.570717     2.563074     2.555431
      2.547788     2.540144     2.532501     2.524858     2.517215     2.509572     2.501928     2.494285     2.486642     2.478999
      2.471355     2.463712     2.456069     2.448426     2.440783     2.433139     2.425496     2.417853     2.410210     2.402566
      2.394923     2.387280     2.379637     2.371994     2.364350     2.356707     2.349064     2.341421     2.333777     2.326134
      2.318491     2.310848     2.303205     2.295561     2.287918     2.280275     2.272632     2.264988     2.257345     2.249702
      2.242059     2.234416     2.226772     2.219129     2.211486     2.203843     2.196199     2.188556     2.180913     2.173270
      2.165627     2.157983     2.150340     2.142697     2.135054     2.127410     2.119767     2.112124     2.104481     2.096838
      2.089194     2.081551     2.073908     2.066265     2.058621     2.050978     2.043335     2.035692     2.028049     2.020405
      2.012762     2.005119     1.997476     1.989833     1.982190     1.974546     1.966903     1.959260     1.951617     1.943974
      1.936331     1.928688     1.921045     1.913402     1.905759     1.898115     1.890472     1.882829     1.875186     1.867543
      1.859900     1.852257     1.844614     1.836971     1.829327     1.821684     1.814041     1.806398     1.798755     1.791112
      1.783469     1.775826     1.768183     1.760540     1.752896     1.745253     1.737610     1.729967     1.722324     1.714681
      1.707038     1.699395     1.691752     1.684108     1.676465     1.668822     1.661179     1.653536     1.645893     1.638250
      1.630607     1.622964     1.615321     1.607677     1.600034     1.592391     1.584748     1.577105     1.569462     1.561819
      1.554176     1.546533     1.538890     1.531246     1.523603     1.515960     1.508317     1.500674     1.493031     1.485388
      1.477745     1.470102     1.462458     1.454815     1.447172     1.439529     1.431886     1.424243     1.416600     1.408957
      1.401314     1.393671     1.386027     1.378384     1.370741     1.363098     1.355455     1.347812     1.340169     1.332526
      1.324883     1.317240     1.309596     1.301953     1.294310     1.286667     1.279024     1.271381     1.263738     1.256095
      1.248452     1.240808     1.233165     1.225522     1.217879     1.210236     1.202593     1.194950     1.187307     1.179664
      1.172021     1.164377     1.156734     1.149091     1.141448     1.133805     1.126162     1.118519     1.110876     1.103233
      1.095590     1.087946     1.080303     1.072660     1.065017     1.057374     1.049731     1.042088     1.034445     1.026802
      1.019158     1.011515     1.003872     0.996229     0.988586     0.980943     0.973300     0.965657     0.958014     0.950371
      0.942727     0.935084     0.927441     0.919798     0.912155     0.904512     0.896869     0.889226     0.881583     0.873940
      0.866296     0.858653     0.851010     0.843367     0.835724     0.828081     0.820438     0.812795     0.805152     0.797508
      0.789865     0.782222     0.774579     0.766936     0.759293     0.751650     0.744007     0.736364     0.728721     0.721077
      0.713434     0.705791     0.698148     0.690505     0.682862     0.675219     0.667576     0.659933     0.652290     0.644646
      0.637003     0.629360     0.621717     0.614074     0.606431     0.598788     0.591145     0.583502     0.575858     0.568215
      0.560572     0.552929     0.545286     0.537643     0.530000     0.522357     0.514714     0.507071     0.499427     0.491784
      0.484141     0.476498     0.468855     0.461212     0.453569     0.445925     0.438282     0.430639     0.422996     0.415353
      0.407710     0.400067     0.392424     0.384780     0.377137     0.369494     0.361851     0.354208     0.346565     0.338922
      0.331278     0.323635     0.315992     0.308349     0.300706     0.293063     0.285420     0.277777     0.270133     0.262490
      0.254847     0.247204     0.239561     0.231918     0.224275     0.216631     0.208988     0.201345
 NY phased data points follow
   2.22654E-01 -1.22570E+00 -1.19065E+01 -6.73797E+00  1.16038E+01 -2.08726E-01  2.52625E+01  4.31053E+00  1.37985E+01  5.31870E+00
   2.66728E+01  1.68354E+01  1.98232E+01  2.16987E+01  9.85308E+00  4.01550E+00  1.50145E+01 -8.77300E+00  2.14324E+00 -1.87671E+00
  -1.26342E+00 -8.75311E+00 -1.09206E+00 -3.58897E+00  1.09072E+01  6.78828E+00  7.39258E+00  7.38357E-01  2.24286E-01  9.74597E+00
   9.01274E+00  1.45768E+01  6.11354E+00  9.66041E+00  4.72295E+00 -3.88846E+00  3.74491E-01 -1.44644E-01  2.55635E+00 -1.79679E+00
   3.52108E+00  1.28771E+01  1.32811E+01 -7.49667E+00  1.30164E+01  9.35493E+00  1.93260E+01  1.14082E+01  9.46160E+00 -1.34350E+00
   2.56784E+00 -1.34069E+00 -7.14459E-01  1.26205E+00  1.50024E+01  4.83962E+00  2.93822E+00  1.58976E+00  4.13396E+00  6.56202E+00
   9.55972E+00  2.01358E+00  3.14380E+00 -1.08760E+00 -4.15925E+00 -6.34275E+00  5.81549E+00 -1.51602E+01  3.62462E+00 -3.33362E-01
  -6.17096E+00 -8.72075E+00  3.00665E+00 -2.63411E+00  1.18168E+01 -6.30183E+00  4.05107E+00 -2.29041E+00 -6.07056E-01 -5.61951E+00
   7.41864E+00 -3.80940E+00 -8.87596E+00  2.49683E+00  6.55835E+00  7.18969E-02  2.74958E+00  9.67519E+00 -2.04856E+00 -1.50721E+00
   2.89676E+00  9.82469E+00  2.41095E+00  8.84838E+00  2.54071E+00  7.71850E+00  9.39730E+00  2.42352E+00  1.37420E+00  1.79230E+01
   2.04010E+01  2.72185E+01  4.61493E+01  3.05420E+01  4.59708E+01  3.43330E+01  2.19668E+01  1.64130E+01  2.83750E+01  1.90027E+01
   2.25489E+01  1.42175E+01  8.21940E+00 -4.97938E+00  2.23253E+00 -5.74857E+00  4.00908E+00  6.80402E+00  2.64672E+00 -6.11657E+00
  -9.43437E-01 -3.44580E+00  4.45500E+00  1.13206E+01  3.10639E+01  3.29720E+01  4.51873E+01  4.34767E+01  4.51057E+01  2.68523E+01
   3.57032E+01  1.79512E+01  1.11249E+01  1.47910E+01  1.72388E+01  2.03224E+01  1.00912E+01  4.19364E+00 -7.19753E+00 -6.99107E+00
   1.22188E+01  8.08668E-01 -2.90293E+00  2.47236E-01  3.41971E+00 -8.18167E+00  8.75565E+00  2.29403E+00  1.01847E+01  1.17870E-01
   3.23234E-01 -1.64562E+01  8.90474E+00  5.60589E+00  7.67822E-01 -6.90785E+00  7.40336E+00 -4.05734E+00  2.47047E+00  8.88959E+00
  -2.39036E+00  2.25776E+00 -3.05929E+00  9.56583E+00 -5.03457E+00 -1.60437E+00  1.92848E+00 -9.87846E+00 -2.02545E+01 -1.27397E+01
   1.07406E+01 -6.98083E+00 -9.12559E+00  9.77492E+00  9.81643E+00 -3.96743E+00  4.70438E+00 -1.75454E+00 -1.19929E+01 -1.20090E+01
  -1.60755E+00 -4.61165E+00  3.86831E+00 -2.34524E-01 -7.10296E+00 -1.38050E+00 -6.60948E+00  2.08538E+01 -1.54990E+00  1.15315E+01
  -1.23171E+00  5.57414E+00  5.12549E+00  2.81332E+00 -6.34476E+00 -1.14268E+00 -2.06538E+01 -1.80725E+00  3.08151E+00 -2.77639E+00
  -2.44148E+00 -4.40535E+00  1.30462E+01  8.49004E+00  6.55373E+00  1.27211E+01  1.53396E+00  1.15558E+01 -8.04767E+00 -5.48927E+00
  -1.06114E+00 -3.34853E+00  1.80698E+00  1.38991E+00  1.94850E+01  1.93008E+01  1.14897E+01  1.17390E+01  1.86912E+01  1.08431E+01
  -2.90862E+00 -2.65488E+00  4.57127E+00 -3.69062E+00  6.25279E+00  4.77547E+00  1.25339E+01  6.39127E+00  2.39836E+00  1.32774E+01
   7.20460E+00  6.23120E+00 -1.79777E+00  5.56441E+00  9.21855E+00  1.48914E+01  6.58129E+00  4.97590E+00  1.06877E+01 -9.64716E-01
  -8.28716E-01 -1.94474E+00 -1.30464E+00 -1.65438E+00  6.57895E+00  1.17127E+01  9.97905E+00  1.79619E+01  7.89561E+00  7.10740E+00
   1.30553E+01  2.02936E+01  2.47861E+01  1.25626E+01  1.31632E+01  1.36413E+01  3.35347E+01  3.31730E+01  5.18784E+01  7.33200E+01
   9.44686E+01  6.62348E+01  5.01316E+01  4.58539E+01  3.97935E+01  3.27203E+01  2.50342E+01  9.11417E+00  1.72112E+01  2.01488E+01
   1.03487E+01  1.52418E+01  3.45391E+00  1.14805E+01  9.58412E+00  6.61510E+00 -1.50610E+00 -1.17301E+01 -5.44100E-01 -3.82300E+00
   3.45276E-01 -4.66438E+00 -3.91964E+00 -2.64995E+00  1.39209E+00 -3.78269E+00  7.73305E-01  3.03957E+00  1.04233E+01 -5.72856E+00
  -3.55007E+00  1.12757E+01 -3.20476E+00  5.85052E+00  1.58597E+00  1.23495E+00  1.94844E+01  4.94073E+00  2.01171E+01  1.36335E+01
   1.49769E+01  1.23378E+00  2.49271E+00  2.08200E+01  1.58589E+01  2.16485E+01  3.64032E+01  3.22748E+01  3.41359E+01  3.43211E+01
   1.81075E+01  3.19340E+01  2.60848E+01  3.09461E+01  1.85618E+01  1.48529E+01  1.83303E+01  1.54629E+01  1.17792E+01  8.85040E+00
  -6.09538E+00  7.19403E-01  4.09987E-03 -1.57005E+00 -2.84940E-02 -1.72255E+01 -3.36865E+00 -3.72379E+00  1.86021E+00  1.25193E+00
  -2.64112E+00 -3.63843E+00  1.66057E+01 -7.40540E-01  9.82712E+00 -3.65445E+00 -7.48429E+00  2.31311E+01  1.15639E+01  1.18296E+01
   1.90990E+01  2.24474E+01  8.71212E+00  1.96167E+01  3.40924E+01  1.77016E+01  2.84659E+01  2.23105E+01  3.69935E+01  2.43374E+01
   2.01346E+01  1.99971E+01  2.19936E+01  1.66989E+01  2.31783E+01  1.48009E+01  7.91013E+00  1.65384E+01  1.54843E+01  1.52193E+01
   3.42216E-01  1.55582E+01  1.45541E+01  2.80209E+00  1.38775E+01  1.95658E+01  1.80943E+01  2.13798E+01  2.28760E+00  6.46571E+00
   1.44584E+01  4.31902E-01  5.95356E+00  1.97298E+00  2.03724E+00 -2.86407E-01  3.72920E+00 -3.66093E+00 -1.12331E+00  2.60297E+00
  -4.83465E+00  7.94073E+00  1.24330E+01 -7.48962E+00 -6.15455E-01  7.88053E+00  1.38605E+01  3.67827E+00 -6.78562E+00 -9.71266E+00
   1.04819E+01 -2.39595E-01  7.14917E+00  4.31058E+00  8.66925E+00  7.26414E+00  5.83623E+00  8.28730E+00  2.48720E+01  2.54426E+01
   1.41526E+01  1.54632E+01  1.39616E+01  1.15700E+01  2.79689E+01  1.22748E+01  1.63242E+01  2.35107E+01  1.89259E+01  2.66030E+01
   8.46170E+00  1.02897E+01  1.67443E+01  1.64760E+01  2.76731E+01  1.71954E+01  2.49676E+01  3.64853E+00  1.72710E+01  2.40781E+00
   3.81324E+00  2.37802E+00  7.36649E+00  8.34263E+00  4.48388E+00  1.78829E+00  4.53984E+00  2.06752E+00  8.75155E+00 -6.50749E+00
  -3.45406E+00  5.04629E+00  8.61998E+00 -1.27258E+01  7.94178E+00 -2.25100E+00  3.62452E+00  8.41959E-01 -5.00670E+00 -1.24325E+01
  -1.32799E+01  2.51782E+00 -1.40831E+01  8.18791E+00  4.72336E+00  1.63155E+00 -9.33080E+00  1.03268E+00 -9.85556E+00  3.15854E+00
  -1.44278E+01 -6.80036E+00  5.75392E+00 -8.92848E-01  3.85612E+00  7.20881E+00 -9.69603E+00  9.72588E+00 -8.34143E+00  1.04835E+01
  -2.62685E+00 -1.65996E+01 -7.29878E-01 -5.79684E+00 -4.31089E+00 -3.27645E+00 -4.26365E+00  7.74747E-01  1.99802E+00  6.07807E-01
   5.84629E+00  9.34870E+00 -1.90212E+00 -1.01165E+01 -3.45830E+00 -4.11581E+00 -6.20113E+00 -7.29716E+00 -2.96455E+00  7.32005E+00
  -2.44558E+00  7.31770E+00 -7.59306E-01  2.49010E+00 -6.74899E+00  5.11659E+00  6.50159E+00 -1.00101E+00  6.46475E-01 -2.01436E+01
  -1.22234E+01 -1.40752E+01 -5.66883E+00  2.85023E+00 -8.35038E+00 -7.57845E+00 -3.61674E+00  2.13155E+00
 NY points of the fit to the data follow
   2.10812E-01 -2.69337E-02 -9.81020E-02  3.07118E-01  1.59262E+00  3.95617E+00  7.41964E+00  1.15542E+01  1.55377E+01  1.84658E+01
   1.97433E+01  1.92908E+01  1.74828E+01  1.48887E+01  1.19955E+01  9.09567E+00  6.43643E+00  4.43119E+00  3.13137E+00  2.48491E+00
   2.44197E+00  2.57930E+00  2.57887E+00  2.32728E+00  2.07475E+00  2.14801E+00  2.84069E+00  4.36333E+00  6.61533E+00  9.14420E+00
   1.12618E+01  1.23794E+01  1.22341E+01  1.09462E+01  8.85994E+00  6.42545E+00  4.05421E+00  2.21402E+00  1.26877E+00  9.75561E-01
   1.08607E+00  1.50775E+00  2.20316E+00  3.16028E+00  4.22978E+00  5.20912E+00  5.80534E+00  5.82356E+00  5.31194E+00  4.46384E+00
   3.53155E+00  2.69482E+00  2.00512E+00  1.45013E+00  1.07457E+00  1.00273E+00  1.25234E+00  1.66672E+00  2.07256E+00  2.32769E+00
   2.36095E+00  2.20258E+00  1.92033E+00  1.62172E+00  1.38599E+00  1.22284E+00  1.12688E+00  1.11872E+00  1.19400E+00  1.34750E+00
   1.59096E+00  1.88548E+00  2.16905E+00  2.37411E+00  2.43957E+00  2.32511E+00  2.02978E+00  1.64197E+00  1.25356E+00  9.69432E-01
   9.31714E-01  1.18621E+00  1.64612E+00  2.19977E+00  2.69664E+00  2.93663E+00  2.81881E+00  2.39330E+00  1.81140E+00  1.23363E+00
   7.44339E-01  3.18401E-01 -7.72253E-02 -3.71669E-01 -4.29327E-01 -2.53198E-01  1.75985E-01  1.58012E+00  5.26129E+00  1.16954E+01
   2.02874E+01  2.94937E+01  3.71082E+01  4.10495E+01  4.05064E+01  3.63535E+01  3.03975E+01  2.41366E+01  1.81376E+01  1.24782E+01
   7.47262E+00  4.09035E+00  2.73107E+00  2.20295E+00  1.90086E+00  1.68478E+00  1.52672E+00  1.40706E+00  1.33901E+00  1.40221E+00
   1.95842E+00  4.22627E+00  9.21373E+00  1.68012E+01  2.58893E+01  3.45780E+01  4.06214E+01  4.24852E+01  4.02583E+01  3.53993E+01
   2.95697E+01  2.36641E+01  1.78034E+01  1.20270E+01  7.04701E+00  4.16840E+00  2.98418E+00  2.53625E+00  2.52614E+00  2.75239E+00
   3.05557E+00  3.35818E+00  3.60307E+00  3.71113E+00  3.66993E+00  3.48661E+00  3.16940E+00  2.78402E+00  2.40108E+00  2.06149E+00
   1.78293E+00  1.54273E+00  1.35104E+00  1.21790E+00  1.13148E+00  1.00817E+00  7.55873E-01  3.59164E-01 -1.32041E-01 -5.79505E-01
  -8.40254E-01 -8.50428E-01 -6.55071E-01 -3.92472E-01 -2.09721E-01 -1.83966E-01 -2.93554E-01 -4.68601E-01 -6.81116E-01 -9.74173E-01
  -1.37501E+00 -1.87934E+00 -2.41416E+00 -2.85710E+00 -3.16496E+00 -3.33322E+00 -3.37296E+00 -3.34300E+00 -3.31986E+00 -3.33869E+00
  -3.36612E+00 -3.36424E+00 -3.33058E+00 -3.27072E+00 -3.17603E+00 -2.91570E+00 -2.27250E+00 -1.25618E+00 -1.03035E-01  8.51533E-01
   1.38865E+00  1.48329E+00  1.19214E+00  6.37115E-01 -4.15525E-02 -6.86328E-01 -1.04961E+00 -8.89067E-01 -1.08972E-01  1.24566E+00
   2.95371E+00  4.63885E+00  5.91373E+00  6.47392E+00  5.98186E+00  4.36170E+00  1.89313E+00 -8.77407E-01 -3.30494E+00 -4.74113E+00
  -4.68316E+00 -3.07567E+00 -3.28360E-01  2.89919E+00  5.85994E+00  7.83094E+00  8.28773E+00  7.07316E+00  4.47927E+00  1.45005E+00
  -1.14206E+00 -2.79485E+00 -3.14135E+00 -2.11166E+00 -8.72080E-03  2.40015E+00  4.42311E+00  5.85240E+00  6.71922E+00  7.08105E+00
   6.93318E+00  6.49353E+00  6.19672E+00  6.27828E+00  6.68549E+00  7.37818E+00  8.25171E+00  9.00287E+00  9.34233E+00  9.14572E+00
   8.54848E+00  7.86841E+00  7.40536E+00  7.29655E+00  7.49071E+00  7.95667E+00  8.57531E+00  9.21126E+00  9.87117E+00  1.06325E+01
   1.14749E+01  1.22574E+01  1.30257E+01  1.39920E+01  1.63996E+01  2.22538E+01  3.20789E+01  4.47486E+01  5.77872E+01  6.78235E+01
   7.18354E+01  6.89738E+01  6.09858E+01  5.07657E+01  4.04569E+01  3.07884E+01  2.17600E+01  1.38412E+01  8.68694E+00  6.69369E+00
   5.78078E+00  5.24341E+00  4.95107E+00  4.78746E+00  4.63622E+00  4.46030E+00  4.23150E+00  3.94459E+00  3.61319E+00  3.26225E+00
   2.91625E+00  2.61577E+00  2.39489E+00  2.25833E+00  2.20093E+00  2.21940E+00  2.31076E+00  2.47763E+00  2.72518E+00  3.06010E+00
   3.49966E+00  4.05989E+00  4.75392E+00  5.59456E+00  6.59030E+00  7.74118E+00  9.03855E+00  1.04673E+01  1.20044E+01  1.36167E+01
   1.52630E+01  1.68960E+01  1.84623E+01  1.99062E+01  2.11730E+01  2.22123E+01  2.29809E+01  2.34462E+01  2.35874E+01  2.33975E+01
   2.28841E+01  2.20692E+01  2.09872E+01  1.96823E+01  1.82064E+01  1.66151E+01  1.49650E+01  1.33105E+01  1.17011E+01  1.01793E+01
   8.77932E+00  7.52672E+00  6.43839E+00  5.52352E+00  4.78444E+00  4.21813E+00  3.81759E+00  3.57356E+00  3.47566E+00  3.51368E+00
   3.67806E+00  3.96052E+00  4.35420E+00  4.85379E+00  5.45512E+00  6.15485E+00  6.94963E+00  7.83576E+00  8.80855E+00  9.86242E+00
   1.09916E+01  1.21923E+01  1.34470E+01  1.47165E+01  1.59528E+01  1.71074E+01  1.81399E+01  1.90281E+01  1.97721E+01  2.03955E+01
   2.09207E+01  2.13483E+01  2.16621E+01  2.18380E+01  2.18487E+01  2.16672E+01  2.12628E+01  2.06313E+01  1.98092E+01  1.88373E+01
   1.77494E+01  1.65745E+01  1.53460E+01  1.41123E+01  1.29026E+01  1.17291E+01  1.06060E+01  9.54629E+00  8.56046E+00  7.65594E+00
   6.83716E+00  6.10609E+00  5.46254E+00  4.90480E+00  4.42993E+00  4.03438E+00  3.71417E+00  3.46551E+00  3.28492E+00  3.16958E+00
   3.11730E+00  3.12682E+00  3.19761E+00  3.33015E+00  3.52565E+00  3.78609E+00  4.11387E+00  4.51168E+00  4.98211E+00  5.52744E+00
   6.14905E+00  6.84712E+00  7.61992E+00  8.46351E+00  9.37119E+00  1.03333E+01  1.13368E+01  1.23655E+01  1.33996E+01  1.44170E+01
   1.53931E+01  1.63020E+01  1.71177E+01  1.78150E+01  1.83708E+01  1.87653E+01  1.89834E+01  1.90151E+01  1.88563E+01  1.85094E+01
   1.79826E+01  1.72898E+01  1.64499E+01  1.54858E+01  1.44229E+01  1.32880E+01  1.21082E+01  1.09096E+01  9.71600E+00  8.54878E+00
   7.42569E+00  6.36094E+00  5.36499E+00  4.44481E+00  3.60407E+00  2.84366E+00  2.16202E+00  1.55586E+00  1.02046E+00  5.50358E-01
   1.39491E-01 -2.18274E-01 -5.29074E-01 -7.98649E-01 -1.03240E+00 -1.23512E+00 -1.41120E+00 -1.56443E+00 -1.69819E+00 -1.81531E+00
  -1.91825E+00 -2.00901E+00 -2.08941E+00 -2.16089E+00 -2.22476E+00 -2.28201E+00 -2.33355E+00 -2.38008E+00 -2.42228E+00 -2.46066E+00
  -2.49573E+00 -2.52782E+00 -2.55728E+00 -2.58437E+00 -2.60938E+00 -2.63252E+00 -2.65400E+00 -2.67394E+00 -2.69252E+00 -2.70982E+00
  -2.72603E+00 -2.74121E+00 -2.75547E+00 -2.76884E+00 -2.78142E+00 -2.79326E+00 -2.80447E+00 -2.81506E+00 -2.82509E+00 -2.83457E+00
  -2.84356E+00 -2.85208E+00 -2.86021E+00 -2.86792E+00 -2.87527E+00 -2.88221E+00 -2.88884E+00 -2.89514E+00 -2.90119E+00 -2.90692E+00
  -2.91238E+00 -2.91754E+00 -2.92247E+00 -2.92714E+00 -2.93160E+00 -2.93579E+00 -2.93974E+00 -2.94343E+00 -2.94691E+00 -2.95015E+00
  -2.95316E+00 -2.95589E+00 -2.95837E+00 -2.96055E+00 -2.96249E+00 -2.96411E+00 -2.96542E+00 -2.96634E+00
 NY background values follow
     2.305E-01    2.257E-01    2.209E-01    2.160E-01    2.112E-01    2.063E-01    2.015E-01    1.966E-01    1.918E-01    1.869E-01
     1.821E-01    1.772E-01    1.723E-01    1.675E-01    1.626E-01    1.578E-01    1.529E-01    1.480E-01    1.432E-01    1.383E-01
     1.335E-01    1.286E-01    1.237E-01    1.189E-01    1.140E-01    1.091E-01    1.042E-01    9.936E-02    9.449E-02    8.961E-02
     8.474E-02    7.986E-02    7.498E-02    7.010E-02    6.522E-02    6.034E-02    5.545E-02    5.057E-02    4.568E-02    4.080E-02
     3.591E-02    3.102E-02    2.613E-02    2.124E-02    1.635E-02    1.146E-02    6.567E-03    1.673E-03   -3.222E-03   -8.118E-03
    -1.301E-02   -1.791E-02   -2.281E-02   -2.771E-02   -3.261E-02   -3.751E-02   -4.241E-02   -4.732E-02   -5.222E-02   -5.712E-02
    -6.203E-02   -6.694E-02   -7.184E-02   -7.675E-02   -8.166E-02   -8.657E-02   -9.148E-02   -9.639E-02   -1.013E-01   -1.062E-01
    -1.111E-01   -1.160E-01   -1.210E-01   -1.259E-01   -1.308E-01   -1.357E-01   -1.406E-01   -1.455E-01   -1.505E-01   -1.554E-01
    -1.603E-01   -1.652E-01   -1.701E-01   -1.751E-01   -1.800E-01   -1.849E-01   -1.898E-01   -1.948E-01   -1.997E-01   -2.046E-01
    -2.095E-01   -2.145E-01   -2.194E-01   -2.243E-01   -2.293E-01   -2.342E-01   -2.391E-01   -2.441E-01   -2.490E-01   -2.539E-01
    -2.589E-01   -2.638E-01   -2.687E-01   -2.737E-01   -2.786E-01   -2.835E-01   -2.885E-01   -2.934E-01   -2.983E-01   -3.033E-01
    -3.082E-01   -3.132E-01   -3.181E-01   -3.230E-01   -3.280E-01   -3.329E-01   -3.379E-01   -3.428E-01   -3.477E-01   -3.527E-01
    -3.576E-01   -3.626E-01   -3.675E-01   -3.725E-01   -3.774E-01   -3.823E-01   -3.873E-01   -3.922E-01   -3.972E-01   -4.021E-01
    -4.071E-01   -4.120E-01   -4.170E-01   -4.219E-01   -4.269E-01   -4.318E-01   -4.368E-01   -4.417E-01   -4.466E-01   -4.516E-01
    -4.565E-01   -4.615E-01   -4.664E-01   -4.714E-01   -4.763E-01   -4.813E-01   -4.862E-01   -4.912E-01   -4.961E-01   -5.011E-01
    -5.060E-01   -5.110E-01   -5.159E-01   -5.209E-01   -5.258E-01   -5.308E-01   -5.358E-01   -5.407E-01   -5.457E-01   -5.506E-01
    -5.556E-01   -5.605E-01   -5.655E-01   -5.704E-01   -5.754E-01   -5.803E-01   -5.853E-01   -5.902E-01   -5.952E-01   -6.001E-01
    -6.051E-01   -6.100E-01   -6.150E-01   -6.199E-01   -6.249E-01   -6.298E-01   -6.348E-01   -6.398E-01   -6.447E-01   -6.497E-01
    -6.546E-01   -6.596E-01   -6.645E-01   -6.695E-01   -6.744E-01   -6.794E-01   -6.843E-01   -6.893E-01   -6.942E-01   -6.992E-01
    -7.041E-01   -7.091E-01   -7.140E-01   -7.190E-01   -7.239E-01   -7.289E-01   -7.338E-01   -7.388E-01   -7.437E-01   -7.487E-01
    -7.536E-01   -7.586E-01   -7.635E-01   -7.685E-01   -7.734E-01   -7.784E-01   -7.833E-01   -7.883E-01   -7.932E-01   -7.982E-01
    -8.031E-01   -8.081E-01   -8.130E-01   -8.180E-01   -8.229E-01   -8.278E-01   -8.328E-01   -8.377E-01   -8.427E-01   -8.476E-01
    -8.526E-01   -8.575E-01   -8.624E-01   -8.674E-01   -8.723E-01   -8.773E-01   -8.822E-01   -8.872E-01   -8.921E-01   -8.970E-01
    -9.020E-01   -9.069E-01   -9.119E-01   -9.168E-01   -9.217E-01   -9.267E-01   -9.316E-01   -9.365E-01   -9.415E-01   -9.464E-01
    -9.513E-01   -9.563E-01   -9.612E-01   -9.661E-01   -9.711E-01   -9.760E-01   -9.809E-01   -9.859E-01   -9.908E-01   -9.957E-01
    -1.001E+00   -1.006E+00   -1.011E+00   -1.015E+00   -1.020E+00   -1.025E+00   -1.030E+00   -1.035E+00   -1.040E+00   -1.045E+00
    -1.050E+00   -1.055E+00   -1.060E+00   -1.065E+00   -1.070E+00   -1.075E+00   -1.079E+00   -1.084E+00   -1.089E+00   -1.094E+00
    -1.099E+00   -1.104E+00   -1.109E+00   -1.114E+00   -1.119E+00   -1.124E+00   -1.129E+00   -1.133E+00   -1.138E+00   -1.143E+00
    -1.148E+00   -1.153E+00   -1.158E+00   -1.163E+00   -1.168E+00   -1.173E+00   -1.178E+00   -1.183E+00   -1.187E+00   -1.192E+00
    -1.197E+00   -1.202E+00   -1.207E+00   -1.212E+00   -1.217E+00   -1.222E+00   -1.227E+00   -1.231E+00   -1.236E+00   -1.241E+00
    -1.246E+00   -1.251E+00   -1.256E+00   -1.261E+00   -1.266E+00   -1.271E+00   -1.275E+00   -1.280E+00   -1.285E+00   -1.290E+00
    -1.295E+00   -1.300E+00   -1.305E+00   -1.310E+00   -1.314E+00   -1.319E+00   -1.324E+00   -1.329E+00   -1.334E+00   -1.339E+00
    -1.344E+00   -1.349E+00   -1.353E+00   -1.358E+00   -1.363E+00   -1.368E+00   -1.373E+00   -1.378E+00   -1.383E+00   -1.387E+00
    -1.392E+00   -1.397E+00   -1.402E+00   -1.407E+00   -1.412E+00   -1.417E+00   -1.421E+00   -1.426E+00   -1.431E+00   -1.436E+00
    -1.441E+00   -1.446E+00   -1.450E+00   -1.455E+00   -1.460E+00   -1.465E+00   -1.470E+00   -1.475E+00   -1.479E+00   -1.484E+00
    -1.489E+00   -1.494E+00   -1.499E+00   -1.504E+00   -1.508E+00   -1.513E+00   -1.518E+00   -1.523E+00   -1.528E+00   -1.532E+00
    -1.537E+00   -1.542E+00   -1.547E+00   -1.552E+00   -1.557E+00   -1.561E+00   -1.566E+00   -1.571E+00   -1.576E+00   -1.581E+00
    -1.585E+00   -1.590E+00   -1.595E+00   -1.600E+00   -1.604E+00   -1.609E+00   -1.614E+00   -1.619E+00   -1.624E+00   -1.628E+00
    -1.633E+00   -1.638E+00   -1.643E+00   -1.648E+00   -1.652E+00   -1.657E+00   -1.662E+00   -1.667E+00   -1.671E+00   -1.676E+00
    -1.681E+00   -1.686E+00   -1.690E+00   -1.695E+00   -1.700E+00   -1.705E+00   -1.709E+00   -1.714E+00   -1.719E+00   -1.724E+00
    -1.729E+00   -1.733E+00   -1.738E+00   -1.743E+00   -1.747E+00   -1.752E+00   -1.757E+00   -1.762E+00   -1.766E+00   -1.771E+00
    -1.776E+00   -1.781E+00   -1.785E+00   -1.790E+00   -1.795E+00   -1.800E+00   -1.804E+00   -1.809E+00   -1.814E+00   -1.818E+00
    -1.823E+00   -1.828E+00   -1.832E+00   -1.837E+00   -1.842E+00   -1.847E+00   -1.851E+00   -1.856E+00   -1.861E+00   -1.865E+00
    -1.870E+00   -1.875E+00   -1.879E+00   -1.884E+00   -1.889E+00   -1.894E+00   -1.898E+00   -1.903E+00   -1.908E+00   -1.912E+00
    -1.917E+00   -1.922E+00   -1.926E+00   -1.931E+00   -1.936E+00   -1.940E+00   -1.945E+00   -1.950E+00   -1.954E+00   -1.959E+00
    -1.963E+00   -1.968E+00   -1.973E+00   -1.977E+00   -1.982E+00   -1.987E+00   -1.991E+00   -1.996E+00   -2.001E+00   -2.005E+00
    -2.010E+00   -2.015E+00   -2.019E+00   -2.024E+00   -2.028E+00   -2.033E+00   -2.038E+00   -2.042E+00   -2.047E+00   -2.051E+00
    -2.056E+00   -2.061E+00   -2.065E+00   -2.070E+00   -2.074E+00   -2.079E+00   -2.084E+00   -2.088E+00   -2.093E+00   -2.097E+00
    -2.102E+00   -2.107E+00   -2.111E+00   -2.116E+00   -2.120E+00   -2.125E+00   -2.129E+00   -2.134E+00   -2.139E+00   -2.143E+00
    -2.148E+00   -2.152E+00   -2.157E+00   -2.161E+00   -2.166E+00   -2.170E+00   -2.175E+00   -2.180E+00
 Asp      Conc. = 2.58E+02
