 LCModel (Version 6.3-1L) Copyright: S.W. Provencher.          Ref.: Magn. Reson. Med. 30:672-679 (1993).                
 Slice#2 Row#7 Col#3  PD_24_press_2_raw_act
 36 lines in following concentration table = NCONC+1
    Conc.  %SD /Cr+PCr  Metabolite                                         
    0.000 999%   0.000 Ala                                                 
    0.000 999%   0.000 Asp                                                 
 2.60E+03  18%   0.985 Cr                                                  
   39.337 999% 1.5E-02 PCr                                                 
  209.266 174% 7.9E-02 GABA                                                
    0.000 999%   0.000 Glc                                                 
  470.392 112%   0.178 Gln                                                 
 2.77E+03  23%   1.053 Glu                                                 
 1.35E+03   4%   0.513 GPC                                                 
    0.000 999%   0.000 PCh                                                 
  868.410  19%   0.329 GSH                                                 
 1.73E+03  35%   0.656 Ins                                                 
  148.290 193% 5.6E-02 Lac                                                 
 4.32E+03   8%   1.640 NAA                                                 
 1.14E+03  32%   0.434 NAAG                                                
  166.764  38% 6.3E-02 Scyllo                                              
    0.000 999%   0.000 Tau                                                 
  132.666 186% 5.0E-02 -CrCH2                                              
 1.35E+03   4%   0.513 GPC+PCh                                             
 5.47E+03   4%   2.074 NAA+NAAG                                            
 2.64E+03   5%   1.000 Cr+PCr                                              
 3.24E+03  27%   1.231 Glu+Gln                                             
 5.41E+03  30%   2.052 Lip13a                                              
  147.355 342% 5.6E-02 Lip13b                                              
    0.000 999%   0.000 Lip09                                               
 6.70E+03  12%   2.540 MM09                                                
 1.91E+03  34%   0.725 Lip20                                               
 1.54E+04   8%   5.848 MM20                                                
 2.40E+03  23%   0.912 MM12                                                
 5.42E+03  11%   2.055 MM14                                                
 5.43E+03  16%   2.058 MM17                                                
 5.56E+03  26%   2.108 Lip13a+Lip13b                                       
 1.34E+04   9%   5.075 MM14+Lip13a+Lip13b+MM12                             
 6.70E+03  12%   2.540 MM09+Lip09                                          
 1.73E+04   7%   6.573 MM20+Lip20                                          
   6 lines in following misc. output table
  FWHM = 0.054 ppm    S/N =  14                                            
  Data shift = 0.008 ppm                                                   
  Ph:   0 deg       5.8 deg/ppm                                            
  alphaB,S = 5.1E-01,   1.4E+02                                            
   14 spline knots.   Ns = 7(1)                                            
  (13) 4 infls.   ( 9) 1 extrs.                                            
  498 points on ppm-axis = NY
      4.000000     3.992357     3.984714     3.977070     3.969427     3.961784     3.954141     3.946497     3.938854     3.931211
      3.923568     3.915925     3.908281     3.900638     3.892995     3.885352     3.877708     3.870065     3.862422     3.854779
      3.847136     3.839492     3.831849     3.824206     3.816563     3.808919     3.801276     3.793633     3.785990     3.778347
      3.770703     3.763060     3.755417     3.747774     3.740130     3.732487     3.724844     3.717201     3.709558     3.701914
      3.694271     3.686628     3.678985     3.671341     3.663698     3.656055     3.648412     3.640769     3.633125     3.625482
      3.617839     3.610196     3.602552     3.594909     3.587266     3.579623     3.571980     3.564336     3.556693     3.549050
      3.541407     3.533763     3.526120     3.518477     3.510834     3.503191     3.495547     3.487904     3.480261     3.472618
      3.464974     3.457331     3.449688     3.442045     3.434402     3.426758     3.419115     3.411472     3.403829     3.396185
      3.388542     3.380899     3.373256     3.365613     3.357969     3.350326     3.342683     3.335040     3.327396     3.319753
      3.312110     3.304467     3.296824     3.289180     3.281537     3.273894     3.266251     3.258607     3.250964     3.243321
      3.235678     3.228034     3.220391     3.212748     3.205105     3.197462     3.189818     3.182175     3.174532     3.166889
      3.159245     3.151602     3.143959     3.136316     3.128673     3.121029     3.113386     3.105743     3.098100     3.090456
      3.082813     3.075170     3.067527     3.059884     3.052240     3.044597     3.036954     3.029311     3.021667     3.014024
      3.006381     2.998738     2.991095     2.983451     2.975808     2.968165     2.960522     2.952878     2.945235     2.937592
      2.929949     2.922306     2.914662     2.907019     2.899376     2.891733     2.884089     2.876446     2.868803     2.861160
      2.853517     2.845873     2.838230     2.830587     2.822944     2.815300     2.807657     2.800014     2.792371     2.784728
      2.777084     2.769441     2.761798     2.754155     2.746511     2.738868     2.731225     2.723582     2.715939     2.708295
      2.700652     2.693009     2.685366     2.677722     2.670079     2.662436     2.654793     2.647150     2.639506     2.631863
      2.624220     2.616577     2.608933     2.601290     2.593647     2.586004     2.578361     2.570717     2.563074     2.555431
      2.547788     2.540144     2.532501     2.524858     2.517215     2.509572     2.501928     2.494285     2.486642     2.478999
      2.471355     2.463712     2.456069     2.448426     2.440783     2.433139     2.425496     2.417853     2.410210     2.402566
      2.394923     2.387280     2.379637     2.371994     2.364350     2.356707     2.349064     2.341421     2.333777     2.326134
      2.318491     2.310848     2.303205     2.295561     2.287918     2.280275     2.272632     2.264988     2.257345     2.249702
      2.242059     2.234416     2.226772     2.219129     2.211486     2.203843     2.196199     2.188556     2.180913     2.173270
      2.165627     2.157983     2.150340     2.142697     2.135054     2.127410     2.119767     2.112124     2.104481     2.096838
      2.089194     2.081551     2.073908     2.066265     2.058621     2.050978     2.043335     2.035692     2.028049     2.020405
      2.012762     2.005119     1.997476     1.989833     1.982190     1.974546     1.966903     1.959260     1.951617     1.943974
      1.936331     1.928688     1.921045     1.913402     1.905759     1.898115     1.890472     1.882829     1.875186     1.867543
      1.859900     1.852257     1.844614     1.836971     1.829327     1.821684     1.814041     1.806398     1.798755     1.791112
      1.783469     1.775826     1.768183     1.760540     1.752896     1.745253     1.737610     1.729967     1.722324     1.714681
      1.707038     1.699395     1.691752     1.684108     1.676465     1.668822     1.661179     1.653536     1.645893     1.638250
      1.630607     1.622964     1.615321     1.607677     1.600034     1.592391     1.584748     1.577105     1.569462     1.561819
      1.554176     1.546533     1.538890     1.531246     1.523603     1.515960     1.508317     1.500674     1.493031     1.485388
      1.477745     1.470102     1.462458     1.454815     1.447172     1.439529     1.431886     1.424243     1.416600     1.408957
      1.401314     1.393671     1.386027     1.378384     1.370741     1.363098     1.355455     1.347812     1.340169     1.332526
      1.324883     1.317240     1.309596     1.301953     1.294310     1.286667     1.279024     1.271381     1.263738     1.256095
      1.248452     1.240808     1.233165     1.225522     1.217879     1.210236     1.202593     1.194950     1.187307     1.179664
      1.172021     1.164377     1.156734     1.149091     1.141448     1.133805     1.126162     1.118519     1.110876     1.103233
      1.095590     1.087946     1.080303     1.072660     1.065017     1.057374     1.049731     1.042088     1.034445     1.026802
      1.019158     1.011515     1.003872     0.996229     0.988586     0.980943     0.973300     0.965657     0.958014     0.950371
      0.942727     0.935084     0.927441     0.919798     0.912155     0.904512     0.896869     0.889226     0.881583     0.873940
      0.866296     0.858653     0.851010     0.843367     0.835724     0.828081     0.820438     0.812795     0.805152     0.797508
      0.789865     0.782222     0.774579     0.766936     0.759293     0.751650     0.744007     0.736364     0.728721     0.721077
      0.713434     0.705791     0.698148     0.690505     0.682862     0.675219     0.667576     0.659933     0.652290     0.644646
      0.637003     0.629360     0.621717     0.614074     0.606431     0.598788     0.591145     0.583502     0.575858     0.568215
      0.560572     0.552929     0.545286     0.537643     0.530000     0.522357     0.514714     0.507071     0.499427     0.491784
      0.484141     0.476498     0.468855     0.461212     0.453569     0.445925     0.438282     0.430639     0.422996     0.415353
      0.407710     0.400067     0.392424     0.384780     0.377137     0.369494     0.361851     0.354208     0.346565     0.338922
      0.331278     0.323635     0.315992     0.308349     0.300706     0.293063     0.285420     0.277777     0.270133     0.262490
      0.254847     0.247204     0.239561     0.231918     0.224275     0.216631     0.208988     0.201345
 NY phased data points follow
  -1.67601E+01 -1.89407E+00 -6.99564E+00  1.14658E+01  2.90825E-01  2.21658E+01  1.76183E+01  3.81859E+01  4.17260E+01  5.57178E+01
   5.55335E+01  6.82479E+01  6.49067E+01  6.07149E+01  4.63879E+01  4.63451E+01  2.41607E+01  2.53945E+01  1.76397E+01  2.04714E+01
   1.82127E+01  2.49156E+01  1.42049E+01  1.46449E+01  7.72126E+00  8.95515E+00  1.99082E+01  9.63376E+00  1.27558E+01  2.50282E+01
   1.90110E+01  2.75024E+01  2.60407E+01  2.38594E+01  1.02419E+01  2.01808E+01  8.64770E+00  2.09984E+01  1.22375E+01  1.91962E+01
   8.56626E+00  1.67913E+01  2.03689E+01  1.89737E+01  1.89131E+01  2.10803E+01  2.13351E+01  2.27455E+01  1.91558E+01  2.25864E+01
   2.49596E+01  2.30881E+01  1.28865E+01  1.18724E+01  6.47866E+00  8.67257E+00  4.02532E+00  1.12094E+01  1.29906E+01  1.49465E+00
  -4.58534E+00  2.15024E+00 -1.43437E+00 -1.12859E+00 -8.41093E+00 -8.96866E+00 -5.82094E+00 -8.27953E+00 -1.03073E+01 -1.16284E+01
  -1.01342E+01 -2.15846E+00 -9.47561E+00 -1.34413E+01 -9.93474E+00 -8.68673E+00 -1.20230E+01 -1.08844E+01 -8.08793E+00 -9.62451E+00
  -9.01093E+00 -1.70340E-01 -4.68630E+00 -6.53753E+00 -7.24572E-01  8.40893E-01 -9.54145E+00 -4.52629E+00 -1.33255E+00 -3.00915E+00
  -2.39346E+00  2.71084E+00 -6.98648E+00  1.39298E+00 -1.44723E+00  9.20284E+00 -2.60277E+00  2.47254E+01  3.21497E+01  4.12231E+01
   5.44294E+01  7.83566E+01  8.88753E+01  1.13878E+02  1.04995E+02  9.91156E+01  7.39375E+01  6.40414E+01  2.87095E+01  2.82948E+01
   1.67344E+01  6.86325E+00  2.53733E+00  3.16377E+00 -1.85852E+00 -8.08583E+00 -1.34538E+01 -1.10072E+01 -9.63480E+00 -1.05186E+00
   3.09930E-02  6.31937E+00  8.76514E+00  2.78391E+01  3.06739E+01  5.51075E+01  8.59155E+01  7.99866E+01  7.98970E+01  7.92640E+01
   5.22970E+01  3.66655E+01  2.49008E+01  1.73819E+01  7.11826E+00  2.37884E+00 -1.13613E+01  8.39976E-01 -1.22701E+01 -1.45408E+01
  -1.15203E+01 -9.14605E+00 -1.04929E+01 -1.51487E+01 -1.78175E+01 -6.63533E+00 -6.19826E+00 -1.76438E+01 -6.40672E+00 -1.04789E+01
  -1.76692E+01 -7.75012E+00 -4.28261E+00 -1.71434E+01 -1.94978E+01 -1.47566E+01 -1.43678E+01 -5.80648E+00 -1.34282E+01 -9.98344E+00
  -1.56192E+01 -2.21068E+01 -2.45583E+01 -1.97320E+01 -1.15570E+01 -2.68612E+01 -2.58980E+01 -2.08468E+01 -3.40394E+01 -2.10011E+01
  -2.62739E+01 -3.73142E+01 -3.44045E+01 -3.78367E+01 -3.48134E+01 -5.33276E+01 -4.66174E+01 -4.69737E+01 -4.83904E+01 -3.66102E+01
  -3.75140E+01 -4.29260E+01 -4.26062E+01 -3.82975E+01 -4.29581E+01 -2.95359E+01 -3.42392E+01 -3.79945E+01 -3.31993E+01 -2.39814E+01
  -2.08536E+01 -1.76500E+01 -2.00561E+01 -8.97686E+00 -2.24171E+01 -1.82570E+01 -1.73258E+01 -3.61542E+01 -2.81712E+01 -2.98377E+01
  -2.62322E+01 -2.50050E+01 -2.66175E+01 -1.44866E+01 -1.86646E+01 -2.45311E+01 -3.19667E+01 -1.90717E+01 -2.84654E+01 -3.09479E+01
  -3.40694E+01 -2.33603E+01 -2.25907E+01 -1.22629E+01 -1.85679E+01 -1.32914E+01 -6.90053E+00 -1.26999E+01 -1.35485E+01 -2.36624E+01
  -3.11123E+01 -1.79794E+01 -2.34445E+01 -2.83708E+01 -1.90150E+01 -1.38578E+01 -9.32739E+00 -1.32101E+01 -6.73287E+00 -6.87054E+00
  -4.42441E+00 -1.91372E+00  2.24978E+00 -2.66619E+00 -3.17973E+00  6.48569E+00  5.25651E+00  5.35716E+00 -7.91490E+00  2.46002E-01
   8.38723E+00  4.54438E+00 -6.05512E+00  2.05546E-01  6.57694E+00  6.77419E+00  1.77750E+01  3.12844E+01  1.92915E+01  3.68593E+01
   2.46243E+01  3.64063E+01  4.79679E+01  6.72308E+01  8.15176E+01  1.06637E+02  1.17580E+02  1.36108E+02  1.54738E+02  1.70696E+02
   1.80604E+02  1.55321E+02  1.20660E+02  8.80659E+01  6.15427E+01  4.24645E+01  2.63975E+01  5.67767E+00  3.58033E+00 -5.04521E+00
   1.12996E+00  1.59520E+00 -1.74560E+00 -2.32118E+00 -1.19924E+01 -1.11919E+00 -1.25856E+01 -4.84317E+00 -4.56224E+00 -1.00119E+01
  -6.60741E+00 -1.89058E+00 -5.35640E+00 -6.52529E+00 -9.53421E+00 -3.90745E-01 -1.02506E+01 -4.03795E+00 -9.49626E+00 -6.49973E+00
  -6.03354E-01 -1.14278E+01 -7.18833E+00  2.11830E+00 -9.02718E+00 -2.71232E+00 -2.51761E+00 -7.15636E+00 -1.09862E+01 -7.33764E+00
  -5.55235E+00 -2.13120E+00 -1.64875E+01 -1.31907E+01 -1.71965E+01 -2.51516E+01 -2.08135E+01 -3.39559E+01 -3.11178E+01 -4.03383E+01
  -5.41035E+01 -5.08034E+01 -6.72513E+01 -5.60955E+01 -5.82980E+01 -5.93274E+01 -5.99969E+01 -5.28872E+01 -5.75986E+01 -5.40606E+01
  -5.72730E+01 -3.90505E+01 -4.43505E+01 -3.48418E+01 -3.07820E+01 -3.22456E+01 -2.18365E+01 -2.11193E+01 -2.53818E+01 -8.66742E+00
  -8.81981E+00 -5.94369E+00 -2.66272E+00  1.19603E+00  7.67891E-01 -1.70737E+00  3.93868E+00 -3.22277E+00  1.30408E+00  1.43567E+01
   9.54691E+00  5.34495E+00 -1.48255E+00  1.46972E-01  1.72371E+00  3.17583E-01  1.23136E+01 -4.83221E+00 -2.20622E+00 -5.87648E+00
  -8.54578E+00  6.20330E+00 -5.01628E+00 -1.42132E+00  1.30154E+01  3.48602E+00 -2.93869E-01  6.42445E+00 -9.24775E+00  7.52648E+00
   2.21832E+00 -8.06954E-01  4.31238E+00 -8.11416E+00 -3.12944E+00 -1.54202E+00 -5.15104E-01 -3.87165E+00 -5.76174E+00 -4.39566E+00
  -4.76333E+00 -1.25577E+01 -9.98713E+00 -6.98921E+00 -6.01309E+00 -1.23755E+01 -1.32502E+01 -1.61787E+01 -1.08886E+01 -1.59738E+01
  -2.08705E+01 -9.78339E+00 -6.44376E+00 -6.39557E+00 -9.05913E+00 -1.20332E+01 -9.57507E+00 -3.50673E+00 -1.40739E+00 -4.25093E+00
  -7.17950E+00 -1.50281E+01 -1.02990E+01 -5.09765E+00 -4.67046E+00 -6.49570E+00 -9.96760E+00  2.39182E+00 -3.27897E+00 -1.96872E+00
  -1.21570E+01 -5.79862E+00 -5.95636E+00 -2.28819E-01  3.30781E+00  2.52142E+00 -3.24721E+00  1.21400E+00 -3.45538E+00 -6.61602E+00
  -6.28146E+00 -8.55952E+00 -1.41226E+01 -4.72208E+00 -1.20980E+01 -1.28422E+01 -8.67135E+00 -2.00536E+01 -1.44460E+01 -1.54579E+01
  -1.57088E+01 -1.25869E+01 -2.11294E+01 -1.20294E+01 -2.32672E+01 -1.66349E+01 -1.48500E+01 -1.85854E+01 -1.92318E+01 -1.67443E+01
  -1.68247E+01 -1.68923E+01 -2.30191E+01 -1.48000E+01 -1.80574E+01 -1.41118E+01 -2.00561E+01 -1.99910E+01 -2.23600E+01 -1.21046E+01
  -1.49676E+01 -7.79004E+00 -1.54952E+01 -1.95508E+01 -1.41874E+01 -1.58459E+01 -1.68780E+01 -1.53055E+01 -1.63863E+01 -2.26257E+01
  -1.81115E+01 -1.92105E+01 -1.47861E+01 -1.60285E+01 -2.31815E+01 -8.64523E+00 -1.47481E+01 -1.11369E+01 -2.38467E+01 -1.16802E+01
  -1.52793E+01 -2.13388E+01 -1.46492E+01 -1.55314E+01 -1.45476E+01 -8.72745E+00 -1.44972E+01 -1.33142E+01 -1.61054E+01 -1.65472E+01
  -2.35515E+01 -5.44332E+00 -1.88677E+01 -1.80848E+01 -1.77215E+01 -1.72238E+01 -1.25967E+01 -1.41799E+01 -1.84822E+01 -8.43447E+00
  -1.37854E+01 -1.18148E+01 -9.40536E+00 -1.64231E+01 -1.13470E+01 -1.23032E+01 -8.48919E+00 -1.74905E+01 -1.40491E+01 -9.04575E+00
  -1.54079E+01 -1.58370E+01 -8.62181E+00 -1.91049E+01 -1.90961E+01 -2.30653E+01 -1.06900E+01 -1.56137E+01
 NY points of the fit to the data follow
   7.56647E+00  7.29558E+00  7.53849E+00  8.38445E+00  1.13171E+01  1.74380E+01  2.47361E+01  3.23171E+01  4.06651E+01  5.01149E+01
   5.93240E+01  6.54341E+01  6.59582E+01  6.06756E+01  5.16938E+01  4.19460E+01  3.34807E+01  2.67385E+01  2.11414E+01  1.63918E+01
   1.30545E+01  1.10900E+01  9.54899E+00  8.82782E+00  9.20941E+00  1.01679E+01  1.16995E+01  1.41663E+01  1.77404E+01  2.18277E+01
   2.53546E+01  2.72048E+01  2.67356E+01  2.42909E+01  2.05790E+01  1.64324E+01  1.26895E+01  9.78282E+00  7.81640E+00  7.11655E+00
   7.86277E+00  9.48789E+00  1.13312E+01  1.31251E+01  1.49660E+01  1.67557E+01  1.81140E+01  1.84360E+01  1.73805E+01  1.52207E+01
   1.24194E+01  9.53759E+00  7.15951E+00  5.47166E+00  4.28050E+00  3.53348E+00  3.27664E+00  3.35907E+00  3.47901E+00  3.41992E+00
   3.05576E+00  2.26237E+00  1.08427E+00 -2.81295E-01 -1.50616E+00 -2.28777E+00 -2.61971E+00 -2.63297E+00 -2.44013E+00 -2.14454E+00
  -1.85860E+00 -1.69765E+00 -1.77001E+00 -2.10178E+00 -2.63612E+00 -3.26183E+00 -3.86109E+00 -4.36730E+00 -4.73370E+00 -4.77899E+00
  -4.35445E+00 -3.79670E+00 -3.27690E+00 -2.68745E+00 -1.97418E+00 -1.37140E+00 -1.29671E+00 -2.01051E+00 -3.39525E+00 -4.97097E+00
  -6.26952E+00 -7.09610E+00 -7.49425E+00 -7.60179E+00 -7.39601E+00 -6.10351E+00 -5.24766E-01  1.10599E+01  2.52315E+01  4.07405E+01
   5.86198E+01  7.89990E+01  9.83811E+01  1.10543E+02  1.10524E+02  9.81534E+01  7.79726E+01  5.61573E+01  3.71274E+01  2.22233E+01
   1.06247E+01  1.68061E+00 -3.72421E+00 -5.68795E+00 -6.39762E+00 -6.70510E+00 -6.82679E+00 -6.81212E+00 -6.56944E+00 -5.54520E+00
  -1.06069E+00  7.88526E+00  1.83998E+01  2.97691E+01  4.29061E+01  5.78274E+01  7.18157E+01  8.03469E+01  7.99201E+01  7.06426E+01
   5.61113E+01  4.07849E+01  2.74898E+01  1.67702E+01  7.72594E+00  1.28450E-01 -4.83853E+00 -6.99991E+00 -7.75178E+00 -7.58041E+00
  -6.91503E+00 -6.24978E+00 -5.91872E+00 -6.03722E+00 -6.62361E+00 -7.55239E+00 -8.63748E+00 -9.79527E+00 -1.09816E+01 -1.21124E+01
  -1.31566E+01 -1.40677E+01 -1.48619E+01 -1.56751E+01 -1.65931E+01 -1.74332E+01 -1.81143E+01 -1.86892E+01 -1.93210E+01 -2.02499E+01
  -2.13064E+01 -2.21158E+01 -2.25240E+01 -2.27878E+01 -2.32814E+01 -2.42192E+01 -2.55587E+01 -2.70381E+01 -2.84599E+01 -2.98562E+01
  -3.10409E+01 -3.19075E+01 -3.26562E+01 -3.34911E+01 -3.44473E+01 -3.52126E+01 -3.54983E+01 -3.53228E+01 -3.51000E+01 -3.52660E+01
  -3.57906E+01 -3.61038E+01 -3.58978E+01 -3.52218E+01 -3.42736E+01 -3.30682E+01 -3.13733E+01 -2.91288E+01 -2.65019E+01 -2.38712E+01
  -2.18274E+01 -2.09371E+01 -2.11740E+01 -2.21007E+01 -2.34374E+01 -2.50025E+01 -2.63773E+01 -2.70859E+01 -2.69247E+01 -2.58461E+01
  -2.41013E+01 -2.21436E+01 -2.05193E+01 -1.98755E+01 -2.03472E+01 -2.18458E+01 -2.42584E+01 -2.70534E+01 -2.94575E+01 -3.05380E+01
  -3.01741E+01 -2.85796E+01 -2.57404E+01 -2.19187E+01 -1.79905E+01 -1.53829E+01 -1.51754E+01 -1.72279E+01 -2.06765E+01 -2.47145E+01
  -2.83043E+01 -3.04808E+01 -3.05305E+01 -2.81930E+01 -2.40828E+01 -1.92353E+01 -1.47780E+01 -1.14107E+01 -9.20651E+00 -7.92986E+00
  -7.12331E+00 -6.32256E+00 -5.17760E+00 -3.51430E+00 -1.43047E+00  6.80562E-01  2.32009E+00  3.31465E+00  3.69462E+00  3.67557E+00
   3.51575E+00  3.71996E+00  4.82615E+00  7.01479E+00  1.00420E+01  1.34085E+01  1.66626E+01  1.95013E+01  2.22446E+01  2.61672E+01
   3.10165E+01  3.64628E+01  4.47415E+01  6.12222E+01  8.27423E+01  1.03948E+02  1.23314E+02  1.41691E+02  1.58290E+02  1.68745E+02
   1.67550E+02  1.52427E+02  1.26391E+02  9.60636E+01  6.79557E+01  4.55500E+01  2.80864E+01  1.38379E+01  3.05731E+00 -2.80238E+00
  -5.90380E+00 -8.05301E+00 -9.59012E+00 -1.06706E+01 -1.15074E+01 -1.22475E+01 -1.28786E+01 -1.33478E+01 -1.35847E+01 -1.35128E+01
  -1.30884E+01 -1.23186E+01 -1.12308E+01 -9.87820E+00 -8.35312E+00 -6.75162E+00 -5.17564E+00 -3.71218E+00 -2.42601E+00 -1.37303E+00
  -6.09195E-01 -1.87801E-01 -1.72156E-01 -6.11829E-01 -1.53070E+00 -2.91733E+00 -4.73621E+00 -6.92913E+00 -9.41883E+00 -1.21208E+01
  -1.49494E+01 -1.78217E+01 -2.06758E+01 -2.34628E+01 -2.61363E+01 -2.86515E+01 -3.09703E+01 -3.30669E+01 -3.49268E+01 -3.65368E+01
  -3.78905E+01 -3.89881E+01 -3.98326E+01 -4.04287E+01 -4.07808E+01 -4.08913E+01 -4.07601E+01 -4.03850E+01 -3.97628E+01 -3.88897E+01
  -3.77618E+01 -3.63762E+01 -3.47326E+01 -3.28355E+01 -3.06953E+01 -2.83298E+01 -2.57642E+01 -2.30318E+01 -2.01740E+01 -1.72402E+01
  -1.42857E+01 -1.13700E+01 -8.55383E+00 -5.89669E+00 -3.45360E+00 -1.27247E+00  6.09486E-01  2.16912E+00  3.40177E+00  4.33055E+00
   5.00942E+00  5.40231E+00  5.46579E+00  5.25968E+00  4.85239E+00  4.25595E+00  3.43259E+00  2.38814E+00  1.31196E+00  4.04043E-01
  -2.12956E-01 -4.65329E-01 -3.32093E-01  1.37738E-01  8.15807E-01  1.52429E+00  2.08749E+00  2.35179E+00  2.27342E+00  1.92096E+00
   1.37494E+00  6.82029E-01 -1.44596E-01 -1.08454E+00 -2.07840E+00 -3.10733E+00 -4.17758E+00 -5.28249E+00 -6.40877E+00 -7.53970E+00
  -8.65587E+00 -9.73605E+00 -1.07581E+01 -1.17005E+01 -1.25428E+01 -1.32671E+01 -1.38576E+01 -1.43017E+01 -1.45899E+01 -1.47163E+01
  -1.46784E+01 -1.44772E+01 -1.41168E+01 -1.36041E+01 -1.29492E+01 -1.21650E+01 -1.12673E+01 -1.02742E+01 -9.20575E+00 -8.08390E+00
  -6.93212E+00 -5.77516E+00 -4.63824E+00 -3.54652E+00 -2.52423E+00 -1.59439E+00 -7.78148E-01 -9.41615E-02  4.42179E-01  8.19235E-01
   1.02947E+00  1.06940E+00  9.39632E-01  6.44842E-01  1.93644E-01 -4.01862E-01 -1.12666E+00 -1.96376E+00 -2.89461E+00 -3.89987E+00
  -4.95981E+00 -6.05509E+00 -7.16735E+00 -8.27981E+00 -9.37744E+00 -1.04471E+01 -1.14776E+01 -1.24600E+01 -1.33873E+01 -1.42546E+01
  -1.50590E+01 -1.57987E+01 -1.64734E+01 -1.70839E+01 -1.76319E+01 -1.81199E+01 -1.85510E+01 -1.89282E+01 -1.92549E+01 -1.95346E+01
  -1.97709E+01 -1.99672E+01 -2.01268E+01 -2.02528E+01 -2.03480E+01 -2.04151E+01 -2.04567E+01 -2.04754E+01 -2.04730E+01 -2.04515E+01
  -2.04126E+01 -2.03580E+01 -2.02893E+01 -2.02079E+01 -2.01148E+01 -2.00111E+01 -1.98979E+01 -1.97761E+01 -1.96468E+01 -1.95105E+01
  -1.93680E+01 -1.92198E+01 -1.90666E+01 -1.89090E+01 -1.87475E+01 -1.85823E+01 -1.84137E+01 -1.82419E+01 -1.80674E+01 -1.78904E+01
  -1.77111E+01 -1.75297E+01 -1.73463E+01 -1.71610E+01 -1.69742E+01 -1.67859E+01 -1.65963E+01 -1.64053E+01 -1.62131E+01 -1.60198E+01
  -1.58255E+01 -1.56304E+01 -1.54343E+01 -1.52374E+01 -1.50396E+01 -1.48411E+01 -1.46420E+01 -1.44422E+01 -1.42417E+01 -1.40405E+01
  -1.38387E+01 -1.36364E+01 -1.34335E+01 -1.32301E+01 -1.30260E+01 -1.28213E+01 -1.26160E+01 -1.24102E+01 -1.22038E+01 -1.19968E+01
  -1.17890E+01 -1.15806E+01 -1.13716E+01 -1.11620E+01 -1.09517E+01 -1.07405E+01 -1.05285E+01 -1.03157E+01
 NY background values follow
     2.830E+00    2.727E+00    2.624E+00    2.521E+00    2.418E+00    2.314E+00    2.209E+00    2.104E+00    1.999E+00    1.892E+00
     1.786E+00    1.678E+00    1.570E+00    1.461E+00    1.352E+00    1.241E+00    1.130E+00    1.018E+00    9.049E-01    7.909E-01
     6.759E-01    5.599E-01    4.428E-01    3.246E-01    2.052E-01    8.469E-02   -3.705E-02   -1.600E-01   -2.843E-01   -4.100E-01
    -5.369E-01   -6.653E-01   -7.952E-01   -9.265E-01   -1.059E+00   -1.194E+00   -1.330E+00   -1.467E+00   -1.607E+00   -1.748E+00
    -1.890E+00   -2.035E+00   -2.181E+00   -2.329E+00   -2.479E+00   -2.631E+00   -2.785E+00   -2.941E+00   -3.099E+00   -3.259E+00
    -3.420E+00   -3.584E+00   -3.749E+00   -3.916E+00   -4.084E+00   -4.255E+00   -4.426E+00   -4.600E+00   -4.775E+00   -4.951E+00
    -5.129E+00   -5.309E+00   -5.490E+00   -5.672E+00   -5.856E+00   -6.041E+00   -6.227E+00   -6.414E+00   -6.603E+00   -6.793E+00
    -6.984E+00   -7.176E+00   -7.369E+00   -7.563E+00   -7.758E+00   -7.955E+00   -8.152E+00   -8.350E+00   -8.548E+00   -8.748E+00
    -8.948E+00   -9.150E+00   -9.352E+00   -9.554E+00   -9.757E+00   -9.961E+00   -1.017E+01   -1.037E+01   -1.058E+01   -1.078E+01
    -1.099E+01   -1.119E+01   -1.140E+01   -1.161E+01   -1.182E+01   -1.203E+01   -1.223E+01   -1.244E+01   -1.265E+01   -1.286E+01
    -1.307E+01   -1.328E+01   -1.349E+01   -1.370E+01   -1.391E+01   -1.412E+01   -1.434E+01   -1.455E+01   -1.476E+01   -1.497E+01
    -1.518E+01   -1.539E+01   -1.561E+01   -1.582E+01   -1.603E+01   -1.625E+01   -1.646E+01   -1.667E+01   -1.688E+01   -1.710E+01
    -1.731E+01   -1.752E+01   -1.774E+01   -1.795E+01   -1.817E+01   -1.838E+01   -1.859E+01   -1.881E+01   -1.902E+01   -1.923E+01
    -1.945E+01   -1.966E+01   -1.987E+01   -2.009E+01   -2.030E+01   -2.051E+01   -2.073E+01   -2.094E+01   -2.115E+01   -2.137E+01
    -2.158E+01   -2.179E+01   -2.200E+01   -2.222E+01   -2.243E+01   -2.264E+01   -2.285E+01   -2.306E+01   -2.327E+01   -2.348E+01
    -2.369E+01   -2.390E+01   -2.411E+01   -2.432E+01   -2.453E+01   -2.474E+01   -2.495E+01   -2.516E+01   -2.536E+01   -2.557E+01
    -2.578E+01   -2.598E+01   -2.619E+01   -2.639E+01   -2.659E+01   -2.680E+01   -2.700E+01   -2.720E+01   -2.741E+01   -2.761E+01
    -2.781E+01   -2.801E+01   -2.820E+01   -2.840E+01   -2.860E+01   -2.880E+01   -2.899E+01   -2.919E+01   -2.938E+01   -2.958E+01
    -2.977E+01   -2.996E+01   -3.015E+01   -3.034E+01   -3.053E+01   -3.072E+01   -3.091E+01   -3.110E+01   -3.128E+01   -3.147E+01
    -3.166E+01   -3.184E+01   -3.203E+01   -3.221E+01   -3.239E+01   -3.258E+01   -3.276E+01   -3.294E+01   -3.312E+01   -3.331E+01
    -3.349E+01   -3.367E+01   -3.385E+01   -3.403E+01   -3.421E+01   -3.439E+01   -3.457E+01   -3.476E+01   -3.494E+01   -3.512E+01
    -3.530E+01   -3.548E+01   -3.566E+01   -3.584E+01   -3.602E+01   -3.621E+01   -3.639E+01   -3.657E+01   -3.675E+01   -3.694E+01
    -3.712E+01   -3.731E+01   -3.749E+01   -3.768E+01   -3.786E+01   -3.805E+01   -3.824E+01   -3.842E+01   -3.861E+01   -3.880E+01
    -3.899E+01   -3.918E+01   -3.937E+01   -3.956E+01   -3.975E+01   -3.995E+01   -4.014E+01   -4.033E+01   -4.052E+01   -4.071E+01
    -4.091E+01   -4.110E+01   -4.129E+01   -4.148E+01   -4.168E+01   -4.187E+01   -4.206E+01   -4.225E+01   -4.245E+01   -4.264E+01
    -4.283E+01   -4.302E+01   -4.321E+01   -4.340E+01   -4.359E+01   -4.378E+01   -4.397E+01   -4.415E+01   -4.434E+01   -4.453E+01
    -4.471E+01   -4.490E+01   -4.508E+01   -4.527E+01   -4.545E+01   -4.563E+01   -4.581E+01   -4.599E+01   -4.617E+01   -4.635E+01
    -4.652E+01   -4.670E+01   -4.687E+01   -4.704E+01   -4.721E+01   -4.738E+01   -4.755E+01   -4.772E+01   -4.788E+01   -4.804E+01
    -4.820E+01   -4.836E+01   -4.852E+01   -4.867E+01   -4.882E+01   -4.897E+01   -4.911E+01   -4.926E+01   -4.940E+01   -4.953E+01
    -4.967E+01   -4.980E+01   -4.993E+01   -5.005E+01   -5.017E+01   -5.029E+01   -5.040E+01   -5.051E+01   -5.061E+01   -5.071E+01
    -5.081E+01   -5.090E+01   -5.099E+01   -5.108E+01   -5.116E+01   -5.123E+01   -5.130E+01   -5.137E+01   -5.143E+01   -5.148E+01
    -5.153E+01   -5.158E+01   -5.162E+01   -5.165E+01   -5.168E+01   -5.170E+01   -5.172E+01   -5.173E+01   -5.174E+01   -5.174E+01
    -5.173E+01   -5.172E+01   -5.170E+01   -5.168E+01   -5.165E+01   -5.162E+01   -5.158E+01   -5.153E+01   -5.148E+01   -5.143E+01
    -5.137E+01   -5.130E+01   -5.123E+01   -5.116E+01   -5.108E+01   -5.099E+01   -5.090E+01   -5.081E+01   -5.071E+01   -5.060E+01
    -5.050E+01   -5.038E+01   -5.027E+01   -5.015E+01   -5.002E+01   -4.989E+01   -4.976E+01   -4.962E+01   -4.948E+01   -4.933E+01
    -4.918E+01   -4.903E+01   -4.887E+01   -4.871E+01   -4.854E+01   -4.838E+01   -4.820E+01   -4.803E+01   -4.785E+01   -4.767E+01
    -4.748E+01   -4.729E+01   -4.710E+01   -4.691E+01   -4.671E+01   -4.651E+01   -4.630E+01   -4.610E+01   -4.589E+01   -4.567E+01
    -4.546E+01   -4.524E+01   -4.502E+01   -4.480E+01   -4.457E+01   -4.434E+01   -4.411E+01   -4.388E+01   -4.364E+01   -4.340E+01
    -4.316E+01   -4.292E+01   -4.267E+01   -4.242E+01   -4.217E+01   -4.192E+01   -4.166E+01   -4.141E+01   -4.115E+01   -4.089E+01
    -4.063E+01   -4.036E+01   -4.009E+01   -3.983E+01   -3.956E+01   -3.928E+01   -3.901E+01   -3.873E+01   -3.846E+01   -3.818E+01
    -3.790E+01   -3.762E+01   -3.733E+01   -3.705E+01   -3.676E+01   -3.647E+01   -3.619E+01   -3.590E+01   -3.561E+01   -3.531E+01
    -3.502E+01   -3.473E+01   -3.443E+01   -3.413E+01   -3.384E+01   -3.354E+01   -3.324E+01   -3.294E+01   -3.264E+01   -3.234E+01
    -3.204E+01   -3.174E+01   -3.144E+01   -3.114E+01   -3.084E+01   -3.054E+01   -3.024E+01   -2.994E+01   -2.964E+01   -2.934E+01
    -2.904E+01   -2.874E+01   -2.844E+01   -2.814E+01   -2.784E+01   -2.754E+01   -2.725E+01   -2.695E+01   -2.666E+01   -2.636E+01
    -2.607E+01   -2.578E+01   -2.549E+01   -2.520E+01   -2.491E+01   -2.462E+01   -2.434E+01   -2.405E+01   -2.377E+01   -2.349E+01
    -2.321E+01   -2.293E+01   -2.266E+01   -2.238E+01   -2.211E+01   -2.184E+01   -2.157E+01   -2.131E+01   -2.104E+01   -2.078E+01
    -2.052E+01   -2.026E+01   -2.000E+01   -1.974E+01   -1.949E+01   -1.923E+01   -1.898E+01   -1.873E+01   -1.848E+01   -1.823E+01
    -1.798E+01   -1.773E+01   -1.749E+01   -1.724E+01   -1.700E+01   -1.676E+01   -1.651E+01   -1.627E+01   -1.603E+01   -1.579E+01
    -1.555E+01   -1.531E+01   -1.508E+01   -1.484E+01   -1.460E+01   -1.437E+01   -1.413E+01   -1.389E+01   -1.366E+01   -1.342E+01
    -1.319E+01   -1.295E+01   -1.272E+01   -1.249E+01   -1.225E+01   -1.202E+01   -1.178E+01   -1.155E+01
 Cr       Conc. = 2.60E+03
