 LCModel (Version 6.3-1L) Copyright: S.W. Provencher.          Ref.: Magn. Reson. Med. 30:672-679 (1993).                
 Slice#3 Row#5 Col#5  PD_24_press_2_raw_act
 36 lines in following concentration table = NCONC+1
    Conc.  %SD /Cr+PCr  Metabolite                                         
   94.239 183% 9.0E-02 Ala                                                 
  188.466 123%   0.180 Asp                                                 
    0.000 999%   0.000 Cr                                                  
 1.05E+03   9%   1.000 PCr                                                 
  165.815  85%   0.158 GABA                                                
  224.170  64%   0.214 Glc                                                 
    0.000 999%   0.000 Gln                                                 
 1.79E+03  22%   1.705 Glu                                                 
  547.683   7%   0.523 GPC                                                 
    0.000 999%   0.000 PCh                                                 
  621.257  21%   0.593 GSH                                                 
 1.36E+03  31%   1.300 Ins                                                 
    0.000 999%   0.000 Lac                                                 
 1.82E+03   6%   1.737 NAA                                                 
    0.000 999%   0.000 NAAG                                                
   58.414  63% 5.6E-02 Scyllo                                              
  163.136 135%   0.156 Tau                                                 
    0.000 999%   0.000 -CrCH2                                              
  547.683   7%   0.523 GPC+PCh                                             
 1.82E+03   6%   1.737 NAA+NAAG                                            
 1.05E+03   9%   1.000 Cr+PCr                                              
 1.79E+03  22%   1.705 Glu+Gln                                             
    0.000 999%   0.000 Lip13a                                              
  203.880 100%   0.195 Lip13b                                              
   39.773 159% 3.8E-02 Lip09                                               
  578.362  50%   0.552 MM09                                                
   31.953 120% 3.0E-02 Lip20                                               
  867.660  50%   0.828 MM20                                                
  173.504  50%   0.166 MM12                                                
  434.176  50%   0.414 MM14                                                
  217.086  50%   0.207 MM17                                                
  203.880 100%   0.195 Lip13a+Lip13b                                       
  811.560  44%   0.775 MM14+Lip13a+Lip13b+MM12                             
  618.135  47%   0.590 MM09+Lip09                                          
  899.613  48%   0.859 MM20+Lip20                                          
   6 lines in following misc. output table
  FWHM = 0.038 ppm    S/N =   5                                            
  Data shift = 0.023 ppm                                                   
  Ph:   3 deg       3.5 deg/ppm                                            
  alphaB,S = 1.5E+00,   3.7E+01                                            
   14 spline knots.   Ns = 5(1)                                            
  ( 8) 2 infls.   ( 6) 1 extrs.                                            
  498 points on ppm-axis = NY
      4.000000     3.992357     3.984714     3.977070     3.969427     3.961784     3.954141     3.946497     3.938854     3.931211
      3.923568     3.915925     3.908281     3.900638     3.892995     3.885352     3.877708     3.870065     3.862422     3.854779
      3.847136     3.839492     3.831849     3.824206     3.816563     3.808919     3.801276     3.793633     3.785990     3.778347
      3.770703     3.763060     3.755417     3.747774     3.740130     3.732487     3.724844     3.717201     3.709558     3.701914
      3.694271     3.686628     3.678985     3.671341     3.663698     3.656055     3.648412     3.640769     3.633125     3.625482
      3.617839     3.610196     3.602552     3.594909     3.587266     3.579623     3.571980     3.564336     3.556693     3.549050
      3.541407     3.533763     3.526120     3.518477     3.510834     3.503191     3.495547     3.487904     3.480261     3.472618
      3.464974     3.457331     3.449688     3.442045     3.434402     3.426758     3.419115     3.411472     3.403829     3.396185
      3.388542     3.380899     3.373256     3.365613     3.357969     3.350326     3.342683     3.335040     3.327396     3.319753
      3.312110     3.304467     3.296824     3.289180     3.281537     3.273894     3.266251     3.258607     3.250964     3.243321
      3.235678     3.228034     3.220391     3.212748     3.205105     3.197462     3.189818     3.182175     3.174532     3.166889
      3.159245     3.151602     3.143959     3.136316     3.128673     3.121029     3.113386     3.105743     3.098100     3.090456
      3.082813     3.075170     3.067527     3.059884     3.052240     3.044597     3.036954     3.029311     3.021667     3.014024
      3.006381     2.998738     2.991095     2.983451     2.975808     2.968165     2.960522     2.952878     2.945235     2.937592
      2.929949     2.922306     2.914662     2.907019     2.899376     2.891733     2.884089     2.876446     2.868803     2.861160
      2.853517     2.845873     2.838230     2.830587     2.822944     2.815300     2.807657     2.800014     2.792371     2.784728
      2.777084     2.769441     2.761798     2.754155     2.746511     2.738868     2.731225     2.723582     2.715939     2.708295
      2.700652     2.693009     2.685366     2.677722     2.670079     2.662436     2.654793     2.647150     2.639506     2.631863
      2.624220     2.616577     2.608933     2.601290     2.593647     2.586004     2.578361     2.570717     2.563074     2.555431
      2.547788     2.540144     2.532501     2.524858     2.517215     2.509572     2.501928     2.494285     2.486642     2.478999
      2.471355     2.463712     2.456069     2.448426     2.440783     2.433139     2.425496     2.417853     2.410210     2.402566
      2.394923     2.387280     2.379637     2.371994     2.364350     2.356707     2.349064     2.341421     2.333777     2.326134
      2.318491     2.310848     2.303205     2.295561     2.287918     2.280275     2.272632     2.264988     2.257345     2.249702
      2.242059     2.234416     2.226772     2.219129     2.211486     2.203843     2.196199     2.188556     2.180913     2.173270
      2.165627     2.157983     2.150340     2.142697     2.135054     2.127410     2.119767     2.112124     2.104481     2.096838
      2.089194     2.081551     2.073908     2.066265     2.058621     2.050978     2.043335     2.035692     2.028049     2.020405
      2.012762     2.005119     1.997476     1.989833     1.982190     1.974546     1.966903     1.959260     1.951617     1.943974
      1.936331     1.928688     1.921045     1.913402     1.905759     1.898115     1.890472     1.882829     1.875186     1.867543
      1.859900     1.852257     1.844614     1.836971     1.829327     1.821684     1.814041     1.806398     1.798755     1.791112
      1.783469     1.775826     1.768183     1.760540     1.752896     1.745253     1.737610     1.729967     1.722324     1.714681
      1.707038     1.699395     1.691752     1.684108     1.676465     1.668822     1.661179     1.653536     1.645893     1.638250
      1.630607     1.622964     1.615321     1.607677     1.600034     1.592391     1.584748     1.577105     1.569462     1.561819
      1.554176     1.546533     1.538890     1.531246     1.523603     1.515960     1.508317     1.500674     1.493031     1.485388
      1.477745     1.470102     1.462458     1.454815     1.447172     1.439529     1.431886     1.424243     1.416600     1.408957
      1.401314     1.393671     1.386027     1.378384     1.370741     1.363098     1.355455     1.347812     1.340169     1.332526
      1.324883     1.317240     1.309596     1.301953     1.294310     1.286667     1.279024     1.271381     1.263738     1.256095
      1.248452     1.240808     1.233165     1.225522     1.217879     1.210236     1.202593     1.194950     1.187307     1.179664
      1.172021     1.164377     1.156734     1.149091     1.141448     1.133805     1.126162     1.118519     1.110876     1.103233
      1.095590     1.087946     1.080303     1.072660     1.065017     1.057374     1.049731     1.042088     1.034445     1.026802
      1.019158     1.011515     1.003872     0.996229     0.988586     0.980943     0.973300     0.965657     0.958014     0.950371
      0.942727     0.935084     0.927441     0.919798     0.912155     0.904512     0.896869     0.889226     0.881583     0.873940
      0.866296     0.858653     0.851010     0.843367     0.835724     0.828081     0.820438     0.812795     0.805152     0.797508
      0.789865     0.782222     0.774579     0.766936     0.759293     0.751650     0.744007     0.736364     0.728721     0.721077
      0.713434     0.705791     0.698148     0.690505     0.682862     0.675219     0.667576     0.659933     0.652290     0.644646
      0.637003     0.629360     0.621717     0.614074     0.606431     0.598788     0.591145     0.583502     0.575858     0.568215
      0.560572     0.552929     0.545286     0.537643     0.530000     0.522357     0.514714     0.507071     0.499427     0.491784
      0.484141     0.476498     0.468855     0.461212     0.453569     0.445925     0.438282     0.430639     0.422996     0.415353
      0.407710     0.400067     0.392424     0.384780     0.377137     0.369494     0.361851     0.354208     0.346565     0.338922
      0.331278     0.323635     0.315992     0.308349     0.300706     0.293063     0.285420     0.277777     0.270133     0.262490
      0.254847     0.247204     0.239561     0.231918     0.224275     0.216631     0.208988     0.201345
 NY phased data points follow
   2.62262E+01  1.55881E+01  2.06051E+01  2.99689E+01  2.56337E+01  4.23254E+01  3.70462E+01  4.29464E+01  4.55432E+01  5.65280E+01
   5.34963E+01  5.02145E+01  5.67072E+01  3.80523E+01  4.62870E+01  2.33874E+01  2.44884E+01  1.26896E+01  2.90338E+01  3.55876E+01
   2.74775E+01  2.32316E+01  2.38959E+01  2.47433E+01  3.47083E+01  4.05042E+01  3.90855E+01  4.19755E+01  4.63994E+01  3.46736E+01
   4.19145E+01  2.87053E+01  1.96329E+01  3.56440E+01  3.71370E+01  2.72496E+01  2.30510E+01  2.27456E+01  2.46154E+01  2.42152E+01
   2.14114E+01  3.48696E+01  2.56029E+01  1.89983E+01  3.11610E+01  2.78051E+01  3.45121E+01  3.34243E+01  2.56991E+01  2.25318E+01
   3.69125E+01  2.28450E+01  2.12937E+01  2.73461E+01  2.26553E+01  2.12773E+01  1.94430E+01  3.51164E+01  2.95730E+01  2.22755E+01
   2.30363E+01  1.09444E+01  1.70202E+01  6.28575E+00  1.87913E+01  1.46543E+01  1.70374E+01  1.80037E+01  1.17403E+01  2.19596E+01
   2.45237E+01  2.14437E+01  1.30991E+01  2.02837E+01  7.90843E+00  1.43411E+01  2.52251E+01  2.52396E+01  1.45020E+01  7.43342E+00
   1.37994E+01  1.49769E+01  9.42992E+00  2.23305E+01  2.14707E+01  1.40435E+01  2.00550E+01  1.01661E+01  7.03023E+00  1.11731E+01
   6.97459E+00  1.01759E+01  6.71402E+00  7.98769E+00  1.63717E+01  5.25293E+00  3.20057E-01  4.96399E-01  1.20403E+00  2.46798E+01
   3.56307E+01  3.87868E+01  6.18330E+01  6.99648E+01  7.82250E+01  6.61592E+01  4.37002E+01  2.81473E+01  3.67839E+01  2.24374E+01
   1.62432E+01  1.13318E+01  1.11591E+01  3.75962E+00  1.87502E+01  8.79840E+00  5.44828E+00  3.53993E+00 -3.67282E+00 -5.78354E+00
  -6.04558E+00 -1.79764E+00  8.82741E+00 -5.66526E+00  9.23639E+00  2.59757E+01  3.61721E+01  5.00990E+01  5.24667E+01  5.38264E+01
   4.55443E+01  1.54685E+01  2.76759E+01  7.52404E+00  9.47958E+00  1.30738E+01  1.63743E+01  7.63355E-01  8.63239E+00  7.56785E+00
   5.06305E+00  1.04570E+01  8.08025E+00  7.72964E+00  7.50716E+00  9.32640E-01  1.82121E+00  9.15963E+00  1.66302E+00  5.72141E+00
   6.96942E+00 -2.26459E+00 -1.92499E+00 -5.37466E+00  2.28056E+00 -5.67578E+00 -5.16032E+00 -6.49298E-01 -5.33753E-01  1.03618E+01
   1.30215E+01  1.79979E-01  1.09929E+01  1.54255E-01 -1.40667E+01 -3.43220E+00  1.01037E+01  4.61077E+00  9.87782E+00 -9.42887E-02
   4.99450E+00 -1.02502E+01  3.28830E+00 -4.88256E+00 -6.45119E+00  2.91409E+00 -3.34198E+00 -9.69444E+00 -8.92602E+00 -3.94829E+00
   3.22533E-01 -6.96281E+00 -9.38024E+00 -3.68669E+00 -1.21332E+01 -1.04244E+01  7.38379E-01 -1.67077E+00 -4.05505E+00  2.14009E+00
  -2.38663E+00  8.81738E+00  4.89084E+00  1.16605E+01 -2.43305E+00  1.95844E+00  1.15032E+01  1.60971E+01  1.27840E+00 -6.03423E+00
   4.96218E-01 -3.90063E+00  1.38515E+00  1.21555E+01  4.24433E-02  4.52512E+00 -1.38559E+01  1.29869E+00 -1.48220E+01 -8.55444E+00
  -8.72373E+00 -1.08539E+01 -2.06956E-01 -1.28452E+00  1.27766E+01 -4.74855E-01  1.69881E+01  6.74702E+00  1.57420E+00  3.63636E+00
  -1.87233E+01 -5.04767E+00 -8.82822E+00  1.60354E+00 -8.91116E+00 -5.51706E+00  4.63004E+00  8.46707E+00  1.18760E+01 -3.39156E+00
   5.83434E+00  8.50490E+00  1.04857E+01  5.72537E-01  7.84922E+00  1.12074E+01  2.56128E+00  7.16324E+00 -8.95605E-01  4.37658E-01
  -2.62291E+00 -6.60418E+00  4.50996E+00 -1.26636E+01  3.96619E+00  8.91294E+00  1.42466E+01  2.73296E+01  1.97898E+01  9.57846E+00
   6.20865E+00  9.64801E+00  1.33999E+01 -2.55085E+00 -7.80977E+00 -7.28305E+00  2.70557E+00  3.04111E+01  4.13676E+01  4.58729E+01
   7.10876E+01  8.34167E+01  7.23348E+01  4.98587E+01  3.10071E+01  2.85514E+01  1.20029E+01  8.92691E+00  1.82970E+00  7.23277E+00
  -2.05972E-01  9.40911E+00  8.38199E+00 -6.36989E+00  1.03646E-01 -5.18137E+00  4.48756E+00  2.57173E+00 -4.18044E+00  6.96780E+00
   7.30056E-02  2.68197E+00 -2.73731E+00  1.55665E+00 -4.07953E+00 -6.78055E+00 -1.47401E+01 -8.41804E+00 -9.27175E+00 -1.34875E+01
  -1.53524E+01  3.09322E+00 -1.72094E+01 -1.05842E+01 -1.66932E+01 -1.43789E+01 -1.31938E+01 -3.78444E+00 -3.03047E+00 -1.00841E+01
  -3.22975E-01 -7.64252E+00  2.01807E+00  6.33579E+00  1.18853E+01  2.33565E+00  5.80729E+00 -1.51558E+00  1.58323E+01  2.96565E+00
   5.63213E+00 -1.23832E-01  2.03848E+01  2.38504E+00  9.04399E+00 -1.24139E+00  7.04194E-01  1.81884E+00  1.37627E+01  9.09945E+00
   1.05290E+00  7.47325E+00 -7.17597E+00 -1.30388E+00 -3.57758E+00  1.23955E+00  4.89672E+00  6.06991E+00  1.49772E+01  1.41276E+01
   2.19606E-01  1.01163E+01 -1.92799E-01  4.25258E+00 -7.05549E+00  8.28121E+00 -2.84280E+00 -1.15349E+00  5.43118E+00 -1.34048E+00
   7.18898E+00 -1.96267E+00  7.01246E+00 -2.09987E+00  7.42723E+00 -1.16807E+01 -1.80636E+01 -3.50075E+00 -6.84042E+00 -4.99348E+00
  -9.37262E+00  3.16873E+00  6.14796E+00  1.01879E+01  1.18104E+01  4.97427E+00 -1.16877E+01  4.29454E+00 -1.78479E+00  6.88556E-01
  -2.56696E+00 -5.90489E+00 -6.93550E+00  1.45425E-02 -9.48445E+00 -1.00851E+01  1.98817E+00 -9.37399E+00  5.28917E+00 -3.75156E+00
   2.02093E+00 -1.20878E+00 -9.79754E+00 -8.99111E+00 -1.48398E-01 -5.11489E+00 -4.48138E+00 -1.54943E+00 -1.26930E+01 -1.66662E+01
  -4.18192E+00 -8.30970E+00 -2.73314E+00 -1.05310E+01 -1.53832E+01 -2.02864E+01 -1.52544E+01 -4.85789E+00 -7.53716E+00  3.96875E+00
  -2.99810E+01  1.07268E+00 -5.64345E+00 -1.36998E+01 -1.19614E+01 -1.23349E+01 -1.31005E+01 -2.42348E+00 -1.04209E+01 -1.71600E+01
  -7.43049E+00 -1.28629E+01 -5.82564E+00 -3.23970E-01 -3.98974E+00  5.00865E+00 -1.39294E+00 -7.42238E+00 -6.01516E-01 -6.49440E+00
  -5.35846E+00 -1.07287E+01 -1.60098E+01 -2.89313E+00  4.84353E+00 -2.64045E+00 -1.90661E+01 -5.45647E+00  4.25367E+00 -9.66610E-01
  -4.11611E+00 -1.36862E+01  5.64050E+00  3.66191E+00 -8.23632E+00 -7.09462E+00 -7.86150E+00 -2.41695E-01 -4.98158E+00 -1.45125E+00
   8.50999E+00 -3.40111E+00 -9.17370E+00  2.91597E-01 -7.81110E+00 -9.29519E+00 -3.77438E+00 -5.05939E+00 -1.30615E+01 -6.40590E+00
  -5.94825E-01 -6.73219E+00 -7.03751E-01 -7.99591E-01  1.13925E+00 -5.49781E+00 -2.00935E+01 -5.90718E+00  1.52867E+00 -4.30538E+00
  -1.12861E+01 -1.08803E+00 -3.84730E+00 -8.74048E+00 -3.93949E-01 -1.13357E+01 -6.42140E+00 -6.75498E+00 -3.93566E+00 -3.85183E+00
  -5.54517E+00  2.11948E-01 -1.00910E+01  4.25910E+00  6.12705E+00 -2.52172E+00 -1.60017E+01 -1.06453E+00 -1.72893E+00 -3.35845E+00
  -8.01430E+00  6.52663E+00  2.25354E+00  1.53137E-01 -5.75339E+00  7.19884E+00 -2.76016E+00  4.80005E+00  4.87506E-01  1.63810E+01
   1.33451E+00  1.28352E+00  5.57705E+00 -1.36496E+00  8.06756E+00 -3.49058E+00  2.64221E+00  2.69916E+00  3.59615E+00 -2.16237E+00
   6.02944E+00  1.53273E+01 -1.67846E+00  6.62478E+00 -2.23611E+00  1.26987E+00  3.64357E-01  4.91831E+00
 NY points of the fit to the data follow
   2.63755E+01  2.58386E+01  2.56725E+01  2.59852E+01  2.68271E+01  2.90576E+01  3.40769E+01  4.05908E+01  4.70002E+01  5.24487E+01
   5.51234E+01  5.31918E+01  4.72821E+01  4.06207E+01  3.56029E+01  3.16439E+01  2.85103E+01  2.71115E+01  2.64149E+01  2.57085E+01
   2.50883E+01  2.46760E+01  2.44587E+01  2.44672E+01  2.51289E+01  2.75779E+01  3.10772E+01  3.42881E+01  3.70067E+01  3.88768E+01
   3.88774E+01  3.68211E+01  3.41364E+01  3.22741E+01  3.04257E+01  2.76664E+01  2.52939E+01  2.34731E+01  2.19211E+01  2.09268E+01
   2.07579E+01  2.11715E+01  2.20787E+01  2.39281E+01  2.66714E+01  2.93744E+01  3.14405E+01  3.26782E+01  3.21028E+01  2.93610E+01
   2.57693E+01  2.28140E+01  2.06511E+01  1.90170E+01  1.81890E+01  1.83087E+01  1.89602E+01  1.97995E+01  2.06766E+01  2.13694E+01
   2.15565E+01  2.09080E+01  1.95505E+01  1.80557E+01  1.67921E+01  1.60097E+01  1.57899E+01  1.60237E+01  1.65823E+01  1.71799E+01
   1.76371E+01  1.80145E+01  1.83077E+01  1.83832E+01  1.82066E+01  1.78845E+01  1.74789E+01  1.68151E+01  1.59770E+01  1.52511E+01
   1.47481E+01  1.45003E+01  1.46485E+01  1.49732E+01  1.50181E+01  1.46542E+01  1.38657E+01  1.26111E+01  1.11622E+01  1.01278E+01
   9.86327E+00  1.00687E+01  1.04045E+01  1.07669E+01  1.09717E+01  1.09639E+01  1.08399E+01  1.08656E+01  1.22763E+01  1.88983E+01
   3.17784E+01  4.67303E+01  6.10692E+01  7.19483E+01  7.41662E+01  6.52283E+01  4.98166E+01  3.58202E+01  2.56266E+01  1.72317E+01
   1.19704E+01  1.02835E+01  9.62879E+00  9.24632E+00  8.94046E+00  8.64088E+00  8.29791E+00  7.92374E+00  7.55576E+00  7.23669E+00
   7.08336E+00  7.23537E+00  8.09038E+00  1.14317E+01  1.92309E+01  2.92373E+01  3.92419E+01  4.78593E+01  5.21800E+01  4.94673E+01
   4.07576E+01  3.08812E+01  2.28747E+01  1.54118E+01  8.78661E+00  5.12808E+00  3.67933E+00  3.84305E+00  4.94551E+00  6.46516E+00
   7.92904E+00  8.70334E+00  8.66817E+00  8.13962E+00  7.43856E+00  6.79324E+00  6.19408E+00  5.62829E+00  5.14374E+00  4.65736E+00
   4.17427E+00  3.76788E+00  3.47737E+00  3.30334E+00  3.23745E+00  3.25306E+00  3.23103E+00  2.96037E+00  2.39981E+00  1.72346E+00
   1.08562E+00  7.05386E-01  7.39274E-01  1.13331E+00  1.66397E+00  1.98214E+00  1.90547E+00  1.52659E+00  1.02178E+00  5.72962E-01
   1.82627E-01 -2.50014E-01 -7.61785E-01 -1.41627E+00 -2.02722E+00 -2.43953E+00 -2.62627E+00 -2.60666E+00 -2.43469E+00 -2.24857E+00
  -2.36829E+00 -2.75143E+00 -3.04156E+00 -3.23280E+00 -3.34396E+00 -3.03668E+00 -2.14424E+00 -6.18845E-01  1.30721E+00  3.19371E+00
   4.48482E+00  4.62418E+00  3.66529E+00  2.20867E+00  8.44745E-01 -1.15030E-01 -4.86476E-01 -2.44697E-01  4.82025E-01  1.33872E+00
   2.12104E+00  2.88105E+00  3.73635E+00  4.49823E+00  4.92894E+00  4.90044E+00  4.08229E+00  2.61371E+00  9.09231E-01 -8.65498E-01
  -2.29308E+00 -2.59207E+00 -1.02965E+00  2.00681E+00  5.37151E+00  8.26732E+00  9.62419E+00  8.09194E+00  3.54018E+00 -2.51190E+00
  -7.94983E+00 -1.16870E+01 -1.33725E+01 -1.21114E+01 -8.14501E+00 -3.24275E+00  5.56580E-01  2.39478E+00  2.85061E+00  2.40949E+00
   1.36562E+00  6.99063E-01  1.30162E+00  2.92894E+00  4.59353E+00  5.57815E+00  5.61006E+00  4.40898E+00  2.02081E+00 -8.97484E-01
  -3.14830E+00 -3.99583E+00 -3.53851E+00 -1.97040E+00  4.88224E-01  3.03465E+00  4.67967E+00  4.87302E+00  4.02135E+00  2.78946E+00
   1.37553E+00  2.71176E-01  5.96163E-02  7.63972E-01  1.86290E+00  3.77745E+00  9.99654E+00  2.34880E+01  4.02211E+01  5.68464E+01
   7.09206E+01  7.68179E+01  6.99738E+01  5.36668E+01  3.69048E+01  2.42944E+01  1.37559E+01  5.95453E+00  2.75134E+00  1.25563E+00
   2.93890E-01 -1.70131E-01 -2.11106E-01  4.05874E-03  3.66022E-01  6.83092E-01  7.90162E-01  6.44457E-01  3.19511E-01 -1.33744E-01
  -6.33779E-01 -1.06766E+00 -1.37879E+00 -1.55988E+00 -1.63806E+00 -1.65585E+00 -1.63518E+00 -1.61066E+00 -1.62081E+00 -1.65049E+00
  -1.68573E+00 -1.73183E+00 -1.78572E+00 -1.83213E+00 -1.86384E+00 -1.88375E+00 -1.88954E+00 -1.87727E+00 -1.85402E+00 -1.82436E+00
  -1.78720E+00 -1.74735E+00 -1.70726E+00 -1.66859E+00 -1.63437E+00 -1.60783E+00 -1.59020E+00 -1.58046E+00 -1.57791E+00 -1.58298E+00
  -1.59514E+00 -1.61324E+00 -1.63632E+00 -1.66261E+00 -1.68990E+00 -1.71588E+00 -1.73798E+00 -1.75327E+00 -1.75825E+00 -1.74842E+00
  -1.71742E+00 -1.65352E+00 -1.52923E+00 -1.30041E+00 -1.03552E+00 -8.95771E-01 -9.34194E-01 -1.18726E+00 -1.70117E+00 -2.40074E+00
  -3.07328E+00 -3.47594E+00 -3.51138E+00 -3.28952E+00 -2.82910E+00 -2.18094E+00 -1.56165E+00 -1.18322E+00 -1.13658E+00 -1.29599E+00
  -1.50142E+00 -1.74754E+00 -2.00727E+00 -2.18683E+00 -2.29822E+00 -2.35486E+00 -2.35542E+00 -2.29517E+00 -2.17130E+00 -1.98641E+00
  -1.75081E+00 -1.48354E+00 -1.21168E+00 -9.67586E-01 -7.84428E-01 -6.90584E-01 -7.04466E-01 -8.31095E-01 -1.06137E+00 -1.37412E+00
  -1.74033E+00 -2.12829E+00 -2.50873E+00 -2.85865E+00 -3.16344E+00 -3.41700E+00 -3.62026E+00 -3.77887E+00 -3.90081E+00 -3.99451E+00
  -4.06765E+00 -4.12644E+00 -4.17538E+00 -4.21725E+00 -4.25347E+00 -4.28454E+00 -4.31044E+00 -4.33077E+00 -4.34484E+00 -4.35172E+00
  -4.35035E+00 -4.33970E+00 -4.31878E+00 -4.28661E+00 -4.24211E+00 -4.18416E+00 -4.11168E+00 -4.02376E+00 -3.91972E+00 -3.79904E+00
  -3.66139E+00 -3.50671E+00 -3.33547E+00 -3.14872E+00 -2.94812E+00 -2.73589E+00 -2.51480E+00 -2.28826E+00 -2.06032E+00 -1.83562E+00
  -1.61909E+00 -1.41578E+00 -1.23063E+00 -1.06839E+00 -9.33413E-01 -8.29421E-01 -7.59194E-01 -7.24418E-01 -7.25672E-01 -7.62482E-01
  -8.33344E-01 -9.35725E-01 -1.06615E+00 -1.22039E+00 -1.39375E+00 -1.58140E+00 -1.77850E+00 -1.98032E+00 -2.18242E+00 -2.38079E+00
  -2.57206E+00 -2.75355E+00 -2.92322E+00 -3.07958E+00 -3.22162E+00 -3.34889E+00 -3.46141E+00 -3.55961E+00 -3.64417E+00 -3.71583E+00
  -3.77546E+00 -3.82399E+00 -3.86248E+00 -3.89197E+00 -3.91337E+00 -3.92750E+00 -3.93509E+00 -3.93686E+00 -3.93352E+00 -3.92567E+00
  -3.91379E+00 -3.89823E+00 -3.87933E+00 -3.85747E+00 -3.83300E+00 -3.80619E+00 -3.77719E+00 -3.74615E+00 -3.71323E+00 -3.67863E+00
  -3.64255E+00 -3.60508E+00 -3.56625E+00 -3.52610E+00 -3.48476E+00 -3.44235E+00 -3.39897E+00 -3.35464E+00 -3.30936E+00 -3.26318E+00
  -3.21619E+00 -3.16851E+00 -3.12014E+00 -3.07109E+00 -3.02133E+00 -2.97092E+00 -2.91996E+00 -2.86851E+00 -2.81656E+00 -2.76409E+00
  -2.71110E+00 -2.65765E+00 -2.60383E+00 -2.54966E+00 -2.49511E+00 -2.44015E+00 -2.38481E+00 -2.32918E+00 -2.27332E+00 -2.21722E+00
  -2.16084E+00 -2.10417E+00 -2.04727E+00 -1.99021E+00 -1.93302E+00 -1.87566E+00 -1.81811E+00 -1.76038E+00 -1.70255E+00 -1.64467E+00
  -1.58674E+00 -1.52872E+00 -1.47058E+00 -1.41238E+00 -1.35418E+00 -1.29602E+00 -1.23787E+00 -1.17968E+00
 NY background values follow
     2.322E+01    2.307E+01    2.292E+01    2.277E+01    2.261E+01    2.246E+01    2.231E+01    2.216E+01    2.201E+01    2.185E+01
     2.170E+01    2.155E+01    2.140E+01    2.125E+01    2.109E+01    2.094E+01    2.079E+01    2.064E+01    2.049E+01    2.033E+01
     2.018E+01    2.003E+01    1.988E+01    1.973E+01    1.957E+01    1.942E+01    1.927E+01    1.912E+01    1.897E+01    1.882E+01
     1.866E+01    1.851E+01    1.836E+01    1.821E+01    1.806E+01    1.791E+01    1.776E+01    1.760E+01    1.745E+01    1.730E+01
     1.715E+01    1.700E+01    1.685E+01    1.670E+01    1.655E+01    1.640E+01    1.625E+01    1.610E+01    1.595E+01    1.580E+01
     1.565E+01    1.550E+01    1.535E+01    1.520E+01    1.505E+01    1.490E+01    1.475E+01    1.460E+01    1.446E+01    1.431E+01
     1.416E+01    1.401E+01    1.386E+01    1.372E+01    1.357E+01    1.342E+01    1.328E+01    1.313E+01    1.299E+01    1.284E+01
     1.270E+01    1.255E+01    1.241E+01    1.227E+01    1.212E+01    1.198E+01    1.184E+01    1.170E+01    1.156E+01    1.142E+01
     1.128E+01    1.114E+01    1.100E+01    1.086E+01    1.072E+01    1.058E+01    1.045E+01    1.031E+01    1.018E+01    1.004E+01
     9.906E+00    9.773E+00    9.640E+00    9.507E+00    9.375E+00    9.244E+00    9.114E+00    8.984E+00    8.855E+00    8.726E+00
     8.599E+00    8.472E+00    8.345E+00    8.220E+00    8.095E+00    7.970E+00    7.847E+00    7.724E+00    7.602E+00    7.481E+00
     7.360E+00    7.240E+00    7.121E+00    7.003E+00    6.885E+00    6.768E+00    6.652E+00    6.537E+00    6.423E+00    6.309E+00
     6.196E+00    6.084E+00    5.973E+00    5.862E+00    5.753E+00    5.644E+00    5.536E+00    5.429E+00    5.322E+00    5.217E+00
     5.112E+00    5.008E+00    4.906E+00    4.804E+00    4.702E+00    4.602E+00    4.503E+00    4.404E+00    4.307E+00    4.210E+00
     4.114E+00    4.019E+00    3.925E+00    3.832E+00    3.739E+00    3.648E+00    3.557E+00    3.467E+00    3.378E+00    3.290E+00
     3.203E+00    3.116E+00    3.031E+00    2.946E+00    2.862E+00    2.779E+00    2.696E+00    2.615E+00    2.534E+00    2.454E+00
     2.375E+00    2.297E+00    2.220E+00    2.143E+00    2.067E+00    1.992E+00    1.918E+00    1.845E+00    1.772E+00    1.700E+00
     1.629E+00    1.558E+00    1.489E+00    1.420E+00    1.352E+00    1.285E+00    1.218E+00    1.153E+00    1.088E+00    1.023E+00
     9.598E-01    8.970E-01    8.350E-01    7.737E-01    7.131E-01    6.532E-01    5.940E-01    5.355E-01    4.776E-01    4.204E-01
     3.639E-01    3.080E-01    2.527E-01    1.980E-01    1.440E-01    9.049E-02    3.759E-02   -1.473E-02   -6.650E-02   -1.177E-01
    -1.684E-01   -2.186E-01   -2.682E-01   -3.174E-01   -3.660E-01   -4.142E-01   -4.619E-01   -5.092E-01   -5.560E-01   -6.024E-01
    -6.483E-01   -6.939E-01   -7.390E-01   -7.837E-01   -8.281E-01   -8.721E-01   -9.158E-01   -9.591E-01   -1.002E+00   -1.045E+00
    -1.087E+00   -1.129E+00   -1.171E+00   -1.212E+00   -1.254E+00   -1.294E+00   -1.335E+00   -1.376E+00   -1.416E+00   -1.456E+00
    -1.496E+00   -1.535E+00   -1.575E+00   -1.614E+00   -1.653E+00   -1.691E+00   -1.730E+00   -1.768E+00   -1.806E+00   -1.844E+00
    -1.882E+00   -1.919E+00   -1.956E+00   -1.993E+00   -2.030E+00   -2.067E+00   -2.103E+00   -2.139E+00   -2.175E+00   -2.211E+00
    -2.247E+00   -2.282E+00   -2.317E+00   -2.353E+00   -2.387E+00   -2.422E+00   -2.457E+00   -2.491E+00   -2.525E+00   -2.559E+00
    -2.593E+00   -2.627E+00   -2.660E+00   -2.694E+00   -2.727E+00   -2.760E+00   -2.793E+00   -2.826E+00   -2.858E+00   -2.890E+00
    -2.923E+00   -2.955E+00   -2.987E+00   -3.019E+00   -3.050E+00   -3.082E+00   -3.113E+00   -3.145E+00   -3.176E+00   -3.207E+00
    -3.238E+00   -3.269E+00   -3.299E+00   -3.330E+00   -3.361E+00   -3.391E+00   -3.421E+00   -3.452E+00   -3.482E+00   -3.512E+00
    -3.542E+00   -3.572E+00   -3.602E+00   -3.632E+00   -3.662E+00   -3.692E+00   -3.722E+00   -3.752E+00   -3.782E+00   -3.811E+00
    -3.841E+00   -3.871E+00   -3.901E+00   -3.931E+00   -3.960E+00   -3.990E+00   -4.020E+00   -4.050E+00   -4.080E+00   -4.110E+00
    -4.139E+00   -4.169E+00   -4.199E+00   -4.229E+00   -4.260E+00   -4.290E+00   -4.320E+00   -4.350E+00   -4.381E+00   -4.411E+00
    -4.442E+00   -4.472E+00   -4.502E+00   -4.533E+00   -4.563E+00   -4.594E+00   -4.624E+00   -4.654E+00   -4.685E+00   -4.715E+00
    -4.745E+00   -4.775E+00   -4.805E+00   -4.834E+00   -4.864E+00   -4.893E+00   -4.922E+00   -4.951E+00   -4.980E+00   -5.009E+00
    -5.037E+00   -5.065E+00   -5.093E+00   -5.120E+00   -5.147E+00   -5.174E+00   -5.201E+00   -5.227E+00   -5.253E+00   -5.279E+00
    -5.304E+00   -5.329E+00   -5.353E+00   -5.377E+00   -5.401E+00   -5.424E+00   -5.447E+00   -5.469E+00   -5.491E+00   -5.512E+00
    -5.533E+00   -5.553E+00   -5.573E+00   -5.592E+00   -5.610E+00   -5.628E+00   -5.646E+00   -5.663E+00   -5.679E+00   -5.695E+00
    -5.710E+00   -5.724E+00   -5.738E+00   -5.751E+00   -5.763E+00   -5.775E+00   -5.786E+00   -5.796E+00   -5.805E+00   -5.814E+00
    -5.822E+00   -5.830E+00   -5.836E+00   -5.842E+00   -5.847E+00   -5.851E+00   -5.854E+00   -5.857E+00   -5.858E+00   -5.859E+00
    -5.859E+00   -5.858E+00   -5.856E+00   -5.853E+00   -5.849E+00   -5.845E+00   -5.839E+00   -5.833E+00   -5.825E+00   -5.817E+00
    -5.807E+00   -5.797E+00   -5.785E+00   -5.773E+00   -5.759E+00   -5.745E+00   -5.729E+00   -5.712E+00   -5.694E+00   -5.675E+00
    -5.655E+00   -5.634E+00   -5.612E+00   -5.589E+00   -5.565E+00   -5.540E+00   -5.514E+00   -5.487E+00   -5.460E+00   -5.431E+00
    -5.401E+00   -5.370E+00   -5.339E+00   -5.307E+00   -5.273E+00   -5.239E+00   -5.204E+00   -5.169E+00   -5.132E+00   -5.095E+00
    -5.056E+00   -5.018E+00   -4.978E+00   -4.937E+00   -4.896E+00   -4.854E+00   -4.812E+00   -4.769E+00   -4.725E+00   -4.680E+00
    -4.635E+00   -4.589E+00   -4.543E+00   -4.495E+00   -4.448E+00   -4.399E+00   -4.351E+00   -4.301E+00   -4.251E+00   -4.201E+00
    -4.150E+00   -4.098E+00   -4.046E+00   -3.994E+00   -3.941E+00   -3.888E+00   -3.834E+00   -3.780E+00   -3.725E+00   -3.670E+00
    -3.615E+00   -3.559E+00   -3.503E+00   -3.446E+00   -3.390E+00   -3.332E+00   -3.275E+00   -3.217E+00   -3.159E+00   -3.101E+00
    -3.042E+00   -2.983E+00   -2.924E+00   -2.865E+00   -2.806E+00   -2.746E+00   -2.686E+00   -2.626E+00   -2.566E+00   -2.505E+00
    -2.445E+00   -2.384E+00   -2.323E+00   -2.263E+00   -2.202E+00   -2.141E+00   -2.080E+00   -2.019E+00   -1.957E+00   -1.896E+00
    -1.835E+00   -1.774E+00   -1.713E+00   -1.652E+00   -1.590E+00   -1.529E+00   -1.468E+00   -1.408E+00
 Ala      Conc. = 9.42E+01
