 LCModel (Version 6.3-1L) Copyright: S.W. Provencher.          Ref.: Magn. Reson. Med. 30:672-679 (1993).                
 Slice#3 Row#3 Col#6  PD_24_press_2_raw_act
 36 lines in following concentration table = NCONC+1
    Conc.  %SD /Cr+PCr  Metabolite                                         
    0.000 999%   0.000 Ala                                                 
  127.779 160%   0.128 Asp                                                 
  565.479  92%   0.567 Cr                                                  
  432.501 123%   0.433 PCr                                                 
  109.316 113%   0.110 GABA                                                
  130.169  95%   0.130 Glc                                                 
    0.000 999%   0.000 Gln                                                 
 1.76E+03  39%   1.760 Glu                                                 
  477.236  11%   0.478 GPC                                                 
    0.000 999%   0.000 PCh                                                 
  272.277  68%   0.273 GSH                                                 
 1.11E+03  52%   1.113 Ins                                                 
    0.000 999%   0.000 Lac                                                 
 1.07E+03  19%   1.076 NAA                                                 
  220.814 102%   0.221 NAAG                                                
   56.933  65% 5.7E-02 Scyllo                                              
  200.284  99%   0.201 Tau                                                 
    6.285 999% 6.3E-03 -CrCH2                                              
  477.236  11%   0.478 GPC+PCh                                             
 1.29E+03  14%   1.297 NAA+NAAG                                            
  997.980  14%   1.000 Cr+PCr                                              
 1.76E+03  39%   1.760 Glu+Gln                                             
 3.01E+03  29%   3.021 Lip13a                                              
    0.000 999%   0.000 Lip13b                                              
  702.581  60%   0.704 Lip09                                               
  979.892  47%   0.982 MM09                                                
  266.458 113%   0.267 Lip20                                               
  935.755  75%   0.938 MM20                                                
  363.383  58%   0.364 MM12                                                
  830.791  68%   0.832 MM14                                                
 1.36E+03  25%   1.367 MM17                                                
 3.01E+03  29%   3.021 Lip13a+Lip13b                                       
 4.21E+03  17%   4.217 MM14+Lip13a+Lip13b+MM12                             
 1.68E+03  20%   1.686 MM09+Lip09                                          
 1.20E+03  56%   1.205 MM20+Lip20                                          
   6 lines in following misc. output table
  FWHM = 0.061 ppm    S/N =   2                                            
  Data shift = 0.031 ppm                                                   
  Ph:   7 deg       1.6 deg/ppm                                            
  alphaB,S = 8.5E+01,   5.1E+01                                            
   14 spline knots.   Ns = 7(1)                                            
   2 inflections.     1 extrema                                            
  498 points on ppm-axis = NY
      4.000000     3.992357     3.984714     3.977070     3.969427     3.961784     3.954141     3.946497     3.938854     3.931211
      3.923568     3.915925     3.908281     3.900638     3.892995     3.885352     3.877708     3.870065     3.862422     3.854779
      3.847136     3.839492     3.831849     3.824206     3.816563     3.808919     3.801276     3.793633     3.785990     3.778347
      3.770703     3.763060     3.755417     3.747774     3.740130     3.732487     3.724844     3.717201     3.709558     3.701914
      3.694271     3.686628     3.678985     3.671341     3.663698     3.656055     3.648412     3.640769     3.633125     3.625482
      3.617839     3.610196     3.602552     3.594909     3.587266     3.579623     3.571980     3.564336     3.556693     3.549050
      3.541407     3.533763     3.526120     3.518477     3.510834     3.503191     3.495547     3.487904     3.480261     3.472618
      3.464974     3.457331     3.449688     3.442045     3.434402     3.426758     3.419115     3.411472     3.403829     3.396185
      3.388542     3.380899     3.373256     3.365613     3.357969     3.350326     3.342683     3.335040     3.327396     3.319753
      3.312110     3.304467     3.296824     3.289180     3.281537     3.273894     3.266251     3.258607     3.250964     3.243321
      3.235678     3.228034     3.220391     3.212748     3.205105     3.197462     3.189818     3.182175     3.174532     3.166889
      3.159245     3.151602     3.143959     3.136316     3.128673     3.121029     3.113386     3.105743     3.098100     3.090456
      3.082813     3.075170     3.067527     3.059884     3.052240     3.044597     3.036954     3.029311     3.021667     3.014024
      3.006381     2.998738     2.991095     2.983451     2.975808     2.968165     2.960522     2.952878     2.945235     2.937592
      2.929949     2.922306     2.914662     2.907019     2.899376     2.891733     2.884089     2.876446     2.868803     2.861160
      2.853517     2.845873     2.838230     2.830587     2.822944     2.815300     2.807657     2.800014     2.792371     2.784728
      2.777084     2.769441     2.761798     2.754155     2.746511     2.738868     2.731225     2.723582     2.715939     2.708295
      2.700652     2.693009     2.685366     2.677722     2.670079     2.662436     2.654793     2.647150     2.639506     2.631863
      2.624220     2.616577     2.608933     2.601290     2.593647     2.586004     2.578361     2.570717     2.563074     2.555431
      2.547788     2.540144     2.532501     2.524858     2.517215     2.509572     2.501928     2.494285     2.486642     2.478999
      2.471355     2.463712     2.456069     2.448426     2.440783     2.433139     2.425496     2.417853     2.410210     2.402566
      2.394923     2.387280     2.379637     2.371994     2.364350     2.356707     2.349064     2.341421     2.333777     2.326134
      2.318491     2.310848     2.303205     2.295561     2.287918     2.280275     2.272632     2.264988     2.257345     2.249702
      2.242059     2.234416     2.226772     2.219129     2.211486     2.203843     2.196199     2.188556     2.180913     2.173270
      2.165627     2.157983     2.150340     2.142697     2.135054     2.127410     2.119767     2.112124     2.104481     2.096838
      2.089194     2.081551     2.073908     2.066265     2.058621     2.050978     2.043335     2.035692     2.028049     2.020405
      2.012762     2.005119     1.997476     1.989833     1.982190     1.974546     1.966903     1.959260     1.951617     1.943974
      1.936331     1.928688     1.921045     1.913402     1.905759     1.898115     1.890472     1.882829     1.875186     1.867543
      1.859900     1.852257     1.844614     1.836971     1.829327     1.821684     1.814041     1.806398     1.798755     1.791112
      1.783469     1.775826     1.768183     1.760540     1.752896     1.745253     1.737610     1.729967     1.722324     1.714681
      1.707038     1.699395     1.691752     1.684108     1.676465     1.668822     1.661179     1.653536     1.645893     1.638250
      1.630607     1.622964     1.615321     1.607677     1.600034     1.592391     1.584748     1.577105     1.569462     1.561819
      1.554176     1.546533     1.538890     1.531246     1.523603     1.515960     1.508317     1.500674     1.493031     1.485388
      1.477745     1.470102     1.462458     1.454815     1.447172     1.439529     1.431886     1.424243     1.416600     1.408957
      1.401314     1.393671     1.386027     1.378384     1.370741     1.363098     1.355455     1.347812     1.340169     1.332526
      1.324883     1.317240     1.309596     1.301953     1.294310     1.286667     1.279024     1.271381     1.263738     1.256095
      1.248452     1.240808     1.233165     1.225522     1.217879     1.210236     1.202593     1.194950     1.187307     1.179664
      1.172021     1.164377     1.156734     1.149091     1.141448     1.133805     1.126162     1.118519     1.110876     1.103233
      1.095590     1.087946     1.080303     1.072660     1.065017     1.057374     1.049731     1.042088     1.034445     1.026802
      1.019158     1.011515     1.003872     0.996229     0.988586     0.980943     0.973300     0.965657     0.958014     0.950371
      0.942727     0.935084     0.927441     0.919798     0.912155     0.904512     0.896869     0.889226     0.881583     0.873940
      0.866296     0.858653     0.851010     0.843367     0.835724     0.828081     0.820438     0.812795     0.805152     0.797508
      0.789865     0.782222     0.774579     0.766936     0.759293     0.751650     0.744007     0.736364     0.728721     0.721077
      0.713434     0.705791     0.698148     0.690505     0.682862     0.675219     0.667576     0.659933     0.652290     0.644646
      0.637003     0.629360     0.621717     0.614074     0.606431     0.598788     0.591145     0.583502     0.575858     0.568215
      0.560572     0.552929     0.545286     0.537643     0.530000     0.522357     0.514714     0.507071     0.499427     0.491784
      0.484141     0.476498     0.468855     0.461212     0.453569     0.445925     0.438282     0.430639     0.422996     0.415353
      0.407710     0.400067     0.392424     0.384780     0.377137     0.369494     0.361851     0.354208     0.346565     0.338922
      0.331278     0.323635     0.315992     0.308349     0.300706     0.293063     0.285420     0.277777     0.270133     0.262490
      0.254847     0.247204     0.239561     0.231918     0.224275     0.216631     0.208988     0.201345
 NY phased data points follow
   4.17775E+01  9.61970E+00  2.87813E+00  4.13137E+00  7.67264E+00  2.54388E+01  2.11849E+01  2.10397E+01  2.78261E+01  3.59533E+01
   4.57915E+01  4.12863E+01  2.63985E+01  2.72630E+01  2.42610E+01  1.76567E+01  2.35794E+01 -2.80839E+00  1.65954E+01  7.62878E+00
   3.26857E+01  2.31959E+01  1.43613E+01  1.30656E+00  7.12915E+00  1.01984E+01  2.47186E+01  1.10733E+01  1.70307E+01  2.55334E+01
   2.75252E+01  8.89647E+00  1.21189E+01  1.03100E+01  1.45342E+01  1.74287E+01  3.72098E+01  2.64638E+01  1.99830E+01  1.72540E+01
   1.80381E+01  1.67272E+01  2.09369E+01  1.05410E+01  1.22805E+01  6.76491E+00  3.68059E+01  1.93373E+01  2.65706E+01  1.57728E+01
   2.02063E+01  3.16914E+00  1.97313E+01  2.12851E+01  7.91452E+00  1.81477E+01  1.53172E+01  1.11398E+01  1.80352E+01  1.61245E+01
   1.06446E+01 -4.85586E+00  9.23997E+00  3.79420E+00  4.60939E+00  8.73899E+00  2.48395E+00  5.35653E+00  1.36571E+01 -4.79273E+00
   2.01349E+01  1.71427E+01  6.86862E+00  1.58974E+01  1.35911E+01  1.50972E+00  2.37480E+01  7.66824E+00  2.36631E+01  1.01951E+01
   1.87293E+01  6.98351E+00  1.31799E+01  1.06183E+01  1.48978E+01  1.09715E+01  5.43348E+00  1.74321E+01  1.01409E+01  1.57300E+01
   1.42229E+01  7.86415E+00  5.61220E+00  3.63676E+00  2.42036E+01  9.70597E+00  1.59694E+01  7.32602E+00  3.28744E+01  2.32407E+01
   4.17401E+01  4.98298E+01  5.89303E+01  4.52660E+01  4.92439E+01  2.65944E+01  4.06338E+01  2.72441E+01  1.98340E+01  6.19507E+00
   1.72691E+01  1.37434E+01  1.92127E+01  1.08664E+01  1.22757E+01  5.52876E+00  1.39616E+01  1.19869E+01  2.21022E+01  1.30465E+01
   2.12338E+01  1.31066E+01  1.94731E+01  2.66016E+01  2.58011E+01  3.47575E+01  2.71151E+01  3.35602E+01  4.29187E+01  3.17834E+01
   3.48983E+01  3.02915E+01  1.48548E+01  2.32500E+01  1.69753E+01  2.65887E+00  1.10509E+01  1.01250E+01  1.80982E+01 -5.20427E+00
   9.38897E+00  1.13207E+01 -8.49004E+00  2.58808E-02  1.19021E+01  2.71272E+00  3.33009E+00 -5.78624E-01  3.32258E+00 -3.73966E+00
   9.23882E+00  2.86705E+01  5.99288E+00  4.09035E+00 -6.05433E+00  2.78406E+01 -1.73619E+00  1.09732E+01  9.85671E+00  5.03916E+00
   5.08861E+00  8.31221E+00  2.51692E+00  7.55726E+00  2.97569E+00  4.06986E+00  8.21097E+00  1.01747E+01  3.86109E-01 -1.32771E+00
  -3.36850E-01  1.14463E+01 -6.36285E+00  5.68436E-01  6.35107E+00 -2.35953E+00  1.34596E+00  3.70583E+00 -1.17767E+01  8.49521E+00
  -8.03884E+00  2.17971E+00 -8.97297E+00  1.05226E+01  4.77410E-01 -6.23544E+00 -1.36202E-01  2.56118E+00  1.50342E+01  6.58502E+00
   4.23961E-01  1.02496E+01  4.62409E+00  1.46905E+01  6.28818E+00 -8.15315E-01 -1.84008E+00  4.97017E-01  7.10797E+00 -7.51853E+00
   3.43688E+00  6.18273E+00 -5.44378E+00  1.51879E+00  6.44063E+00  9.86010E+00 -5.00210E+00  7.37186E+00 -4.55081E+00  1.02627E+01
  -1.00302E+00  2.22454E+00  1.86496E+01  3.52787E+00  1.18347E+01  9.10013E+00  1.52444E+01 -7.51888E-01  5.36500E+00 -1.59561E+01
  -1.76825E+01 -2.15732E+00 -5.70643E+00 -1.13934E+01  2.61575E+00  9.99438E+00  7.73665E+00 -4.45282E+00 -2.28240E+00 -7.99797E+00
   2.41088E+00  2.36481E+00 -3.56542E+00 -3.29246E+00  5.65182E+00 -1.05559E+01 -8.40414E+00 -4.09372E+00  7.37056E+00 -6.75892E+00
  -2.15126E+00 -1.10031E+01 -8.23306E+00  2.78129E+00  4.45064E-01  1.07620E+01  1.51261E+01  8.51674E+00  2.94118E+01  1.08943E+01
   2.50361E+01  1.35388E+01  2.38853E+01  2.40304E+01  4.71909E+00  2.62547E+01  1.58981E+01  2.73734E+01  3.90614E+01  4.92063E+01
   5.17482E+01  4.30679E+01  3.40882E+01  3.83490E+01  1.24190E+01  9.70856E+00  1.83608E+01 -4.48582E+00  9.66076E+00  6.49196E+00
  -1.94168E-01  1.14350E-01 -7.87431E+00 -3.31827E+00  1.32940E+01  1.39316E+01  1.70337E+00 -1.96886E+00  7.87621E+00 -6.02475E+00
   3.02334E+00 -6.93210E+00  2.95847E-01  9.03538E+00  1.01843E+01 -3.46776E+00  7.95381E+00 -8.23458E+00 -3.69752E+00 -2.11663E+00
   7.13826E+00  3.08572E+00  1.47382E+01  5.71995E+00 -4.01853E+00  6.23253E+00  1.88057E+01  5.32235E+00  1.44727E+01  1.39187E+01
   2.58942E+01  3.00643E+00  1.74810E+01  8.03290E+00  2.17761E+01  1.35738E+01  8.77452E+00  1.20138E+01  1.22327E+01  2.09236E+01
   1.19524E-01  6.64809E+00  3.82233E+00  1.85206E+01  1.32244E+01  1.09494E+01  1.87146E+01  1.32685E+01  6.20320E+00  7.90892E+00
   1.65415E+01  4.85035E+00 -4.06883E+00  8.15458E-01  1.22555E+01  5.52180E+00  2.40272E+01  2.87205E+01  4.50554E+00  2.27976E+01
   3.14521E+01  4.36758E+00  6.14366E+00  4.65157E+00 -2.91326E+00  9.08227E+00 -7.22936E+00 -2.52332E+00  4.45037E+00 -8.17471E+00
  -1.02759E+01  5.83656E+00 -2.93533E+00  1.41335E-01  3.77905E+00  2.95067E+00  1.61724E+01  8.31927E+00  1.15873E+01  3.84625E+00
   1.48927E+01  2.35585E+01  1.34739E+01  6.69656E+00  1.42435E+01  1.05542E+01  1.85144E+01  1.05935E+01  6.15225E+00 -1.23549E+01
  -4.68649E+00  5.77435E+00  9.69296E+00 -8.04550E-01  2.30638E+01  1.07792E+01  2.17635E+01  1.92497E+01  2.87812E+01  1.57398E+01
   8.44081E+00  2.14476E+01  2.27052E+01  1.84584E+01  2.09937E+01  1.65596E+01  5.68028E+00  6.03035E+00  1.52831E+00 -7.88396E+00
  -6.98403E+00 -1.28426E+00  1.26816E+01 -2.73935E+00 -1.31838E+01  5.59134E+00 -5.59026E+00  4.47348E+01  1.40708E+01  3.03299E+01
  -1.24193E+01  1.62386E+01  3.94369E+00 -2.14555E+01  1.29283E+01 -1.00213E+01 -1.15385E+01 -6.66022E-01  9.18965E+00 -2.84062E-01
   4.02020E+00  1.10509E+01  1.87457E+01  1.62404E+01  7.74787E+00 -3.00082E+00  9.43517E+00  2.05821E+01  3.37738E+01  3.98593E+00
  -3.22669E+00 -2.80194E+00 -2.25044E+00  1.04555E+01  1.06851E+01 -8.00883E+00 -1.64968E+00  5.58622E+00 -2.40174E+00  6.93250E+00
  -3.80024E+00 -2.76360E+00 -6.40732E+00  2.44782E+00 -6.38510E+00 -1.14965E+01 -2.09399E+01 -1.41718E+01 -8.40825E+00 -1.76812E+01
  -1.04138E+01 -1.82117E+01  1.63280E+00 -6.04589E+00 -7.70383E+00 -2.03268E+00 -1.21555E+01  1.05533E+00 -1.37309E+01 -1.67653E+01
  -2.32984E+01 -9.55447E+00 -1.23885E+01 -6.26955E+00 -1.24702E+00 -1.38046E+01 -1.56089E+01 -1.88736E+01 -9.39142E+00  1.06630E+00
  -3.48550E+00 -1.93130E+00  5.22970E-01 -9.49597E+00 -8.64519E+00 -4.23891E+00  2.87266E+00 -1.20450E+01 -4.67507E+00 -6.67130E+00
  -7.21501E+00 -8.07181E+00  6.00317E+00  7.18558E-01 -1.58145E+01 -6.03413E+00 -7.69959E+00 -6.17853E+00 -4.05815E+00 -6.99905E+00
  -1.23324E+01 -1.24512E+00  5.76633E-01 -7.68872E+00 -1.02167E+00 -6.34626E+00 -2.55316E+00 -1.47109E+01 -1.96332E+01 -3.15302E+00
  -3.32140E+00 -2.13803E+00  1.92739E+00 -3.54004E+00 -1.30190E+01 -1.43785E+01 -9.49546E+00 -1.64052E+00 -8.44697E+00 -8.30906E+00
  -1.35867E+01 -5.72444E+00  4.92782E-01 -1.10486E+00 -9.82925E+00  5.11658E+00 -1.32233E+01 -1.69576E+00
 NY points of the fit to the data follow
   1.31862E+01  1.29420E+01  1.32339E+01  1.41908E+01  1.60061E+01  1.88106E+01  2.23829E+01  2.63128E+01  2.99684E+01  3.26573E+01
   3.38370E+01  3.33314E+01  3.14357E+01  2.86977E+01  2.56567E+01  2.26847E+01  1.99989E+01  1.77678E+01  1.61484E+01  1.51203E+01
   1.45589E+01  1.42321E+01  1.39345E+01  1.37277E+01  1.36648E+01  1.38121E+01  1.43303E+01  1.53759E+01  1.68749E+01  1.84730E+01
   1.97527E+01  2.04293E+01  2.03945E+01  1.96763E+01  1.83934E+01  1.68621E+01  1.54247E+01  1.42435E+01  1.34034E+01  1.30036E+01
   1.30696E+01  1.36098E+01  1.45914E+01  1.59445E+01  1.75024E+01  1.90054E+01  2.00923E+01  2.04253E+01  1.99028E+01  1.87148E+01
   1.71551E+01  1.55125E+01  1.40373E+01  1.28950E+01  1.21751E+01  1.19209E+01  1.20765E+01  1.25171E+01  1.30226E+01  1.33609E+01
   1.33854E+01  1.30822E+01  1.25631E+01  1.19770E+01  1.14514E+01  1.10983E+01  1.09497E+01  1.09784E+01  1.11694E+01  1.15029E+01
   1.19037E+01  1.22826E+01  1.25524E+01  1.26615E+01  1.25861E+01  1.23306E+01  1.19306E+01  1.14583E+01  1.10259E+01  1.07664E+01
   1.07108E+01  1.08180E+01  1.09986E+01  1.11372E+01  1.11122E+01  1.08168E+01  1.02283E+01  9.48225E+00  8.78053E+00  8.26084E+00
   7.94108E+00  7.78494E+00  7.77869E+00  7.89784E+00  8.18288E+00  9.14974E+00  1.19021E+01  1.66196E+01  2.33331E+01  3.16716E+01
   4.05189E+01  4.78767E+01  5.16155E+01  5.08959E+01  4.65825E+01  4.03000E+01  3.33735E+01  2.65297E+01  2.04223E+01  1.55617E+01
   1.20671E+01  9.86576E+00  8.90621E+00  8.47708E+00  8.18696E+00  7.95685E+00  7.75616E+00  7.59295E+00  7.51848E+00  7.78631E+00
   9.20570E+00  1.21666E+01  1.66708E+01  2.25353E+01  2.90936E+01  3.50564E+01  3.88326E+01  3.94830E+01  3.72697E+01  3.32370E+01
   2.84069E+01  2.33511E+01  1.84875E+01  1.42538E+01  1.09191E+01  8.58139E+00  7.37081E+00  6.96909E+00  6.94970E+00  7.13740E+00
   7.39817E+00  7.62232E+00  7.75821E+00  7.79134E+00  7.70900E+00  7.52664E+00  7.27555E+00  6.98575E+00  6.68802E+00  6.40681E+00
   6.15006E+00  5.93133E+00  5.75615E+00  5.62405E+00  5.51150E+00  5.39090E+00  5.23201E+00  5.01489E+00  4.76613E+00  4.52775E+00
   4.35629E+00  4.28769E+00  4.29941E+00  4.32122E+00  4.28915E+00  4.18764E+00  4.03595E+00  3.86129E+00  3.67829E+00  3.47185E+00
   3.22628E+00  2.96298E+00  2.69554E+00  2.44310E+00  2.23364E+00  2.09175E+00  2.02252E+00  1.99764E+00  1.96690E+00  1.91247E+00
   1.85836E+00  1.84666E+00  1.89373E+00  1.99633E+00  2.18242E+00  2.51078E+00  3.02427E+00  3.70236E+00  4.42956E+00  5.06327E+00
   5.48878E+00  5.63885E+00  5.54712E+00  5.29134E+00  4.94981E+00  4.59901E+00  4.32504E+00  4.23780E+00  4.38835E+00  4.74795E+00
   5.21547E+00  5.70744E+00  6.09680E+00  6.21788E+00  5.97021E+00  5.34702E+00  4.45224E+00  3.49283E+00  2.78603E+00  2.73183E+00
   3.43317E+00  4.84979E+00  6.72307E+00  8.56862E+00  9.69571E+00  9.44259E+00  7.62496E+00  4.67445E+00  1.24318E+00 -2.01187E+00
  -4.39968E+00 -5.34242E+00 -4.65193E+00 -2.68412E+00 -1.36662E-01  2.39195E+00  4.44292E+00  5.81469E+00  6.49686E+00  6.65397E+00
   6.58224E+00  6.53439E+00  6.65344E+00  6.93432E+00  7.22611E+00  7.31351E+00  7.04168E+00  6.39666E+00  5.52593E+00  4.68790E+00
   4.13048E+00  4.05511E+00  4.50655E+00  5.32406E+00  6.23529E+00  6.98741E+00  7.44228E+00  7.58532E+00  7.56538E+00  7.72219E+00
   8.30342E+00  9.39744E+00  1.10479E+01  1.36766E+01  1.76515E+01  2.26088E+01  2.83308E+01  3.44643E+01  4.01151E+01  4.37647E+01
   4.41207E+01  4.11398E+01  3.59248E+01  2.97564E+01  2.34880E+01  1.76492E+01  1.26716E+01  8.81222E+00  6.09980E+00  4.55522E+00
   4.00311E+00  3.86389E+00  3.90008E+00  3.99895E+00  4.05947E+00  4.03725E+00  3.93242E+00  3.75487E+00  3.52932E+00  3.29535E+00
   3.09253E+00  2.94527E+00  2.86628E+00  2.85476E+00  2.89760E+00  2.98359E+00  3.10486E+00  3.25843E+00  3.44750E+00  3.67598E+00
   3.94653E+00  4.26058E+00  4.61566E+00  5.00800E+00  5.43351E+00  5.88871E+00  6.36768E+00  6.86283E+00  7.36706E+00  7.87072E+00
   8.36001E+00  8.81991E+00  9.23444E+00  9.58825E+00  9.86877E+00  1.00666E+01  1.01761E+01  1.01950E+01  1.01245E+01  9.97014E+00
   9.74032E+00  9.44578E+00  9.09949E+00  8.71564E+00  8.30912E+00  7.89476E+00  7.48667E+00  7.09758E+00  6.73844E+00  6.41804E+00
   6.14284E+00  5.91695E+00  5.74230E+00  5.61882E+00  5.54481E+00  5.51722E+00  5.53202E+00  5.58458E+00  5.67005E+00  5.78364E+00
   5.92084E+00  6.07767E+00  6.25071E+00  6.43727E+00  6.63541E+00  6.84389E+00  7.06208E+00  7.28985E+00  7.52739E+00  7.77505E+00
   8.03319E+00  8.30194E+00  8.58102E+00  8.86957E+00  9.16599E+00  9.46786E+00  9.77192E+00  1.00740E+01  1.03691E+01  1.06516E+01
   1.09150E+01  1.11528E+01  1.13581E+01  1.15245E+01  1.16457E+01  1.17162E+01  1.17315E+01  1.16881E+01  1.15839E+01  1.14184E+01
   1.11922E+01  1.09077E+01  1.05683E+01  1.01791E+01  9.74590E+00  9.27557E+00  8.77555E+00  8.25370E+00  7.71806E+00  7.17667E+00
   6.63731E+00  6.10737E+00  5.59375E+00  5.10274E+00  4.64006E+00  4.21076E+00  3.81929E+00  3.46952E+00  3.16479E+00  2.90803E+00
   2.70181E+00  2.54834E+00  2.44955E+00  2.40703E+00  2.42202E+00  2.49537E+00  2.62735E+00  2.81751E+00  3.06447E+00  3.36576E+00
   3.71754E+00  4.11450E+00  4.54966E+00  5.01429E+00  5.49795E+00  5.98860E+00  6.47289E+00  6.93646E+00  7.36445E+00  7.74208E+00
   8.05521E+00  8.29107E+00  8.43882E+00  8.49016E+00  8.43968E+00  8.28519E+00  8.02784E+00  7.67202E+00  7.22515E+00  6.69727E+00
   6.10043E+00  5.44815E+00  4.75473E+00  4.03463E+00  3.30183E+00  2.56932E+00  1.84868E+00  1.14977E+00  4.80637E-01 -1.52600E-01
  -7.45672E-01 -1.29604E+00 -1.80268E+00 -2.26588E+00 -2.68691E+00 -3.06786E+00 -3.41136E+00 -3.72037E+00 -3.99806E+00 -4.24758E+00
  -4.47199E+00 -4.67420E+00 -4.85689E+00 -5.02254E+00 -5.17334E+00 -5.31124E+00 -5.43793E+00 -5.55488E+00 -5.66340E+00 -5.76459E+00
  -5.85940E+00 -5.94863E+00 -6.03297E+00 -6.11302E+00 -6.18929E+00 -6.26224E+00 -6.33223E+00 -6.39958E+00 -6.46456E+00 -6.52743E+00
  -6.58841E+00 -6.64768E+00 -6.70540E+00 -6.76170E+00 -6.81671E+00 -6.87054E+00 -6.92331E+00 -6.97511E+00 -7.02600E+00 -7.07605E+00
  -7.12533E+00 -7.17390E+00 -7.22182E+00 -7.26914E+00 -7.31588E+00 -7.36208E+00 -7.40778E+00 -7.45303E+00 -7.49784E+00 -7.54224E+00
  -7.58625E+00 -7.62988E+00 -7.67315E+00 -7.71611E+00 -7.75875E+00 -7.80108E+00 -7.84312E+00 -7.88489E+00 -7.92639E+00 -7.96765E+00
  -8.00866E+00 -8.04943E+00 -8.08996E+00 -8.13026E+00 -8.17034E+00 -8.21021E+00 -8.24985E+00 -8.28927E+00 -8.32846E+00 -8.36744E+00
  -8.40620E+00 -8.44473E+00 -8.48302E+00 -8.52105E+00 -8.55882E+00 -8.59632E+00 -8.63354E+00 -8.67045E+00
 NY background values follow
     1.083E+01    1.079E+01    1.076E+01    1.072E+01    1.068E+01    1.064E+01    1.060E+01    1.057E+01    1.053E+01    1.049E+01
     1.045E+01    1.041E+01    1.038E+01    1.034E+01    1.030E+01    1.026E+01    1.022E+01    1.019E+01    1.015E+01    1.011E+01
     1.007E+01    1.003E+01    9.995E+00    9.957E+00    9.919E+00    9.881E+00    9.843E+00    9.805E+00    9.767E+00    9.728E+00
     9.690E+00    9.652E+00    9.614E+00    9.576E+00    9.538E+00    9.499E+00    9.461E+00    9.423E+00    9.385E+00    9.346E+00
     9.308E+00    9.270E+00    9.232E+00    9.193E+00    9.155E+00    9.117E+00    9.079E+00    9.040E+00    9.002E+00    8.964E+00
     8.925E+00    8.887E+00    8.849E+00    8.811E+00    8.772E+00    8.734E+00    8.696E+00    8.657E+00    8.619E+00    8.580E+00
     8.542E+00    8.504E+00    8.465E+00    8.427E+00    8.389E+00    8.350E+00    8.312E+00    8.273E+00    8.235E+00    8.196E+00
     8.158E+00    8.120E+00    8.081E+00    8.043E+00    8.004E+00    7.966E+00    7.927E+00    7.889E+00    7.850E+00    7.812E+00
     7.773E+00    7.735E+00    7.696E+00    7.658E+00    7.619E+00    7.581E+00    7.542E+00    7.504E+00    7.465E+00    7.427E+00
     7.388E+00    7.350E+00    7.311E+00    7.272E+00    7.234E+00    7.195E+00    7.157E+00    7.118E+00    7.079E+00    7.041E+00
     7.002E+00    6.964E+00    6.925E+00    6.886E+00    6.848E+00    6.809E+00    6.771E+00    6.732E+00    6.693E+00    6.655E+00
     6.616E+00    6.577E+00    6.539E+00    6.500E+00    6.461E+00    6.423E+00    6.384E+00    6.345E+00    6.307E+00    6.268E+00
     6.229E+00    6.191E+00    6.152E+00    6.113E+00    6.074E+00    6.036E+00    5.997E+00    5.958E+00    5.920E+00    5.881E+00
     5.842E+00    5.803E+00    5.765E+00    5.726E+00    5.687E+00    5.648E+00    5.610E+00    5.571E+00    5.532E+00    5.493E+00
     5.455E+00    5.416E+00    5.377E+00    5.338E+00    5.299E+00    5.261E+00    5.222E+00    5.183E+00    5.144E+00    5.105E+00
     5.067E+00    5.028E+00    4.989E+00    4.950E+00    4.911E+00    4.873E+00    4.834E+00    4.795E+00    4.756E+00    4.717E+00
     4.678E+00    4.640E+00    4.601E+00    4.562E+00    4.523E+00    4.484E+00    4.445E+00    4.406E+00    4.368E+00    4.329E+00
     4.290E+00    4.251E+00    4.212E+00    4.173E+00    4.134E+00    4.096E+00    4.057E+00    4.018E+00    3.979E+00    3.940E+00
     3.901E+00    3.862E+00    3.823E+00    3.784E+00    3.746E+00    3.707E+00    3.668E+00    3.629E+00    3.590E+00    3.551E+00
     3.512E+00    3.473E+00    3.434E+00    3.396E+00    3.357E+00    3.318E+00    3.279E+00    3.240E+00    3.201E+00    3.162E+00
     3.123E+00    3.084E+00    3.045E+00    3.006E+00    2.967E+00    2.929E+00    2.890E+00    2.851E+00    2.812E+00    2.773E+00
     2.734E+00    2.695E+00    2.656E+00    2.617E+00    2.578E+00    2.539E+00    2.500E+00    2.461E+00    2.423E+00    2.384E+00
     2.345E+00    2.306E+00    2.267E+00    2.228E+00    2.189E+00    2.150E+00    2.111E+00    2.072E+00    2.033E+00    1.994E+00
     1.955E+00    1.916E+00    1.877E+00    1.839E+00    1.800E+00    1.761E+00    1.722E+00    1.683E+00    1.644E+00    1.605E+00
     1.566E+00    1.527E+00    1.488E+00    1.449E+00    1.410E+00    1.371E+00    1.332E+00    1.293E+00    1.255E+00    1.216E+00
     1.177E+00    1.138E+00    1.099E+00    1.060E+00    1.021E+00    9.821E-01    9.431E-01    9.042E-01    8.653E-01    8.264E-01
     7.875E-01    7.485E-01    7.096E-01    6.707E-01    6.318E-01    5.929E-01    5.540E-01    5.150E-01    4.761E-01    4.372E-01
     3.983E-01    3.594E-01    3.205E-01    2.816E-01    2.427E-01    2.038E-01    1.649E-01    1.260E-01    8.709E-02    4.819E-02
     9.294E-03   -2.960E-02   -6.849E-02   -1.074E-01   -1.463E-01   -1.852E-01   -2.240E-01   -2.629E-01   -3.018E-01   -3.407E-01
    -3.796E-01   -4.184E-01   -4.573E-01   -4.962E-01   -5.350E-01   -5.739E-01   -6.128E-01   -6.516E-01   -6.905E-01   -7.294E-01
    -7.682E-01   -8.071E-01   -8.459E-01   -8.848E-01   -9.236E-01   -9.625E-01   -1.001E+00   -1.040E+00   -1.079E+00   -1.118E+00
    -1.157E+00   -1.195E+00   -1.234E+00   -1.273E+00   -1.312E+00   -1.351E+00   -1.390E+00   -1.428E+00   -1.467E+00   -1.506E+00
    -1.545E+00   -1.584E+00   -1.622E+00   -1.661E+00   -1.700E+00   -1.739E+00   -1.778E+00   -1.816E+00   -1.855E+00   -1.894E+00
    -1.933E+00   -1.971E+00   -2.010E+00   -2.049E+00   -2.088E+00   -2.126E+00   -2.165E+00   -2.204E+00   -2.243E+00   -2.281E+00
    -2.320E+00   -2.359E+00   -2.398E+00   -2.436E+00   -2.475E+00   -2.514E+00   -2.552E+00   -2.591E+00   -2.630E+00   -2.669E+00
    -2.707E+00   -2.746E+00   -2.785E+00   -2.823E+00   -2.862E+00   -2.901E+00   -2.939E+00   -2.978E+00   -3.017E+00   -3.055E+00
    -3.094E+00   -3.133E+00   -3.171E+00   -3.210E+00   -3.249E+00   -3.287E+00   -3.326E+00   -3.365E+00   -3.403E+00   -3.442E+00
    -3.480E+00   -3.519E+00   -3.558E+00   -3.596E+00   -3.635E+00   -3.673E+00   -3.712E+00   -3.750E+00   -3.789E+00   -3.828E+00
    -3.866E+00   -3.905E+00   -3.943E+00   -3.982E+00   -4.020E+00   -4.059E+00   -4.097E+00   -4.136E+00   -4.174E+00   -4.213E+00
    -4.251E+00   -4.290E+00   -4.328E+00   -4.367E+00   -4.405E+00   -4.444E+00   -4.482E+00   -4.521E+00   -4.559E+00   -4.598E+00
    -4.636E+00   -4.675E+00   -4.713E+00   -4.752E+00   -4.790E+00   -4.828E+00   -4.867E+00   -4.905E+00   -4.944E+00   -4.982E+00
    -5.020E+00   -5.059E+00   -5.097E+00   -5.135E+00   -5.174E+00   -5.212E+00   -5.251E+00   -5.289E+00   -5.327E+00   -5.366E+00
    -5.404E+00   -5.442E+00   -5.481E+00   -5.519E+00   -5.557E+00   -5.595E+00   -5.634E+00   -5.672E+00   -5.710E+00   -5.749E+00
    -5.787E+00   -5.825E+00   -5.863E+00   -5.901E+00   -5.940E+00   -5.978E+00   -6.016E+00   -6.054E+00   -6.093E+00   -6.131E+00
    -6.169E+00   -6.207E+00   -6.245E+00   -6.283E+00   -6.322E+00   -6.360E+00   -6.398E+00   -6.436E+00   -6.474E+00   -6.512E+00
    -6.550E+00   -6.588E+00   -6.627E+00   -6.665E+00   -6.703E+00   -6.741E+00   -6.779E+00   -6.817E+00   -6.855E+00   -6.893E+00
    -6.931E+00   -6.969E+00   -7.007E+00   -7.045E+00   -7.083E+00   -7.121E+00   -7.159E+00   -7.197E+00   -7.235E+00   -7.273E+00
    -7.311E+00   -7.349E+00   -7.387E+00   -7.425E+00   -7.463E+00   -7.501E+00   -7.538E+00   -7.576E+00   -7.614E+00   -7.652E+00
    -7.690E+00   -7.728E+00   -7.766E+00   -7.804E+00   -7.841E+00   -7.879E+00   -7.917E+00   -7.955E+00   -7.993E+00   -8.030E+00
    -8.068E+00   -8.106E+00   -8.144E+00   -8.181E+00   -8.219E+00   -8.257E+00   -8.295E+00   -8.332E+00
 Asp      Conc. = 1.28E+02
