 LCModel (Version 6.3-1L) Copyright: S.W. Provencher.          Ref.: Magn. Reson. Med. 30:672-679 (1993).                
 Slice#3 Row#5 Col#10  PD_24_press_2_raw_act
 36 lines in following concentration table = NCONC+1
    Conc.  %SD /Cr+PCr  Metabolite                                         
  235.536  80%   0.104 Ala                                                 
    0.000 999%   0.000 Asp                                                 
  739.658  61%   0.326 Cr                                                  
 1.53E+03  30%   0.674 PCr                                                 
   29.621 790% 1.3E-02 GABA                                                
  209.222 111% 9.2E-02 Glc                                                 
 1.14E+03  35%   0.501 Gln                                                 
 2.38E+03  19%   1.047 Glu                                                 
  924.367   4%   0.407 GPC                                                 
    0.000 999%   0.000 PCh                                                 
  577.035  22%   0.254 GSH                                                 
 2.32E+03  18%   1.022 Ins                                                 
    0.000 999%   0.000 Lac                                                 
 2.52E+03   8%   1.108 NAA                                                 
  558.130  41%   0.246 NAAG                                                
  182.749  25% 8.0E-02 Scyllo                                              
  117.540 273% 5.2E-02 Tau                                                 
 1.27E+03  14%   0.560 -CrCH2                                              
  924.367   4%   0.407 GPC+PCh                                             
 3.07E+03   5%   1.354 NAA+NAAG                                            
 2.27E+03   4%   1.000 Cr+PCr                                              
 3.51E+03  18%   1.548 Glu+Gln                                             
  266.818 153%   0.118 Lip13a                                              
    0.000 999%   0.000 Lip13b                                              
    0.000 999%   0.000 Lip09                                               
 2.43E+03  12%   1.071 MM09                                                
   42.714 284% 1.9E-02 Lip20                                               
 5.49E+03  10%   2.419 MM20                                                
  701.496  33%   0.309 MM12                                                
 2.34E+03  21%   1.029 MM14                                                
 1.81E+03  20%   0.799 MM17                                                
  266.818 153%   0.118 Lip13a+Lip13b                                       
 3.30E+03  14%   1.455 MM14+Lip13a+Lip13b+MM12                             
 2.43E+03  12%   1.071 MM09+Lip09                                          
 5.53E+03  10%   2.438 MM20+Lip20                                          
   6 lines in following misc. output table
  FWHM = 0.054 ppm    S/N =   9                                            
  Data shift = 0.023 ppm                                                   
  Ph:  -3 deg       4.1 deg/ppm                                            
  alphaB,S = 8.5E+01,   1.0E+02                                            
   14 spline knots.   Ns = 7(1)                                            
   2 inflections.     1 extrema                                            
  498 points on ppm-axis = NY
      4.000000     3.992357     3.984714     3.977070     3.969427     3.961784     3.954141     3.946497     3.938854     3.931211
      3.923568     3.915925     3.908281     3.900638     3.892995     3.885352     3.877708     3.870065     3.862422     3.854779
      3.847136     3.839492     3.831849     3.824206     3.816563     3.808919     3.801276     3.793633     3.785990     3.778347
      3.770703     3.763060     3.755417     3.747774     3.740130     3.732487     3.724844     3.717201     3.709558     3.701914
      3.694271     3.686628     3.678985     3.671341     3.663698     3.656055     3.648412     3.640769     3.633125     3.625482
      3.617839     3.610196     3.602552     3.594909     3.587266     3.579623     3.571980     3.564336     3.556693     3.549050
      3.541407     3.533763     3.526120     3.518477     3.510834     3.503191     3.495547     3.487904     3.480261     3.472618
      3.464974     3.457331     3.449688     3.442045     3.434402     3.426758     3.419115     3.411472     3.403829     3.396185
      3.388542     3.380899     3.373256     3.365613     3.357969     3.350326     3.342683     3.335040     3.327396     3.319753
      3.312110     3.304467     3.296824     3.289180     3.281537     3.273894     3.266251     3.258607     3.250964     3.243321
      3.235678     3.228034     3.220391     3.212748     3.205105     3.197462     3.189818     3.182175     3.174532     3.166889
      3.159245     3.151602     3.143959     3.136316     3.128673     3.121029     3.113386     3.105743     3.098100     3.090456
      3.082813     3.075170     3.067527     3.059884     3.052240     3.044597     3.036954     3.029311     3.021667     3.014024
      3.006381     2.998738     2.991095     2.983451     2.975808     2.968165     2.960522     2.952878     2.945235     2.937592
      2.929949     2.922306     2.914662     2.907019     2.899376     2.891733     2.884089     2.876446     2.868803     2.861160
      2.853517     2.845873     2.838230     2.830587     2.822944     2.815300     2.807657     2.800014     2.792371     2.784728
      2.777084     2.769441     2.761798     2.754155     2.746511     2.738868     2.731225     2.723582     2.715939     2.708295
      2.700652     2.693009     2.685366     2.677722     2.670079     2.662436     2.654793     2.647150     2.639506     2.631863
      2.624220     2.616577     2.608933     2.601290     2.593647     2.586004     2.578361     2.570717     2.563074     2.555431
      2.547788     2.540144     2.532501     2.524858     2.517215     2.509572     2.501928     2.494285     2.486642     2.478999
      2.471355     2.463712     2.456069     2.448426     2.440783     2.433139     2.425496     2.417853     2.410210     2.402566
      2.394923     2.387280     2.379637     2.371994     2.364350     2.356707     2.349064     2.341421     2.333777     2.326134
      2.318491     2.310848     2.303205     2.295561     2.287918     2.280275     2.272632     2.264988     2.257345     2.249702
      2.242059     2.234416     2.226772     2.219129     2.211486     2.203843     2.196199     2.188556     2.180913     2.173270
      2.165627     2.157983     2.150340     2.142697     2.135054     2.127410     2.119767     2.112124     2.104481     2.096838
      2.089194     2.081551     2.073908     2.066265     2.058621     2.050978     2.043335     2.035692     2.028049     2.020405
      2.012762     2.005119     1.997476     1.989833     1.982190     1.974546     1.966903     1.959260     1.951617     1.943974
      1.936331     1.928688     1.921045     1.913402     1.905759     1.898115     1.890472     1.882829     1.875186     1.867543
      1.859900     1.852257     1.844614     1.836971     1.829327     1.821684     1.814041     1.806398     1.798755     1.791112
      1.783469     1.775826     1.768183     1.760540     1.752896     1.745253     1.737610     1.729967     1.722324     1.714681
      1.707038     1.699395     1.691752     1.684108     1.676465     1.668822     1.661179     1.653536     1.645893     1.638250
      1.630607     1.622964     1.615321     1.607677     1.600034     1.592391     1.584748     1.577105     1.569462     1.561819
      1.554176     1.546533     1.538890     1.531246     1.523603     1.515960     1.508317     1.500674     1.493031     1.485388
      1.477745     1.470102     1.462458     1.454815     1.447172     1.439529     1.431886     1.424243     1.416600     1.408957
      1.401314     1.393671     1.386027     1.378384     1.370741     1.363098     1.355455     1.347812     1.340169     1.332526
      1.324883     1.317240     1.309596     1.301953     1.294310     1.286667     1.279024     1.271381     1.263738     1.256095
      1.248452     1.240808     1.233165     1.225522     1.217879     1.210236     1.202593     1.194950     1.187307     1.179664
      1.172021     1.164377     1.156734     1.149091     1.141448     1.133805     1.126162     1.118519     1.110876     1.103233
      1.095590     1.087946     1.080303     1.072660     1.065017     1.057374     1.049731     1.042088     1.034445     1.026802
      1.019158     1.011515     1.003872     0.996229     0.988586     0.980943     0.973300     0.965657     0.958014     0.950371
      0.942727     0.935084     0.927441     0.919798     0.912155     0.904512     0.896869     0.889226     0.881583     0.873940
      0.866296     0.858653     0.851010     0.843367     0.835724     0.828081     0.820438     0.812795     0.805152     0.797508
      0.789865     0.782222     0.774579     0.766936     0.759293     0.751650     0.744007     0.736364     0.728721     0.721077
      0.713434     0.705791     0.698148     0.690505     0.682862     0.675219     0.667576     0.659933     0.652290     0.644646
      0.637003     0.629360     0.621717     0.614074     0.606431     0.598788     0.591145     0.583502     0.575858     0.568215
      0.560572     0.552929     0.545286     0.537643     0.530000     0.522357     0.514714     0.507071     0.499427     0.491784
      0.484141     0.476498     0.468855     0.461212     0.453569     0.445925     0.438282     0.430639     0.422996     0.415353
      0.407710     0.400067     0.392424     0.384780     0.377137     0.369494     0.361851     0.354208     0.346565     0.338922
      0.331278     0.323635     0.315992     0.308349     0.300706     0.293063     0.285420     0.277777     0.270133     0.262490
      0.254847     0.247204     0.239561     0.231918     0.224275     0.216631     0.208988     0.201345
 NY phased data points follow
   2.26308E+01  7.16236E+00  2.44623E+01  1.40333E+01  3.08785E+01  1.99858E+01  2.58547E+01  2.78467E+01  3.42289E+01  2.52139E+01
   3.93136E+01  4.01102E+01  4.12533E+01  2.50229E+01  3.75848E+01  2.13976E+01  3.64956E+01  1.88715E+01  2.57251E+01  1.74223E+01
   2.35996E+01  1.73819E+01  2.46930E+01  1.40508E+01  2.84159E+01  1.03506E+01  2.47689E+01  1.53171E+01  2.67315E+01  2.35244E+01
   2.90487E+01  2.02893E+01  2.84411E+01  2.19223E+01  2.52480E+01  1.96613E+01  2.91986E+01  1.24868E+01  2.44716E+01  1.35276E+01
   3.01125E+01  1.81273E+01  2.43960E+01  1.74485E+01  3.38554E+01  2.64506E+01  3.45883E+01  2.00478E+01  3.54520E+01  2.83573E+01
   3.53095E+01  1.75456E+01  3.14208E+01  1.98892E+01  2.81475E+01  1.18128E+01  2.68888E+01  2.59214E+01  2.44047E+01  1.76006E+01
   2.26103E+01  7.36795E+00  1.46736E+01  8.97233E+00  1.71144E+01  3.00791E+00  1.06034E+01  4.21856E+00  1.05807E+01  1.42970E+00
   1.14583E+01  4.06811E+00  1.82947E+01  9.63484E+00  1.92634E+01  8.49147E+00  1.61760E+01  1.55536E+01  2.10119E+01  1.30080E+01
   6.84908E+00  1.28233E+01  1.29964E+01  1.34909E+01  2.28012E+01  1.34396E+01  1.86682E+01  1.13622E+01  2.36016E+01  1.10768E+01
   1.53935E+01  1.88774E+01  1.92448E+01  7.37331E+00  2.82101E+01  1.63262E+01  3.33097E+01  3.07242E+01  3.37229E+01  3.71585E+01
   5.68365E+01  7.15758E+01  8.83750E+01  9.44572E+01  9.59709E+01  7.56534E+01  6.50661E+01  3.99481E+01  3.12471E+01  1.92255E+01
   2.13330E+01  1.16737E+01  2.18051E+01  5.92762E+00  1.48136E+01  1.28189E+01  1.46279E+01  1.58298E+01  2.10692E+01  1.58697E+01
   1.74521E+01  1.75388E+01  2.80541E+01  3.14335E+01  4.91998E+01  5.93455E+01  7.57435E+01  8.86641E+01  8.54685E+01  8.01459E+01
   5.89960E+01  4.76636E+01  3.64854E+01  2.64919E+01  1.75098E+01  2.03089E+01  1.97135E+01  1.12477E+01  1.67012E+01  7.09496E+00
   1.98560E+01  1.01349E+01  1.63776E+01  8.59259E+00  2.00130E+01  6.98219E+00  6.34421E+00  6.66763E+00  1.17790E+01  6.80251E+00
   1.03485E+01 -2.02794E-01  6.56907E+00  2.55099E+00  4.12726E+00 -1.74405E+00  9.77091E+00  6.43262E+00  9.21918E+00  8.08234E+00
   1.21835E+01 -7.45653E-01  5.88032E+00 -5.72339E+00  5.65375E+00 -2.61540E+00  6.34398E+00 -3.06748E+00 -1.99111E+00 -5.52309E+00
  -8.73125E+00 -1.26477E+01 -5.57195E+00 -1.13640E+01 -1.57155E+01 -2.00760E+01 -1.09445E+01 -1.55245E+01 -1.18733E+01 -8.76738E+00
  -6.32748E+00 -8.13527E+00 -5.27578E+00 -1.22528E+01  3.01516E+00 -1.34857E+01 -8.67311E+00 -1.23847E+01 -3.47997E+00 -8.36263E+00
   9.89656E-01  1.51586E+00  4.86291E+00 -3.68949E+00  4.69024E+00 -6.83712E+00 -2.62860E+00 -7.12372E+00 -2.99830E+00 -1.15307E+01
   2.60480E+00 -4.43770E+00  9.18657E+00  5.08056E+00  1.09611E+01  1.05835E+00  7.36159E+00  3.18814E+00 -8.67969E-01  1.54940E+00
   5.60693E+00  2.76501E+00  5.43570E+00  1.30160E+01  2.30059E+01  2.24716E+01  2.68715E+01  1.59422E+01  2.18928E+01  1.09203E+01
   8.45521E+00 -1.45558E+00 -4.93598E+00  5.87748E+00  7.86100E+00  8.13337E+00  1.67011E+01  2.01095E+01  2.30002E+01  1.36877E+01
   1.42067E+01  1.83842E+01  1.84449E+01  1.63335E+01  2.05352E+01  1.31598E+01  2.16929E+01  1.53068E+01  2.03965E+01  1.13911E+01
   1.37518E+01  6.11416E+00  1.39956E+01  9.66492E+00  1.24225E+01  2.03356E+01  2.64406E+01  1.48274E+01  2.79299E+01  2.43949E+01
   3.03155E+01  2.95761E+01  3.77697E+01  3.72974E+01  4.60994E+01  5.62505E+01  7.07639E+01  8.22751E+01  9.58790E+01  1.10155E+02
   1.15090E+02  1.10221E+02  9.72989E+01  7.97868E+01  5.46964E+01  4.12688E+01  4.23301E+01  2.03810E+01  1.68724E+01  2.18926E+01
   1.63982E+01  1.44326E+01  1.72975E+01  8.86286E+00  1.51693E+01  7.57435E+00  1.45356E+01  1.33998E+01  1.15802E+01  5.87590E+00
   1.65014E+01  5.91454E+00  8.26475E+00  1.03199E+01  9.61436E+00  5.20852E+00  4.15983E+00  6.50413E+00  9.52181E+00  9.59013E+00
   1.02401E+01  6.48041E+00  1.07890E+01  5.76764E+00  7.50766E+00  6.95351E+00  8.99892E+00  7.26542E+00  9.26190E+00  1.46338E+01
   1.82332E+01  3.59602E+00  9.59341E+00  1.11525E+01  1.68035E+01  1.55426E+01  1.81298E+01  1.02584E+01  1.33936E+01  1.26130E+01
   1.69184E+01  6.65119E+00  1.42107E+01  1.50025E+01  1.24371E+01  1.19136E+01  1.74665E+01  2.02612E+01  1.15414E+01  9.24766E+00
   1.42516E+01  1.29976E+01  1.30043E+01  5.80204E+00  2.02680E+01  8.28648E+00  1.41223E+01  9.94398E+00  1.05718E+01  9.47703E+00
   4.91871E+00  1.28768E+01  1.02497E+01  8.16744E+00  7.16550E+00  1.13589E+01  9.06754E+00  1.34688E+01  8.76919E+00  4.67944E+00
   1.03014E+01  1.58924E+01  1.53120E+01  7.02897E+00  5.49295E+00  1.75212E+01  2.59294E+01  1.39620E+01  2.06697E+01  1.02775E+01
   1.43887E+01  1.18899E+01  1.06725E+01  8.21468E+00  9.62610E+00  9.19442E+00  1.43109E+01  5.85947E+00  3.11661E+00 -1.02861E+00
   1.35032E+01 -9.53548E-01  1.03761E+01  2.36625E+00  5.43903E+00  5.33328E+00  5.80348E+00  7.74166E+00  4.80273E+00  3.49080E+00
   1.09597E+01  6.41497E+00  3.40180E+00  9.65787E+00  6.85339E+00 -3.99700E-01  6.31700E+00  5.89919E+00  8.12646E+00 -2.54650E+00
   3.36390E+00 -2.11199E+00  7.42694E+00  5.95839E+00 -4.73013E+00 -6.05239E+00  6.04486E+00 -2.36862E+00  2.93047E+00  5.01523E+00
   1.10762E+01  1.05407E+01  1.09049E+01  1.06815E+01  8.94763E+00  1.10815E+01  1.52516E+01  1.01262E+01  1.31911E+01  1.37587E+01
   1.67462E+01  1.31513E+01  1.01751E+01  7.31216E+00  2.09729E+01  1.77182E+01  1.76008E+01  9.25741E+00  2.23853E+01  1.21940E+01
   9.37957E+00  1.27411E+01  1.39949E+01  7.88754E+00  1.23929E+01  7.51773E+00  4.49538E+00  9.29550E+00  9.10667E-01  3.69589E+00
   4.07471E+00  1.88479E-01  4.35596E+00  7.98124E+00  1.06643E+01  2.14094E+00 -1.28762E+00  6.46026E+00  6.65701E+00  7.02645E+00
   5.34132E+00 -1.72772E-01  4.09109E+00 -4.25881E+00  2.67797E+00 -2.68779E+00 -5.06574E-01  2.66677E+00  4.52609E+00 -1.67540E+00
   9.85679E-01 -1.94306E+00  5.37729E-01 -8.43581E-02  2.50494E+00 -6.57775E+00 -4.28655E-02  2.81947E+00  2.34639E-01  1.46716E+00
   1.73795E-02 -1.22171E+01 -7.16618E+00 -1.16730E+00  1.15261E-01  2.88048E+00 -5.30532E+00 -9.85590E-01 -9.15689E-01 -5.90071E+00
  -8.74133E+00 -7.79897E+00 -3.65219E+00 -8.80647E+00 -1.46895E+00 -9.40917E+00 -5.74010E+00 -4.45001E+00 -4.94815E+00  2.53801E+00
   4.02614E+00 -9.08677E-01  3.59976E+00 -1.77396E+00 -3.17735E+00 -1.97191E+00 -1.59171E+00 -5.43608E+00  1.17556E+00 -4.36433E+00
  -3.37318E+00 -4.30397E+00  3.12005E+00 -2.63839E-01 -1.56456E+00 -1.15268E+00 -1.17826E+00 -1.95720E+00 -2.80242E+00 -1.68111E+00
  -2.94840E+00 -4.98414E-01 -4.83168E+00 -1.69518E+00 -5.47754E+00 -2.47467E+00 -4.10987E+00 -3.97282E+00
 NY points of the fit to the data follow
   1.77679E+01  1.72336E+01  1.73963E+01  1.82862E+01  1.98964E+01  2.23540E+01  2.50983E+01  2.80238E+01  3.13386E+01  3.48239E+01
   3.77547E+01  3.91766E+01  3.85058E+01  3.58818E+01  3.20666E+01  2.81036E+01  2.47565E+01  2.22668E+01  2.04414E+01  1.90788E+01
   1.81121E+01  1.75704E+01  1.74275E+01  1.77148E+01  1.79302E+01  1.82139E+01  1.90621E+01  2.08372E+01  2.35177E+01  2.66395E+01
   2.94970E+01  3.12310E+01  3.12146E+01  2.94448E+01  2.64436E+01  2.30523E+01  2.00072E+01  1.75202E+01  1.59441E+01  1.56620E+01
   1.64446E+01  1.79607E+01  1.97883E+01  2.19172E+01  2.44758E+01  2.73179E+01  2.98792E+01  3.12976E+01  3.09006E+01  2.85677E+01
   2.47694E+01  2.05879E+01  1.72285E+01  1.51178E+01  1.39951E+01  1.36223E+01  1.39251E+01  1.48102E+01  1.59471E+01  1.69303E+01
   1.74135E+01  1.71386E+01  1.61063E+01  1.45959E+01  1.31384E+01  1.22575E+01  1.20354E+01  1.22959E+01  1.29325E+01  1.38048E+01
   1.46974E+01  1.54420E+01  1.59039E+01  1.60263E+01  1.58219E+01  1.53693E+01  1.48055E+01  1.42337E+01  1.37591E+01  1.35656E+01
   1.37779E+01  1.40969E+01  1.45139E+01  1.52471E+01  1.62628E+01  1.71691E+01  1.74352E+01  1.67473E+01  1.52243E+01  1.34092E+01
   1.19344E+01  1.11875E+01  1.11979E+01  1.16601E+01  1.24286E+01  1.45135E+01  2.00485E+01  2.69951E+01  3.44271E+01  4.45190E+01
   5.85596E+01  7.47565E+01  8.86395E+01  9.52078E+01  9.17306E+01  7.93016E+01  6.21787E+01  4.54994E+01  3.25601E+01  2.34639E+01
   1.66057E+01  1.15253E+01  9.42354E+00  9.06912E+00  9.10835E+00  9.27962E+00  9.52619E+00  9.87987E+00  1.04631E+01  1.18219E+01
   1.57571E+01  2.19254E+01  2.86536E+01  3.70629E+01  4.86112E+01  6.25880E+01  7.58726E+01  8.41741E+01  8.43155E+01  7.62093E+01
   6.27793E+01  4.82729E+01  3.60263E+01  2.67971E+01  1.94448E+01  1.32443E+01  9.36024E+00  7.97408E+00  7.81487E+00  8.32672E+00
   9.06673E+00  9.66235E+00  9.94623E+00  9.86298E+00  9.44889E+00  8.86850E+00  8.26212E+00  7.66305E+00  7.09965E+00  6.58572E+00
   6.13154E+00  5.73010E+00  5.37140E+00  5.02505E+00  4.67319E+00  4.42780E+00  4.29314E+00  4.16849E+00  3.94226E+00  3.48063E+00
   2.93281E+00  2.57142E+00  2.52248E+00  2.66148E+00  2.75019E+00  2.57771E+00  2.05996E+00  1.32407E+00  5.87745E-01 -5.48175E-02
  -5.12974E-01 -7.93655E-01 -1.09703E+00 -1.52112E+00 -2.00589E+00 -2.35811E+00 -2.40632E+00 -2.16462E+00 -1.86501E+00 -1.74261E+00
  -1.85355E+00 -1.94212E+00 -1.81285E+00 -1.42740E+00 -8.50553E-01 -1.31884E-01  8.35924E-01  2.17933E+00  3.89205E+00  5.64812E+00
   6.93138E+00  7.36730E+00  7.00310E+00  6.07120E+00  4.87518E+00  3.73535E+00  3.00151E+00  3.03283E+00  3.96047E+00  5.66006E+00
   7.77887E+00  9.90725E+00  1.14595E+01  1.18352E+01  1.11361E+01  9.36322E+00  6.44378E+00  2.87692E+00 -3.83112E-01 -2.22931E+00
  -2.33000E+00 -6.28565E-01  2.82782E+00  7.44042E+00  1.20100E+01  1.50969E+01  1.58495E+01  1.43285E+01  1.08498E+01  5.94867E+00
   1.08095E+00 -2.40134E+00 -3.72896E+00 -2.65651E+00  3.72846E-01  4.61872E+00  8.85945E+00  1.20415E+01  1.37878E+01  1.43463E+01
   1.43520E+01  1.40917E+01  1.37906E+01  1.38730E+01  1.45748E+01  1.56010E+01  1.65663E+01  1.73770E+01  1.79149E+01  1.79293E+01
   1.72752E+01  1.63142E+01  1.56370E+01  1.56603E+01  1.64569E+01  1.78094E+01  1.94764E+01  2.10421E+01  2.23845E+01  2.40521E+01
   2.60626E+01  2.83271E+01  3.19799E+01  3.97542E+01  4.99617E+01  5.99932E+01  7.05432E+01  8.28402E+01  9.60896E+01  1.07324E+02
   1.12708E+02  1.09501E+02  9.77427E+01  8.04543E+01  6.24573E+01  4.78057E+01  3.71054E+01  2.86490E+01  2.16806E+01  1.75966E+01
   1.56929E+01  1.44958E+01  1.36917E+01  1.31596E+01  1.27119E+01  1.22038E+01  1.16085E+01  1.09260E+01  1.02048E+01  9.51905E+00
   8.91936E+00  8.41388E+00  8.01145E+00  7.71331E+00  7.49488E+00  7.32707E+00  7.18609E+00  7.07311E+00  7.01227E+00  7.02168E+00
   7.11212E+00  7.29106E+00  7.55355E+00  7.88583E+00  8.26701E+00  8.67910E+00  9.11325E+00  9.56560E+00  1.00382E+01  1.05288E+01
   1.10316E+01  1.15395E+01  1.20372E+01  1.25004E+01  1.29083E+01  1.32451E+01  1.35032E+01  1.36761E+01  1.37600E+01  1.37567E+01
   1.36736E+01  1.35180E+01  1.33019E+01  1.30377E+01  1.27414E+01  1.24298E+01  1.21225E+01  1.18395E+01  1.16060E+01  1.14595E+01
   1.14604E+01  1.15366E+01  1.16046E+01  1.17359E+01  1.19399E+01  1.20848E+01  1.19723E+01  1.14516E+01  1.06162E+01  9.73378E+00
   8.96900E+00  8.51284E+00  8.54123E+00  9.09340E+00  1.00640E+01  1.12694E+01  1.24977E+01  1.34576E+01  1.39415E+01  1.39925E+01
   1.37810E+01  1.34678E+01  1.31089E+01  1.26773E+01  1.22165E+01  1.18095E+01  1.14330E+01  1.10667E+01  1.07064E+01  1.03511E+01
   1.00035E+01  9.66485E+00  9.33799E+00  9.02389E+00  8.72458E+00  8.43989E+00  8.17033E+00  7.91418E+00  7.67077E+00  7.43770E+00
   7.21389E+00  6.99660E+00  6.78451E+00  6.57494E+00  6.36719E+00  6.15960E+00  5.95252E+00  5.74520E+00  5.53888E+00  5.33391E+00
   5.13281E+00  4.93722E+00  4.75066E+00  4.57542E+00  4.41559E+00  4.27415E+00  4.15597E+00  4.06461E+00  4.00516E+00  3.98121E+00
   3.99794E+00  4.05915E+00  4.17012E+00  4.33445E+00  4.55670E+00  4.83946E+00  5.18610E+00  5.59776E+00  6.07579E+00  6.61849E+00
   7.22370E+00  7.88577E+00  8.59839E+00  9.35156E+00  1.01343E+01  1.09318E+01  1.17289E+01  1.25072E+01  1.32490E+01  1.39351E+01
   1.45478E+01  1.50693E+01  1.54851E+01  1.57821E+01  1.59522E+01  1.59894E+01  1.58930E+01  1.56651E+01  1.53126E+01  1.48449E+01
   1.42755E+01  1.36187E+01  1.28915E+01  1.21103E+01  1.12926E+01  1.04543E+01  9.61121E+00  8.77596E+00  7.96059E+00  7.17367E+00
   6.42310E+00  5.71348E+00  5.04876E+00  4.42983E+00  3.85746E+00  3.33004E+00  2.84654E+00  2.40396E+00  2.00015E+00  1.63132E+00
   1.29496E+00  9.87392E-01  7.06431E-01  4.48716E-01  2.12299E-01 -5.88265E-03 -2.07286E-01 -3.94343E-01 -5.67963E-01 -7.30237E-01
  -8.81878E-01 -1.02472E+00 -1.15907E+00 -1.28633E+00 -1.40655E+00 -1.52109E+00 -1.62996E+00 -1.73436E+00 -1.83404E+00 -1.92993E+00
  -2.02175E+00 -2.11051E+00 -2.19595E+00 -2.27892E+00 -2.35894E+00 -2.43676E+00 -2.51198E+00 -2.58547E+00 -2.65683E+00 -2.72674E+00
  -2.79463E+00 -2.86120E+00 -2.92601E+00 -2.98984E+00 -3.05218E+00 -3.11363E+00 -3.17358E+00 -3.23275E+00 -3.29068E+00 -3.34808E+00
  -3.40436E+00 -3.46008E+00 -3.51467E+00 -3.56882E+00 -3.62206E+00 -3.67503E+00 -3.72711E+00 -3.77885E+00 -3.82971E+00 -3.88041E+00
  -3.93044E+00 -3.98038E+00 -4.02959E+00 -4.07865E+00 -4.12705E+00 -4.17549E+00 -4.22343E+00 -4.27141E+00 -4.31881E+00 -4.36624E+00
  -4.41322E+00 -4.46044E+00 -4.50732E+00 -4.55438E+00 -4.60103E+00 -4.64794E+00 -4.69466E+00 -4.74184E+00
 NY background values follow
     8.376E+00    8.346E+00    8.316E+00    8.287E+00    8.257E+00    8.228E+00    8.198E+00    8.169E+00    8.139E+00    8.110E+00
     8.080E+00    8.050E+00    8.021E+00    7.991E+00    7.961E+00    7.932E+00    7.902E+00    7.873E+00    7.843E+00    7.813E+00
     7.784E+00    7.754E+00    7.724E+00    7.694E+00    7.665E+00    7.635E+00    7.605E+00    7.576E+00    7.546E+00    7.516E+00
     7.486E+00    7.457E+00    7.427E+00    7.397E+00    7.367E+00    7.337E+00    7.308E+00    7.278E+00    7.248E+00    7.218E+00
     7.188E+00    7.158E+00    7.129E+00    7.099E+00    7.069E+00    7.039E+00    7.009E+00    6.979E+00    6.949E+00    6.919E+00
     6.890E+00    6.860E+00    6.830E+00    6.800E+00    6.770E+00    6.740E+00    6.710E+00    6.680E+00    6.650E+00    6.620E+00
     6.590E+00    6.560E+00    6.530E+00    6.500E+00    6.470E+00    6.440E+00    6.410E+00    6.380E+00    6.350E+00    6.320E+00
     6.290E+00    6.260E+00    6.230E+00    6.200E+00    6.170E+00    6.140E+00    6.110E+00    6.080E+00    6.050E+00    6.019E+00
     5.989E+00    5.959E+00    5.929E+00    5.899E+00    5.869E+00    5.839E+00    5.809E+00    5.779E+00    5.748E+00    5.718E+00
     5.688E+00    5.658E+00    5.628E+00    5.598E+00    5.567E+00    5.537E+00    5.507E+00    5.477E+00    5.447E+00    5.416E+00
     5.386E+00    5.356E+00    5.326E+00    5.296E+00    5.265E+00    5.235E+00    5.205E+00    5.175E+00    5.145E+00    5.114E+00
     5.084E+00    5.054E+00    5.024E+00    4.993E+00    4.963E+00    4.933E+00    4.902E+00    4.872E+00    4.842E+00    4.812E+00
     4.781E+00    4.751E+00    4.721E+00    4.690E+00    4.660E+00    4.630E+00    4.599E+00    4.569E+00    4.539E+00    4.509E+00
     4.478E+00    4.448E+00    4.418E+00    4.387E+00    4.357E+00    4.327E+00    4.296E+00    4.266E+00    4.235E+00    4.205E+00
     4.175E+00    4.144E+00    4.114E+00    4.084E+00    4.053E+00    4.023E+00    3.992E+00    3.962E+00    3.932E+00    3.901E+00
     3.871E+00    3.841E+00    3.810E+00    3.780E+00    3.749E+00    3.719E+00    3.689E+00    3.658E+00    3.628E+00    3.597E+00
     3.567E+00    3.536E+00    3.506E+00    3.476E+00    3.445E+00    3.415E+00    3.384E+00    3.354E+00    3.323E+00    3.293E+00
     3.263E+00    3.232E+00    3.202E+00    3.171E+00    3.141E+00    3.110E+00    3.080E+00    3.050E+00    3.019E+00    2.989E+00
     2.958E+00    2.928E+00    2.897E+00    2.867E+00    2.836E+00    2.806E+00    2.775E+00    2.745E+00    2.714E+00    2.684E+00
     2.654E+00    2.623E+00    2.593E+00    2.562E+00    2.532E+00    2.501E+00    2.471E+00    2.440E+00    2.410E+00    2.379E+00
     2.349E+00    2.318E+00    2.288E+00    2.257E+00    2.227E+00    2.196E+00    2.166E+00    2.135E+00    2.105E+00    2.075E+00
     2.044E+00    2.014E+00    1.983E+00    1.953E+00    1.922E+00    1.892E+00    1.861E+00    1.831E+00    1.800E+00    1.770E+00
     1.739E+00    1.709E+00    1.678E+00    1.648E+00    1.617E+00    1.587E+00    1.556E+00    1.526E+00    1.495E+00    1.465E+00
     1.435E+00    1.404E+00    1.374E+00    1.343E+00    1.313E+00    1.282E+00    1.252E+00    1.221E+00    1.191E+00    1.160E+00
     1.130E+00    1.099E+00    1.069E+00    1.038E+00    1.008E+00    9.775E-01    9.470E-01    9.166E-01    8.861E-01    8.556E-01
     8.252E-01    7.947E-01    7.643E-01    7.338E-01    7.034E-01    6.729E-01    6.425E-01    6.120E-01    5.816E-01    5.512E-01
     5.207E-01    4.903E-01    4.599E-01    4.294E-01    3.990E-01    3.686E-01    3.381E-01    3.077E-01    2.773E-01    2.469E-01
     2.165E-01    1.860E-01    1.556E-01    1.252E-01    9.480E-02    6.440E-02    3.399E-02    3.592E-03   -2.681E-02   -5.720E-02
    -8.760E-02   -1.180E-01   -1.484E-01   -1.788E-01   -2.091E-01   -2.395E-01   -2.699E-01   -3.003E-01   -3.306E-01   -3.610E-01
    -3.914E-01   -4.217E-01   -4.521E-01   -4.825E-01   -5.128E-01   -5.432E-01   -5.735E-01   -6.038E-01   -6.342E-01   -6.645E-01
    -6.949E-01   -7.252E-01   -7.555E-01   -7.858E-01   -8.161E-01   -8.465E-01   -8.768E-01   -9.071E-01   -9.374E-01   -9.677E-01
    -9.980E-01   -1.028E+00   -1.059E+00   -1.089E+00   -1.119E+00   -1.149E+00   -1.180E+00   -1.210E+00   -1.240E+00   -1.270E+00
    -1.301E+00   -1.331E+00   -1.361E+00   -1.391E+00   -1.422E+00   -1.452E+00   -1.482E+00   -1.512E+00   -1.543E+00   -1.573E+00
    -1.603E+00   -1.633E+00   -1.663E+00   -1.694E+00   -1.724E+00   -1.754E+00   -1.784E+00   -1.814E+00   -1.845E+00   -1.875E+00
    -1.905E+00   -1.935E+00   -1.965E+00   -1.995E+00   -2.025E+00   -2.056E+00   -2.086E+00   -2.116E+00   -2.146E+00   -2.176E+00
    -2.206E+00   -2.236E+00   -2.266E+00   -2.296E+00   -2.327E+00   -2.357E+00   -2.387E+00   -2.417E+00   -2.447E+00   -2.477E+00
    -2.507E+00   -2.537E+00   -2.567E+00   -2.597E+00   -2.627E+00   -2.657E+00   -2.687E+00   -2.717E+00   -2.747E+00   -2.777E+00
    -2.807E+00   -2.837E+00   -2.867E+00   -2.897E+00   -2.927E+00   -2.957E+00   -2.987E+00   -3.017E+00   -3.047E+00   -3.077E+00
    -3.107E+00   -3.137E+00   -3.166E+00   -3.196E+00   -3.226E+00   -3.256E+00   -3.286E+00   -3.316E+00   -3.346E+00   -3.376E+00
    -3.406E+00   -3.435E+00   -3.465E+00   -3.495E+00   -3.525E+00   -3.555E+00   -3.584E+00   -3.614E+00   -3.644E+00   -3.674E+00
    -3.704E+00   -3.733E+00   -3.763E+00   -3.793E+00   -3.823E+00   -3.852E+00   -3.882E+00   -3.912E+00   -3.942E+00   -3.971E+00
    -4.001E+00   -4.031E+00   -4.060E+00   -4.090E+00   -4.120E+00   -4.149E+00   -4.179E+00   -4.209E+00   -4.238E+00   -4.268E+00
    -4.298E+00   -4.327E+00   -4.357E+00   -4.386E+00   -4.416E+00   -4.446E+00   -4.475E+00   -4.505E+00   -4.534E+00   -4.564E+00
    -4.593E+00   -4.623E+00   -4.652E+00   -4.682E+00   -4.711E+00   -4.741E+00   -4.770E+00   -4.800E+00   -4.829E+00   -4.859E+00
    -4.888E+00   -4.918E+00   -4.947E+00   -4.977E+00   -5.006E+00   -5.035E+00   -5.065E+00   -5.094E+00   -5.124E+00   -5.153E+00
    -5.182E+00   -5.212E+00   -5.241E+00   -5.270E+00   -5.300E+00   -5.329E+00   -5.358E+00   -5.387E+00   -5.417E+00   -5.446E+00
    -5.475E+00   -5.504E+00   -5.534E+00   -5.563E+00   -5.592E+00   -5.621E+00   -5.651E+00   -5.680E+00   -5.709E+00   -5.738E+00
    -5.767E+00   -5.796E+00   -5.825E+00   -5.855E+00   -5.884E+00   -5.913E+00   -5.942E+00   -5.971E+00   -6.000E+00   -6.029E+00
    -6.058E+00   -6.087E+00   -6.116E+00   -6.145E+00   -6.174E+00   -6.203E+00   -6.232E+00   -6.261E+00   -6.290E+00   -6.319E+00
    -6.348E+00   -6.377E+00   -6.406E+00   -6.435E+00   -6.464E+00   -6.493E+00   -6.521E+00   -6.550E+00
 Ala      Conc. = 2.36E+02
