 LCModel (Version 6.3-1L) Copyright: S.W. Provencher.          Ref.: Magn. Reson. Med. 30:672-679 (1993).                
 Slice#2 Row#11 Col#12  PD_24_press_2_raw_act
 36 lines in following concentration table = NCONC+1
    Conc.  %SD /Cr+PCr  Metabolite                                         
  272.528 166%   0.000 Ala                                                 
  301.903  58%   0.000 Asp                                                 
    0.000 999%   0.000 Cr                                                  
    0.000 999%   0.000 PCr                                                 
  120.516  91%   0.000 GABA                                                
  157.533  68%   0.000 Glc                                                 
 2.35E+03  36%   0.000 Gln                                                 
    0.000 999%   0.000 Glu                                                 
    0.000 999%   0.000 GPC                                                 
  128.363  21%   0.000 PCh                                                 
    0.000 999%   0.000 GSH                                                 
 1.53E+03  19%   0.000 Ins                                                 
  540.790 108%   0.000 Lac                                                 
 1.87E+03  16%   0.000 NAA                                                 
  851.102  36%   0.000 NAAG                                                
  133.035  20%   0.000 Scyllo                                              
  609.165  27%   0.000 Tau                                                 
    0.000 999%   0.000 -CrCH2                                              
  128.363  21%   0.000 GPC+PCh                                             
 2.72E+03   7%   0.000 NAA+NAAG                                            
    0.000 999%   0.000 Cr+PCr                                              
 2.35E+03  36%   0.000 Glu+Gln                                             
 1.19E+04  18%   0.000 Lip13a                                              
    0.000 999%   0.000 Lip13b                                              
 3.48E+03  18%   0.000 Lip09                                               
 3.24E+03  13%   0.000 MM09                                                
 1.99E+03  18%   0.000 Lip20                                               
 5.34E+03  11%   0.000 MM20                                                
  966.349  19%   0.000 MM12                                                
 2.49E+03  21%   0.000 MM14                                                
 1.18E+03  16%   0.000 MM17                                                
 1.19E+04  18%   0.000 Lip13a+Lip13b                                       
 1.53E+04  14%   0.000 MM14+Lip13a+Lip13b+MM12                             
 6.72E+03   9%   0.000 MM09+Lip09                                          
 7.33E+03   8%   0.000 MM20+Lip20                                          
   6 lines in following misc. output table
  FWHM = 0.168 ppm    S/N =  12                                            
  Data shift = 0.443 ppm                                                   
  Ph:  20 deg     169.8 deg/ppm                                            
  alphaB,S = 3.4E-01,   2.0E+02                                            
   10 spline knots.   Ns = 9(2)                                            
  (11) 3 infls.   ( 5) 1 extrs.                                            
  498 points on ppm-axis = NY
      4.000000     3.992357     3.984714     3.977070     3.969427     3.961784     3.954141     3.946497     3.938854     3.931211
      3.923568     3.915925     3.908281     3.900638     3.892995     3.885352     3.877708     3.870065     3.862422     3.854779
      3.847136     3.839492     3.831849     3.824206     3.816563     3.808919     3.801276     3.793633     3.785990     3.778347
      3.770703     3.763060     3.755417     3.747774     3.740130     3.732487     3.724844     3.717201     3.709558     3.701914
      3.694271     3.686628     3.678985     3.671341     3.663698     3.656055     3.648412     3.640769     3.633125     3.625482
      3.617839     3.610196     3.602552     3.594909     3.587266     3.579623     3.571980     3.564336     3.556693     3.549050
      3.541407     3.533763     3.526120     3.518477     3.510834     3.503191     3.495547     3.487904     3.480261     3.472618
      3.464974     3.457331     3.449688     3.442045     3.434402     3.426758     3.419115     3.411472     3.403829     3.396185
      3.388542     3.380899     3.373256     3.365613     3.357969     3.350326     3.342683     3.335040     3.327396     3.319753
      3.312110     3.304467     3.296824     3.289180     3.281537     3.273894     3.266251     3.258607     3.250964     3.243321
      3.235678     3.228034     3.220391     3.212748     3.205105     3.197462     3.189818     3.182175     3.174532     3.166889
      3.159245     3.151602     3.143959     3.136316     3.128673     3.121029     3.113386     3.105743     3.098100     3.090456
      3.082813     3.075170     3.067527     3.059884     3.052240     3.044597     3.036954     3.029311     3.021667     3.014024
      3.006381     2.998738     2.991095     2.983451     2.975808     2.968165     2.960522     2.952878     2.945235     2.937592
      2.929949     2.922306     2.914662     2.907019     2.899376     2.891733     2.884089     2.876446     2.868803     2.861160
      2.853517     2.845873     2.838230     2.830587     2.822944     2.815300     2.807657     2.800014     2.792371     2.784728
      2.777084     2.769441     2.761798     2.754155     2.746511     2.738868     2.731225     2.723582     2.715939     2.708295
      2.700652     2.693009     2.685366     2.677722     2.670079     2.662436     2.654793     2.647150     2.639506     2.631863
      2.624220     2.616577     2.608933     2.601290     2.593647     2.586004     2.578361     2.570717     2.563074     2.555431
      2.547788     2.540144     2.532501     2.524858     2.517215     2.509572     2.501928     2.494285     2.486642     2.478999
      2.471355     2.463712     2.456069     2.448426     2.440783     2.433139     2.425496     2.417853     2.410210     2.402566
      2.394923     2.387280     2.379637     2.371994     2.364350     2.356707     2.349064     2.341421     2.333777     2.326134
      2.318491     2.310848     2.303205     2.295561     2.287918     2.280275     2.272632     2.264988     2.257345     2.249702
      2.242059     2.234416     2.226772     2.219129     2.211486     2.203843     2.196199     2.188556     2.180913     2.173270
      2.165627     2.157983     2.150340     2.142697     2.135054     2.127410     2.119767     2.112124     2.104481     2.096838
      2.089194     2.081551     2.073908     2.066265     2.058621     2.050978     2.043335     2.035692     2.028049     2.020405
      2.012762     2.005119     1.997476     1.989833     1.982190     1.974546     1.966903     1.959260     1.951617     1.943974
      1.936331     1.928688     1.921045     1.913402     1.905759     1.898115     1.890472     1.882829     1.875186     1.867543
      1.859900     1.852257     1.844614     1.836971     1.829327     1.821684     1.814041     1.806398     1.798755     1.791112
      1.783469     1.775826     1.768183     1.760540     1.752896     1.745253     1.737610     1.729967     1.722324     1.714681
      1.707038     1.699395     1.691752     1.684108     1.676465     1.668822     1.661179     1.653536     1.645893     1.638250
      1.630607     1.622964     1.615321     1.607677     1.600034     1.592391     1.584748     1.577105     1.569462     1.561819
      1.554176     1.546533     1.538890     1.531246     1.523603     1.515960     1.508317     1.500674     1.493031     1.485388
      1.477745     1.470102     1.462458     1.454815     1.447172     1.439529     1.431886     1.424243     1.416600     1.408957
      1.401314     1.393671     1.386027     1.378384     1.370741     1.363098     1.355455     1.347812     1.340169     1.332526
      1.324883     1.317240     1.309596     1.301953     1.294310     1.286667     1.279024     1.271381     1.263738     1.256095
      1.248452     1.240808     1.233165     1.225522     1.217879     1.210236     1.202593     1.194950     1.187307     1.179664
      1.172021     1.164377     1.156734     1.149091     1.141448     1.133805     1.126162     1.118519     1.110876     1.103233
      1.095590     1.087946     1.080303     1.072660     1.065017     1.057374     1.049731     1.042088     1.034445     1.026802
      1.019158     1.011515     1.003872     0.996229     0.988586     0.980943     0.973300     0.965657     0.958014     0.950371
      0.942727     0.935084     0.927441     0.919798     0.912155     0.904512     0.896869     0.889226     0.881583     0.873940
      0.866296     0.858653     0.851010     0.843367     0.835724     0.828081     0.820438     0.812795     0.805152     0.797508
      0.789865     0.782222     0.774579     0.766936     0.759293     0.751650     0.744007     0.736364     0.728721     0.721077
      0.713434     0.705791     0.698148     0.690505     0.682862     0.675219     0.667576     0.659933     0.652290     0.644646
      0.637003     0.629360     0.621717     0.614074     0.606431     0.598788     0.591145     0.583502     0.575858     0.568215
      0.560572     0.552929     0.545286     0.537643     0.530000     0.522357     0.514714     0.507071     0.499427     0.491784
      0.484141     0.476498     0.468855     0.461212     0.453569     0.445925     0.438282     0.430639     0.422996     0.415353
      0.407710     0.400067     0.392424     0.384780     0.377137     0.369494     0.361851     0.354208     0.346565     0.338922
      0.331278     0.323635     0.315992     0.308349     0.300706     0.293063     0.285420     0.277777     0.270133     0.262490
      0.254847     0.247204     0.239561     0.231918     0.224275     0.216631     0.208988     0.201345
 NY phased data points follow
   1.99534E+00  1.04338E+00 -1.34992E-01 -6.43803E-01  3.79994E-01  2.35875E+00  4.04027E-01  1.65810E+00  2.21147E-01  2.12671E+00
   2.29677E+00  1.74663E+00  5.69320E-01  7.32872E-01 -4.61919E-01  1.52413E+00 -1.20282E+00  6.32827E-01 -2.47853E-01 -2.52815E+00
   9.11651E-01  2.74474E-01 -1.14719E+00 -1.98434E+00 -7.89769E-01 -3.10250E+00 -1.47501E+00 -1.07638E+00 -1.70757E+00 -1.55173E+00
  -7.03827E-01 -2.18988E+00 -6.17228E-01 -1.86930E+00 -1.97100E+00 -1.76520E+00 -1.54214E+00 -7.95557E-01 -2.27733E+00 -5.31339E-01
  -2.04870E-01 -1.83432E+00 -2.10404E-01 -3.86997E-01 -6.07005E-01  7.72540E-01 -1.20146E+00 -3.18327E+00 -3.86177E+00 -1.12648E+00
  -1.06332E+00  1.35429E-01 -2.11386E+00 -1.19228E+00 -1.76249E+00 -8.03782E-01 -1.80859E+00 -2.49053E+00 -5.96944E-01 -3.09476E+00
  -4.36364E+00 -1.50482E+00 -1.64589E+00 -1.48802E+00 -4.82528E+00 -2.82718E+00 -3.87639E+00 -1.92553E+00 -5.89207E-01 -1.65073E-01
  -4.73774E+00 -3.28087E+00 -4.06716E+00 -3.88380E+00 -2.79718E+00 -3.51561E+00 -4.35219E+00 -3.64828E+00 -1.60971E+00 -4.06554E+00
  -3.23782E+00 -4.96568E+00 -2.73589E+00 -4.08454E+00 -4.08766E+00 -4.54730E+00 -2.16318E+00 -3.63747E+00 -3.39948E+00 -3.88856E+00
  -6.95286E+00 -3.54367E+00 -3.61708E+00 -4.33793E+00 -4.73197E+00 -5.76056E+00 -4.27597E+00 -3.04499E+00 -3.19749E+00 -6.98084E+00
  -4.71069E+00 -2.27586E+00 -5.59117E+00 -3.23952E+00 -4.13182E+00 -3.71401E+00 -4.85432E+00 -4.22771E+00 -5.47475E+00 -3.66690E+00
  -5.71858E+00 -5.38857E+00 -4.73649E+00 -3.38792E+00 -5.21915E+00 -3.93250E+00 -6.90411E+00 -5.74183E+00 -4.90008E+00 -3.55887E+00
  -4.51012E+00 -6.09188E+00 -4.57791E+00 -5.50061E+00 -6.97103E+00 -6.23099E+00 -4.42013E+00 -6.08092E+00 -5.14950E+00 -6.82704E+00
  -6.21161E+00 -3.56559E+00 -4.12224E+00 -4.40747E+00 -4.67204E+00 -4.70840E+00 -4.99390E+00 -6.00379E+00 -3.96208E+00 -6.09904E+00
  -3.54835E+00 -5.47149E+00 -5.27761E+00 -2.62181E+00 -2.53087E+00 -4.14425E+00 -2.17484E+00 -4.72797E+00 -3.71261E+00 -3.27982E+00
  -1.54484E+00 -3.28881E+00 -1.03650E+00 -2.24079E+00 -1.75764E+00 -1.01746E+00 -2.87729E+00 -1.06567E+00 -3.79186E+00 -2.44580E+00
  -3.07339E+00 -2.01954E+00  5.02030E-03  1.71889E+00 -1.20054E+00  3.07793E-02 -3.70180E-01 -2.60397E+00 -1.23567E+00 -8.67575E-01
  -1.07759E+00 -2.32020E+00  1.10087E+00  1.06094E+00 -1.06707E+00 -3.69592E-01  1.60153E+00 -2.43371E+00 -1.98612E+00  1.71969E+00
  -1.34501E+00  2.04116E+00 -5.72828E-01  1.98769E+00  9.10942E-01  1.23107E+00  1.36490E+00  2.66397E+00  2.41663E+00  3.59518E+00
   6.26426E-01  2.51893E+00  5.88277E-01  3.84406E+00  1.69908E+00  3.03710E+00  6.09462E-01  3.15306E+00  2.27524E+00  3.44232E+00
   6.42500E-02  2.54781E+00  2.12023E+00  5.88955E-01  1.19372E+00  2.53322E+00  4.10232E+00  3.92183E+00  3.87658E+00  3.66213E+00
   2.28904E+00  1.70252E+00  3.26356E+00  2.26322E+00  1.67119E+00  2.54131E+00  3.83595E+00  4.18505E+00  5.09986E+00  5.95295E+00
   5.85341E+00  5.68258E+00  6.35239E+00  7.89458E+00  9.56275E+00  1.12994E+01  9.30864E+00  1.07038E+01  1.15565E+01  1.22433E+01
   1.26266E+01  1.13249E+01  1.37029E+01  1.45901E+01  1.47621E+01  1.37804E+01  1.45968E+01  1.57394E+01  1.63957E+01  1.71875E+01
   1.89839E+01  1.68667E+01  1.75414E+01  1.71602E+01  1.84409E+01  2.07394E+01  2.21180E+01  2.30878E+01  2.40961E+01  2.59059E+01
   2.56808E+01  2.82302E+01  2.90795E+01  2.85040E+01  2.99648E+01  2.87153E+01  2.91659E+01  3.23236E+01  3.24377E+01  3.07537E+01
   3.24619E+01  3.27971E+01  3.27743E+01  3.03545E+01  3.45554E+01  3.34374E+01  3.36640E+01  2.88407E+01  2.95773E+01  2.54205E+01
   2.29743E+01  2.24007E+01  1.92721E+01  1.46114E+01  1.25031E+01  9.25387E+00  4.79304E+00  3.51433E+00 -1.61850E+00 -3.32576E+00
  -6.08461E+00 -8.83332E+00 -8.66405E+00 -1.24437E+01 -1.56097E+01 -1.58519E+01 -1.79392E+01 -2.06276E+01 -2.00188E+01 -2.22285E+01
  -2.33880E+01 -2.62075E+01 -2.38805E+01 -2.37601E+01 -2.40075E+01 -2.37459E+01 -2.50310E+01 -2.39203E+01 -2.63000E+01 -2.45683E+01
  -2.61932E+01 -2.29640E+01 -2.14838E+01 -2.35587E+01 -2.13643E+01 -2.43358E+01 -2.19058E+01 -2.16238E+01 -2.06708E+01 -1.98698E+01
  -2.05505E+01 -2.04862E+01 -2.18406E+01 -1.96861E+01 -1.91223E+01 -1.57605E+01 -1.86268E+01 -1.93020E+01 -1.63806E+01 -1.71764E+01
  -1.57965E+01 -1.73197E+01 -1.65772E+01 -1.59566E+01 -1.64628E+01 -1.28493E+01 -1.33173E+01 -1.53296E+01 -1.21734E+01 -1.21753E+01
  -1.35482E+01 -1.53194E+01 -1.11269E+01 -1.20389E+01 -1.12525E+01 -1.13542E+01 -1.32476E+01 -1.05091E+01 -9.30415E+00 -1.09116E+01
  -1.03523E+01 -1.20820E+01 -9.19399E+00 -1.07771E+01 -9.36163E+00 -8.09386E+00 -7.06230E+00 -7.57861E+00 -8.45210E+00 -7.25241E+00
  -6.24667E+00 -5.19494E+00 -7.76779E+00 -7.07135E+00 -5.12273E+00 -4.61646E+00 -4.45780E+00 -4.91736E+00 -2.98135E+00 -3.35428E+00
  -2.42281E+00 -1.75104E+00 -6.04880E+00 -3.20546E+00 -3.21119E+00 -5.21709E-01 -4.73185E+00 -4.98233E-01  7.29670E-01 -1.22800E+00
  -8.54067E-01 -1.26788E+00 -1.21751E+00 -2.42166E-01  5.78403E-01 -5.54865E-01 -9.65652E-01  1.07185E+00 -1.04242E+00  4.02820E-01
   1.97376E+00  1.08927E+00 -2.06236E-01  2.21768E-01  1.27988E+00 -9.83377E-01  8.09506E-01  9.40580E-01 -8.92032E-01  1.12174E-01
   3.56860E+00  1.65342E+00  1.12681E+00  6.61181E-01  3.42188E+00  2.87893E-01  2.08684E+00  3.11502E+00  3.92899E+00  2.29830E+00
   4.11012E-01  1.45764E+00  1.85707E+00  5.32879E-01  8.92262E-01  3.30779E+00  3.63744E+00  1.66465E+00  3.39035E+00  3.36702E+00
   4.68035E+00  3.10481E+00  3.12310E+00  3.54806E+00  3.21268E+00  2.17594E+00  2.20214E+00  3.59167E+00  1.01126E-01  5.49056E+00
   3.78826E+00  2.53093E+00  4.27125E+00  3.90925E+00  4.00433E+00  5.20187E+00  4.07355E+00  4.18063E+00  4.57485E+00  3.54431E+00
   5.47835E+00  6.30466E+00  5.02804E+00  2.78991E+00  5.40666E+00  5.60310E+00  3.15875E+00  2.69838E+00  3.90567E+00  2.58608E+00
   3.13765E+00  3.56627E+00  2.82621E+00  5.81466E+00  2.45577E+00  3.24643E+00  4.32239E+00  2.59938E+00  3.51788E+00  3.36541E+00
   4.24214E+00  3.79620E+00  4.61370E+00  3.26336E+00  2.70906E+00  6.05959E+00  4.29588E+00  4.49923E+00  4.30407E+00  3.75915E+00
   4.81674E+00  2.39071E+00  4.69517E+00  2.88033E+00  4.87930E+00  4.42312E+00  3.74673E+00  2.64313E+00  5.53145E+00  3.13779E+00
   1.26913E+00  3.37637E+00  4.48892E+00  4.83764E+00  3.44678E+00  2.97316E+00  3.20805E+00  3.34576E+00  3.36062E+00  4.41951E+00
   2.94900E+00  4.37624E+00  2.07301E+00  3.86232E+00  1.92917E+00  3.07412E+00  6.39683E-01  2.28275E+00  2.96588E+00  3.13232E+00
   1.01144E+00  4.45001E+00  2.17411E+00  2.89301E+00  4.05871E+00  2.00788E+00  1.84637E+00  2.91463E+00
 NY points of the fit to the data follow
   3.49294E+00  3.06662E+00  2.56527E+00  2.17385E+00  1.68503E+00  1.28388E+00  8.04701E-01  3.84075E-01 -1.32724E-01 -4.13879E-01
  -7.98528E-01 -8.07538E-01 -9.31854E-01 -6.88093E-01 -5.64517E-01 -4.11198E-01 -3.88947E-01 -2.90246E-01 -3.48430E-01 -3.19935E-01
  -3.64686E-01 -2.92322E-01 -3.68293E-01 -2.71901E-01 -3.70940E-01 -2.38553E-01 -3.33202E-01 -1.65630E-01 -1.89323E-01  4.98190E-03
  -6.93778E-02 -7.23823E-03 -1.46504E-01 -1.97336E-01 -3.32991E-01 -4.67677E-01 -5.52113E-01 -7.39069E-01 -7.49739E-01 -1.00178E+00
  -9.22428E-01 -1.13766E+00 -9.96184E-01 -1.19276E+00 -1.10949E+00 -1.34413E+00 -1.34981E+00 -1.60181E+00 -1.86005E+00 -2.00622E+00
  -2.33480E+00 -2.29500E+00 -2.64504E+00 -2.33995E+00 -2.55873E+00 -2.42314E+00 -2.69128E+00 -2.68414E+00 -3.03032E+00 -3.17108E+00
  -3.48731E+00 -3.62814E+00 -3.90795E+00 -3.98619E+00 -4.17628E+00 -4.17629E+00 -4.23438E+00 -4.02924E+00 -3.84444E+00 -3.59538E+00
  -3.42372E+00 -3.45727E+00 -3.43064E+00 -3.57942E+00 -3.56916E+00 -3.78197E+00 -3.73776E+00 -4.01081E+00 -3.88237E+00 -4.18241E+00
  -3.90475E+00 -4.20449E+00 -3.81698E+00 -4.18390E+00 -3.63604E+00 -4.06625E+00 -3.60073E+00 -4.12860E+00 -3.71792E+00 -4.32113E+00
  -3.89796E+00 -4.50152E+00 -4.08025E+00 -4.57123E+00 -4.12643E+00 -4.52407E+00 -4.11247E+00 -4.30178E+00 -4.07360E+00 -4.10013E+00
  -4.13765E+00 -3.93350E+00 -4.22633E+00 -3.69635E+00 -4.22009E+00 -3.35497E+00 -4.08970E+00 -2.90014E+00 -3.79006E+00 -2.73169E+00
  -3.82450E+00 -2.83994E+00 -3.96994E+00 -3.07431E+00 -4.21255E+00 -3.51890E+00 -4.56219E+00 -4.04504E+00 -4.83615E+00 -4.50518E+00
  -4.97255E+00 -4.83931E+00 -5.00660E+00 -4.93424E+00 -4.66846E+00 -4.51632E+00 -4.30968E+00 -4.18622E+00 -4.02636E+00 -3.91602E+00
  -3.78078E+00 -3.70816E+00 -3.59362E+00 -3.54248E+00 -3.43683E+00 -3.40192E+00 -3.31190E+00 -3.27402E+00 -3.18394E+00 -3.12845E+00
  -3.02654E+00 -2.97072E+00 -2.89194E+00 -2.83955E+00 -2.79577E+00 -2.70514E+00 -2.65876E+00 -2.49764E+00 -2.44107E+00 -2.27056E+00
  -2.23854E+00 -2.08855E+00 -2.08393E+00 -1.91613E+00 -1.95066E+00 -1.78322E+00 -1.88443E+00 -1.75508E+00 -1.91994E+00 -1.82180E+00
  -1.98290E+00 -1.87409E+00 -2.05727E+00 -1.98277E+00 -2.24360E+00 -2.12777E+00 -2.36619E+00 -2.19915E+00 -2.40160E+00 -2.25980E+00
  -2.45426E+00 -2.28972E+00 -2.44258E+00 -2.23315E+00 -2.32367E+00 -2.14388E+00 -2.23760E+00 -2.07179E+00 -2.15353E+00 -1.93649E+00
  -1.92251E+00 -1.67391E+00 -1.59093E+00 -1.25783E+00 -1.09893E+00 -6.39778E-01 -4.30229E-01  1.83870E-01  3.42012E-01  8.96652E-01
   8.67063E-01  1.23251E+00  9.16216E-01  1.43132E+00  1.21124E+00  1.83594E+00  1.67683E+00  2.31109E+00  2.13602E+00  2.73250E+00
   2.57683E+00  3.17759E+00  3.02532E+00  3.53408E+00  3.29766E+00  3.82166E+00  3.60537E+00  4.13941E+00  3.91953E+00  4.40620E+00
   4.13286E+00  4.68148E+00  4.41406E+00  5.01041E+00  4.78869E+00  5.39485E+00  5.21893E+00  5.76437E+00  5.44538E+00  6.01737E+00
   5.85520E+00  6.56320E+00  6.78559E+00  7.73487E+00  8.27539E+00  9.14361E+00  9.79524E+00  1.05680E+01  1.11758E+01  1.16674E+01
   1.20024E+01  1.21012E+01  1.19701E+01  1.20972E+01  1.22179E+01  1.23898E+01  1.26768E+01  1.32155E+01  1.40513E+01  1.44076E+01
   1.55423E+01  1.56108E+01  1.73008E+01  1.82547E+01  2.01350E+01  2.10691E+01  2.28493E+01  2.32364E+01  2.49311E+01  2.49683E+01
   2.67099E+01  2.66784E+01  2.84535E+01  2.81391E+01  2.99093E+01  2.95113E+01  3.12759E+01  3.08831E+01  3.22729E+01  3.17174E+01
   3.29224E+01  3.23577E+01  3.32666E+01  3.27852E+01  3.31759E+01  3.22041E+01  3.18615E+01  3.00279E+01  2.87428E+01  2.62792E+01
   2.41811E+01  2.12753E+01  1.84431E+01  1.50636E+01  1.16484E+01  8.07599E+00  4.46693E+00  1.26889E+00 -1.65465E+00 -5.14076E+00
  -7.75224E+00 -1.10562E+01 -1.28140E+01 -1.40559E+01 -1.50984E+01 -1.60565E+01 -1.69158E+01 -1.77418E+01 -1.84810E+01 -1.92205E+01
  -1.98720E+01 -2.05385E+01 -2.11151E+01 -2.16939E+01 -2.21711E+01 -2.26482E+01 -2.30071E+01 -2.33582E+01 -2.35887E+01 -2.38052E+01
  -2.38859E+01 -2.39410E+01 -2.38482E+01 -2.37254E+01 -2.34561E+01 -2.31470E+01 -2.27144E+01 -2.22493E+01 -2.16759E+01 -2.10619E+01
  -2.04406E+01 -1.98526E+01 -1.92754E+01 -1.87955E+01 -1.83046E+01 -1.79553E+01 -1.75989E+01 -1.73465E+01 -1.70075E+01 -1.68444E+01
  -1.64994E+01 -1.63992E+01 -1.60295E+01 -1.59439E+01 -1.55132E+01 -1.54126E+01 -1.48668E+01 -1.47150E+01 -1.40056E+01 -1.37042E+01
  -1.29560E+01 -1.27321E+01 -1.20091E+01 -1.19633E+01 -1.13047E+01 -1.14418E+01 -1.08819E+01 -1.09741E+01 -1.04278E+01 -1.05160E+01
  -9.98586E+00 -1.00725E+01 -9.60051E+00 -9.63807E+00 -9.23168E+00 -9.16458E+00 -8.77001E+00 -8.51691E+00 -8.12300E+00 -7.59688E+00
  -7.22651E+00 -6.61190E+00 -6.31069E+00 -5.67282E+00 -5.47604E+00 -4.82078E+00 -4.74723E+00 -4.06880E+00 -3.92706E+00 -3.26949E+00
  -3.09669E+00 -2.52705E+00 -2.36281E+00 -1.89360E+00 -1.74908E+00 -1.38696E+00 -1.22959E+00 -9.34590E-01 -7.23577E-01 -3.31336E-01
  -1.76741E-01 -1.65513E-02  3.74980E-02 -4.00983E-02 -1.14182E-01 -4.02604E-01 -6.28861E-01 -7.90680E-01 -8.99545E-01 -9.57896E-01
  -9.65441E-01 -9.21632E-01 -8.26719E-01 -6.82261E-01 -4.91371E-01 -2.58814E-01  9.10608E-03  3.04764E-01  6.19519E-01  9.44058E-01
   1.26880E+00  1.58430E+00  1.88165E+00  2.15289E+00  2.39139E+00  2.59206E+00  2.75158E+00  2.86842E+00  2.94295E+00  2.97729E+00
   2.97520E+00  2.94181E+00  2.88335E+00  2.80679E+00  2.71957E+00  2.62919E+00  2.54300E+00  2.46778E+00  2.40955E+00  2.37338E+00
   2.36320E+00  2.38176E+00  2.43053E+00  2.50975E+00  2.61842E+00  2.75450E+00  2.91495E+00  3.09594E+00  3.29299E+00  3.50116E+00
   3.71527E+00  3.93006E+00  4.14041E+00  4.34143E+00  4.52868E+00  4.69823E+00  4.84679E+00  4.97173E+00  5.07118E+00  5.14395E+00
   5.18960E+00  5.20828E+00  5.20080E+00  5.16845E+00  5.11300E+00  5.03650E+00  4.94134E+00  4.82999E+00  4.70508E+00  4.56920E+00
   4.42493E+00  4.27472E+00  4.12088E+00  3.96554E+00  3.81063E+00  3.65788E+00  3.50883E+00  3.36475E+00  3.22674E+00  3.09571E+00
   2.97241E+00  2.85740E+00  2.75112E+00  2.65386E+00  2.56581E+00  2.48707E+00  2.41767E+00  2.35756E+00  2.30663E+00  2.26475E+00
   2.23172E+00  2.20736E+00  2.19144E+00  2.18371E+00  2.18393E+00  2.19184E+00  2.20719E+00  2.22972E+00  2.25918E+00  2.29531E+00
   2.33789E+00  2.38664E+00  2.44135E+00  2.50179E+00  2.56774E+00  2.63898E+00  2.71530E+00  2.79650E+00  2.88239E+00  2.97277E+00
   3.06747E+00  3.16630E+00  3.26909E+00  3.37565E+00  3.48583E+00  3.59946E+00  3.71636E+00  3.83637E+00  3.95932E+00  4.08503E+00
   4.21334E+00  4.34403E+00  4.47692E+00  4.61177E+00  4.74834E+00  4.88635E+00  5.02545E+00  5.16525E+00
 NY background values follow
    -8.778E+00   -8.987E+00   -9.194E+00   -9.399E+00   -9.601E+00   -9.800E+00   -9.997E+00   -1.019E+01   -1.038E+01   -1.057E+01
    -1.076E+01   -1.095E+01   -1.113E+01   -1.131E+01   -1.149E+01   -1.166E+01   -1.183E+01   -1.200E+01   -1.217E+01   -1.233E+01
    -1.250E+01   -1.266E+01   -1.281E+01   -1.297E+01   -1.312E+01   -1.327E+01   -1.342E+01   -1.357E+01   -1.371E+01   -1.385E+01
    -1.399E+01   -1.412E+01   -1.425E+01   -1.438E+01   -1.451E+01   -1.463E+01   -1.476E+01   -1.488E+01   -1.499E+01   -1.511E+01
    -1.522E+01   -1.533E+01   -1.544E+01   -1.554E+01   -1.564E+01   -1.574E+01   -1.584E+01   -1.593E+01   -1.602E+01   -1.611E+01
    -1.620E+01   -1.628E+01   -1.636E+01   -1.644E+01   -1.651E+01   -1.659E+01   -1.666E+01   -1.672E+01   -1.679E+01   -1.685E+01
    -1.691E+01   -1.696E+01   -1.702E+01   -1.707E+01   -1.712E+01   -1.716E+01   -1.720E+01   -1.724E+01   -1.728E+01   -1.731E+01
    -1.734E+01   -1.737E+01   -1.739E+01   -1.742E+01   -1.743E+01   -1.745E+01   -1.746E+01   -1.747E+01   -1.748E+01   -1.749E+01
    -1.749E+01   -1.749E+01   -1.748E+01   -1.747E+01   -1.746E+01   -1.745E+01   -1.744E+01   -1.742E+01   -1.740E+01   -1.737E+01
    -1.735E+01   -1.732E+01   -1.729E+01   -1.725E+01   -1.721E+01   -1.717E+01   -1.713E+01   -1.709E+01   -1.704E+01   -1.699E+01
    -1.693E+01   -1.688E+01   -1.682E+01   -1.676E+01   -1.669E+01   -1.663E+01   -1.656E+01   -1.649E+01   -1.641E+01   -1.634E+01
    -1.626E+01   -1.618E+01   -1.609E+01   -1.601E+01   -1.592E+01   -1.583E+01   -1.573E+01   -1.564E+01   -1.554E+01   -1.544E+01
    -1.534E+01   -1.523E+01   -1.513E+01   -1.502E+01   -1.491E+01   -1.479E+01   -1.468E+01   -1.456E+01   -1.444E+01   -1.432E+01
    -1.419E+01   -1.407E+01   -1.394E+01   -1.381E+01   -1.368E+01   -1.355E+01   -1.341E+01   -1.327E+01   -1.313E+01   -1.299E+01
    -1.285E+01   -1.271E+01   -1.256E+01   -1.241E+01   -1.226E+01   -1.211E+01   -1.196E+01   -1.181E+01   -1.165E+01   -1.150E+01
    -1.134E+01   -1.119E+01   -1.103E+01   -1.087E+01   -1.071E+01   -1.055E+01   -1.040E+01   -1.024E+01   -1.008E+01   -9.923E+00
    -9.765E+00   -9.609E+00   -9.453E+00   -9.299E+00   -9.145E+00   -8.992E+00   -8.841E+00   -8.691E+00   -8.543E+00   -8.397E+00
    -8.252E+00   -8.110E+00   -7.970E+00   -7.832E+00   -7.696E+00   -7.564E+00   -7.434E+00   -7.306E+00   -7.183E+00   -7.062E+00
    -6.944E+00   -6.831E+00   -6.720E+00   -6.614E+00   -6.512E+00   -6.413E+00   -6.319E+00   -6.230E+00   -6.145E+00   -6.064E+00
    -5.989E+00   -5.919E+00   -5.853E+00   -5.793E+00   -5.739E+00   -5.690E+00   -5.647E+00   -5.610E+00   -5.578E+00   -5.553E+00
    -5.535E+00   -5.522E+00   -5.517E+00   -5.518E+00   -5.526E+00   -5.541E+00   -5.564E+00   -5.593E+00   -5.631E+00   -5.675E+00
    -5.728E+00   -5.788E+00   -5.857E+00   -5.933E+00   -6.018E+00   -6.111E+00   -6.212E+00   -6.321E+00   -6.438E+00   -6.562E+00
    -6.695E+00   -6.834E+00   -6.981E+00   -7.135E+00   -7.296E+00   -7.464E+00   -7.639E+00   -7.820E+00   -8.008E+00   -8.203E+00
    -8.403E+00   -8.610E+00   -8.823E+00   -9.041E+00   -9.265E+00   -9.495E+00   -9.730E+00   -9.970E+00   -1.022E+01   -1.047E+01
    -1.072E+01   -1.098E+01   -1.124E+01   -1.151E+01   -1.178E+01   -1.206E+01   -1.234E+01   -1.262E+01   -1.291E+01   -1.320E+01
    -1.350E+01   -1.379E+01   -1.409E+01   -1.439E+01   -1.470E+01   -1.501E+01   -1.531E+01   -1.563E+01   -1.594E+01   -1.625E+01
    -1.657E+01   -1.689E+01   -1.721E+01   -1.753E+01   -1.785E+01   -1.817E+01   -1.849E+01   -1.881E+01   -1.913E+01   -1.946E+01
    -1.978E+01   -2.010E+01   -2.042E+01   -2.074E+01   -2.106E+01   -2.138E+01   -2.170E+01   -2.201E+01   -2.233E+01   -2.264E+01
    -2.295E+01   -2.326E+01   -2.357E+01   -2.387E+01   -2.418E+01   -2.448E+01   -2.478E+01   -2.507E+01   -2.536E+01   -2.565E+01
    -2.594E+01   -2.622E+01   -2.650E+01   -2.678E+01   -2.705E+01   -2.732E+01   -2.759E+01   -2.786E+01   -2.812E+01   -2.838E+01
    -2.863E+01   -2.888E+01   -2.913E+01   -2.937E+01   -2.961E+01   -2.985E+01   -3.009E+01   -3.031E+01   -3.054E+01   -3.076E+01
    -3.098E+01   -3.120E+01   -3.141E+01   -3.161E+01   -3.182E+01   -3.201E+01   -3.221E+01   -3.240E+01   -3.258E+01   -3.277E+01
    -3.294E+01   -3.312E+01   -3.329E+01   -3.345E+01   -3.361E+01   -3.377E+01   -3.392E+01   -3.407E+01   -3.421E+01   -3.435E+01
    -3.448E+01   -3.461E+01   -3.473E+01   -3.485E+01   -3.497E+01   -3.508E+01   -3.519E+01   -3.529E+01   -3.538E+01   -3.547E+01
    -3.556E+01   -3.564E+01   -3.572E+01   -3.579E+01   -3.586E+01   -3.592E+01   -3.598E+01   -3.603E+01   -3.608E+01   -3.612E+01
    -3.616E+01   -3.619E+01   -3.622E+01   -3.625E+01   -3.626E+01   -3.628E+01   -3.629E+01   -3.629E+01   -3.629E+01   -3.628E+01
    -3.627E+01   -3.625E+01   -3.623E+01   -3.621E+01   -3.618E+01   -3.614E+01   -3.611E+01   -3.606E+01   -3.601E+01   -3.596E+01
    -3.591E+01   -3.585E+01   -3.578E+01   -3.571E+01   -3.564E+01   -3.556E+01   -3.548E+01   -3.539E+01   -3.530E+01   -3.521E+01
    -3.511E+01   -3.501E+01   -3.491E+01   -3.480E+01   -3.469E+01   -3.457E+01   -3.445E+01   -3.433E+01   -3.420E+01   -3.407E+01
    -3.394E+01   -3.381E+01   -3.367E+01   -3.352E+01   -3.338E+01   -3.323E+01   -3.307E+01   -3.292E+01   -3.276E+01   -3.260E+01
    -3.243E+01   -3.227E+01   -3.210E+01   -3.192E+01   -3.175E+01   -3.157E+01   -3.139E+01   -3.120E+01   -3.102E+01   -3.083E+01
    -3.064E+01   -3.044E+01   -3.025E+01   -3.005E+01   -2.985E+01   -2.965E+01   -2.944E+01   -2.923E+01   -2.902E+01   -2.881E+01
    -2.860E+01   -2.838E+01   -2.816E+01   -2.794E+01   -2.772E+01   -2.750E+01   -2.727E+01   -2.704E+01   -2.681E+01   -2.658E+01
    -2.635E+01   -2.611E+01   -2.588E+01   -2.564E+01   -2.540E+01   -2.516E+01   -2.491E+01   -2.467E+01   -2.442E+01   -2.418E+01
    -2.393E+01   -2.368E+01   -2.343E+01   -2.318E+01   -2.292E+01   -2.267E+01   -2.241E+01   -2.215E+01   -2.189E+01   -2.163E+01
    -2.137E+01   -2.111E+01   -2.085E+01   -2.058E+01   -2.032E+01   -2.005E+01   -1.978E+01   -1.952E+01   -1.925E+01   -1.898E+01
    -1.870E+01   -1.843E+01   -1.816E+01   -1.789E+01   -1.761E+01   -1.734E+01   -1.706E+01   -1.678E+01   -1.650E+01   -1.623E+01
    -1.595E+01   -1.567E+01   -1.539E+01   -1.510E+01   -1.482E+01   -1.454E+01   -1.426E+01   -1.397E+01   -1.369E+01   -1.340E+01
    -1.312E+01   -1.283E+01   -1.254E+01   -1.225E+01   -1.196E+01   -1.168E+01   -1.139E+01   -1.110E+01   -1.080E+01   -1.051E+01
    -1.022E+01   -9.928E+00   -9.635E+00   -9.341E+00   -9.047E+00   -8.752E+00   -8.456E+00   -8.160E+00
 Ala      Conc. = 2.73E+02
