 LCModel (Version 6.3-1L) Copyright: S.W. Provencher.          Ref.: Magn. Reson. Med. 30:672-679 (1993).                
 Slice#1 Row#12 Col#2  PD_24_press_2_raw_act
 36 lines in following concentration table = NCONC+1
    Conc.  %SD /Cr+PCr  Metabolite                                         
 1.36E+03  14% 218.164 Ala                                                 
    0.767 999%   0.123 Asp                                                 
    0.000 999%   0.000 Cr                                                  
    6.252 296%   1.000 PCr                                                 
    0.650 792%   0.104 GABA                                                
    0.743 694%   0.119 Glc                                                 
  484.884  35%  77.558 Gln                                                 
    0.000 999%   0.000 Glu                                                 
    7.613  99%   1.218 GPC                                                 
    0.000 999%   0.000 PCh                                                 
   33.403  87%   5.343 GSH                                                 
  111.238  73%  17.793 Ins                                                 
  858.427  20% 137.307 Lac                                                 
    0.000 999%   0.000 NAA                                                 
    0.000 999%   0.000 NAAG                                                
    0.316 542% 5.0E-02 Scyllo                                              
    1.477 574%   0.236 Tau                                                 
    0.000 999%   0.000 -CrCH2                                              
    7.613  99%   1.218 GPC+PCh                                             
    0.000 999%   0.000 NAA+NAAG                                            
    6.252 296%   1.000 Cr+PCr                                              
  484.884  35%  77.558 Glu+Gln                                             
    0.000 999%   0.000 Lip13a                                              
    0.000 999%   0.000 Lip13b                                              
    0.000 999%   0.000 Lip09                                               
  466.649  11%  74.641 MM09                                                
    0.000 999%   0.000 Lip20                                               
  527.716  14%  84.409 MM20                                                
  142.660  16%  22.819 MM12                                                
  756.645   6% 121.027+MM14                                                
  443.067  10%  70.870+MM17                                                
    0.000 999%   0.000 Lip13a+Lip13b                                       
  899.305   6% 143.846 MM14+Lip13a+Lip13b+MM12                             
  466.649  11%  74.641 MM09+Lip09                                          
  527.716  14%  84.409 MM20+Lip20                                          
   6 lines in following misc. output table
  FWHM = 0.168 ppm    S/N =   7                                            
  Data shift = 0.069 ppm                                                   
  Ph:-147 deg      93.8 deg/ppm                                            
  alphaB,S = 8.5E+01,   6.1E+02                                            
    9 spline knots.   Ns = 9(2)                                            
  (10) 2 infls.   ( 3) 1 extrs.                                            
  498 points on ppm-axis = NY
      4.000000     3.992357     3.984714     3.977070     3.969427     3.961784     3.954141     3.946497     3.938854     3.931211
      3.923568     3.915925     3.908281     3.900638     3.892995     3.885352     3.877708     3.870065     3.862422     3.854779
      3.847136     3.839492     3.831849     3.824206     3.816563     3.808919     3.801276     3.793633     3.785990     3.778347
      3.770703     3.763060     3.755417     3.747774     3.740130     3.732487     3.724844     3.717201     3.709558     3.701914
      3.694271     3.686628     3.678985     3.671341     3.663698     3.656055     3.648412     3.640769     3.633125     3.625482
      3.617839     3.610196     3.602552     3.594909     3.587266     3.579623     3.571980     3.564336     3.556693     3.549050
      3.541407     3.533763     3.526120     3.518477     3.510834     3.503191     3.495547     3.487904     3.480261     3.472618
      3.464974     3.457331     3.449688     3.442045     3.434402     3.426758     3.419115     3.411472     3.403829     3.396185
      3.388542     3.380899     3.373256     3.365613     3.357969     3.350326     3.342683     3.335040     3.327396     3.319753
      3.312110     3.304467     3.296824     3.289180     3.281537     3.273894     3.266251     3.258607     3.250964     3.243321
      3.235678     3.228034     3.220391     3.212748     3.205105     3.197462     3.189818     3.182175     3.174532     3.166889
      3.159245     3.151602     3.143959     3.136316     3.128673     3.121029     3.113386     3.105743     3.098100     3.090456
      3.082813     3.075170     3.067527     3.059884     3.052240     3.044597     3.036954     3.029311     3.021667     3.014024
      3.006381     2.998738     2.991095     2.983451     2.975808     2.968165     2.960522     2.952878     2.945235     2.937592
      2.929949     2.922306     2.914662     2.907019     2.899376     2.891733     2.884089     2.876446     2.868803     2.861160
      2.853517     2.845873     2.838230     2.830587     2.822944     2.815300     2.807657     2.800014     2.792371     2.784728
      2.777084     2.769441     2.761798     2.754155     2.746511     2.738868     2.731225     2.723582     2.715939     2.708295
      2.700652     2.693009     2.685366     2.677722     2.670079     2.662436     2.654793     2.647150     2.639506     2.631863
      2.624220     2.616577     2.608933     2.601290     2.593647     2.586004     2.578361     2.570717     2.563074     2.555431
      2.547788     2.540144     2.532501     2.524858     2.517215     2.509572     2.501928     2.494285     2.486642     2.478999
      2.471355     2.463712     2.456069     2.448426     2.440783     2.433139     2.425496     2.417853     2.410210     2.402566
      2.394923     2.387280     2.379637     2.371994     2.364350     2.356707     2.349064     2.341421     2.333777     2.326134
      2.318491     2.310848     2.303205     2.295561     2.287918     2.280275     2.272632     2.264988     2.257345     2.249702
      2.242059     2.234416     2.226772     2.219129     2.211486     2.203843     2.196199     2.188556     2.180913     2.173270
      2.165627     2.157983     2.150340     2.142697     2.135054     2.127410     2.119767     2.112124     2.104481     2.096838
      2.089194     2.081551     2.073908     2.066265     2.058621     2.050978     2.043335     2.035692     2.028049     2.020405
      2.012762     2.005119     1.997476     1.989833     1.982190     1.974546     1.966903     1.959260     1.951617     1.943974
      1.936331     1.928688     1.921045     1.913402     1.905759     1.898115     1.890472     1.882829     1.875186     1.867543
      1.859900     1.852257     1.844614     1.836971     1.829327     1.821684     1.814041     1.806398     1.798755     1.791112
      1.783469     1.775826     1.768183     1.760540     1.752896     1.745253     1.737610     1.729967     1.722324     1.714681
      1.707038     1.699395     1.691752     1.684108     1.676465     1.668822     1.661179     1.653536     1.645893     1.638250
      1.630607     1.622964     1.615321     1.607677     1.600034     1.592391     1.584748     1.577105     1.569462     1.561819
      1.554176     1.546533     1.538890     1.531246     1.523603     1.515960     1.508317     1.500674     1.493031     1.485388
      1.477745     1.470102     1.462458     1.454815     1.447172     1.439529     1.431886     1.424243     1.416600     1.408957
      1.401314     1.393671     1.386027     1.378384     1.370741     1.363098     1.355455     1.347812     1.340169     1.332526
      1.324883     1.317240     1.309596     1.301953     1.294310     1.286667     1.279024     1.271381     1.263738     1.256095
      1.248452     1.240808     1.233165     1.225522     1.217879     1.210236     1.202593     1.194950     1.187307     1.179664
      1.172021     1.164377     1.156734     1.149091     1.141448     1.133805     1.126162     1.118519     1.110876     1.103233
      1.095590     1.087946     1.080303     1.072660     1.065017     1.057374     1.049731     1.042088     1.034445     1.026802
      1.019158     1.011515     1.003872     0.996229     0.988586     0.980943     0.973300     0.965657     0.958014     0.950371
      0.942727     0.935084     0.927441     0.919798     0.912155     0.904512     0.896869     0.889226     0.881583     0.873940
      0.866296     0.858653     0.851010     0.843367     0.835724     0.828081     0.820438     0.812795     0.805152     0.797508
      0.789865     0.782222     0.774579     0.766936     0.759293     0.751650     0.744007     0.736364     0.728721     0.721077
      0.713434     0.705791     0.698148     0.690505     0.682862     0.675219     0.667576     0.659933     0.652290     0.644646
      0.637003     0.629360     0.621717     0.614074     0.606431     0.598788     0.591145     0.583502     0.575858     0.568215
      0.560572     0.552929     0.545286     0.537643     0.530000     0.522357     0.514714     0.507071     0.499427     0.491784
      0.484141     0.476498     0.468855     0.461212     0.453569     0.445925     0.438282     0.430639     0.422996     0.415353
      0.407710     0.400067     0.392424     0.384780     0.377137     0.369494     0.361851     0.354208     0.346565     0.338922
      0.331278     0.323635     0.315992     0.308349     0.300706     0.293063     0.285420     0.277777     0.270133     0.262490
      0.254847     0.247204     0.239561     0.231918     0.224275     0.216631     0.208988     0.201345
 NY phased data points follow
   8.93844E-01  1.41020E+00  1.00075E+00  1.55490E+00  5.28703E-01  6.90446E-01  1.22374E+00  8.09408E-01 -2.97460E-01  1.38730E+00
  -6.45350E-01  4.61483E-01 -3.40374E-01  7.95876E-01 -6.71997E-01  1.21834E+00  7.09478E-01  5.62542E-01 -5.37766E-01  2.67034E-01
   3.59716E-01  4.17077E-01  9.78188E-01  7.95937E-01 -3.96199E-01  4.92105E-01  6.30875E-01  6.55588E-01 -1.44648E-01 -2.71816E-02
   6.13804E-01  4.59264E-01  2.20362E-01  2.61309E-01 -7.37946E-01  2.76679E-01 -4.76510E-01 -2.04997E-01  4.55056E-01  3.18149E-01
  -3.29082E-02 -1.77717E-01  4.38649E-01 -1.23392E-01  2.13028E-01 -3.77965E-01 -1.43949E-01 -6.64834E-01 -8.90043E-01 -1.15984E+00
  -1.74215E+00 -5.48449E-01 -8.99032E-01 -3.04190E-01 -4.50979E-01 -5.54966E-01  8.68011E-02 -6.68618E-01 -2.62807E-01  4.18608E-01
  -3.95115E-01  1.89097E-01 -1.23096E+00 -2.11677E-01 -2.39832E-01 -7.64533E-01 -8.65710E-01 -1.14919E+00 -3.28314E-01 -1.80408E-01
  -1.59142E+00 -5.73536E-01 -6.54357E-01 -9.25003E-01 -6.19294E-01 -7.41320E-01 -1.00128E+00 -1.11208E+00 -1.14951E+00 -1.17505E+00
  -3.83097E-01 -1.27815E+00 -9.99041E-01 -2.02076E-01 -8.80111E-01 -4.48535E-01 -9.67732E-01 -1.36363E+00 -7.21299E-01 -3.25535E-01
  -1.24715E+00 -7.86703E-01  2.73103E-01  1.57312E-01 -2.61190E-01 -2.64909E-01 -9.34045E-01 -9.86617E-01 -6.49097E-01 -6.88320E-01
  -1.01487E+00 -1.23665E+00 -1.26627E+00 -1.11914E+00 -1.69877E+00 -1.55564E+00 -1.71920E+00 -6.05536E-01 -1.41820E+00 -1.17018E+00
  -9.74091E-01 -9.32013E-01 -2.98400E-01 -1.50190E+00 -1.03665E+00  7.79441E-02  4.94713E-02 -1.33303E-01  1.61867E-01 -6.87222E-01
  -9.72615E-01 -1.32139E+00 -1.25939E+00 -1.43786E+00 -1.95985E+00 -1.34458E+00 -1.53047E+00 -1.12140E+00 -7.31147E-01 -5.37357E-01
  -9.42758E-01 -9.08343E-01 -1.44589E+00 -1.73547E+00 -1.00346E-01 -8.27109E-01 -1.29635E+00 -1.34536E+00 -1.44076E+00 -2.93318E-02
  -2.49442E+00 -5.87921E-01 -1.19426E+00 -6.50373E-01 -1.20688E+00 -9.58371E-01 -1.82457E+00 -1.90224E+00 -6.74099E-01 -9.09065E-01
  -1.12656E+00 -1.28870E+00 -1.66294E+00 -1.44563E+00 -7.64881E-01 -2.03390E+00 -1.26425E+00 -2.13581E+00 -1.48608E+00 -1.16185E+00
  -2.33270E+00 -1.63363E+00 -1.34938E+00 -2.28416E+00 -1.40772E+00 -1.21616E+00 -1.67190E+00 -1.18844E+00 -5.47429E-01 -1.27132E+00
  -1.22712E+00 -1.61540E+00 -1.08992E+00 -1.14488E+00 -1.96773E+00 -1.33191E+00 -1.94903E+00 -1.76546E+00 -7.33057E-01 -1.41369E+00
  -7.43643E-01 -1.45795E+00 -9.32228E-01 -1.24476E+00 -3.02184E-01 -1.05942E+00 -1.23024E+00 -1.13328E+00 -1.06540E+00 -1.22008E+00
  -1.04130E+00 -1.08406E+00 -8.80004E-01 -8.47356E-01 -9.48710E-01 -1.32028E+00 -4.77711E-01 -1.18916E+00 -1.54474E+00 -1.02754E+00
  -8.18002E-01 -1.03581E+00 -7.74363E-01  6.22705E-02  4.69116E-01 -4.95094E-01 -3.54445E-01  1.78913E-01 -7.51173E-01 -2.87141E-01
  -4.94598E-01  4.40830E-01 -3.50170E-01  5.89201E-01 -3.69209E-01  5.34470E-01  1.14037E+00  6.90192E-01  2.44807E-01 -2.21705E-01
   2.96559E-01  4.23049E-01 -6.59464E-01  3.97273E-01 -5.18225E-01 -9.92228E-02 -7.52411E-01  7.47612E-01  6.52121E-01  4.92623E-01
   3.53694E-01 -2.92905E-01  5.02968E-01  4.51490E-01  9.37643E-01 -4.72632E-01  2.56054E-01  4.71083E-01 -2.85964E-01  4.23659E-01
   1.13266E-01  8.08995E-01  8.12011E-01  3.52230E-01  6.34132E-01  1.16327E-01 -3.61389E-01 -1.06770E+00  1.65515E-02 -1.04476E+00
  -8.85560E-01 -1.08991E+00 -1.08439E+00 -9.66413E-01 -7.35592E-01 -5.14826E-01 -6.30451E-01 -4.73287E-01  5.71622E-02  2.47873E-02
   7.80899E-02 -3.56181E-01 -7.21074E-01 -2.04876E+00  4.07543E-01 -6.36053E-01  6.22725E-02 -1.29627E+00 -1.52588E-01  3.98008E-02
  -2.80315E-01  1.84621E-01 -1.47260E-01 -2.49905E-01 -3.79033E-01  2.98316E-01  6.93984E-01  3.67956E-03 -2.43841E-02  6.44047E-01
   1.29541E-01  2.85523E-01  1.28070E+00  1.01547E+00  1.08487E+00  1.13329E+00  1.11721E+00  1.46299E+00  1.60791E+00  2.03282E+00
   3.11497E+00  3.14310E+00  2.97297E+00  3.16957E+00  3.27155E+00  3.95735E+00  4.38211E+00  5.52199E+00  5.85852E+00  5.46977E+00
   7.10069E+00  6.41743E+00  7.51817E+00  7.04789E+00  7.66646E+00  7.59441E+00  7.46957E+00  8.36575E+00  8.90660E+00  8.57551E+00
   8.10676E+00  8.38404E+00  7.41292E+00  6.49000E+00  5.70979E+00  6.20171E+00  6.04851E+00  5.66582E+00  3.57320E+00  4.13674E+00
   2.65006E+00  3.13065E+00  2.14207E+00  1.55170E+00  1.57647E+00  1.38484E+00  1.32441E+00  2.00739E+00  5.14853E-01  9.73255E-01
   1.43387E+00  4.52600E-02  6.08627E-01  7.23973E-01 -6.00001E-01 -5.21295E-01 -1.18450E-01 -5.19858E-01 -6.40970E-01 -1.22805E+00
  -1.00754E+00 -1.02377E+00 -4.57112E-01 -1.00844E+00 -1.26068E+00 -7.11553E-01 -7.93292E-01 -1.65233E+00 -4.62661E-01 -1.68019E+00
  -9.60482E-01 -1.53905E+00 -1.65781E+00 -2.14806E+00 -2.00571E+00 -2.08800E+00 -1.02277E+00 -1.33747E+00 -1.26747E+00 -1.29856E+00
  -7.65913E-01 -1.00543E+00 -5.94681E-01 -1.18098E+00 -4.50733E-01 -7.80072E-01 -1.03146E+00 -1.01148E+00 -1.03728E+00 -1.53327E+00
  -1.12645E+00 -1.57557E+00 -8.42613E-01 -6.33893E-01 -1.59101E+00 -1.08079E+00 -1.21020E+00 -1.19550E+00 -1.22652E+00 -1.48025E+00
  -8.59801E-01 -1.05139E+00 -1.74163E+00 -7.56090E-01 -1.20625E+00 -1.81168E+00 -9.09428E-01 -1.04254E+00 -8.10294E-01 -8.64194E-01
  -1.45990E+00 -1.10576E+00 -1.36868E+00 -1.01415E+00 -1.17137E+00 -2.13564E+00 -1.08127E+00 -1.09011E-02  1.40917E-02 -2.24989E+00
  -1.48684E+00 -1.35717E+00 -2.83712E-01 -6.46196E-01 -6.84818E-01 -1.16028E+00 -3.60274E-01 -1.00214E+00 -1.25985E+00 -1.43292E+00
  -6.80955E-01 -1.09365E+00 -1.58456E+00 -1.69008E+00 -9.04229E-01 -4.54149E-01 -1.00588E+00 -1.16752E+00 -2.69282E-01 -4.24178E-01
  -3.24268E-01 -9.15603E-02 -5.24078E-01 -1.28886E-01 -8.94602E-01 -2.32156E+00 -3.20860E-01 -1.39417E+00 -8.64966E-01 -1.17415E+00
  -1.32759E+00 -4.40244E-01 -9.21606E-01 -1.88686E+00 -1.14042E+00 -7.93063E-01 -1.01499E+00 -1.11540E+00 -6.96837E-01 -8.86198E-01
  -6.80462E-01 -1.51853E+00 -3.62337E-01 -1.37702E+00 -9.13912E-01 -1.50655E+00 -1.10848E+00 -1.44025E+00 -1.28980E+00 -6.61178E-01
  -4.10212E-01 -9.77022E-01 -1.43966E+00 -1.02749E+00 -3.18143E-01 -1.30320E+00 -1.40849E+00 -9.03116E-01 -1.68237E+00 -8.39856E-01
  -2.45419E-01 -4.47415E-01 -1.03019E+00 -1.12502E+00 -8.59088E-01 -1.22055E+00 -7.35126E-01 -8.74943E-01 -1.28163E+00 -1.15793E+00
  -5.57749E-02  8.21514E-01 -3.02878E-01 -6.14429E-01 -9.62478E-01 -4.48381E-01 -6.38335E-01 -1.27649E-02 -2.24312E-01 -5.57563E-02
  -3.78270E-01 -5.73028E-01 -5.93286E-01  1.46659E-01 -5.72797E-01 -5.04929E-01 -4.31108E-01 -6.77549E-01  2.87695E-02 -7.40589E-01
  -2.50954E-01 -9.63054E-01 -2.20346E-02  1.33320E-01 -5.99653E-01 -3.62528E-01 -2.42825E-01 -7.80847E-01
 NY points of the fit to the data follow
   6.65571E-01  8.74876E-01  6.52911E-01  8.54813E-01  6.83243E-01  8.79546E-01  7.30362E-01  8.81990E-01  6.47600E-01  7.99249E-01
   4.99007E-01  7.01149E-01  3.57343E-01  6.38091E-01  2.82362E-01  6.58900E-01  2.57225E-01  6.87466E-01  2.42013E-01  6.98498E-01
   2.30937E-01  7.00926E-01  1.93524E-01  6.63705E-01  1.35551E-01  5.88288E-01  6.13520E-02  4.92423E-01  2.57453E-03  4.09469E-01
  -3.00066E-02  3.32673E-01 -5.06231E-02  2.55370E-01 -7.06076E-02  1.67140E-01 -1.05845E-01  6.55937E-02 -1.53633E-01 -3.88971E-02
  -2.03989E-01 -1.21144E-01 -2.37009E-01 -1.86044E-01 -2.68087E-01 -2.50121E-01 -3.16584E-01 -3.31168E-01 -4.11736E-01 -4.28249E-01
  -4.86081E-01 -4.91002E-01 -5.23159E-01 -5.14786E-01 -5.23688E-01 -5.03820E-01 -5.19377E-01 -5.13765E-01 -5.37361E-01 -5.40032E-01
  -5.69447E-01 -5.73775E-01 -6.12811E-01 -6.13707E-01 -6.46993E-01 -6.46078E-01 -6.75769E-01 -6.75132E-01 -7.03991E-01 -7.06454E-01
  -7.37647E-01 -7.44152E-01 -7.73596E-01 -7.79467E-01 -8.03504E-01 -8.06666E-01 -8.24092E-01 -8.24261E-01 -8.34472E-01 -8.33942E-01
  -8.36758E-01 -8.34695E-01 -8.29758E-01 -8.24220E-01 -8.05921E-01 -8.00355E-01 -7.82144E-01 -7.75974E-01 -7.62834E-01 -7.54123E-01
  -7.48715E-01 -7.36793E-01 -7.41368E-01 -7.26531E-01 -7.42969E-01 -7.26489E-01 -7.53692E-01 -7.35442E-01 -7.70687E-01 -7.50462E-01
  -7.91078E-01 -7.69507E-01 -8.14023E-01 -7.91449E-01 -8.38432E-01 -8.14895E-01 -8.61145E-01 -8.36355E-01 -8.77709E-01 -8.53021E-01
  -8.90290E-01 -8.65741E-01 -8.98100E-01 -8.74543E-01 -9.02249E-01 -8.80669E-01 -9.08110E-01 -8.93792E-01 -9.22284E-01 -9.15795E-01
  -9.43928E-01 -9.40956E-01 -9.67644E-01 -9.65786E-01 -9.93323E-01 -9.95229E-01 -1.03005E+00 -1.03512E+00 -1.07468E+00 -1.08177E+00
  -1.12390E+00 -1.13261E+00 -1.17596E+00 -1.18626E+00 -1.22910E+00 -1.24040E+00 -1.28060E+00 -1.29153E+00 -1.32703E+00 -1.33665E+00
  -1.36652E+00 -1.37464E+00 -1.39853E+00 -1.40494E+00 -1.42278E+00 -1.42743E+00 -1.43931E+00 -1.44214E+00 -1.44887E+00 -1.45022E+00
  -1.45393E+00 -1.45372E+00 -1.45441E+00 -1.45248E+00 -1.45037E+00 -1.44704E+00 -1.44371E+00 -1.44031E+00 -1.43524E+00 -1.43060E+00
  -1.42376E+00 -1.41709E+00 -1.40907E+00 -1.40115E+00 -1.39288E+00 -1.38479E+00 -1.37654E+00 -1.36892E+00 -1.35994E+00 -1.35225E+00
  -1.34203E+00 -1.33400E+00 -1.32195E+00 -1.31466E+00 -1.30347E+00 -1.30320E+00 -1.30043E+00 -1.30430E+00 -1.31737E+00 -1.31653E+00
  -1.33354E+00 -1.31466E+00 -1.32292E+00 -1.26709E+00 -1.26203E+00 -1.18123E+00 -1.17679E+00 -1.07421E+00 -1.09375E+00 -9.90261E-01
  -1.05293E+00 -9.75064E-01 -1.09175E+00 -9.75124E-01 -1.11087E+00 -9.50265E-01 -1.09523E+00 -8.93599E-01 -1.04005E+00 -8.02169E-01
  -9.42979E-01 -6.75835E-01 -8.06852E-01 -5.29156E-01 -6.53010E-01 -3.80977E-01 -4.99495E-01 -2.46360E-01 -3.56485E-01 -1.24797E-01
  -2.21254E-01 -1.23403E-02 -9.24343E-02  8.32773E-02  1.52771E-02  1.54170E-01  9.21979E-02  1.82541E-01  1.15251E-01  1.97083E-01
   1.42490E-01  2.34409E-01  1.98341E-01  3.02534E-01  2.46562E-01  3.26829E-01  2.48993E-01  3.01644E-01  2.08880E-01  2.37567E-01
   1.46507E-01  1.62550E-01  9.68326E-02  1.33281E-01  1.11795E-01  1.53689E-01  1.65505E-01  2.06494E-01  2.40607E-01  2.69385E-01
   3.16826E-01  3.18470E-01  3.75739E-01  3.43817E-01  4.08318E-01  3.42958E-01  4.11928E-01  3.20064E-01  3.92150E-01  2.80798E-01
   3.52806E-01  2.30137E-01  2.96669E-01  1.68413E-01  2.27031E-01  1.00970E-01  1.49863E-01  3.16265E-02  7.13551E-02 -2.24243E-02
   1.75606E-02 -5.57457E-02 -1.93103E-02 -7.69515E-02 -5.12904E-02 -1.02113E-01 -7.63627E-02 -1.12100E-01 -8.28620E-02 -9.75976E-02
  -6.02453E-02 -5.28416E-02 -5.65614E-03  2.42339E-02  7.87398E-02  1.25767E-01  1.87722E-01  2.50701E-01  3.22664E-01  4.02487E-01
   4.90987E-01  5.90318E-01  7.01915E-01  8.26587E-01  9.66132E-01  1.12152E+00  1.29481E+00  1.48703E+00  1.69985E+00  1.93411E+00
   2.19079E+00  2.46980E+00  2.77095E+00  3.09270E+00  3.43317E+00  3.78905E+00  4.15671E+00  4.53121E+00  4.90759E+00  5.27997E+00
   5.64315E+00  5.99174E+00  6.32189E+00  6.63048E+00  6.91712E+00  7.18359E+00  7.43671E+00  7.69010E+00  7.96992E+00  8.21980E+00
   8.09871E+00  8.15778E+00  7.61208E+00  7.47742E+00  6.55674E+00  6.25620E+00  5.07875E+00  5.02402E+00  3.82065E+00  3.91004E+00
   2.75895E+00  2.92327E+00  1.89223E+00  2.10863E+00  1.25763E+00  1.51317E+00  8.64992E-01  1.10869E+00  6.95229E-01  9.46648E-01
   5.82824E-01  6.26829E-01  3.46362E-01  1.75070E-01  2.42299E-02 -3.55338E-01 -3.19636E-01 -6.58089E-01 -4.27075E-01 -8.05455E-01
  -4.24815E-01 -8.54187E-01 -3.79672E-01 -8.44514E-01 -3.23039E-01 -7.84605E-01 -2.66634E-01 -7.54250E-01 -3.10623E-01 -8.38945E-01
  -5.75050E-01 -1.16130E+00 -9.46978E-01 -1.47367E+00 -1.25777E+00 -1.65733E+00 -1.39871E+00 -1.60548E+00 -1.29251E+00 -1.47216E+00
  -1.18492E+00 -1.35109E+00 -1.11382E+00 -1.27335E+00 -1.09358E+00 -1.23490E+00 -1.10889E+00 -1.23109E+00 -1.16239E+00 -1.26845E+00
  -1.29661E+00 -1.45511E+00 -1.50762E+00 -1.65320E+00 -1.69710E+00 -1.78680E+00 -1.79336E+00 -1.76573E+00 -1.72452E+00 -1.67504E+00
  -1.61946E+00 -1.55896E+00 -1.49434E+00 -1.42627E+00 -1.35539E+00 -1.28237E+00 -1.20791E+00 -1.13277E+00 -1.05774E+00 -9.83650E-01
  -9.11383E-01 -8.41829E-01 -7.75887E-01 -7.14430E-01 -6.58297E-01 -6.08273E-01 -5.65072E-01 -5.29315E-01 -5.01500E-01 -4.81991E-01
  -4.71000E-01 -4.68592E-01 -4.74668E-01 -4.88970E-01 -5.11075E-01 -5.40416E-01 -5.76296E-01 -6.17912E-01 -6.64379E-01 -7.14749E-01
  -7.68038E-01 -8.23259E-01 -8.79446E-01 -9.35684E-01 -9.91119E-01 -1.04498E+00 -1.09658E+00 -1.14536E+00 -1.19082E+00 -1.23262E+00
  -1.27049E+00 -1.30426E+00 -1.33384E+00 -1.35924E+00 -1.38050E+00 -1.39776E+00 -1.41116E+00 -1.42090E+00 -1.42718E+00 -1.43024E+00
  -1.43031E+00 -1.42763E+00 -1.42243E+00 -1.41494E+00 -1.40537E+00 -1.39392E+00 -1.38078E+00 -1.36613E+00 -1.35012E+00 -1.33291E+00
  -1.31462E+00 -1.29538E+00 -1.27529E+00 -1.25444E+00 -1.23294E+00 -1.21085E+00 -1.18823E+00 -1.16516E+00 -1.14169E+00 -1.11787E+00
  -1.09373E+00 -1.06931E+00 -1.04466E+00 -1.01979E+00 -9.94745E-01 -9.69533E-01 -9.44178E-01 -9.18700E-01 -8.93114E-01 -8.67438E-01
  -8.41679E-01 -8.15850E-01 -7.89957E-01 -7.64014E-01 -7.38024E-01 -7.11998E-01 -6.85935E-01 -6.59843E-01 -6.33722E-01 -6.07581E-01
  -5.81418E-01 -5.55239E-01 -5.29039E-01 -5.02822E-01 -4.76588E-01 -4.50339E-01 -4.24071E-01 -3.97785E-01 -3.71475E-01 -3.45143E-01
  -3.18784E-01 -2.92397E-01 -2.65976E-01 -2.39515E-01 -2.13008E-01 -1.86450E-01 -1.59834E-01 -1.33149E-01 -1.06384E-01 -7.95266E-02
  -5.25613E-02 -2.54716E-02  1.76488E-03  2.91750E-02  5.67923E-02  8.46580E-02  1.12825E-01  1.41362E-01
 NY background values follow
    -2.316E-01   -2.538E-01   -2.760E-01   -2.980E-01   -3.199E-01   -3.417E-01   -3.634E-01   -3.850E-01   -4.065E-01   -4.279E-01
    -4.492E-01   -4.705E-01   -4.916E-01   -5.126E-01   -5.335E-01   -5.543E-01   -5.751E-01   -5.957E-01   -6.162E-01   -6.366E-01
    -6.570E-01   -6.772E-01   -6.973E-01   -7.174E-01   -7.373E-01   -7.571E-01   -7.768E-01   -7.965E-01   -8.160E-01   -8.354E-01
    -8.547E-01   -8.740E-01   -8.931E-01   -9.121E-01   -9.311E-01   -9.499E-01   -9.686E-01   -9.872E-01   -1.006E+00   -1.024E+00
    -1.042E+00   -1.061E+00   -1.079E+00   -1.097E+00   -1.115E+00   -1.133E+00   -1.150E+00   -1.168E+00   -1.185E+00   -1.203E+00
    -1.220E+00   -1.237E+00   -1.254E+00   -1.271E+00   -1.288E+00   -1.305E+00   -1.322E+00   -1.338E+00   -1.355E+00   -1.371E+00
    -1.388E+00   -1.404E+00   -1.420E+00   -1.436E+00   -1.452E+00   -1.467E+00   -1.483E+00   -1.499E+00   -1.514E+00   -1.529E+00
    -1.545E+00   -1.560E+00   -1.575E+00   -1.590E+00   -1.605E+00   -1.619E+00   -1.634E+00   -1.649E+00   -1.663E+00   -1.677E+00
    -1.692E+00   -1.706E+00   -1.720E+00   -1.734E+00   -1.748E+00   -1.761E+00   -1.775E+00   -1.788E+00   -1.802E+00   -1.815E+00
    -1.828E+00   -1.841E+00   -1.854E+00   -1.867E+00   -1.880E+00   -1.893E+00   -1.905E+00   -1.918E+00   -1.930E+00   -1.942E+00
    -1.954E+00   -1.967E+00   -1.978E+00   -1.990E+00   -2.002E+00   -2.014E+00   -2.025E+00   -2.037E+00   -2.048E+00   -2.059E+00
    -2.070E+00   -2.081E+00   -2.092E+00   -2.103E+00   -2.114E+00   -2.124E+00   -2.135E+00   -2.145E+00   -2.156E+00   -2.166E+00
    -2.176E+00   -2.186E+00   -2.196E+00   -2.206E+00   -2.215E+00   -2.225E+00   -2.234E+00   -2.244E+00   -2.253E+00   -2.262E+00
    -2.271E+00   -2.280E+00   -2.289E+00   -2.298E+00   -2.306E+00   -2.315E+00   -2.323E+00   -2.332E+00   -2.340E+00   -2.348E+00
    -2.356E+00   -2.364E+00   -2.372E+00   -2.379E+00   -2.387E+00   -2.395E+00   -2.402E+00   -2.409E+00   -2.416E+00   -2.424E+00
    -2.431E+00   -2.437E+00   -2.444E+00   -2.451E+00   -2.457E+00   -2.464E+00   -2.470E+00   -2.477E+00   -2.483E+00   -2.489E+00
    -2.495E+00   -2.501E+00   -2.506E+00   -2.512E+00   -2.518E+00   -2.523E+00   -2.528E+00   -2.534E+00   -2.539E+00   -2.544E+00
    -2.549E+00   -2.554E+00   -2.558E+00   -2.563E+00   -2.568E+00   -2.572E+00   -2.576E+00   -2.581E+00   -2.585E+00   -2.589E+00
    -2.593E+00   -2.597E+00   -2.600E+00   -2.604E+00   -2.607E+00   -2.611E+00   -2.614E+00   -2.617E+00   -2.621E+00   -2.624E+00
    -2.627E+00   -2.629E+00   -2.632E+00   -2.635E+00   -2.637E+00   -2.640E+00   -2.642E+00   -2.644E+00   -2.646E+00   -2.648E+00
    -2.650E+00   -2.652E+00   -2.654E+00   -2.656E+00   -2.657E+00   -2.659E+00   -2.660E+00   -2.661E+00   -2.662E+00   -2.663E+00
    -2.664E+00   -2.665E+00   -2.666E+00   -2.666E+00   -2.667E+00   -2.667E+00   -2.668E+00   -2.668E+00   -2.668E+00   -2.668E+00
    -2.668E+00   -2.668E+00   -2.668E+00   -2.668E+00   -2.667E+00   -2.667E+00   -2.666E+00   -2.665E+00   -2.664E+00   -2.664E+00
    -2.663E+00   -2.661E+00   -2.660E+00   -2.659E+00   -2.658E+00   -2.656E+00   -2.654E+00   -2.653E+00   -2.651E+00   -2.649E+00
    -2.647E+00   -2.645E+00   -2.643E+00   -2.641E+00   -2.638E+00   -2.636E+00   -2.633E+00   -2.631E+00   -2.628E+00   -2.625E+00
    -2.622E+00   -2.619E+00   -2.616E+00   -2.613E+00   -2.610E+00   -2.606E+00   -2.603E+00   -2.599E+00   -2.596E+00   -2.592E+00
    -2.588E+00   -2.584E+00   -2.580E+00   -2.576E+00   -2.572E+00   -2.568E+00   -2.563E+00   -2.559E+00   -2.554E+00   -2.550E+00
    -2.545E+00   -2.540E+00   -2.535E+00   -2.530E+00   -2.525E+00   -2.520E+00   -2.515E+00   -2.509E+00   -2.504E+00   -2.498E+00
    -2.492E+00   -2.487E+00   -2.481E+00   -2.475E+00   -2.469E+00   -2.463E+00   -2.457E+00   -2.450E+00   -2.444E+00   -2.438E+00
    -2.431E+00   -2.425E+00   -2.418E+00   -2.411E+00   -2.404E+00   -2.397E+00   -2.390E+00   -2.383E+00   -2.376E+00   -2.369E+00
    -2.361E+00   -2.354E+00   -2.346E+00   -2.338E+00   -2.331E+00   -2.323E+00   -2.315E+00   -2.307E+00   -2.299E+00   -2.291E+00
    -2.283E+00   -2.274E+00   -2.266E+00   -2.257E+00   -2.249E+00   -2.240E+00   -2.231E+00   -2.223E+00   -2.214E+00   -2.205E+00
    -2.196E+00   -2.186E+00   -2.177E+00   -2.168E+00   -2.159E+00   -2.149E+00   -2.140E+00   -2.130E+00   -2.120E+00   -2.110E+00
    -2.101E+00   -2.091E+00   -2.081E+00   -2.070E+00   -2.060E+00   -2.050E+00   -2.040E+00   -2.029E+00   -2.019E+00   -2.008E+00
    -1.997E+00   -1.987E+00   -1.976E+00   -1.965E+00   -1.954E+00   -1.943E+00   -1.932E+00   -1.921E+00   -1.909E+00   -1.898E+00
    -1.887E+00   -1.875E+00   -1.864E+00   -1.852E+00   -1.840E+00   -1.828E+00   -1.817E+00   -1.805E+00   -1.793E+00   -1.780E+00
    -1.768E+00   -1.756E+00   -1.744E+00   -1.731E+00   -1.719E+00   -1.706E+00   -1.694E+00   -1.681E+00   -1.668E+00   -1.656E+00
    -1.643E+00   -1.630E+00   -1.617E+00   -1.604E+00   -1.590E+00   -1.577E+00   -1.564E+00   -1.551E+00   -1.537E+00   -1.524E+00
    -1.510E+00   -1.496E+00   -1.483E+00   -1.469E+00   -1.455E+00   -1.441E+00   -1.427E+00   -1.413E+00   -1.399E+00   -1.385E+00
    -1.370E+00   -1.356E+00   -1.342E+00   -1.327E+00   -1.313E+00   -1.298E+00   -1.284E+00   -1.269E+00   -1.254E+00   -1.239E+00
    -1.224E+00   -1.209E+00   -1.194E+00   -1.179E+00   -1.164E+00   -1.149E+00   -1.134E+00   -1.118E+00   -1.103E+00   -1.087E+00
    -1.072E+00   -1.056E+00   -1.041E+00   -1.025E+00   -1.009E+00   -9.933E-01   -9.774E-01   -9.615E-01   -9.455E-01   -9.294E-01
    -9.133E-01   -8.971E-01   -8.809E-01   -8.646E-01   -8.482E-01   -8.318E-01   -8.154E-01   -7.988E-01   -7.823E-01   -7.656E-01
    -7.490E-01   -7.322E-01   -7.154E-01   -6.986E-01   -6.816E-01   -6.647E-01   -6.477E-01   -6.306E-01   -6.135E-01   -5.963E-01
    -5.791E-01   -5.618E-01   -5.445E-01   -5.271E-01   -5.096E-01   -4.921E-01   -4.746E-01   -4.570E-01   -4.394E-01   -4.217E-01
    -4.039E-01   -3.861E-01   -3.683E-01   -3.504E-01   -3.325E-01   -3.145E-01   -2.964E-01   -2.783E-01   -2.602E-01   -2.420E-01
    -2.238E-01   -2.055E-01   -1.872E-01   -1.688E-01   -1.504E-01   -1.320E-01   -1.135E-01   -9.491E-02   -7.631E-02   -5.767E-02
    -3.899E-02   -2.026E-02   -1.490E-03    1.732E-02    3.618E-02    5.508E-02    7.403E-02    9.301E-02    1.120E-01    1.311E-01
     1.502E-01    1.694E-01    1.886E-01    2.078E-01    2.271E-01    2.464E-01    2.657E-01    2.851E-01    3.046E-01    3.240E-01
     3.435E-01    3.631E-01    3.827E-01    4.023E-01    4.219E-01    4.416E-01    4.614E-01    4.811E-01
 Ala      Conc. = 1.36E+03
