 LCModel (Version 6.3-1L) Copyright: S.W. Provencher.          Ref.: Magn. Reson. Med. 30:672-679 (1993).                
 Slice#3 Row#12 Col#3  PD_24_press_2_raw_act
 36 lines in following concentration table = NCONC+1
    Conc.  %SD /Cr+PCr  Metabolite                                         
    4.396 219%   0.111 Ala                                                 
    5.668 115%   0.144 Asp                                                 
   28.722  38%   0.728 Cr                                                  
   10.738 104%   0.272 PCr                                                 
    2.926 131% 7.4E-02 GABA                                                
    3.425 114% 8.7E-02 Glc                                                 
    2.564 715% 6.5E-02 Gln                                                 
   42.061  50%   1.066 Glu                                                 
    0.000 999%   0.000 GPC                                                 
    7.762  36%   0.197 PCh                                                 
    1.347 576% 3.4E-02 GSH                                                 
    7.008 349%   0.178 Ins                                                 
    0.000 999%   0.000 Lac                                                 
   54.224  19%   1.374 NAA                                                 
    0.000 999%   0.000 NAAG                                                
    1.106 113% 2.8E-02 Scyllo                                              
    7.782  82%   0.197 Tau                                                 
    8.452 109%   0.214 -CrCH2                                              
    7.762  36%   0.197 GPC+PCh                                             
   54.224  19%   1.374 NAA+NAAG                                            
   39.461  22%   1.000 Cr+PCr                                              
   44.625  54%   1.131 Glu+Gln                                             
 3.67E+03   4%  93.070 Lip13a                                              
    0.000 999%   0.000 Lip13b                                              
  616.976  14%  15.635 Lip09                                               
    0.000 999%   0.000 MM09                                                
  573.010  12%  14.521 Lip20                                               
    0.000 999%   0.000 MM20                                                
 5.77E-04 999% 1.5E-05 MM12                                                
 1.83E-02 999% 4.6E-04 MM14                                                
    0.000 999%   0.000 MM17                                                
 3.67E+03   4%  93.070 Lip13a+Lip13b                                       
 3.67E+03   4%  93.071 MM14+Lip13a+Lip13b+MM12                             
  616.976  14%  15.635 MM09+Lip09                                          
  573.010  12%  14.521 MM20+Lip20                                          
   6 lines in following misc. output table
  FWHM = 0.038 ppm    S/N =   5                                            
  Data shift =-0.031 ppm                                                   
  Ph:-131 deg       6.4 deg/ppm                                            
  alphaB,S = 8.5E+01,   2.0E+00                                            
   14 spline knots.   Ns = 5(1)                                            
   2 inflections.     2 extrema                                            
  498 points on ppm-axis = NY
      4.000000     3.992357     3.984714     3.977070     3.969427     3.961784     3.954141     3.946497     3.938854     3.931211
      3.923568     3.915925     3.908281     3.900638     3.892995     3.885352     3.877708     3.870065     3.862422     3.854779
      3.847136     3.839492     3.831849     3.824206     3.816563     3.808919     3.801276     3.793633     3.785990     3.778347
      3.770703     3.763060     3.755417     3.747774     3.740130     3.732487     3.724844     3.717201     3.709558     3.701914
      3.694271     3.686628     3.678985     3.671341     3.663698     3.656055     3.648412     3.640769     3.633125     3.625482
      3.617839     3.610196     3.602552     3.594909     3.587266     3.579623     3.571980     3.564336     3.556693     3.549050
      3.541407     3.533763     3.526120     3.518477     3.510834     3.503191     3.495547     3.487904     3.480261     3.472618
      3.464974     3.457331     3.449688     3.442045     3.434402     3.426758     3.419115     3.411472     3.403829     3.396185
      3.388542     3.380899     3.373256     3.365613     3.357969     3.350326     3.342683     3.335040     3.327396     3.319753
      3.312110     3.304467     3.296824     3.289180     3.281537     3.273894     3.266251     3.258607     3.250964     3.243321
      3.235678     3.228034     3.220391     3.212748     3.205105     3.197462     3.189818     3.182175     3.174532     3.166889
      3.159245     3.151602     3.143959     3.136316     3.128673     3.121029     3.113386     3.105743     3.098100     3.090456
      3.082813     3.075170     3.067527     3.059884     3.052240     3.044597     3.036954     3.029311     3.021667     3.014024
      3.006381     2.998738     2.991095     2.983451     2.975808     2.968165     2.960522     2.952878     2.945235     2.937592
      2.929949     2.922306     2.914662     2.907019     2.899376     2.891733     2.884089     2.876446     2.868803     2.861160
      2.853517     2.845873     2.838230     2.830587     2.822944     2.815300     2.807657     2.800014     2.792371     2.784728
      2.777084     2.769441     2.761798     2.754155     2.746511     2.738868     2.731225     2.723582     2.715939     2.708295
      2.700652     2.693009     2.685366     2.677722     2.670079     2.662436     2.654793     2.647150     2.639506     2.631863
      2.624220     2.616577     2.608933     2.601290     2.593647     2.586004     2.578361     2.570717     2.563074     2.555431
      2.547788     2.540144     2.532501     2.524858     2.517215     2.509572     2.501928     2.494285     2.486642     2.478999
      2.471355     2.463712     2.456069     2.448426     2.440783     2.433139     2.425496     2.417853     2.410210     2.402566
      2.394923     2.387280     2.379637     2.371994     2.364350     2.356707     2.349064     2.341421     2.333777     2.326134
      2.318491     2.310848     2.303205     2.295561     2.287918     2.280275     2.272632     2.264988     2.257345     2.249702
      2.242059     2.234416     2.226772     2.219129     2.211486     2.203843     2.196199     2.188556     2.180913     2.173270
      2.165627     2.157983     2.150340     2.142697     2.135054     2.127410     2.119767     2.112124     2.104481     2.096838
      2.089194     2.081551     2.073908     2.066265     2.058621     2.050978     2.043335     2.035692     2.028049     2.020405
      2.012762     2.005119     1.997476     1.989833     1.982190     1.974546     1.966903     1.959260     1.951617     1.943974
      1.936331     1.928688     1.921045     1.913402     1.905759     1.898115     1.890472     1.882829     1.875186     1.867543
      1.859900     1.852257     1.844614     1.836971     1.829327     1.821684     1.814041     1.806398     1.798755     1.791112
      1.783469     1.775826     1.768183     1.760540     1.752896     1.745253     1.737610     1.729967     1.722324     1.714681
      1.707038     1.699395     1.691752     1.684108     1.676465     1.668822     1.661179     1.653536     1.645893     1.638250
      1.630607     1.622964     1.615321     1.607677     1.600034     1.592391     1.584748     1.577105     1.569462     1.561819
      1.554176     1.546533     1.538890     1.531246     1.523603     1.515960     1.508317     1.500674     1.493031     1.485388
      1.477745     1.470102     1.462458     1.454815     1.447172     1.439529     1.431886     1.424243     1.416600     1.408957
      1.401314     1.393671     1.386027     1.378384     1.370741     1.363098     1.355455     1.347812     1.340169     1.332526
      1.324883     1.317240     1.309596     1.301953     1.294310     1.286667     1.279024     1.271381     1.263738     1.256095
      1.248452     1.240808     1.233165     1.225522     1.217879     1.210236     1.202593     1.194950     1.187307     1.179664
      1.172021     1.164377     1.156734     1.149091     1.141448     1.133805     1.126162     1.118519     1.110876     1.103233
      1.095590     1.087946     1.080303     1.072660     1.065017     1.057374     1.049731     1.042088     1.034445     1.026802
      1.019158     1.011515     1.003872     0.996229     0.988586     0.980943     0.973300     0.965657     0.958014     0.950371
      0.942727     0.935084     0.927441     0.919798     0.912155     0.904512     0.896869     0.889226     0.881583     0.873940
      0.866296     0.858653     0.851010     0.843367     0.835724     0.828081     0.820438     0.812795     0.805152     0.797508
      0.789865     0.782222     0.774579     0.766936     0.759293     0.751650     0.744007     0.736364     0.728721     0.721077
      0.713434     0.705791     0.698148     0.690505     0.682862     0.675219     0.667576     0.659933     0.652290     0.644646
      0.637003     0.629360     0.621717     0.614074     0.606431     0.598788     0.591145     0.583502     0.575858     0.568215
      0.560572     0.552929     0.545286     0.537643     0.530000     0.522357     0.514714     0.507071     0.499427     0.491784
      0.484141     0.476498     0.468855     0.461212     0.453569     0.445925     0.438282     0.430639     0.422996     0.415353
      0.407710     0.400067     0.392424     0.384780     0.377137     0.369494     0.361851     0.354208     0.346565     0.338922
      0.331278     0.323635     0.315992     0.308349     0.300706     0.293063     0.285420     0.277777     0.270133     0.262490
      0.254847     0.247204     0.239561     0.231918     0.224275     0.216631     0.208988     0.201345
 NY phased data points follow
  -3.59485E+00 -7.18604E+00 -4.15677E+00 -5.98938E+00 -5.01434E+00 -8.20299E+00 -3.45154E+00 -4.13815E+00 -2.76523E+00 -3.43887E+00
  -1.96595E+00 -3.46276E+00 -2.97172E+00 -3.15762E+00 -4.03865E+00 -3.72634E+00 -5.79076E+00 -7.33872E+00 -3.70766E+00 -5.71814E+00
  -3.00422E+00 -7.69373E+00 -6.46894E+00 -3.01301E+00 -3.59162E+00 -7.10003E+00 -3.94540E+00 -5.45560E+00 -5.21732E+00 -4.78659E+00
  -4.04921E+00 -1.69364E-01 -7.01982E+00 -5.96708E+00 -1.93554E+00 -6.33483E+00 -3.36998E+00 -4.51439E+00 -3.55123E+00 -6.51477E-01
  -1.68029E+00 -3.08554E+00 -2.63665E+00 -3.47869E+00 -5.01381E+00 -4.35279E+00 -1.47589E+00 -2.13737E+00 -3.51291E+00 -1.98864E+00
  -5.20763E+00 -3.64340E+00 -3.60375E+00 -4.78564E+00 -2.70668E+00 -1.56008E+00 -6.64783E-01 -6.08709E+00 -3.43634E+00 -4.25884E+00
  -3.05585E+00 -5.16149E+00 -2.50299E+00 -3.80097E+00 -4.08938E+00 -3.40005E+00 -2.82048E+00 -3.78179E+00 -3.24183E+00 -4.96382E+00
  -4.40794E+00 -2.47922E+00  1.69104E+00 -5.10457E-01 -1.34424E+00 -2.48843E+00 -2.58265E+00 -3.05182E+00 -8.82396E-01 -2.17332E+00
  -3.04550E-01 -3.76310E+00 -3.75497E+00 -1.81750E+00 -3.56137E+00 -3.70394E+00 -1.23776E+00 -2.16907E+00 -1.13007E+00 -2.97134E+00
  -1.60532E+00 -2.44012E+00 -1.24725E+00 -3.97354E+00 -2.53433E+00 -4.30300E+00 -1.57886E+00 -2.47731E+00 -2.04458E+00 -1.29238E-01
   3.44860E-01 -2.11848E+00  1.57593E+00 -9.40414E-01  1.65237E-01 -1.59056E+00 -1.84844E-01 -3.00872E+00 -2.79885E+00 -3.57478E+00
  -3.78346E+00 -4.39448E+00 -1.98477E+00 -4.17182E+00 -2.25441E+00 -4.49118E+00 -2.38521E+00 -4.06535E+00 -7.24016E-01 -3.91336E+00
  -1.84462E+00 -1.40871E+00 -2.67698E+00 -3.30473E+00 -2.92922E-01  2.61893E+00  3.82017E+00  6.03763E-01  2.07713E+00 -1.51432E+00
   4.54694E-02 -5.24809E+00 -4.52861E+00 -6.61322E+00 -3.79462E+00 -3.47429E+00 -2.10588E+00 -4.37197E+00 -2.72717E+00 -3.95721E+00
  -4.29626E+00 -3.22350E+00 -2.36390E+00 -3.06276E+00 -9.71112E-01  1.36806E+00 -2.33140E+00 -3.08046E+00 -1.32276E+00 -9.52599E-01
  -2.66387E+00 -1.23241E+00 -1.00407E+00 -1.67107E+00 -2.83995E+00 -5.01456E-01 -1.32948E+00 -3.00175E+00  3.27389E-01  1.05050E+00
  -3.99582E-02 -3.07279E+00 -9.38140E-01  7.02813E-01  2.30394E+00 -1.09889E+00 -6.35356E-02 -3.78538E+00  1.33761E+00 -1.39022E+00
  -1.35509E+00 -1.98088E+00  1.18094E-01 -2.47133E+00 -3.30375E+00 -1.52276E+00 -8.24275E-01 -1.72360E+00 -2.08870E+00 -3.23620E-01
  -3.31944E+00 -2.31682E+00 -3.43590E+00 -1.91014E+00  2.74988E-01  9.80959E-01 -1.93629E+00  6.10768E-01  1.78879E+00 -5.55660E-01
  -7.40320E-01 -2.37624E+00 -4.31181E-01 -1.47593E+00  1.04493E+00 -5.43772E-01 -7.36155E-01 -4.28473E+00 -1.62922E+00 -2.51280E+00
   5.12734E-01 -1.08546E-02 -3.29443E+00 -1.91459E+00  1.20601E+00 -2.32326E-01  3.04264E-02 -1.69319E+00 -2.23798E+00 -2.88843E+00
  -1.01898E+00 -9.68116E-01 -5.68570E-01 -8.31128E-01 -2.87826E-01  9.51443E-01 -1.46772E-01 -2.69887E+00 -1.57814E+00 -2.74179E+00
  -1.51715E+00 -2.64637E+00 -2.48900E+00 -2.29306E+00  1.70157E-01 -3.81493E-01  1.77942E+00  9.08404E-01  9.41976E-01  1.67566E+00
   5.02443E-01  6.23831E-01 -8.96444E-01  5.11490E-01 -2.64861E-01  2.36048E+00  5.22378E-01 -5.42874E-02  1.59622E+00  2.38154E+00
   1.60963E+00 -1.04614E-01 -4.70786E-01 -3.48469E-01  2.24277E+00 -1.17815E+00  3.15589E+00 -2.52798E+00 -4.50361E-02  3.30053E-02
  -9.27715E-01 -1.21494E+00 -2.62309E+00  2.15003E+00  2.47224E-01 -4.49358E-01  2.61759E+00  1.52533E+00  6.16007E+00  3.78040E+00
   8.69832E+00  2.80335E+00  3.28921E+00 -5.32615E+00 -5.95244E+00 -4.34066E+00 -2.63996E+00 -2.29452E+00 -7.73694E-01 -1.08937E+00
   8.53256E-01 -1.29438E-01 -1.54530E+00 -5.06369E-01  1.40635E+00 -6.08137E-01 -1.13824E+00 -3.34957E+00  1.44118E+00 -1.41595E+00
   9.88190E-02 -2.06689E+00 -1.10412E+00 -3.49808E+00  5.40186E-01 -2.18117E+00  2.56720E+00 -1.20871E-01 -1.94049E+00 -1.03002E+00
  -8.34382E-01 -1.85048E-01 -3.63869E-01 -3.54349E+00 -1.54496E+00 -8.11212E-01 -1.49798E+00 -1.86151E+00 -1.83054E+00 -1.98133E+00
  -4.78722E+00 -5.47645E-01  6.28753E-02 -1.18459E+00 -2.67383E+00 -3.95817E+00 -1.57788E+00 -3.13342E+00 -2.28566E+00 -2.74246E+00
  -1.32782E+00 -1.94349E+00 -3.67531E+00 -3.08085E+00 -2.97094E+00 -3.92919E-01 -5.47577E-01  1.72460E-01  1.13332E+00  8.46342E-01
  -1.77052E+00  9.68805E-01  2.74220E+00  4.52335E+00  4.55980E+00  3.17304E+00  2.17007E+00  6.47658E+00  7.55112E+00  7.87607E+00
   6.68106E+00  6.96911E+00  8.44014E+00  9.11269E+00  1.31861E+01  1.32675E+01  1.29730E+01  1.59160E+01  1.58565E+01  1.28453E+01
   1.85986E+01  1.83790E+01  1.40224E+01  1.72152E+01  1.63747E+01  1.87910E+01  1.99675E+01  1.85775E+01  1.93355E+01  1.77920E+01
   1.95358E+01  1.76488E+01  1.63408E+01  1.74939E+01  1.96205E+01  1.34690E+01  1.12772E+01  1.06896E+01  1.38301E+01  7.60374E+00
   1.04328E+01  9.42140E+00  9.51569E+00  7.01090E+00  6.89326E+00  3.49001E+00  6.24455E+00  4.76809E+00  4.98211E+00  5.09668E+00
   4.18169E+00  5.51547E+00  2.76045E+00  1.62440E+00  1.72177E+00  1.05498E+00  4.20561E+00 -1.17178E+00  1.48767E+00  1.51247E+00
   3.08506E+00 -1.05288E+00  1.09100E+00 -9.75747E-01  4.15565E+00  1.64437E+00  2.26577E+00  1.03774E+00  1.45179E+00  3.93977E+00
  -1.95442E+00  2.36293E+00  1.41665E+00  3.18047E+00  1.12227E+00  3.52264E-01 -2.21956E+00  6.94249E-01  5.68308E-01  7.41861E-02
   2.17060E+00 -9.09540E-01  9.11443E-01 -5.30281E-01 -8.57866E-01 -1.97237E+00 -1.02275E+00  2.07373E+00  1.30483E+00  8.14212E-01
  -1.39940E+00 -4.66632E-01  4.66912E-01  2.05412E+00 -7.37506E-01  2.08400E-01  3.44089E+00 -1.78097E-01  1.99040E+00  1.48077E+00
  -3.04801E-01  7.66005E-01  8.78066E-01  3.92530E-01 -2.82996E-01  1.70806E+00  3.61777E+00  9.59572E-01  4.99439E-01  1.07570E+00
  -7.20436E-01 -1.47080E-01  8.89558E-01  1.63575E+00 -1.73727E-01  1.26475E+00  1.73334E+00  1.88323E+00  2.31061E-01  2.26153E+00
   2.36836E+00 -1.62497E+00 -4.67837E-01  5.29754E-01  4.20613E-01 -2.51204E-01  5.57706E-01  2.18341E+00  4.22610E-01  5.79196E-01
   1.21249E+00  1.90615E+00  8.50444E-01  1.73730E+00  1.25024E+00 -6.83519E-01  2.18825E+00 -2.19262E-01  1.40773E-01  2.25963E+00
   1.96875E+00  7.10804E-01 -6.01626E-01 -7.38476E-01 -6.57059E-01  6.09622E-01 -1.93011E+00  6.02234E-01  2.63673E+00  5.10325E-01
   1.34950E+00  2.06846E+00  1.33684E+00  1.96765E+00  2.31688E+00  1.58965E+00 -1.10954E+00  4.95874E-01  6.16217E-02  8.86617E-01
   4.14495E-01 -1.94167E+00  2.55385E+00 -8.28882E-01 -1.03080E+00  3.36288E-01  2.46548E+00  2.13294E+00 -9.83666E-01 -1.82835E-01
   1.19298E+00  1.44513E+00 -3.00895E-01 -8.34699E-01 -2.21395E+00 -1.25014E+00 -1.43096E+00  1.52753E+00
 NY points of the fit to the data follow
  -3.84349E+00 -3.83224E+00 -3.80239E+00 -3.77627E+00 -3.76189E+00 -3.74597E+00 -3.68752E+00 -3.51090E+00 -2.97187E+00 -2.22606E+00
  -1.62919E+00 -1.41134E+00 -1.53720E+00 -2.18018E+00 -3.32296E+00 -4.64836E+00 -5.33018E+00 -5.11584E+00 -4.30216E+00 -3.81068E+00
  -3.64771E+00 -3.51809E+00 -3.38641E+00 -3.30910E+00 -3.36630E+00 -3.51968E+00 -3.68311E+00 -3.79907E+00 -3.84082E+00 -3.73245E+00
  -3.42462E+00 -3.02961E+00 -2.78713E+00 -2.83641E+00 -3.13521E+00 -3.52722E+00 -3.86890E+00 -4.04363E+00 -3.95376E+00 -3.67384E+00
  -3.35791E+00 -3.16849E+00 -3.14347E+00 -3.23978E+00 -3.34017E+00 -3.35960E+00 -3.28873E+00 -3.23490E+00 -3.23270E+00 -3.29144E+00
  -3.39087E+00 -3.48408E+00 -3.50851E+00 -3.43655E+00 -3.33157E+00 -3.26872E+00 -3.25218E+00 -3.24962E+00 -3.24126E+00 -3.21995E+00
  -3.20418E+00 -3.20050E+00 -3.21190E+00 -3.23265E+00 -3.25079E+00 -3.24065E+00 -3.20967E+00 -3.18452E+00 -3.17597E+00 -3.17656E+00
  -3.18096E+00 -3.15865E+00 -3.09526E+00 -3.01393E+00 -2.96937E+00 -2.96782E+00 -3.01872E+00 -3.10894E+00 -3.20739E+00 -3.27747E+00
  -3.26806E+00 -3.16343E+00 -3.00113E+00 -2.86115E+00 -2.78972E+00 -2.80403E+00 -2.86624E+00 -2.94130E+00 -3.02515E+00 -3.12674E+00
  -3.19459E+00 -3.17754E+00 -3.09618E+00 -3.04643E+00 -3.04920E+00 -3.02497E+00 -2.95248E+00 -2.85215E+00 -2.73832E+00 -2.49344E+00
  -1.86130E+00 -1.08432E+00 -5.42481E-01 -3.76263E-01 -5.38048E-01 -1.29809E+00 -2.67690E+00 -4.18516E+00 -4.81211E+00 -4.37995E+00
  -3.42252E+00 -2.98405E+00 -2.88063E+00 -2.83572E+00 -2.79596E+00 -2.77103E+00 -2.75652E+00 -2.74461E+00 -2.73045E+00 -2.71325E+00
  -2.69052E+00 -2.64371E+00 -2.49237E+00 -1.90401E+00 -6.10007E-01  8.26794E-01  1.74347E+00  1.93106E+00  1.36269E+00 -2.80796E-01
  -2.78855E+00 -5.10923E+00 -5.78987E+00 -4.77254E+00 -3.25228E+00 -2.60348E+00 -2.41922E+00 -2.30821E+00 -2.21402E+00 -2.13284E+00
  -2.06393E+00 -2.01039E+00 -1.96618E+00 -1.93048E+00 -1.89453E+00 -1.84681E+00 -1.79672E+00 -1.76162E+00 -1.74413E+00 -1.72986E+00
  -1.69785E+00 -1.64914E+00 -1.59635E+00 -1.55444E+00 -1.52480E+00 -1.49967E+00 -1.49209E+00 -1.52680E+00 -1.58771E+00 -1.63869E+00
  -1.65177E+00 -1.61242E+00 -1.52980E+00 -1.42486E+00 -1.33242E+00 -1.32196E+00 -1.43562E+00 -1.62239E+00 -1.76008E+00 -1.79168E+00
  -1.76243E+00 -1.73388E+00 -1.78853E+00 -1.86693E+00 -1.90206E+00 -1.88695E+00 -1.85100E+00 -1.82267E+00 -1.79015E+00 -1.76007E+00
  -1.78090E+00 -1.87251E+00 -1.96117E+00 -1.97148E+00 -1.89028E+00 -1.82320E+00 -1.79967E+00 -1.80201E+00 -1.73886E+00 -1.62791E+00
  -1.54930E+00 -1.57819E+00 -1.68550E+00 -1.77168E+00 -1.76858E+00 -1.73464E+00 -1.72256E+00 -1.73532E+00 -1.78326E+00 -1.82131E+00
  -1.77754E+00 -1.63099E+00 -1.45336E+00 -1.33723E+00 -1.34146E+00 -1.44510E+00 -1.64710E+00 -1.88982E+00 -2.04517E+00 -2.06187E+00
  -1.91905E+00 -1.63682E+00 -1.17024E+00 -6.94507E-01 -3.66555E-01 -2.98823E-01 -4.90559E-01 -9.87248E-01 -1.72858E+00 -2.43771E+00
  -2.60770E+00 -2.22689E+00 -1.55967E+00 -9.30980E-01 -2.91680E-01  2.70179E-01  4.81893E-01  2.34916E-01 -2.53972E-01 -6.02467E-01
  -6.98773E-01 -6.74689E-01 -6.11566E-01 -4.78496E-01 -3.23028E-01 -2.12632E-01 -1.99644E-01 -2.60926E-01 -3.31119E-01 -3.90035E-01
  -4.25912E-01 -3.90013E-01 -2.71255E-01 -9.47396E-02  1.01629E-01  2.62816E-01  3.22733E-01  2.58901E-01  1.38785E-01  5.91152E-02
   9.85362E-02  2.12400E-01  3.76858E-01  5.86991E-01  7.94809E-01  1.09350E+00  2.19334E+00  4.09426E+00  5.75301E+00  6.45225E+00
   6.24222E+00  4.81600E+00  1.82587E+00 -2.06010E+00 -4.64620E+00 -4.48616E+00 -2.31843E+00 -6.51865E-01 -3.22057E-01 -2.68357E-01
  -2.54920E-01 -2.63660E-01 -2.58193E-01 -2.31983E-01 -2.21521E-01 -2.46657E-01 -3.15080E-01 -4.08439E-01 -4.94649E-01 -5.49364E-01
  -5.77053E-01 -5.89144E-01 -5.84245E-01 -5.66384E-01 -5.48097E-01 -5.35717E-01 -5.28924E-01 -5.24368E-01 -5.19833E-01 -5.15455E-01
  -5.08500E-01 -4.95790E-01 -4.79126E-01 -4.60774E-01 -4.40409E-01 -4.15899E-01 -3.88349E-01 -3.58829E-01 -3.27483E-01 -2.93586E-01
  -2.57994E-01 -2.19703E-01 -1.78694E-01 -1.34675E-01 -8.76676E-02 -3.72759E-02  1.66708E-02  7.50741E-02  1.38532E-01  2.07887E-01
   2.83309E-01  3.65681E-01  4.55841E-01  5.55058E-01  6.64522E-01  7.86077E-01  9.21545E-01  1.07339E+00  1.24415E+00  1.43725E+00
   1.65667E+00  1.90829E+00  2.20159E+00  2.55068E+00  2.93167E+00  3.30847E+00  3.68481E+00  4.09052E+00  4.53556E+00  5.03728E+00
   5.64309E+00  6.43719E+00  7.43396E+00  8.52873E+00  9.59953E+00  1.06472E+01  1.17113E+01  1.27372E+01  1.36762E+01  1.45467E+01
   1.54235E+01  1.63363E+01  1.72203E+01  1.79722E+01  1.85798E+01  1.90352E+01  1.93272E+01  1.94477E+01  1.93928E+01  1.91640E+01
   1.87678E+01  1.82156E+01  1.75231E+01  1.67099E+01  1.57979E+01  1.48107E+01  1.37724E+01  1.27069E+01  1.16360E+01  1.05803E+01
   9.55687E+00  8.58045E+00  7.66207E+00  6.80993E+00  6.02894E+00  5.32166E+00  4.68802E+00  4.12636E+00  3.63318E+00  3.20424E+00
   2.83435E+00  2.51827E+00  2.25038E+00  2.02547E+00  1.83828E+00  1.68424E+00  1.55895E+00  1.45878E+00  1.38026E+00  1.32060E+00
   1.27713E+00  1.24784E+00  1.23074E+00  1.22443E+00  1.22739E+00  1.23855E+00  1.25669E+00  1.28101E+00  1.31053E+00  1.34458E+00
   1.38222E+00  1.42283E+00  1.46550E+00  1.50966E+00  1.55443E+00  1.59924E+00  1.64317E+00  1.68562E+00  1.72573E+00  1.76298E+00
   1.79658E+00  1.82604E+00  1.85064E+00  1.87002E+00  1.88364E+00  1.89132E+00  1.89271E+00  1.88777E+00  1.87632E+00  1.85857E+00
   1.83456E+00  1.80468E+00  1.76915E+00  1.72850E+00  1.68305E+00  1.63348E+00  1.58024E+00  1.52406E+00  1.46539E+00  1.40494E+00
   1.34314E+00  1.28071E+00  1.21804E+00  1.15574E+00  1.09409E+00  1.03360E+00  9.74464E-01  9.17121E-01  8.61667E-01  8.08418E-01
   7.57356E-01  7.08713E-01  6.62423E-01  6.18668E-01  5.77311E-01  5.38452E-01  5.01896E-01  4.67725E-01  4.35746E-01  4.06025E-01
   3.78332E-01  3.52696E-01  3.28875E-01  3.06923E-01  2.86621E-01  2.68015E-01  2.50865E-01  2.35206E-01  2.20817E-01  2.07769E-01
   1.95857E-01  1.85142E-01  1.75404E-01  1.66705E-01  1.58857E-01  1.51950E-01  1.45802E-01  1.40487E-01  1.35808E-01  1.31854E-01
   1.28463E-01  1.25742E-01  1.23521E-01  1.21888E-01  1.20666E-01  1.19965E-01  1.19638E-01  1.19801E-01  1.20288E-01  1.21198E-01
   1.22373E-01  1.23937E-01  1.25754E-01  1.27938E-01  1.30329E-01  1.33034E-01  1.35909E-01  1.39086E-01  1.42430E-01  1.46056E-01
   1.49808E-01  1.53804E-01  1.57909E-01  1.62260E-01  1.66719E-01  1.71401E-01  1.76154E-01  1.81104E-01  1.86125E-01  1.91352E-01
   1.96646E-01  2.02119E-01  2.07628E-01  2.13307E-01  2.19034E-01  2.24940E-01  2.30883E-01  2.36979E-01
 NY background values follow
    -3.601E+00   -3.594E+00   -3.586E+00   -3.579E+00   -3.571E+00   -3.564E+00   -3.556E+00   -3.549E+00   -3.541E+00   -3.533E+00
    -3.526E+00   -3.518E+00   -3.511E+00   -3.503E+00   -3.495E+00   -3.488E+00   -3.480E+00   -3.473E+00   -3.465E+00   -3.457E+00
    -3.450E+00   -3.442E+00   -3.435E+00   -3.427E+00   -3.419E+00   -3.412E+00   -3.404E+00   -3.396E+00   -3.389E+00   -3.381E+00
    -3.373E+00   -3.366E+00   -3.358E+00   -3.350E+00   -3.343E+00   -3.335E+00   -3.327E+00   -3.320E+00   -3.312E+00   -3.304E+00
    -3.297E+00   -3.289E+00   -3.281E+00   -3.274E+00   -3.266E+00   -3.258E+00   -3.251E+00   -3.243E+00   -3.235E+00   -3.228E+00
    -3.220E+00   -3.212E+00   -3.204E+00   -3.197E+00   -3.189E+00   -3.181E+00   -3.174E+00   -3.166E+00   -3.158E+00   -3.150E+00
    -3.143E+00   -3.135E+00   -3.127E+00   -3.119E+00   -3.112E+00   -3.104E+00   -3.096E+00   -3.088E+00   -3.081E+00   -3.073E+00
    -3.065E+00   -3.057E+00   -3.050E+00   -3.042E+00   -3.034E+00   -3.026E+00   -3.018E+00   -3.011E+00   -3.003E+00   -2.995E+00
    -2.987E+00   -2.979E+00   -2.972E+00   -2.964E+00   -2.956E+00   -2.948E+00   -2.940E+00   -2.933E+00   -2.925E+00   -2.917E+00
    -2.909E+00   -2.901E+00   -2.894E+00   -2.886E+00   -2.878E+00   -2.870E+00   -2.862E+00   -2.854E+00   -2.847E+00   -2.839E+00
    -2.831E+00   -2.823E+00   -2.815E+00   -2.807E+00   -2.800E+00   -2.792E+00   -2.784E+00   -2.776E+00   -2.768E+00   -2.760E+00
    -2.752E+00   -2.745E+00   -2.737E+00   -2.729E+00   -2.721E+00   -2.713E+00   -2.705E+00   -2.697E+00   -2.689E+00   -2.681E+00
    -2.674E+00   -2.666E+00   -2.658E+00   -2.650E+00   -2.642E+00   -2.634E+00   -2.626E+00   -2.618E+00   -2.610E+00   -2.603E+00
    -2.595E+00   -2.587E+00   -2.579E+00   -2.571E+00   -2.563E+00   -2.555E+00   -2.547E+00   -2.539E+00   -2.531E+00   -2.523E+00
    -2.515E+00   -2.508E+00   -2.500E+00   -2.492E+00   -2.484E+00   -2.476E+00   -2.468E+00   -2.460E+00   -2.452E+00   -2.444E+00
    -2.436E+00   -2.428E+00   -2.420E+00   -2.412E+00   -2.404E+00   -2.396E+00   -2.388E+00   -2.380E+00   -2.372E+00   -2.364E+00
    -2.357E+00   -2.349E+00   -2.341E+00   -2.333E+00   -2.325E+00   -2.317E+00   -2.309E+00   -2.301E+00   -2.293E+00   -2.285E+00
    -2.277E+00   -2.269E+00   -2.261E+00   -2.253E+00   -2.245E+00   -2.237E+00   -2.229E+00   -2.221E+00   -2.213E+00   -2.205E+00
    -2.197E+00   -2.189E+00   -2.181E+00   -2.173E+00   -2.165E+00   -2.157E+00   -2.149E+00   -2.141E+00   -2.133E+00   -2.125E+00
    -2.117E+00   -2.109E+00   -2.101E+00   -2.093E+00   -2.085E+00   -2.077E+00   -2.069E+00   -2.061E+00   -2.053E+00   -2.045E+00
    -2.037E+00   -2.029E+00   -2.021E+00   -2.013E+00   -2.005E+00   -1.997E+00   -1.989E+00   -1.981E+00   -1.972E+00   -1.964E+00
    -1.956E+00   -1.948E+00   -1.940E+00   -1.932E+00   -1.924E+00   -1.916E+00   -1.908E+00   -1.900E+00   -1.892E+00   -1.884E+00
    -1.876E+00   -1.868E+00   -1.860E+00   -1.852E+00   -1.844E+00   -1.836E+00   -1.828E+00   -1.820E+00   -1.812E+00   -1.804E+00
    -1.795E+00   -1.787E+00   -1.779E+00   -1.771E+00   -1.763E+00   -1.755E+00   -1.747E+00   -1.739E+00   -1.731E+00   -1.723E+00
    -1.715E+00   -1.707E+00   -1.699E+00   -1.691E+00   -1.683E+00   -1.675E+00   -1.666E+00   -1.658E+00   -1.650E+00   -1.642E+00
    -1.634E+00   -1.626E+00   -1.618E+00   -1.610E+00   -1.602E+00   -1.594E+00   -1.586E+00   -1.578E+00   -1.570E+00   -1.562E+00
    -1.553E+00   -1.545E+00   -1.537E+00   -1.529E+00   -1.521E+00   -1.513E+00   -1.505E+00   -1.497E+00   -1.489E+00   -1.481E+00
    -1.473E+00   -1.465E+00   -1.456E+00   -1.448E+00   -1.440E+00   -1.432E+00   -1.424E+00   -1.416E+00   -1.408E+00   -1.400E+00
    -1.392E+00   -1.384E+00   -1.376E+00   -1.368E+00   -1.359E+00   -1.351E+00   -1.343E+00   -1.335E+00   -1.327E+00   -1.319E+00
    -1.311E+00   -1.303E+00   -1.295E+00   -1.287E+00   -1.279E+00   -1.270E+00   -1.262E+00   -1.254E+00   -1.246E+00   -1.238E+00
    -1.230E+00   -1.222E+00   -1.214E+00   -1.206E+00   -1.198E+00   -1.190E+00   -1.181E+00   -1.173E+00   -1.165E+00   -1.157E+00
    -1.149E+00   -1.141E+00   -1.133E+00   -1.125E+00   -1.117E+00   -1.109E+00   -1.100E+00   -1.092E+00   -1.084E+00   -1.076E+00
    -1.068E+00   -1.060E+00   -1.052E+00   -1.044E+00   -1.036E+00   -1.028E+00   -1.020E+00   -1.011E+00   -1.003E+00   -9.953E-01
    -9.872E-01   -9.791E-01   -9.710E-01   -9.629E-01   -9.548E-01   -9.467E-01   -9.386E-01   -9.306E-01   -9.225E-01   -9.144E-01
    -9.063E-01   -8.982E-01   -8.901E-01   -8.820E-01   -8.739E-01   -8.658E-01   -8.578E-01   -8.497E-01   -8.416E-01   -8.335E-01
    -8.254E-01   -8.173E-01   -8.092E-01   -8.012E-01   -7.931E-01   -7.850E-01   -7.769E-01   -7.688E-01   -7.607E-01   -7.527E-01
    -7.446E-01   -7.365E-01   -7.284E-01   -7.203E-01   -7.123E-01   -7.042E-01   -6.961E-01   -6.880E-01   -6.800E-01   -6.719E-01
    -6.638E-01   -6.557E-01   -6.477E-01   -6.396E-01   -6.315E-01   -6.234E-01   -6.154E-01   -6.073E-01   -5.992E-01   -5.912E-01
    -5.831E-01   -5.750E-01   -5.670E-01   -5.589E-01   -5.508E-01   -5.428E-01   -5.347E-01   -5.266E-01   -5.186E-01   -5.105E-01
    -5.025E-01   -4.944E-01   -4.863E-01   -4.783E-01   -4.702E-01   -4.622E-01   -4.541E-01   -4.461E-01   -4.380E-01   -4.300E-01
    -4.219E-01   -4.139E-01   -4.058E-01   -3.978E-01   -3.897E-01   -3.817E-01   -3.736E-01   -3.656E-01   -3.575E-01   -3.495E-01
    -3.415E-01   -3.334E-01   -3.254E-01   -3.173E-01   -3.093E-01   -3.013E-01   -2.932E-01   -2.852E-01   -2.772E-01   -2.691E-01
    -2.611E-01   -2.531E-01   -2.451E-01   -2.370E-01   -2.290E-01   -2.210E-01   -2.130E-01   -2.049E-01   -1.969E-01   -1.889E-01
    -1.809E-01   -1.729E-01   -1.649E-01   -1.569E-01   -1.488E-01   -1.408E-01   -1.328E-01   -1.248E-01   -1.168E-01   -1.088E-01
    -1.008E-01   -9.281E-02   -8.481E-02   -7.681E-02   -6.882E-02   -6.082E-02   -5.283E-02   -4.484E-02   -3.685E-02   -2.886E-02
    -2.087E-02   -1.289E-02   -4.902E-03    3.081E-03    1.106E-02    1.904E-02    2.702E-02    3.499E-02    4.297E-02    5.094E-02
     5.891E-02    6.688E-02    7.485E-02    8.282E-02    9.078E-02    9.874E-02    1.067E-01    1.147E-01    1.226E-01    1.306E-01
     1.385E-01    1.465E-01    1.544E-01    1.624E-01    1.703E-01    1.783E-01    1.862E-01    1.942E-01    2.021E-01    2.100E-01
     2.180E-01    2.259E-01    2.338E-01    2.418E-01    2.497E-01    2.576E-01    2.655E-01    2.735E-01    2.814E-01    2.893E-01
     2.972E-01    3.051E-01    3.130E-01    3.210E-01    3.289E-01    3.368E-01    3.447E-01    3.526E-01
 Ala      Conc. = 4.40E+00
