 LCModel (Version 6.3-1L) Copyright: S.W. Provencher.          Ref.: Magn. Reson. Med. 30:672-679 (1993).                
 Slice#1 Row#12 Col#7  PD_24_press_2_raw_act
 36 lines in following concentration table = NCONC+1
    Conc.  %SD /Cr+PCr  Metabolite                                         
   54.856  61%   1.244 Ala                                                 
    5.003  44%   0.113 Asp                                                 
   44.106  40%   1.000 Cr                                                  
    0.000 999%   0.000 PCr                                                 
    3.007  44% 6.8E-02 GABA                                                
    3.025  43% 6.9E-02 Glc                                                 
   48.606 118%   1.102 Gln                                                 
    0.000 999%   0.000 Glu                                                 
   18.715  37%   0.424 GPC                                                 
    0.000 999%   0.000 PCh                                                 
    0.000 999%   0.000 GSH                                                 
   66.923 102%   1.517 Ins                                                 
    0.000 999%   0.000 Lac                                                 
    0.000 999%   0.000 NAA                                                 
    0.000 999%   0.000 NAAG                                                
    1.012  43% 2.3E-02 Scyllo                                              
    5.028  43%   0.114 Tau                                                 
    4.189  78% 9.5E-02 -CrCH2                                              
   18.715  37%   0.424 GPC+PCh                                             
    0.000 999%   0.000 NAA+NAAG                                            
   44.106  40%   1.000 Cr+PCr                                              
   48.606 118%   1.102 Glu+Gln                                             
  536.434  20%  12.162 Lip13a                                              
    0.000 999%   0.000 Lip13b                                              
  138.576  23%   3.142 Lip09                                               
   16.192 119%   0.367 MM09                                                
   77.115  25%   1.748 Lip20                                               
    0.000 999%   0.000 MM20                                                
    5.495 181%   0.125 MM12                                                
   51.009  73%   1.157 MM14                                                
   83.660  28%   1.897 MM17                                                
  536.434  20%  12.162 Lip13a+Lip13b                                       
  592.938  18%  13.443 MM14+Lip13a+Lip13b+MM12                             
  154.768  22%   3.509 MM09+Lip09                                          
   77.115  25%   1.748 MM20+Lip20                                          
   6 lines in following misc. output table
  FWHM = 0.038 ppm    S/N =   1                                            
  Data shift = 0.038 ppm                                                   
  Ph: 177 deg     -18.2 deg/ppm                                            
  alphaB,S = 8.5E+01,   1.3E+01                                            
   14 spline knots.   Ns = 5(1)                                            
   2 inflections.     1 extrema                                            
  498 points on ppm-axis = NY
      4.000000     3.992357     3.984714     3.977070     3.969427     3.961784     3.954141     3.946497     3.938854     3.931211
      3.923568     3.915925     3.908281     3.900638     3.892995     3.885352     3.877708     3.870065     3.862422     3.854779
      3.847136     3.839492     3.831849     3.824206     3.816563     3.808919     3.801276     3.793633     3.785990     3.778347
      3.770703     3.763060     3.755417     3.747774     3.740130     3.732487     3.724844     3.717201     3.709558     3.701914
      3.694271     3.686628     3.678985     3.671341     3.663698     3.656055     3.648412     3.640769     3.633125     3.625482
      3.617839     3.610196     3.602552     3.594909     3.587266     3.579623     3.571980     3.564336     3.556693     3.549050
      3.541407     3.533763     3.526120     3.518477     3.510834     3.503191     3.495547     3.487904     3.480261     3.472618
      3.464974     3.457331     3.449688     3.442045     3.434402     3.426758     3.419115     3.411472     3.403829     3.396185
      3.388542     3.380899     3.373256     3.365613     3.357969     3.350326     3.342683     3.335040     3.327396     3.319753
      3.312110     3.304467     3.296824     3.289180     3.281537     3.273894     3.266251     3.258607     3.250964     3.243321
      3.235678     3.228034     3.220391     3.212748     3.205105     3.197462     3.189818     3.182175     3.174532     3.166889
      3.159245     3.151602     3.143959     3.136316     3.128673     3.121029     3.113386     3.105743     3.098100     3.090456
      3.082813     3.075170     3.067527     3.059884     3.052240     3.044597     3.036954     3.029311     3.021667     3.014024
      3.006381     2.998738     2.991095     2.983451     2.975808     2.968165     2.960522     2.952878     2.945235     2.937592
      2.929949     2.922306     2.914662     2.907019     2.899376     2.891733     2.884089     2.876446     2.868803     2.861160
      2.853517     2.845873     2.838230     2.830587     2.822944     2.815300     2.807657     2.800014     2.792371     2.784728
      2.777084     2.769441     2.761798     2.754155     2.746511     2.738868     2.731225     2.723582     2.715939     2.708295
      2.700652     2.693009     2.685366     2.677722     2.670079     2.662436     2.654793     2.647150     2.639506     2.631863
      2.624220     2.616577     2.608933     2.601290     2.593647     2.586004     2.578361     2.570717     2.563074     2.555431
      2.547788     2.540144     2.532501     2.524858     2.517215     2.509572     2.501928     2.494285     2.486642     2.478999
      2.471355     2.463712     2.456069     2.448426     2.440783     2.433139     2.425496     2.417853     2.410210     2.402566
      2.394923     2.387280     2.379637     2.371994     2.364350     2.356707     2.349064     2.341421     2.333777     2.326134
      2.318491     2.310848     2.303205     2.295561     2.287918     2.280275     2.272632     2.264988     2.257345     2.249702
      2.242059     2.234416     2.226772     2.219129     2.211486     2.203843     2.196199     2.188556     2.180913     2.173270
      2.165627     2.157983     2.150340     2.142697     2.135054     2.127410     2.119767     2.112124     2.104481     2.096838
      2.089194     2.081551     2.073908     2.066265     2.058621     2.050978     2.043335     2.035692     2.028049     2.020405
      2.012762     2.005119     1.997476     1.989833     1.982190     1.974546     1.966903     1.959260     1.951617     1.943974
      1.936331     1.928688     1.921045     1.913402     1.905759     1.898115     1.890472     1.882829     1.875186     1.867543
      1.859900     1.852257     1.844614     1.836971     1.829327     1.821684     1.814041     1.806398     1.798755     1.791112
      1.783469     1.775826     1.768183     1.760540     1.752896     1.745253     1.737610     1.729967     1.722324     1.714681
      1.707038     1.699395     1.691752     1.684108     1.676465     1.668822     1.661179     1.653536     1.645893     1.638250
      1.630607     1.622964     1.615321     1.607677     1.600034     1.592391     1.584748     1.577105     1.569462     1.561819
      1.554176     1.546533     1.538890     1.531246     1.523603     1.515960     1.508317     1.500674     1.493031     1.485388
      1.477745     1.470102     1.462458     1.454815     1.447172     1.439529     1.431886     1.424243     1.416600     1.408957
      1.401314     1.393671     1.386027     1.378384     1.370741     1.363098     1.355455     1.347812     1.340169     1.332526
      1.324883     1.317240     1.309596     1.301953     1.294310     1.286667     1.279024     1.271381     1.263738     1.256095
      1.248452     1.240808     1.233165     1.225522     1.217879     1.210236     1.202593     1.194950     1.187307     1.179664
      1.172021     1.164377     1.156734     1.149091     1.141448     1.133805     1.126162     1.118519     1.110876     1.103233
      1.095590     1.087946     1.080303     1.072660     1.065017     1.057374     1.049731     1.042088     1.034445     1.026802
      1.019158     1.011515     1.003872     0.996229     0.988586     0.980943     0.973300     0.965657     0.958014     0.950371
      0.942727     0.935084     0.927441     0.919798     0.912155     0.904512     0.896869     0.889226     0.881583     0.873940
      0.866296     0.858653     0.851010     0.843367     0.835724     0.828081     0.820438     0.812795     0.805152     0.797508
      0.789865     0.782222     0.774579     0.766936     0.759293     0.751650     0.744007     0.736364     0.728721     0.721077
      0.713434     0.705791     0.698148     0.690505     0.682862     0.675219     0.667576     0.659933     0.652290     0.644646
      0.637003     0.629360     0.621717     0.614074     0.606431     0.598788     0.591145     0.583502     0.575858     0.568215
      0.560572     0.552929     0.545286     0.537643     0.530000     0.522357     0.514714     0.507071     0.499427     0.491784
      0.484141     0.476498     0.468855     0.461212     0.453569     0.445925     0.438282     0.430639     0.422996     0.415353
      0.407710     0.400067     0.392424     0.384780     0.377137     0.369494     0.361851     0.354208     0.346565     0.338922
      0.331278     0.323635     0.315992     0.308349     0.300706     0.293063     0.285420     0.277777     0.270133     0.262490
      0.254847     0.247204     0.239561     0.231918     0.224275     0.216631     0.208988     0.201345
 NY phased data points follow
   5.62052E+00  1.18115E+00  2.60821E+00 -1.24062E+00  1.30207E-01 -2.82656E+00  4.39486E+00  6.95914E-01  3.13636E+00  1.63853E+00
   3.06548E+00  1.40774E+00  1.07781E+00  3.93184E+00  2.70336E+00  7.45698E-01  4.07274E+00  2.16190E+00  2.58972E+00  1.49880E+00
   2.10658E+00 -4.64986E-01  2.63835E+00  4.36167E-01  1.90725E-01  2.35626E+00  2.34368E+00  1.48906E+00  7.43005E-01  2.63803E+00
   2.09273E+00 -2.48938E+00  1.75261E+00 -9.71311E-01  2.76756E+00  1.30833E+00  2.91364E+00  2.62187E+00  3.94345E+00  1.99969E+00
   2.02159E+00 -5.82194E-01  2.52572E+00  6.81097E-02  3.08729E+00 -7.78498E-01 -1.20577E+00 -5.72727E-01  2.75863E+00  1.46286E+00
   6.88664E-01  6.29853E-01  1.65853E+00  1.09826E+00  4.82411E-02  2.15078E+00  1.01695E+00  1.98606E+00  2.21584E+00 -3.04534E-01
   2.20409E+00 -6.50737E-01 -6.01932E-01 -3.89756E-01  1.55431E+00  7.62429E-01  2.45239E+00  1.00304E+00  5.99046E-01  8.53393E-01
   1.71412E+00  1.01669E+00  3.51288E+00 -4.92188E-03  2.63805E+00  5.80570E-01  1.06723E+00  1.81579E+00  2.77918E+00 -2.45064E-01
   5.65417E-01  2.13171E+00  1.02428E+00  2.06816E+00  3.24784E+00 -1.32761E+00  4.17148E+00 -5.80137E-01  3.39909E+00  1.24813E+00
   8.07646E-01 -4.05572E-01  2.38023E+00  8.73369E-01  3.12681E+00  1.30580E+00  1.18918E+00 -1.30672E+00 -6.16085E-01 -4.36858E-01
  -1.52499E+00 -1.22671E-01  1.10227E+00  1.55070E+00  4.15515E+00  4.30710E+00  2.35000E+00  1.17334E+00  3.16957E+00  2.28766E-01
  -4.22165E-01 -3.17654E-01  3.16475E+00 -4.78222E-01  1.27058E+00  3.39062E+00  4.94067E+00  4.49627E+00  5.35579E-01  7.65786E-01
   1.18894E-01  1.38219E+00  1.08844E+00 -2.37209E-01 -9.05424E-03 -7.32400E-01 -1.30482E+00  4.35298E-01  1.55243E+00  2.44023E+00
   2.05653E+00  3.29040E+00  3.29416E+00  1.30714E+00  2.53572E+00 -9.34764E-01 -4.18281E-01  1.38054E+00  1.75911E+00  1.70134E+00
   7.27085E-01  4.60632E-01  2.87768E-01  9.47446E-02  1.04416E+00 -1.29999E+00  1.62234E+00 -1.96272E-01 -7.64221E-01 -8.19683E-02
  -1.13982E-01 -6.55320E-01  2.43326E+00  1.48341E+00  1.42759E+00  7.38145E-01  6.57802E-01 -6.03525E-01  1.55851E+00  1.34787E+00
   4.40015E+00  4.98031E-01 -1.47262E+00  5.70941E-01  2.30063E+00  6.17799E-01  1.00616E+00  8.55356E-01  2.20634E+00 -3.80188E-01
   9.21691E-01  1.80553E+00  1.09258E+00 -1.24548E+00  2.68487E+00  1.82838E+00 -3.95743E-02 -2.18222E-01  3.71732E+00  1.45811E+00
   1.89742E+00  2.42789E+00  1.06208E+00 -3.52267E-02  1.10136E+00 -7.62500E-02  9.60163E-01 -1.65303E+00  1.07753E+00  1.44993E+00
   7.83767E-01 -8.05668E-01  8.62904E-01 -1.39668E-01  2.60308E-01  1.68794E+00 -2.13473E-01  1.79851E+00  1.46809E+00 -4.92359E-01
   7.34407E-01  2.34205E-01 -3.12266E-01  1.35580E+00  2.02094E-02  1.09508E+00  2.23620E+00  1.78159E+00 -6.28950E-01 -8.56098E-01
   8.22412E-01 -1.26667E+00  2.02099E-01  5.09091E-01  5.23699E-02  6.54887E-01  4.55866E-01 -3.76795E-01  2.82083E+00 -8.71744E-02
   7.33045E-01  1.25024E+00  1.92701E+00  2.07655E+00  1.23625E+00 -2.47369E-01  3.73029E-01  2.01632E+00  7.11535E-01  1.97737E+00
   4.27471E-01 -9.87554E-01  2.90748E-01 -1.18454E-01 -1.49752E+00  1.54467E+00  1.16637E+00 -7.69796E-01 -5.60572E-01 -1.78727E+00
   1.52766E+00 -7.19745E-01  7.54360E-01  1.30505E+00 -9.08918E-01  1.15422E-01 -1.21268E+00  5.01198E-01  4.83967E-01  2.81918E+00
   1.19236E+00  2.95176E+00  1.24247E+00 -9.54889E-01  1.37968E-01 -1.75795E-01  9.67925E-01  1.81558E+00 -2.50767E+00 -3.32319E+00
  -3.32472E+00 -1.85960E+00  1.57037E+00 -1.26085E+00 -3.31774E-01  1.58512E+00 -6.44900E-01 -1.44536E+00 -2.19155E+00 -1.92266E+00
  -2.31143E+00 -4.84038E-01 -2.28178E+00 -2.36581E+00 -2.74483E+00  6.07270E-01  7.00318E-02 -1.41888E+00 -2.48690E+00 -5.33337E+00
   1.16118E+00 -3.47651E+00 -9.53531E-01  1.05625E+00 -9.26080E-01  1.38384E+00  9.63116E-01 -2.97110E-01 -1.97845E+00 -1.43095E+00
   8.28965E-01  5.27256E-01 -5.55137E-01 -2.06828E+00  8.52240E-01 -1.01024E+00 -1.10659E+00 -4.91829E-01  1.78615E-01  1.31936E+00
   3.89001E+00  2.21639E+00  2.45742E+00  4.80604E-01  3.22455E+00 -2.06489E-01  5.14238E+00  2.52107E+00  6.20518E+00  3.12381E+00
   4.00636E+00  5.57157E+00  4.54220E+00  6.08876E+00  3.58273E+00  5.27020E+00  4.01635E+00  4.28118E+00  3.25035E+00  3.44282E+00
   6.41961E+00  2.71821E+00  4.01474E+00  2.75568E+00  6.08359E+00  2.93075E-01  1.35923E+00  3.12667E+00  2.45639E+00  2.76059E+00
   1.04422E+00  1.74851E-01  2.86314E-01  1.69315E+00  1.09326E+00 -2.70553E-01  2.07233E+00  2.09862E+00 -6.81582E-01  7.87003E-01
   1.68254E+00  1.43782E+00  7.64682E-01  2.53173E+00  2.34760E+00  2.02787E+00  1.43235E+00  4.98533E+00  2.99495E+00  2.63576E+00
   4.95039E+00  2.59992E+00  5.45888E+00  2.72805E+00  3.88074E+00  3.10802E+00  2.30825E+00  1.09005E+00  3.42324E+00  1.50677E+00
   6.24129E-03  3.15427E+00 -1.48457E-02  2.66942E-01  2.54055E+00  2.58982E+00  3.38583E+00  1.44736E+00  9.19770E-01  2.45706E+00
   2.08995E+00  2.60917E+00  3.70470E+00  2.41616E+00  2.07463E+00  2.15332E+00  2.70502E-01  2.95554E+00  1.87629E+00  2.40413E+00
   1.18743E+00  1.64034E+00  8.93374E-01  1.85809E+00  1.73374E+00  1.37680E+00  9.73321E-01  9.19628E-01 -1.22665E+00 -9.68324E-01
  -2.66369E-01  3.07471E+00  2.99751E+00  1.52587E+00 -1.41298E-01 -1.40272E+00 -9.79025E-01 -8.37142E-01 -9.48685E-01  1.07452E+00
   3.90378E-01  1.52216E+00  2.11869E+00  6.54651E-01  1.28172E+00  1.50928E+00 -9.40632E-01 -1.83227E+00 -4.18042E-01  1.70619E+00
   4.06745E-01 -4.50215E-01  1.00989E+00 -1.50915E+00  3.28451E-01  1.39388E-01  9.27411E-01  2.22875E+00  2.82959E+00  2.72881E+00
  -8.42310E-01  1.56285E+00  1.69950E+00  6.65100E-01  4.09215E-02 -1.23241E+00 -1.82468E+00  1.30517E+00  1.69654E+00 -6.50679E-01
   2.10220E+00  2.01197E+00 -6.28189E-01  1.18789E+00 -4.30901E-01  8.05091E-01  7.61015E-01  1.70435E+00 -3.32780E-01  8.46393E-01
  -1.18932E+00 -1.64677E+00  2.31834E+00 -1.32330E+00  3.31291E+00 -6.52273E-02  2.60930E-01  4.11281E-01 -7.90940E-01  1.09338E+00
   4.15450E-01  1.08427E+00 -8.55574E-01  2.28764E+00 -3.24319E-01  1.70796E-01  2.70588E+00  7.38490E-01 -2.42241E-02  1.43031E+00
  -1.00045E+00 -6.11649E-01  4.81956E-01  2.01043E+00  2.57311E+00 -1.83458E+00  5.34025E-02  6.14827E-01  1.38601E+00 -1.06342E+00
  -5.34476E-02 -1.10877E+00 -7.37381E-01  3.07196E-01 -2.62760E+00 -1.92050E-01 -5.41787E-01  3.52199E+00  2.81967E+00 -2.66137E+00
   1.09975E+00  2.60628E-02  7.20739E-01  3.38304E-02  2.83939E+00 -8.55077E-01 -7.74147E-01 -4.01901E-01 -2.26776E-01  1.02108E+00
  -2.18472E-01  2.16404E+00  6.95420E-01  9.98902E-02 -1.98219E+00  3.19856E-01  1.58530E+00 -1.04009E-01
 NY points of the fit to the data follow
   1.23636E+00  1.16553E+00  1.09745E+00  1.06277E+00  1.05559E+00  1.06594E+00  1.08769E+00  1.10107E+00  1.08042E+00  1.05478E+00
   1.13807E+00  1.43411E+00  1.89055E+00  2.29878E+00  2.48234E+00  2.41821E+00  2.13345E+00  1.68307E+00  1.27093E+00  1.10176E+00
   1.04958E+00  1.03543E+00  1.05597E+00  1.12473E+00  1.22847E+00  1.30069E+00  1.28299E+00  1.15923E+00  9.71594E-01  7.80188E-01
   6.31254E-01  5.90331E-01  7.12878E-01  9.26437E-01  1.12820E+00  1.27273E+00  1.34055E+00  1.33659E+00  1.28022E+00  1.20509E+00
   1.12733E+00  1.04799E+00  9.75797E-01  9.24473E-01  8.92005E-01  9.07398E-01  1.03161E+00  1.25688E+00  1.50158E+00  1.68474E+00
   1.74592E+00  1.65616E+00  1.43888E+00  1.17261E+00  9.63655E-01  8.71806E-01  8.62386E-01  8.84697E-01  9.20768E-01  9.81495E-01
   1.06726E+00  1.15465E+00  1.21225E+00  1.21944E+00  1.16666E+00  1.06239E+00  9.54632E-01  8.87324E-01  8.69753E-01  8.95613E-01
   9.40304E-01  9.91117E-01  1.03958E+00  1.07493E+00  1.09245E+00  1.09372E+00  1.08609E+00  1.06308E+00  1.02428E+00  9.91741E-01
   9.65254E-01  9.40464E-01  9.23645E-01  9.20712E-01  9.28882E-01  9.42347E-01  9.46492E-01  9.18007E-01  8.48896E-01  7.61348E-01
   6.87351E-01  6.48009E-01  6.54986E-01  7.10929E-01  7.85279E-01  8.48740E-01  8.88543E-01  9.04075E-01  8.86401E-01  8.23401E-01
   7.72287E-01  9.13355E-01  1.42744E+00  2.26449E+00  3.06284E+00  3.44233E+00  3.32903E+00  2.82127E+00  2.02344E+00  1.24724E+00
   9.19592E-01  8.42014E-01  8.12176E-01  7.98371E-01  7.89976E-01  7.85343E-01  7.81295E-01  7.76566E-01  7.70810E-01  7.64302E-01
   7.57994E-01  7.53369E-01  7.49354E-01  7.35135E-01  7.06214E-01  7.30711E-01  9.60510E-01  1.49352E+00  2.20198E+00  2.76394E+00
   2.94110E+00  2.73900E+00  2.24358E+00  1.56594E+00  1.02462E+00  8.45194E-01  7.95397E-01  7.73718E-01  7.64345E-01  7.62524E-01
   7.64878E-01  7.67049E-01  7.66629E-01  7.65850E-01  7.66258E-01  7.68989E-01  7.74803E-01  7.81622E-01  7.86585E-01  7.87117E-01
   7.84004E-01  7.79705E-01  7.76076E-01  7.75091E-01  7.75582E-01  7.75440E-01  7.74549E-01  7.72740E-01  7.69318E-01  7.63686E-01
   7.56426E-01  7.49241E-01  7.43410E-01  7.38463E-01  7.33518E-01  7.29057E-01  7.25950E-01  7.24170E-01  7.24254E-01  7.24949E-01
   7.24443E-01  7.21238E-01  7.14771E-01  7.06400E-01  6.99372E-01  6.93998E-01  6.89042E-01  6.83340E-01  6.76475E-01  6.68922E-01
   6.61174E-01  6.53718E-01  6.47762E-01  6.44243E-01  6.43888E-01  6.46166E-01  6.48948E-01  6.50286E-01  6.49296E-01  6.45527E-01
   6.39287E-01  6.32300E-01  6.23933E-01  6.09168E-01  5.85151E-01  5.51781E-01  5.11121E-01  4.69760E-01  4.39745E-01  4.34999E-01
   4.66212E-01  5.38217E-01  6.46840E-01  7.58624E-01  8.42345E-01  8.90531E-01  8.94103E-01  8.35690E-01  7.08879E-01  5.25806E-01
   3.19924E-01  1.61638E-01  1.33641E-01  2.33193E-01  4.01840E-01  5.94334E-01  7.53227E-01  8.08064E-01  7.94252E-01  7.79605E-01
   7.69774E-01  7.61711E-01  7.59713E-01  7.64865E-01  7.74283E-01  7.82601E-01  7.86052E-01  7.83191E-01  7.73807E-01  7.58312E-01
   7.40100E-01  7.24255E-01  7.15691E-01  7.13322E-01  7.02960E-01  6.64362E-01  5.98756E-01  5.40167E-01  5.31132E-01  5.90995E-01
   7.14358E-01  8.72345E-01  9.93198E-01  9.96983E-01  9.00145E-01  7.59588E-01  6.11091E-01  4.93018E-01  4.47623E-01  4.69939E-01
   5.20825E-01  6.02236E-01  6.98962E-01  7.81855E-01  8.37642E-01  8.62494E-01  8.50798E-01  8.10090E-01  7.62241E-01  7.19281E-01
   6.85349E-01  6.66054E-01  6.61839E-01  6.65881E-01  6.71548E-01  6.78182E-01  6.77435E-01  6.70478E-01  6.60093E-01  6.46945E-01
   6.31725E-01  6.16549E-01  6.03545E-01  5.93091E-01  5.85316E-01  5.80832E-01  5.78570E-01  5.76375E-01  5.73312E-01  5.68701E-01
   5.62602E-01  5.55440E-01  5.47451E-01  5.40155E-01  5.35144E-01  5.32517E-01  5.32291E-01  5.34646E-01  5.38980E-01  5.44882E-01
   5.52216E-01  5.60737E-01  5.71003E-01  5.83989E-01  6.00114E-01  6.19700E-01  6.43577E-01  6.72484E-01  7.06561E-01  7.45870E-01
   7.90405E-01  8.39528E-01  8.92537E-01  9.48545E-01  1.00643E+00  1.06486E+00  1.12236E+00  1.17734E+00  1.22819E+00  1.27343E+00
   1.31176E+00  1.34219E+00  1.36415E+00  1.37753E+00  1.38267E+00  1.38035E+00  1.37181E+00  1.35864E+00  1.34280E+00  1.32650E+00
   1.31214E+00  1.30212E+00  1.29832E+00  1.30392E+00  1.34360E+00  1.46850E+00  1.69513E+00  1.92939E+00  1.99458E+00  1.78563E+00
   1.37192E+00  8.82541E-01  3.90876E-01  2.73975E-02  1.00538E-02  3.30504E-01  8.61493E-01  1.47418E+00  2.00678E+00  2.37733E+00
   2.52948E+00  2.43142E+00  2.26548E+00  2.20995E+00  2.21562E+00  2.24734E+00  2.29156E+00  2.34143E+00  2.39269E+00  2.44229E+00
   2.48786E+00  2.52741E+00  2.55933E+00  2.58230E+00  2.59529E+00  2.59756E+00  2.58869E+00  2.56853E+00  2.53724E+00  2.49527E+00
   2.44334E+00  2.38237E+00  2.31349E+00  2.23794E+00  2.15706E+00  2.07224E+00  1.98488E+00  1.89631E+00  1.80780E+00  1.72048E+00
   1.63539E+00  1.55340E+00  1.47525E+00  1.40153E+00  1.33268E+00  1.26902E+00  1.21076E+00  1.15801E+00  1.11082E+00  1.06916E+00
   1.03295E+00  1.00208E+00  9.76431E-01  9.55851E-01  9.40198E-01  9.29305E-01  9.23005E-01  9.21115E-01  9.23445E-01  9.29773E-01
   9.39853E-01  9.53381E-01  9.70016E-01  9.89356E-01  1.01095E+00  1.03426E+00  1.05872E+00  1.08369E+00  1.10847E+00  1.13237E+00
   1.15467E+00  1.17465E+00  1.19165E+00  1.20503E+00  1.21427E+00  1.21894E+00  1.21870E+00  1.21338E+00  1.20292E+00  1.18739E+00
   1.16700E+00  1.14208E+00  1.11305E+00  1.08043E+00  1.04477E+00  1.00667E+00  9.66754E-01  9.25624E-01  8.83862E-01  8.41996E-01
   8.00508E-01  7.59813E-01  7.20269E-01  6.82154E-01  6.45686E-01  6.11010E-01  5.78225E-01  5.47373E-01  5.18464E-01  4.91462E-01
   4.66310E-01  4.42919E-01  4.21202E-01  4.01052E-01  3.82367E-01  3.65034E-01  3.48945E-01  3.33991E-01  3.20078E-01  3.07114E-01
   2.95016E-01  2.83700E-01  2.73094E-01  2.63127E-01  2.53748E-01  2.44900E-01  2.36539E-01  2.28615E-01  2.21090E-01  2.13925E-01
   2.07098E-01  2.00575E-01  1.94335E-01  1.88347E-01  1.82594E-01  1.77057E-01  1.71724E-01  1.66577E-01  1.61603E-01  1.56783E-01
   1.52111E-01  1.47574E-01  1.43171E-01  1.38885E-01  1.34711E-01  1.30637E-01  1.26662E-01  1.22779E-01  1.18987E-01  1.15272E-01
   1.11633E-01  1.08060E-01  1.04558E-01  1.01120E-01  9.77453E-02  9.44237E-02  9.11551E-02  8.79342E-02  8.47659E-02  8.16438E-02
   7.85674E-02  7.55276E-02  7.25269E-02  6.95619E-02  6.66376E-02  6.37471E-02  6.08899E-02  5.80588E-02  5.52582E-02  5.24858E-02
   4.97457E-02  4.70302E-02  4.43395E-02  4.16682E-02  3.90225E-02  3.63999E-02  3.38034E-02  3.12247E-02
 NY background values follow
     9.427E-01    9.408E-01    9.389E-01    9.370E-01    9.351E-01    9.332E-01    9.313E-01    9.293E-01    9.274E-01    9.255E-01
     9.236E-01    9.217E-01    9.198E-01    9.179E-01    9.160E-01    9.141E-01    9.121E-01    9.102E-01    9.083E-01    9.064E-01
     9.045E-01    9.026E-01    9.007E-01    8.988E-01    8.969E-01    8.949E-01    8.930E-01    8.911E-01    8.892E-01    8.873E-01
     8.854E-01    8.835E-01    8.816E-01    8.797E-01    8.777E-01    8.758E-01    8.739E-01    8.720E-01    8.701E-01    8.682E-01
     8.663E-01    8.644E-01    8.625E-01    8.605E-01    8.586E-01    8.567E-01    8.548E-01    8.529E-01    8.510E-01    8.491E-01
     8.472E-01    8.453E-01    8.433E-01    8.414E-01    8.395E-01    8.376E-01    8.357E-01    8.338E-01    8.319E-01    8.300E-01
     8.281E-01    8.261E-01    8.242E-01    8.223E-01    8.204E-01    8.185E-01    8.166E-01    8.147E-01    8.128E-01    8.109E-01
     8.089E-01    8.070E-01    8.051E-01    8.032E-01    8.013E-01    7.994E-01    7.975E-01    7.956E-01    7.937E-01    7.918E-01
     7.898E-01    7.879E-01    7.860E-01    7.841E-01    7.822E-01    7.803E-01    7.784E-01    7.765E-01    7.746E-01    7.726E-01
     7.707E-01    7.688E-01    7.669E-01    7.650E-01    7.631E-01    7.612E-01    7.593E-01    7.574E-01    7.554E-01    7.535E-01
     7.516E-01    7.497E-01    7.478E-01    7.459E-01    7.440E-01    7.421E-01    7.402E-01    7.382E-01    7.363E-01    7.344E-01
     7.325E-01    7.306E-01    7.287E-01    7.268E-01    7.249E-01    7.230E-01    7.210E-01    7.191E-01    7.172E-01    7.153E-01
     7.134E-01    7.115E-01    7.096E-01    7.077E-01    7.058E-01    7.038E-01    7.019E-01    7.000E-01    6.981E-01    6.962E-01
     6.943E-01    6.924E-01    6.905E-01    6.886E-01    6.866E-01    6.847E-01    6.828E-01    6.809E-01    6.790E-01    6.771E-01
     6.752E-01    6.733E-01    6.714E-01    6.694E-01    6.675E-01    6.656E-01    6.637E-01    6.618E-01    6.599E-01    6.580E-01
     6.561E-01    6.542E-01    6.522E-01    6.503E-01    6.484E-01    6.465E-01    6.446E-01    6.427E-01    6.408E-01    6.389E-01
     6.370E-01    6.350E-01    6.331E-01    6.312E-01    6.293E-01    6.274E-01    6.255E-01    6.236E-01    6.217E-01    6.198E-01
     6.179E-01    6.159E-01    6.140E-01    6.121E-01    6.102E-01    6.083E-01    6.064E-01    6.045E-01    6.026E-01    6.007E-01
     5.987E-01    5.968E-01    5.949E-01    5.930E-01    5.911E-01    5.892E-01    5.873E-01    5.854E-01    5.835E-01    5.815E-01
     5.796E-01    5.777E-01    5.758E-01    5.739E-01    5.720E-01    5.701E-01    5.682E-01    5.663E-01    5.643E-01    5.624E-01
     5.605E-01    5.586E-01    5.567E-01    5.548E-01    5.529E-01    5.510E-01    5.491E-01    5.472E-01    5.452E-01    5.433E-01
     5.414E-01    5.395E-01    5.376E-01    5.357E-01    5.338E-01    5.319E-01    5.300E-01    5.280E-01    5.261E-01    5.242E-01
     5.223E-01    5.204E-01    5.185E-01    5.166E-01    5.147E-01    5.128E-01    5.108E-01    5.089E-01    5.070E-01    5.051E-01
     5.032E-01    5.013E-01    4.994E-01    4.975E-01    4.956E-01    4.937E-01    4.917E-01    4.898E-01    4.879E-01    4.860E-01
     4.841E-01    4.822E-01    4.803E-01    4.784E-01    4.765E-01    4.745E-01    4.726E-01    4.707E-01    4.688E-01    4.669E-01
     4.650E-01    4.631E-01    4.612E-01    4.593E-01    4.573E-01    4.554E-01    4.535E-01    4.516E-01    4.497E-01    4.478E-01
     4.459E-01    4.440E-01    4.421E-01    4.402E-01    4.382E-01    4.363E-01    4.344E-01    4.325E-01    4.306E-01    4.287E-01
     4.268E-01    4.249E-01    4.230E-01    4.210E-01    4.191E-01    4.172E-01    4.153E-01    4.134E-01    4.115E-01    4.096E-01
     4.077E-01    4.058E-01    4.039E-01    4.019E-01    4.000E-01    3.981E-01    3.962E-01    3.943E-01    3.924E-01    3.905E-01
     3.886E-01    3.867E-01    3.848E-01    3.828E-01    3.809E-01    3.790E-01    3.771E-01    3.752E-01    3.733E-01    3.714E-01
     3.695E-01    3.676E-01    3.656E-01    3.637E-01    3.618E-01    3.599E-01    3.580E-01    3.561E-01    3.542E-01    3.523E-01
     3.504E-01    3.485E-01    3.465E-01    3.446E-01    3.427E-01    3.408E-01    3.389E-01    3.370E-01    3.351E-01    3.332E-01
     3.313E-01    3.294E-01    3.274E-01    3.255E-01    3.236E-01    3.217E-01    3.198E-01    3.179E-01    3.160E-01    3.141E-01
     3.122E-01    3.102E-01    3.083E-01    3.064E-01    3.045E-01    3.026E-01    3.007E-01    2.988E-01    2.969E-01    2.950E-01
     2.931E-01    2.911E-01    2.892E-01    2.873E-01    2.854E-01    2.835E-01    2.816E-01    2.797E-01    2.778E-01    2.759E-01
     2.739E-01    2.720E-01    2.701E-01    2.682E-01    2.663E-01    2.644E-01    2.625E-01    2.606E-01    2.587E-01    2.568E-01
     2.548E-01    2.529E-01    2.510E-01    2.491E-01    2.472E-01    2.453E-01    2.434E-01    2.415E-01    2.396E-01    2.377E-01
     2.357E-01    2.338E-01    2.319E-01    2.300E-01    2.281E-01    2.262E-01    2.243E-01    2.224E-01    2.205E-01    2.186E-01
     2.166E-01    2.147E-01    2.128E-01    2.109E-01    2.090E-01    2.071E-01    2.052E-01    2.033E-01    2.014E-01    1.994E-01
     1.975E-01    1.956E-01    1.937E-01    1.918E-01    1.899E-01    1.880E-01    1.861E-01    1.842E-01    1.823E-01    1.803E-01
     1.784E-01    1.765E-01    1.746E-01    1.727E-01    1.708E-01    1.689E-01    1.670E-01    1.651E-01    1.632E-01    1.612E-01
     1.593E-01    1.574E-01    1.555E-01    1.536E-01    1.517E-01    1.498E-01    1.479E-01    1.460E-01    1.440E-01    1.421E-01
     1.402E-01    1.383E-01    1.364E-01    1.345E-01    1.326E-01    1.307E-01    1.288E-01    1.269E-01    1.249E-01    1.230E-01
     1.211E-01    1.192E-01    1.173E-01    1.154E-01    1.135E-01    1.116E-01    1.097E-01    1.078E-01    1.058E-01    1.039E-01
     1.020E-01    1.001E-01    9.820E-02    9.629E-02    9.438E-02    9.247E-02    9.056E-02    8.865E-02    8.674E-02    8.483E-02
     8.292E-02    8.101E-02    7.910E-02    7.719E-02    7.528E-02    7.337E-02    7.146E-02    6.955E-02    6.764E-02    6.573E-02
     6.382E-02    6.191E-02    6.000E-02    5.809E-02    5.618E-02    5.427E-02    5.236E-02    5.045E-02    4.854E-02    4.662E-02
     4.471E-02    4.280E-02    4.089E-02    3.898E-02    3.707E-02    3.516E-02    3.325E-02    3.134E-02    2.943E-02    2.752E-02
     2.561E-02    2.370E-02    2.179E-02    1.988E-02    1.797E-02    1.606E-02    1.415E-02    1.224E-02    1.033E-02    8.420E-03
     6.509E-03    4.599E-03    2.689E-03    7.786E-04   -1.132E-03   -3.042E-03   -4.952E-03   -6.862E-03
 Ala      Conc. = 5.49E+01
