 LCModel (Version 6.3-1L) Copyright: S.W. Provencher.          Ref.: Magn. Reson. Med. 30:672-679 (1993).                
 Slice#1 Row#1 Col#10  PD_24_press_2_raw_act
 36 lines in following concentration table = NCONC+1
    Conc.  %SD /Cr+PCr  Metabolite                                         
    0.000 999%   0.000 Ala                                                 
   45.622  93%   0.222 Asp                                                 
   75.420 476%   0.367 Cr                                                  
  129.884 278%   0.633 PCr                                                 
   32.033  79%   0.156 GABA                                                
   29.555  86%   0.144 Glc                                                 
    0.000 999%   0.000 Gln                                                 
  261.038 231%   1.271 Glu                                                 
   98.013  34%   0.477 GPC                                                 
    0.000 999%   0.000 PCh                                                 
  185.692  74%   0.904 GSH                                                 
  927.916  42%   4.520 Ins                                                 
    0.000 999%   0.000 Lac                                                 
   12.820 999% 6.2E-02 NAA                                                 
  528.524  35%   2.574 NAAG                                                
   10.665  79% 5.2E-02 Scyllo                                              
   48.999  86%   0.239 Tau                                                 
   28.491 187%   0.139 -CrCH2                                              
   98.013  34%   0.477 GPC+PCh                                             
  541.344  20%   2.637 NAA+NAAG                                            
  205.304  43%   1.000 Cr+PCr                                              
  261.038 231%   1.271 Glu+Gln                                             
    0.000 999%   0.000 Lip13a                                              
    0.000 999%   0.000 Lip13b                                              
 1.91E-04 999% 9.3E-07 Lip09                                               
    5.972 702% 2.9E-02 MM09                                                
    0.000 999%   0.000 Lip20                                               
    0.000 999%   0.000 MM20                                                
    0.000 999%   0.000 MM12                                                
    0.000 999%   0.000 MM14                                                
    0.000 999%   0.000 MM17                                                
    0.000 999%   0.000 Lip13a+Lip13b                                       
    0.000 999%   0.000 MM14+Lip13a+Lip13b+MM12                             
    5.972 702% 2.9E-02 MM09+Lip09                                          
    0.000 999%   0.000 MM20+Lip20                                          
   6 lines in following misc. output table
  FWHM = 0.076 ppm    S/N =   1                                            
  Data shift = 0.008 ppm                                                   
  Ph:  28 deg      -8.5 deg/ppm                                            
  alphaB,S = 8.5E+01,   1.0E+02                                            
   14 spline knots.   Ns = 8(1)                                            
   2 inflections.     1 extrema                                            
  498 points on ppm-axis = NY
      4.000000     3.992357     3.984714     3.977070     3.969427     3.961784     3.954141     3.946497     3.938854     3.931211
      3.923568     3.915925     3.908281     3.900638     3.892995     3.885352     3.877708     3.870065     3.862422     3.854779
      3.847136     3.839492     3.831849     3.824206     3.816563     3.808919     3.801276     3.793633     3.785990     3.778347
      3.770703     3.763060     3.755417     3.747774     3.740130     3.732487     3.724844     3.717201     3.709558     3.701914
      3.694271     3.686628     3.678985     3.671341     3.663698     3.656055     3.648412     3.640769     3.633125     3.625482
      3.617839     3.610196     3.602552     3.594909     3.587266     3.579623     3.571980     3.564336     3.556693     3.549050
      3.541407     3.533763     3.526120     3.518477     3.510834     3.503191     3.495547     3.487904     3.480261     3.472618
      3.464974     3.457331     3.449688     3.442045     3.434402     3.426758     3.419115     3.411472     3.403829     3.396185
      3.388542     3.380899     3.373256     3.365613     3.357969     3.350326     3.342683     3.335040     3.327396     3.319753
      3.312110     3.304467     3.296824     3.289180     3.281537     3.273894     3.266251     3.258607     3.250964     3.243321
      3.235678     3.228034     3.220391     3.212748     3.205105     3.197462     3.189818     3.182175     3.174532     3.166889
      3.159245     3.151602     3.143959     3.136316     3.128673     3.121029     3.113386     3.105743     3.098100     3.090456
      3.082813     3.075170     3.067527     3.059884     3.052240     3.044597     3.036954     3.029311     3.021667     3.014024
      3.006381     2.998738     2.991095     2.983451     2.975808     2.968165     2.960522     2.952878     2.945235     2.937592
      2.929949     2.922306     2.914662     2.907019     2.899376     2.891733     2.884089     2.876446     2.868803     2.861160
      2.853517     2.845873     2.838230     2.830587     2.822944     2.815300     2.807657     2.800014     2.792371     2.784728
      2.777084     2.769441     2.761798     2.754155     2.746511     2.738868     2.731225     2.723582     2.715939     2.708295
      2.700652     2.693009     2.685366     2.677722     2.670079     2.662436     2.654793     2.647150     2.639506     2.631863
      2.624220     2.616577     2.608933     2.601290     2.593647     2.586004     2.578361     2.570717     2.563074     2.555431
      2.547788     2.540144     2.532501     2.524858     2.517215     2.509572     2.501928     2.494285     2.486642     2.478999
      2.471355     2.463712     2.456069     2.448426     2.440783     2.433139     2.425496     2.417853     2.410210     2.402566
      2.394923     2.387280     2.379637     2.371994     2.364350     2.356707     2.349064     2.341421     2.333777     2.326134
      2.318491     2.310848     2.303205     2.295561     2.287918     2.280275     2.272632     2.264988     2.257345     2.249702
      2.242059     2.234416     2.226772     2.219129     2.211486     2.203843     2.196199     2.188556     2.180913     2.173270
      2.165627     2.157983     2.150340     2.142697     2.135054     2.127410     2.119767     2.112124     2.104481     2.096838
      2.089194     2.081551     2.073908     2.066265     2.058621     2.050978     2.043335     2.035692     2.028049     2.020405
      2.012762     2.005119     1.997476     1.989833     1.982190     1.974546     1.966903     1.959260     1.951617     1.943974
      1.936331     1.928688     1.921045     1.913402     1.905759     1.898115     1.890472     1.882829     1.875186     1.867543
      1.859900     1.852257     1.844614     1.836971     1.829327     1.821684     1.814041     1.806398     1.798755     1.791112
      1.783469     1.775826     1.768183     1.760540     1.752896     1.745253     1.737610     1.729967     1.722324     1.714681
      1.707038     1.699395     1.691752     1.684108     1.676465     1.668822     1.661179     1.653536     1.645893     1.638250
      1.630607     1.622964     1.615321     1.607677     1.600034     1.592391     1.584748     1.577105     1.569462     1.561819
      1.554176     1.546533     1.538890     1.531246     1.523603     1.515960     1.508317     1.500674     1.493031     1.485388
      1.477745     1.470102     1.462458     1.454815     1.447172     1.439529     1.431886     1.424243     1.416600     1.408957
      1.401314     1.393671     1.386027     1.378384     1.370741     1.363098     1.355455     1.347812     1.340169     1.332526
      1.324883     1.317240     1.309596     1.301953     1.294310     1.286667     1.279024     1.271381     1.263738     1.256095
      1.248452     1.240808     1.233165     1.225522     1.217879     1.210236     1.202593     1.194950     1.187307     1.179664
      1.172021     1.164377     1.156734     1.149091     1.141448     1.133805     1.126162     1.118519     1.110876     1.103233
      1.095590     1.087946     1.080303     1.072660     1.065017     1.057374     1.049731     1.042088     1.034445     1.026802
      1.019158     1.011515     1.003872     0.996229     0.988586     0.980943     0.973300     0.965657     0.958014     0.950371
      0.942727     0.935084     0.927441     0.919798     0.912155     0.904512     0.896869     0.889226     0.881583     0.873940
      0.866296     0.858653     0.851010     0.843367     0.835724     0.828081     0.820438     0.812795     0.805152     0.797508
      0.789865     0.782222     0.774579     0.766936     0.759293     0.751650     0.744007     0.736364     0.728721     0.721077
      0.713434     0.705791     0.698148     0.690505     0.682862     0.675219     0.667576     0.659933     0.652290     0.644646
      0.637003     0.629360     0.621717     0.614074     0.606431     0.598788     0.591145     0.583502     0.575858     0.568215
      0.560572     0.552929     0.545286     0.537643     0.530000     0.522357     0.514714     0.507071     0.499427     0.491784
      0.484141     0.476498     0.468855     0.461212     0.453569     0.445925     0.438282     0.430639     0.422996     0.415353
      0.407710     0.400067     0.392424     0.384780     0.377137     0.369494     0.361851     0.354208     0.346565     0.338922
      0.331278     0.323635     0.315992     0.308349     0.300706     0.293063     0.285420     0.277777     0.270133     0.262490
      0.254847     0.247204     0.239561     0.231918     0.224275     0.216631     0.208988     0.201345
 NY phased data points follow
   1.44470E+00 -1.00828E+01 -1.57366E+01  1.12727E+01 -1.76770E+00 -4.47602E+00 -8.01008E+00 -5.11832E+00 -1.05551E-01  3.29018E+00
   2.04909E+01  4.88198E+00 -5.61753E+00 -4.06149E+00 -4.45411E+00  4.97597E+00 -4.57196E+00 -2.12079E+00 -8.33573E+00  7.79636E+00
  -1.24538E+00 -5.26679E+00  3.39627E+00 -1.20369E+00 -4.72227E+00 -3.29097E+00 -6.65563E+00 -3.29744E+00 -1.42972E+01  4.36963E+00
   3.80879E+00  5.84042E+00  8.97808E+00  1.54260E+01  1.57424E-01  1.24250E+00 -6.66836E+00  2.48020E+00 -4.92922E+00 -1.15707E+00
   2.58625E+00  6.16769E+00  4.13168E+00  9.32642E+00 -1.60038E+00  1.16642E+01 -2.38129E+00 -6.20910E+00  4.00302E+00  1.04306E+01
   7.60193E+00  7.73129E+00  5.36112E-01 -3.18841E+00  2.25220E+00  3.85138E+00 -8.17059E+00  2.76767E+00  5.23686E-01  9.74767E-01
  -5.68580E+00  7.32094E+00  6.13645E-01  2.98317E+00  7.55958E-01 -2.88967E+00  1.47277E+00  1.28738E-01 -1.08272E+01  6.01993E+00
   5.19502E-01  3.74643E-01 -7.33377E+00 -8.35250E-01 -3.93811E+00  1.13861E+00 -2.68023E+00  8.07262E+00 -6.29234E+00  1.14164E-01
   2.70650E+00  4.40815E+00 -3.60306E-01 -5.77551E+00 -1.24690E+01 -2.38937E+00  3.70457E+00 -1.70249E+00  2.04920E+00  1.75849E-01
  -4.18118E+00 -5.96454E+00  1.36196E+01 -1.23940E+01 -3.24703E+00  1.66429E+00 -1.14997E+00 -5.60524E+00  9.40436E+00  7.65008E-01
   7.91928E+00  1.16118E+01  2.14042E+00  3.13632E+00  1.10466E+01  9.70602E+00 -8.31933E+00 -2.96777E-01 -9.92408E+00 -8.44184E+00
  -6.26978E+00 -2.14378E+00 -4.59889E+00 -2.97296E+00 -5.27924E+00  3.49220E+00  5.71235E-01  4.34439E+00 -4.58283E+00  2.07482E+00
   2.65113E+00  5.84585E+00  1.75368E+00  2.37399E+00  2.44985E+00  1.51939E+00  7.14552E+00 -3.12910E-01  9.01300E+00  4.86445E+00
   4.37038E+00  4.51529E+00 -9.74833E+00 -3.87311E-01 -1.67432E+01 -1.05374E+01  1.90784E+00 -4.15477E+00  4.46487E+00  1.18642E+01
  -4.15109E+00  4.77778E+00 -5.23732E-01 -3.28266E-02 -7.96961E+00  2.33744E+00  5.58792E+00  7.54362E+00  8.95289E+00  1.13544E+01
   4.85687E+00  3.34230E+00  8.94786E-01  4.03130E-02  1.15254E+01 -4.87620E+00 -2.80548E+00 -3.89297E+00 -4.63025E+00  3.36704E+00
  -3.92480E+00 -2.75943E+00  1.04063E+01  7.80027E+00  2.14380E+00 -5.44060E+00 -5.08494E+00 -9.35496E+00 -4.33064E+00 -4.05143E+00
  -7.34403E+00  7.43022E-01  9.72063E-01  9.80454E+00  7.37071E+00 -1.17753E+01  3.72241E+00 -4.06682E+00 -1.35265E-01 -2.86771E+00
  -6.15194E+00  5.43058E-01 -2.96358E+00  8.36555E-03 -1.66355E+00 -3.14487E+00 -8.90995E+00  4.86557E+00  7.07093E+00 -6.56138E-02
  -3.45100E+00  6.48779E+00  6.53804E+00  7.69276E-01 -5.91361E+00 -2.42119E+00 -6.36688E+00 -1.51289E+01 -1.55318E+00 -1.08254E+01
  -4.42365E+00 -1.56364E+01 -5.09057E+00  3.89701E+00  5.30834E+00 -1.20727E+01  1.24438E+01  9.30198E-01  1.19911E+00 -7.13834E+00
  -7.76890E+00  6.28699E+00 -1.05811E+00  5.22485E-01 -7.11240E-01 -4.52925E+00 -1.03905E+00  7.93158E-01 -1.28273E+01 -4.54026E+00
  -3.53152E+00 -6.32885E+00 -5.50890E+00 -4.60780E+00  7.17723E-02 -5.43582E+00 -1.14520E+01 -3.87109E+00 -8.28816E+00 -6.74296E+00
  -8.31701E+00 -2.93251E+00 -4.68257E+00 -2.88640E+00 -4.80938E+00  1.69199E-01 -6.01232E+00 -3.82673E+00 -5.49952E+00 -1.44412E+00
  -1.41464E+01  1.08311E-01  3.06071E+00 -1.25222E+00  1.00906E+01 -4.90377E+00  6.05668E-01  2.50479E+00  3.29878E+00 -1.80477E+00
   9.56727E+00  1.64484E+01  1.72692E+01  5.11505E+00  9.20826E+00  1.24649E+01  3.33548E+00  1.44129E+01  1.21567E+01  1.09042E+01
   1.41827E+01  5.62125E+00  1.24196E+01 -2.25261E+00 -1.36378E+00  3.01635E+00 -4.13670E+00 -3.80914E+00 -2.46990E+00 -4.66592E+00
  -1.35855E+00  3.76972E+00 -8.24415E-01 -2.56286E+00 -5.88010E+00 -1.19889E+01  8.37435E+00  7.85532E-01 -1.82662E+00  9.21763E-01
  -7.35647E+00 -3.75540E+00 -5.89798E+00 -6.20610E+00  4.16772E+00 -2.89899E+00 -1.35233E+00  4.54080E+00  1.22029E+01 -4.53318E-01
   1.07299E+01  1.21383E+01  3.45632E+00  5.88881E+00  9.90388E+00  4.12888E+00  4.38399E+00  2.83860E+00 -6.89643E+00 -1.22685E+00
   5.71865E+00 -1.78695E+00 -5.62098E+00 -8.56359E+00 -6.37026E+00 -4.18955E+00 -1.62183E+00  4.66227E+00 -9.99099E-01  4.67592E+00
  -3.54437E+00 -5.25085E+00 -5.52327E+00 -1.31893E+01 -3.33199E+00 -1.33377E+01 -1.43445E+01 -7.47410E+00  7.23594E-01 -1.16506E+01
  -1.39182E+01 -4.31484E+00 -8.07457E+00 -1.15050E+01  2.06418E+00 -7.44373E+00 -5.49513E+00 -4.94293E+00 -1.05785E+01  3.27295E+00
   4.74242E+00  2.69806E+00 -4.01811E+00 -3.13450E-01  8.90974E+00 -1.04723E+01  3.90713E+00  3.64921E+00  1.34907E+00 -1.61753E+00
  -1.58214E+00  2.12643E+00  9.53801E+00  2.19443E+00 -2.47222E-01  4.43400E+00 -4.53194E+00 -3.14736E+00  3.17823E-01  9.51277E-01
   2.19301E+00 -1.26258E-01 -4.72014E+00 -4.83439E+00  3.12852E+00 -1.51348E+00  3.86435E+00  3.12979E+00 -8.33200E+00 -9.17802E+00
  -6.18384E+00  3.08624E+00 -4.20763E+00 -9.99109E+00 -4.43500E+00 -6.75006E+00 -3.32738E+00 -2.43442E+00 -2.72060E+00 -4.49587E+00
  -3.01752E+00 -4.09515E+00  9.61547E+00  1.15100E+01  7.29229E+00  4.15996E-01  4.99849E+00 -5.17481E+00 -6.64566E+00 -8.31091E+00
  -1.36878E+01 -2.44226E+00  6.93114E-01  3.42916E+00  9.31970E+00 -1.05092E+00  5.31691E+00 -1.75706E+00 -5.86429E-01 -1.83058E+01
   7.55853E+00 -5.59000E+00  2.93009E+00  4.99134E+00  7.95565E+00  6.69172E+00  1.31270E+01  1.25459E+01  8.71596E-02 -3.26087E+00
  -6.00310E+00  1.71330E+00 -2.99119E+00  4.60416E+00 -3.34332E+00 -3.73971E-01 -5.17643E+00  6.66965E+00  3.45279E+00  4.05115E+00
  -1.13412E+00  1.55012E+00  6.62522E-01 -9.43588E-01  7.42605E+00 -3.05575E+00 -8.46446E+00 -4.13923E-01 -5.71705E+00 -8.31336E-01
  -4.28518E+00 -5.32587E+00 -6.50067E+00 -6.84792E+00 -1.10852E+01 -7.56951E+00  5.84929E+00  8.81653E+00  6.73696E+00  3.25664E+00
   8.58884E+00  6.89034E+00  7.54792E+00  2.52020E+00  1.06497E+01 -4.87022E+00  3.28836E+00  1.30664E+00 -1.59050E+00  4.78281E-01
  -4.04103E+00  4.62518E+00 -2.49568E+00 -3.94306E+00  6.84193E+00  2.34339E+00 -8.85423E-01  4.70492E+00 -3.92883E+00 -1.89280E+00
  -5.06594E+00  5.22678E+00  1.01426E+01  8.75971E+00 -4.60716E+00  5.38367E+00  3.26061E+00 -1.57966E+00  4.02689E+00 -2.18720E+00
   1.62726E+00  4.00571E-01  7.52607E+00  3.11938E+00  1.70846E+00  2.01733E+00 -3.69229E+00 -1.56246E+00 -2.98987E+00  3.38330E+00
   8.93778E+00  6.46311E+00  3.93803E+00 -3.01970E+00 -3.33406E+00  2.51525E+00  4.78914E-01  5.86497E+00  2.41333E-01  5.58496E+00
  -4.21209E+00 -1.65988E+00  3.71857E-01 -1.83486E+00  3.79790E+00 -7.41393E+00  2.08826E+00 -1.21597E+00 -2.83779E+00  8.09507E+00
  -7.92283E-01 -3.25019E+00 -6.54949E-01  6.68565E+00  4.53279E-01 -2.05898E+00 -8.92199E+00 -1.18490E+00
 NY points of the fit to the data follow
  -8.72927E-02 -3.67882E-01 -4.25989E-01 -2.78482E-01  3.21736E-02  4.23437E-01  8.11055E-01  1.13698E+00  1.37795E+00  1.52789E+00
   1.57284E+00  1.49035E+00  1.26838E+00  9.21233E-01  4.91906E-01  4.20590E-02 -3.77160E-01 -7.26907E-01 -9.83281E-01 -1.15095E+00
  -1.25629E+00 -1.29524E+00 -1.16130E+00 -7.89974E-01 -2.47409E-01  3.67054E-01  9.60519E-01  1.47634E+00  1.89436E+00  2.22933E+00
   2.50183E+00  2.67105E+00  2.65281E+00  2.38594E+00  1.88795E+00  1.24930E+00  5.76176E-01 -2.98955E-02 -4.53850E-01 -5.49976E-01
  -2.31957E-01  4.19747E-01  1.21496E+00  1.96411E+00  2.54896E+00  2.93813E+00  3.15342E+00  3.21067E+00  3.09372E+00  2.76070E+00
   2.17999E+00  1.41593E+00  6.22573E-01 -3.43114E-02 -4.24691E-01 -5.15642E-01 -3.60904E-01 -8.01266E-02  1.92045E-01  3.81894E-01
   4.78417E-01  4.95789E-01  4.34826E-01  2.98069E-01  1.31187E-01 -1.84438E-02 -1.12419E-01 -1.18189E-01 -1.93823E-02  1.63070E-01
   3.77520E-01  5.65847E-01  6.82527E-01  7.08031E-01  6.46657E-01  5.17027E-01  3.45663E-01  1.60472E-01 -1.39374E-02 -1.95031E-01
  -4.17672E-01 -7.04329E-01 -1.04506E+00 -1.40419E+00 -1.73772E+00 -2.01712E+00 -2.23095E+00 -2.38215E+00 -2.46432E+00 -2.46873E+00
  -2.39894E+00 -2.25990E+00 -2.06706E+00 -1.82536E+00 -1.42574E+00 -6.54855E-01  4.03073E-01  1.53558E+00  2.54772E+00  3.32484E+00
   3.86887E+00  4.23257E+00  4.44823E+00  4.49883E+00  4.31294E+00  3.80694E+00  2.97212E+00  1.90505E+00  7.73143E-01 -2.43360E-01
  -1.00804E+00 -1.46142E+00 -1.65885E+00 -1.73087E+00 -1.76862E+00 -1.79712E+00 -1.81518E+00 -1.80403E+00 -1.68386E+00 -1.27031E+00
  -5.50637E-01  3.36929E-01  1.23092E+00  2.01066E+00  2.63578E+00  3.12863E+00  3.51437E+00  3.75455E+00  3.75833E+00  3.43579E+00
   2.76555E+00  1.83542E+00  8.13887E-01 -1.27265E-01 -8.51998E-01 -1.30992E+00 -1.54021E+00 -1.63818E+00 -1.67179E+00 -1.65255E+00
  -1.57494E+00 -1.44512E+00 -1.29032E+00 -1.15364E+00 -1.07722E+00 -1.08140E+00 -1.16779E+00 -1.32233E+00 -1.50745E+00 -1.68236E+00
  -1.81596E+00 -1.89248E+00 -1.93097E+00 -1.95765E+00 -1.98678E+00 -2.02025E+00 -2.05086E+00 -2.07076E+00 -2.08084E+00 -2.08985E+00
  -2.11238E+00 -2.16512E+00 -2.26166E+00 -2.38528E+00 -2.49370E+00 -2.55276E+00 -2.55136E+00 -2.51234E+00 -2.47326E+00 -2.44882E+00
  -2.43419E+00 -2.41552E+00 -2.38492E+00 -2.35087E+00 -2.33717E+00 -2.36591E+00 -2.41810E+00 -2.46560E+00 -2.48793E+00 -2.47139E+00
  -2.41286E+00 -2.31506E+00 -2.17587E+00 -1.98491E+00 -1.72821E+00 -1.41770E+00 -1.10035E+00 -8.26908E-01 -6.36273E-01 -5.52157E-01
  -5.86559E-01 -7.06618E-01 -8.50614E-01 -9.84047E-01 -1.10411E+00 -1.21882E+00 -1.32243E+00 -1.39094E+00 -1.39451E+00 -1.32033E+00
  -1.18244E+00 -1.02899E+00 -9.19302E-01 -8.88538E-01 -9.40402E-01 -1.05422E+00 -1.19279E+00 -1.31014E+00 -1.34387E+00 -1.28225E+00
  -1.15969E+00 -1.01524E+00 -8.79633E-01 -7.79234E-01 -7.48537E-01 -8.10134E-01 -9.47496E-01 -1.12309E+00 -1.30996E+00 -1.48278E+00
  -1.62378E+00 -1.71310E+00 -1.72999E+00 -1.68034E+00 -1.57987E+00 -1.43673E+00 -1.26505E+00 -1.07222E+00 -8.65499E-01 -6.62443E-01
  -4.82847E-01 -3.50063E-01 -2.80893E-01 -2.72383E-01 -3.22286E-01 -4.28360E-01 -5.68952E-01 -7.21766E-01 -8.67578E-01 -1.00419E+00
  -1.13350E+00 -1.24561E+00 -1.31458E+00 -1.31160E+00 -1.21161E+00 -9.99902E-01 -6.74535E-01 -1.20215E-01  1.07950E+00  2.96354E+00
   5.18120E+00  7.33478E+00  9.14728E+00  1.05485E+01  1.15894E+01  1.23038E+01  1.26494E+01  1.24968E+01  1.16858E+01  1.01772E+01
   8.13160E+00  5.85778E+00  3.70367E+00  1.95381E+00  7.72485E-01  1.37049E-01 -1.55531E-01 -3.02939E-01 -3.85741E-01 -4.31231E-01
  -4.57251E-01 -4.74659E-01 -4.87279E-01 -4.97643E-01 -5.10038E-01 -5.26346E-01 -5.46909E-01 -5.75333E-01 -6.09502E-01 -6.42524E-01
  -6.65986E-01 -6.74033E-01 -6.67714E-01 -6.53051E-01 -6.32559E-01 -6.10286E-01 -5.91007E-01 -5.76446E-01 -5.66508E-01 -5.60059E-01
  -5.55056E-01 -5.51087E-01 -5.46179E-01 -5.39038E-01 -5.31278E-01 -5.25365E-01 -5.24141E-01 -5.29648E-01 -5.41487E-01 -5.56841E-01
  -5.70790E-01 -5.78072E-01 -5.76480E-01 -5.67190E-01 -5.52846E-01 -5.36569E-01 -5.21380E-01 -5.09529E-01 -5.01735E-01 -4.96935E-01
  -4.93634E-01 -4.90946E-01 -4.88442E-01 -4.85946E-01 -4.83457E-01 -4.81006E-01 -4.78588E-01 -4.76136E-01 -4.73561E-01 -4.70789E-01
  -4.67785E-01 -4.64546E-01 -4.61107E-01 -4.57519E-01 -4.53818E-01 -4.50020E-01 -4.46140E-01 -4.42181E-01 -4.38144E-01 -4.34025E-01
  -4.29833E-01 -4.25574E-01 -4.21261E-01 -4.16892E-01 -4.12461E-01 -4.07963E-01 -4.03404E-01 -3.98793E-01 -3.94139E-01 -3.89438E-01
  -3.84691E-01 -3.79895E-01 -3.75059E-01 -3.70188E-01 -3.65286E-01 -3.60347E-01 -3.55372E-01 -3.50362E-01 -3.45325E-01 -3.40262E-01
  -3.35174E-01 -3.30051E-01 -3.24896E-01 -3.19709E-01 -3.14500E-01 -3.09268E-01 -3.04011E-01 -2.98721E-01 -2.93403E-01 -2.88059E-01
  -2.82693E-01 -2.77303E-01 -2.71885E-01 -2.66435E-01 -2.60957E-01 -2.55454E-01 -2.49929E-01 -2.44373E-01 -2.38786E-01 -2.33161E-01
  -2.27504E-01 -2.21813E-01 -2.16087E-01 -2.10316E-01 -2.04493E-01 -1.98615E-01 -1.92681E-01 -1.86684E-01 -1.80616E-01 -1.74460E-01
  -1.68208E-01 -1.61850E-01 -1.55381E-01 -1.48786E-01 -1.42052E-01 -1.35161E-01 -1.28109E-01 -1.20888E-01 -1.13499E-01 -1.05938E-01
  -9.82097E-02 -9.03218E-02 -8.22994E-02 -7.41712E-02 -6.59751E-02 -5.77484E-02 -4.95397E-02 -4.14024E-02 -3.34003E-02 -2.55926E-02
  -1.80373E-02 -1.07814E-02 -3.87099E-03  2.65777E-03  8.77511E-03  1.44714E-02  1.97496E-02  2.46310E-02  2.91418E-02  3.33208E-02
   3.72119E-02  4.08732E-02  4.43634E-02  4.77454E-02  5.10719E-02  5.43946E-02  5.77572E-02  6.12039E-02  6.47675E-02  6.84743E-02
   7.23357E-02  7.63609E-02  8.05513E-02  8.49101E-02  8.94311E-02  9.41064E-02  9.89202E-02  1.03862E-01  1.08918E-01  1.14082E-01
   1.19339E-01  1.24680E-01  1.30088E-01  1.35558E-01  1.41082E-01  1.46658E-01  1.52275E-01  1.57929E-01  1.63611E-01  1.69322E-01
   1.75057E-01  1.80817E-01  1.86597E-01  1.92393E-01  1.98202E-01  2.04026E-01  2.09863E-01  2.15714E-01  2.21573E-01  2.27441E-01
   2.33316E-01  2.39202E-01  2.45097E-01  2.51002E-01  2.56911E-01  2.62826E-01  2.68747E-01  2.74676E-01  2.80612E-01  2.86555E-01
   2.92500E-01  2.98450E-01  3.04403E-01  3.10364E-01  3.16329E-01  3.22297E-01  3.28266E-01  3.34240E-01  3.40219E-01  3.46204E-01
   3.52192E-01  3.58183E-01  3.64177E-01  3.70176E-01  3.76179E-01  3.82189E-01  3.88202E-01  3.94218E-01  4.00237E-01  4.06263E-01
   4.12293E-01  4.18329E-01  4.24368E-01  4.30412E-01  4.36460E-01  4.42517E-01  4.48579E-01  4.54648E-01  4.60723E-01  4.66807E-01
   4.72898E-01  4.79001E-01  4.85113E-01  4.91238E-01  4.97375E-01  5.03529E-01  5.09699E-01  5.15891E-01
 NY background values follow
    -2.639E+00   -2.632E+00   -2.626E+00   -2.620E+00   -2.613E+00   -2.607E+00   -2.601E+00   -2.595E+00   -2.588E+00   -2.582E+00
    -2.576E+00   -2.569E+00   -2.563E+00   -2.557E+00   -2.551E+00   -2.544E+00   -2.538E+00   -2.532E+00   -2.525E+00   -2.519E+00
    -2.513E+00   -2.507E+00   -2.500E+00   -2.494E+00   -2.488E+00   -2.481E+00   -2.475E+00   -2.469E+00   -2.462E+00   -2.456E+00
    -2.450E+00   -2.444E+00   -2.437E+00   -2.431E+00   -2.425E+00   -2.418E+00   -2.412E+00   -2.406E+00   -2.400E+00   -2.393E+00
    -2.387E+00   -2.381E+00   -2.374E+00   -2.368E+00   -2.362E+00   -2.356E+00   -2.349E+00   -2.343E+00   -2.337E+00   -2.330E+00
    -2.324E+00   -2.318E+00   -2.312E+00   -2.305E+00   -2.299E+00   -2.293E+00   -2.286E+00   -2.280E+00   -2.274E+00   -2.267E+00
    -2.261E+00   -2.255E+00   -2.249E+00   -2.242E+00   -2.236E+00   -2.230E+00   -2.223E+00   -2.217E+00   -2.211E+00   -2.205E+00
    -2.198E+00   -2.192E+00   -2.186E+00   -2.179E+00   -2.173E+00   -2.167E+00   -2.161E+00   -2.154E+00   -2.148E+00   -2.142E+00
    -2.135E+00   -2.129E+00   -2.123E+00   -2.117E+00   -2.110E+00   -2.104E+00   -2.098E+00   -2.091E+00   -2.085E+00   -2.079E+00
    -2.073E+00   -2.066E+00   -2.060E+00   -2.054E+00   -2.047E+00   -2.041E+00   -2.035E+00   -2.028E+00   -2.022E+00   -2.016E+00
    -2.010E+00   -2.003E+00   -1.997E+00   -1.991E+00   -1.984E+00   -1.978E+00   -1.972E+00   -1.966E+00   -1.959E+00   -1.953E+00
    -1.947E+00   -1.940E+00   -1.934E+00   -1.928E+00   -1.922E+00   -1.915E+00   -1.909E+00   -1.903E+00   -1.896E+00   -1.890E+00
    -1.884E+00   -1.878E+00   -1.871E+00   -1.865E+00   -1.859E+00   -1.852E+00   -1.846E+00   -1.840E+00   -1.833E+00   -1.827E+00
    -1.821E+00   -1.815E+00   -1.808E+00   -1.802E+00   -1.796E+00   -1.789E+00   -1.783E+00   -1.777E+00   -1.771E+00   -1.764E+00
    -1.758E+00   -1.752E+00   -1.745E+00   -1.739E+00   -1.733E+00   -1.727E+00   -1.720E+00   -1.714E+00   -1.708E+00   -1.701E+00
    -1.695E+00   -1.689E+00   -1.683E+00   -1.676E+00   -1.670E+00   -1.664E+00   -1.657E+00   -1.651E+00   -1.645E+00   -1.638E+00
    -1.632E+00   -1.626E+00   -1.620E+00   -1.613E+00   -1.607E+00   -1.601E+00   -1.594E+00   -1.588E+00   -1.582E+00   -1.576E+00
    -1.569E+00   -1.563E+00   -1.557E+00   -1.550E+00   -1.544E+00   -1.538E+00   -1.532E+00   -1.525E+00   -1.519E+00   -1.513E+00
    -1.506E+00   -1.500E+00   -1.494E+00   -1.488E+00   -1.481E+00   -1.475E+00   -1.469E+00   -1.462E+00   -1.456E+00   -1.450E+00
    -1.444E+00   -1.437E+00   -1.431E+00   -1.425E+00   -1.418E+00   -1.412E+00   -1.406E+00   -1.399E+00   -1.393E+00   -1.387E+00
    -1.381E+00   -1.374E+00   -1.368E+00   -1.362E+00   -1.355E+00   -1.349E+00   -1.343E+00   -1.337E+00   -1.330E+00   -1.324E+00
    -1.318E+00   -1.311E+00   -1.305E+00   -1.299E+00   -1.293E+00   -1.286E+00   -1.280E+00   -1.274E+00   -1.267E+00   -1.261E+00
    -1.255E+00   -1.249E+00   -1.242E+00   -1.236E+00   -1.230E+00   -1.223E+00   -1.217E+00   -1.211E+00   -1.204E+00   -1.198E+00
    -1.192E+00   -1.186E+00   -1.179E+00   -1.173E+00   -1.167E+00   -1.160E+00   -1.154E+00   -1.148E+00   -1.142E+00   -1.135E+00
    -1.129E+00   -1.123E+00   -1.116E+00   -1.110E+00   -1.104E+00   -1.098E+00   -1.091E+00   -1.085E+00   -1.079E+00   -1.072E+00
    -1.066E+00   -1.060E+00   -1.054E+00   -1.047E+00   -1.041E+00   -1.035E+00   -1.028E+00   -1.022E+00   -1.016E+00   -1.009E+00
    -1.003E+00   -9.969E-01   -9.906E-01   -9.843E-01   -9.780E-01   -9.717E-01   -9.654E-01   -9.592E-01   -9.529E-01   -9.466E-01
    -9.403E-01   -9.340E-01   -9.277E-01   -9.214E-01   -9.151E-01   -9.088E-01   -9.025E-01   -8.963E-01   -8.900E-01   -8.837E-01
    -8.774E-01   -8.711E-01   -8.648E-01   -8.585E-01   -8.522E-01   -8.459E-01   -8.396E-01   -8.333E-01   -8.271E-01   -8.208E-01
    -8.145E-01   -8.082E-01   -8.019E-01   -7.956E-01   -7.893E-01   -7.830E-01   -7.767E-01   -7.704E-01   -7.641E-01   -7.579E-01
    -7.516E-01   -7.453E-01   -7.390E-01   -7.327E-01   -7.264E-01   -7.201E-01   -7.138E-01   -7.075E-01   -7.012E-01   -6.950E-01
    -6.887E-01   -6.824E-01   -6.761E-01   -6.698E-01   -6.635E-01   -6.572E-01   -6.509E-01   -6.446E-01   -6.383E-01   -6.320E-01
    -6.258E-01   -6.195E-01   -6.132E-01   -6.069E-01   -6.006E-01   -5.943E-01   -5.880E-01   -5.817E-01   -5.754E-01   -5.691E-01
    -5.628E-01   -5.566E-01   -5.503E-01   -5.440E-01   -5.377E-01   -5.314E-01   -5.251E-01   -5.188E-01   -5.125E-01   -5.062E-01
    -4.999E-01   -4.936E-01   -4.874E-01   -4.811E-01   -4.748E-01   -4.685E-01   -4.622E-01   -4.559E-01   -4.496E-01   -4.433E-01
    -4.370E-01   -4.307E-01   -4.245E-01   -4.182E-01   -4.119E-01   -4.056E-01   -3.993E-01   -3.930E-01   -3.867E-01   -3.804E-01
    -3.741E-01   -3.678E-01   -3.615E-01   -3.553E-01   -3.490E-01   -3.427E-01   -3.364E-01   -3.301E-01   -3.238E-01   -3.175E-01
    -3.112E-01   -3.049E-01   -2.986E-01   -2.923E-01   -2.861E-01   -2.798E-01   -2.735E-01   -2.672E-01   -2.609E-01   -2.546E-01
    -2.483E-01   -2.420E-01   -2.357E-01   -2.294E-01   -2.231E-01   -2.168E-01   -2.106E-01   -2.043E-01   -1.980E-01   -1.917E-01
    -1.854E-01   -1.791E-01   -1.728E-01   -1.665E-01   -1.602E-01   -1.539E-01   -1.476E-01   -1.414E-01   -1.351E-01   -1.288E-01
    -1.225E-01   -1.162E-01   -1.099E-01   -1.036E-01   -9.732E-02   -9.103E-02   -8.474E-02   -7.845E-02   -7.216E-02   -6.587E-02
    -5.957E-02   -5.328E-02   -4.699E-02   -4.070E-02   -3.441E-02   -2.812E-02   -2.183E-02   -1.554E-02   -9.246E-03   -2.955E-03
     3.336E-03    9.627E-03    1.592E-02    2.221E-02    2.850E-02    3.479E-02    4.108E-02    4.737E-02    5.366E-02    5.996E-02
     6.625E-02    7.254E-02    7.883E-02    8.512E-02    9.141E-02    9.770E-02    1.040E-01    1.103E-01    1.166E-01    1.229E-01
     1.292E-01    1.354E-01    1.417E-01    1.480E-01    1.543E-01    1.606E-01    1.669E-01    1.732E-01    1.795E-01    1.858E-01
     1.921E-01    1.984E-01    2.047E-01    2.109E-01    2.172E-01    2.235E-01    2.298E-01    2.361E-01    2.424E-01    2.487E-01
     2.550E-01    2.613E-01    2.676E-01    2.739E-01    2.801E-01    2.864E-01    2.927E-01    2.990E-01    3.053E-01    3.116E-01
     3.179E-01    3.242E-01    3.305E-01    3.368E-01    3.431E-01    3.493E-01    3.556E-01    3.619E-01    3.682E-01    3.745E-01
     3.808E-01    3.871E-01    3.934E-01    3.997E-01    4.060E-01    4.123E-01    4.185E-01    4.248E-01    4.311E-01    4.374E-01
     4.437E-01    4.500E-01    4.563E-01    4.626E-01    4.689E-01    4.752E-01    4.815E-01    4.877E-01
 Asp      Conc. = 4.56E+01
