 LCModel (Version 6.3-1L) Copyright: S.W. Provencher.          Ref.: Magn. Reson. Med. 30:672-679 (1993).                
 Slice#2 Row#7 Col#7  PD_24_press_2_raw_act
 Data of: Institute of Biomedical Engineering, Bogazici University, Istanbul
 07-January-2018  11:07
 36 lines in following concentration table = NCONC+1
    Conc.  %SD /Cr+PCr  Metabolite                                         
   23.065 999% 8.2E-03 Ala                                                 
    0.000 999%   0.000 Asp                                                 
    0.000 999%   0.000 Cr                                                  
 2.80E+03   6%   1.000 PCr                                                 
  113.709 252% 4.1E-02 GABA                                                
  306.305  96%   0.109 Glc                                                 
 1.13E+03  45%   0.404 Gln                                                 
 2.24E+03  26%   0.801 Glu                                                 
  924.262  54%   0.330 GPC                                                 
   24.132 999% 8.6E-03 PCh                                                 
  418.019  44%   0.149 GSH                                                 
 2.60E+03  24%   0.930 Ins                                                 
  223.852 121% 8.0E-02 Lac                                                 
 3.72E+03   7%   1.329 NAA                                                 
  388.633  67%   0.139 NAAG                                                
  247.707  26% 8.9E-02 Scyllo                                              
  678.406  65%   0.242 Tau                                                 
 1.18E+03  23%   0.421 -CrCH2                                              
  948.394   6%   0.339 GPC+PCh                                             
 4.11E+03   5%   1.468 NAA+NAAG                                            
 2.80E+03   6%   1.000 Cr+PCr                                              
 3.37E+03  23%   1.205 Glu+Gln                                             
 4.28E+03  25%   1.529 Lip13a                                              
    0.000 999%   0.000 Lip13b                                              
  828.906  69%   0.296 Lip09                                               
 1.84E+03  31%   0.657 MM09                                                
  885.958  48%   0.317 Lip20                                               
 5.04E+03  18%   1.800 MM20                                                
  442.273  84%   0.158 MM12                                                
    0.000 999%   0.000 MM14                                                
  363.702 144%   0.130 MM17                                                
 4.28E+03  25%   1.529 Lip13a+Lip13b                                       
 4.72E+03  22%   1.687 MM14+Lip13a+Lip13b+MM12                             
 2.67E+03  18%   0.953 MM09+Lip09                                          
 5.92E+03  16%   2.117 MM20+Lip20                                          
   6 lines in following misc. output table
  FWHM = 0.046 ppm    S/N =   8                                            
  Data shift = 0.015 ppm                                                   
  Ph: -54 deg     -13.4 deg/ppm                                            
  alphaB,S = 1.7E+00,   1.7E+01                                            
   14 spline knots.   Ns = 6(1)                                            
  (11) 5 infls.   (13) 1 extrs.                                            
  498 points on ppm-axis = NY
      4.000000     3.992357     3.984714     3.977070     3.969427     3.961784     3.954141     3.946497     3.938854     3.931211
      3.923568     3.915925     3.908281     3.900638     3.892995     3.885352     3.877708     3.870065     3.862422     3.854779
      3.847136     3.839492     3.831849     3.824206     3.816563     3.808919     3.801276     3.793633     3.785990     3.778347
      3.770703     3.763060     3.755417     3.747774     3.740130     3.732487     3.724844     3.717201     3.709558     3.701914
      3.694271     3.686628     3.678985     3.671341     3.663698     3.656055     3.648412     3.640769     3.633125     3.625482
      3.617839     3.610196     3.602552     3.594909     3.587266     3.579623     3.571980     3.564336     3.556693     3.549050
      3.541407     3.533763     3.526120     3.518477     3.510834     3.503191     3.495547     3.487904     3.480261     3.472618
      3.464974     3.457331     3.449688     3.442045     3.434402     3.426758     3.419115     3.411472     3.403829     3.396185
      3.388542     3.380899     3.373256     3.365613     3.357969     3.350326     3.342683     3.335040     3.327396     3.319753
      3.312110     3.304467     3.296824     3.289180     3.281537     3.273894     3.266251     3.258607     3.250964     3.243321
      3.235678     3.228034     3.220391     3.212748     3.205105     3.197462     3.189818     3.182175     3.174532     3.166889
      3.159245     3.151602     3.143959     3.136316     3.128673     3.121029     3.113386     3.105743     3.098100     3.090456
      3.082813     3.075170     3.067527     3.059884     3.052240     3.044597     3.036954     3.029311     3.021667     3.014024
      3.006381     2.998738     2.991095     2.983451     2.975808     2.968165     2.960522     2.952878     2.945235     2.937592
      2.929949     2.922306     2.914662     2.907019     2.899376     2.891733     2.884089     2.876446     2.868803     2.861160
      2.853517     2.845873     2.838230     2.830587     2.822944     2.815300     2.807657     2.800014     2.792371     2.784728
      2.777084     2.769441     2.761798     2.754155     2.746511     2.738868     2.731225     2.723582     2.715939     2.708295
      2.700652     2.693009     2.685366     2.677722     2.670079     2.662436     2.654793     2.647150     2.639506     2.631863
      2.624220     2.616577     2.608933     2.601290     2.593647     2.586004     2.578361     2.570717     2.563074     2.555431
      2.547788     2.540144     2.532501     2.524858     2.517215     2.509572     2.501928     2.494285     2.486642     2.478999
      2.471355     2.463712     2.456069     2.448426     2.440783     2.433139     2.425496     2.417853     2.410210     2.402566
      2.394923     2.387280     2.379637     2.371994     2.364350     2.356707     2.349064     2.341421     2.333777     2.326134
      2.318491     2.310848     2.303205     2.295561     2.287918     2.280275     2.272632     2.264988     2.257345     2.249702
      2.242059     2.234416     2.226772     2.219129     2.211486     2.203843     2.196199     2.188556     2.180913     2.173270
      2.165627     2.157983     2.150340     2.142697     2.135054     2.127410     2.119767     2.112124     2.104481     2.096838
      2.089194     2.081551     2.073908     2.066265     2.058621     2.050978     2.043335     2.035692     2.028049     2.020405
      2.012762     2.005119     1.997476     1.989833     1.982190     1.974546     1.966903     1.959260     1.951617     1.943974
      1.936331     1.928688     1.921045     1.913402     1.905759     1.898115     1.890472     1.882829     1.875186     1.867543
      1.859900     1.852257     1.844614     1.836971     1.829327     1.821684     1.814041     1.806398     1.798755     1.791112
      1.783469     1.775826     1.768183     1.760540     1.752896     1.745253     1.737610     1.729967     1.722324     1.714681
      1.707038     1.699395     1.691752     1.684108     1.676465     1.668822     1.661179     1.653536     1.645893     1.638250
      1.630607     1.622964     1.615321     1.607677     1.600034     1.592391     1.584748     1.577105     1.569462     1.561819
      1.554176     1.546533     1.538890     1.531246     1.523603     1.515960     1.508317     1.500674     1.493031     1.485388
      1.477745     1.470102     1.462458     1.454815     1.447172     1.439529     1.431886     1.424243     1.416600     1.408957
      1.401314     1.393671     1.386027     1.378384     1.370741     1.363098     1.355455     1.347812     1.340169     1.332526
      1.324883     1.317240     1.309596     1.301953     1.294310     1.286667     1.279024     1.271381     1.263738     1.256095
      1.248452     1.240808     1.233165     1.225522     1.217879     1.210236     1.202593     1.194950     1.187307     1.179664
      1.172021     1.164377     1.156734     1.149091     1.141448     1.133805     1.126162     1.118519     1.110876     1.103233
      1.095590     1.087946     1.080303     1.072660     1.065017     1.057374     1.049731     1.042088     1.034445     1.026802
      1.019158     1.011515     1.003872     0.996229     0.988586     0.980943     0.973300     0.965657     0.958014     0.950371
      0.942727     0.935084     0.927441     0.919798     0.912155     0.904512     0.896869     0.889226     0.881583     0.873940
      0.866296     0.858653     0.851010     0.843367     0.835724     0.828081     0.820438     0.812795     0.805152     0.797508
      0.789865     0.782222     0.774579     0.766936     0.759293     0.751650     0.744007     0.736364     0.728721     0.721077
      0.713434     0.705791     0.698148     0.690505     0.682862     0.675219     0.667576     0.659933     0.652290     0.644646
      0.637003     0.629360     0.621717     0.614074     0.606431     0.598788     0.591145     0.583502     0.575858     0.568215
      0.560572     0.552929     0.545286     0.537643     0.530000     0.522357     0.514714     0.507071     0.499427     0.491784
      0.484141     0.476498     0.468855     0.461212     0.453569     0.445925     0.438282     0.430639     0.422996     0.415353
      0.407710     0.400067     0.392424     0.384780     0.377137     0.369494     0.361851     0.354208     0.346565     0.338922
      0.331278     0.323635     0.315992     0.308349     0.300706     0.293063     0.285420     0.277777     0.270133     0.262490
      0.254847     0.247204     0.239561     0.231918     0.224275     0.216631     0.208988     0.201345
 NY phased data points follow
  -9.98780E+01 -8.21817E+01 -1.15588E+02 -8.13697E+01 -7.61746E+01 -5.66376E+01 -5.26133E+01 -3.78842E+01 -3.30176E+01 -1.72012E+01
  -3.71709E+01 -2.90702E+01 -3.05762E+01 -5.41842E+01 -6.94169E+01 -5.13558E+01 -6.66881E+01 -6.77747E+01 -8.33613E+01 -5.00372E+01
  -8.16518E+01 -6.81870E+01 -6.93734E+01 -5.32283E+01 -6.55313E+01 -4.97324E+01 -5.07230E+01 -6.07363E+01 -5.58581E+01 -4.27264E+01
  -4.79642E+01 -3.27027E+01 -5.09940E+01 -3.29817E+01 -4.98508E+01 -4.94422E+01 -5.25990E+01 -4.16716E+01 -6.91051E+01 -3.38798E+01
  -5.26111E+01 -4.10384E+01 -5.22864E+01 -2.63363E+01 -2.77195E+01 -2.71886E+01 -2.06414E+01 -2.09972E+01 -3.61101E+01 -9.74820E+00
  -5.87927E+01 -2.25912E+01 -2.56425E+01 -3.76784E+01 -4.29838E+01 -2.99667E+01 -3.30663E+01 -1.86023E+01 -4.05947E+01 -3.76394E+01
  -3.06771E+01 -3.69659E+01 -4.27263E+01 -3.98076E+01 -4.16771E+01 -5.40117E+01 -5.16308E+01 -4.17273E+01 -4.78934E+01 -3.00370E+01
  -3.65450E+01 -2.07425E+01 -3.32211E+01 -2.27363E+01 -2.64623E+01 -2.53960E+01 -3.63271E+01 -2.46431E+01 -3.36946E+01 -2.03614E+01
  -2.96233E+01 -1.57530E+01 -4.18638E+01 -1.46033E+01 -2.08915E+01 -1.42078E+01 -2.75896E+01 -1.46885E+01 -2.94300E+01  6.99394E+00
  -1.44859E+01 -1.32658E+01 -1.94785E+01 -3.81862E+00 -4.00869E+00 -2.14823E+01 -1.57852E+01 -3.72026E+00 -8.11094E+00  3.53734E+01
   3.65443E+01  5.13047E+01  8.85895E+01  8.55883E+01  5.66106E+01  3.69988E+01  2.45809E+01  2.23033E+01  2.64129E+00  3.38664E+00
  -2.47722E+01 -1.90329E+01 -1.78987E+01 -4.92312E-01 -1.66244E+01  3.42086E+00  1.99953E+00 -5.75939E+00 -2.63052E+01 -7.90902E+00
  -1.49933E+01 -1.15464E+01 -2.47501E+00  2.99406E+01  4.11351E+01  8.75461E+01  8.78642E+01  9.73443E+01  8.35883E+01  7.97084E+01
   2.37140E+01  3.15283E+01  7.02986E+00 -2.57409E+00 -2.88433E+00 -3.75695E+00 -6.68504E+00  5.23115E+00 -1.31642E+01  7.08136E+00
   1.38206E+00 -6.67260E+00 -1.02458E+01 -4.27464E+00 -2.57792E+00 -6.24824E+00 -3.13938E+00 -6.46019E+00 -3.51332E+00  9.92586E+00
  -2.06462E+01 -1.10760E+01 -1.31082E+00  7.70779E+00 -1.14062E+01  4.00192E-01  1.34100E+00 -7.49690E+00 -1.39229E+01  6.47336E+00
  -1.69303E+01  8.56122E+00 -2.31904E+00 -1.19706E+01 -6.60814E+00  5.74996E+00  3.47457E+00 -6.83632E+00 -4.77847E+00 -3.23493E-01
  -1.74046E+01 -6.05176E+00 -2.43326E+01 -5.91627E+00 -1.73626E+01 -1.54216E+01 -1.59585E+01 -1.57141E+01 -1.57648E+01 -7.77330E+00
  -8.17074E+00 -1.26274E+01 -2.03499E+01 -3.82895E+00 -8.64922E+00 -1.86520E+01 -1.26648E+01 -1.22647E+01 -4.76423E+00  5.87516E+00
   1.07538E+01  1.20092E+01  8.70693E+00  1.41199E+01  1.12089E+01  9.66441E+00  5.20327E+00  6.72956E+00  1.91085E+01 -6.66727E+00
  -4.46464E+00  1.73330E+01 -2.00845E+00  2.67835E+01  8.49368E+00  1.91559E+01  8.43741E+00 -2.19398E+00 -7.97177E+00 -1.00224E+00
  -1.67458E+00  1.77928E+01  2.08750E+01  2.28483E+01  2.45159E+01  3.18972E+01  2.83127E+01  2.96473E+01  1.65174E+01  2.42590E+01
  -5.96319E+00  9.43113E+00  1.03437E+01  7.37184E+00  2.41961E+01  1.47957E+01  3.72998E+01  3.33682E+01  1.39716E+01  3.37894E+01
   2.86023E+01  3.06183E+01  3.25026E+01  2.02392E+01  2.99441E+01  2.21977E+01  2.11313E+01  1.86168E+01  2.70996E+01  3.20278E+01
   2.41894E+01  2.01779E+01  1.94858E+01  1.94673E+01  3.08999E+01  2.53250E+01  2.42792E+01  4.07782E+01  3.12391E+01  4.36946E+01
   4.24005E+01  5.68344E+01  4.88718E+01  5.86661E+01  6.04558E+01  6.39908E+01  7.25122E+01  1.23423E+02  1.50414E+02  1.74216E+02
   1.68847E+02  1.68530E+02  1.48322E+02  1.13738E+02  7.46397E+01  8.09938E+01  4.03466E+01  4.69438E+01  3.47804E+01  4.48609E+01
   3.42395E+01  2.10634E+01  1.84276E+01  4.59865E+01  2.86725E+01  3.40588E+01  1.58107E+01  3.64062E+01  2.16177E+01  2.43912E+01
   2.75478E+01  1.98905E+01  1.37833E+01  9.50112E+00  1.58231E+01  9.40492E+00  1.99842E+01  2.97420E+01  1.31311E+01  7.07104E+00
   1.76903E+01  1.29084E+01  1.34191E+01  2.42108E+01  2.21963E+01  3.88571E+01  1.39608E+01  1.40992E+01  1.38405E+01  3.14459E+01
   3.30653E+01  3.19956E+01  2.42599E+01  2.01595E+01  2.84906E+01  2.02632E+01  3.39446E+01  2.24695E+01  2.81957E+01  2.74718E+01
   1.62608E+01  2.49757E+01  1.99078E+01  1.21486E+01  6.67965E+00  2.47900E+01  9.70820E+00  3.04392E+01  5.48898E+00  5.74003E+00
   1.49488E+01  1.42504E+01  8.24828E+00  1.40800E+01 -1.53176E+00  1.99685E+01  9.70134E+00  1.79078E+01  2.69388E+01  1.69916E+01
   1.21746E+01  1.17829E+01  2.15840E+01  4.15212E+01  3.01438E+01  3.03543E+01  4.14310E+01  4.44921E+01  3.03378E+01  4.15787E+01
   3.63235E+01  3.01145E+01  5.63248E+01  4.41104E+01  4.29697E+01  4.64811E+01  4.00669E+01  4.68794E+01  4.23915E+01  3.74121E+01
   4.15969E+01  4.89445E+01  4.01431E+01  4.85048E+01  4.96088E+01  4.26427E+01  3.73454E+01  4.02288E+01  3.52200E+01  4.89418E+01
   3.83311E+01  5.02303E+01  4.17086E+01  5.82939E+01  5.25794E+01  4.33191E+01  3.15930E+01  3.42600E+01  2.58304E+01  4.04104E+01
   3.16928E+01  3.93204E+01  3.45091E+01  2.16680E+01  2.01632E+01  3.81590E+01  3.56993E+01  3.37831E+01  2.30420E+01  3.06876E+01
   3.14464E+01  4.34135E+01  3.60706E+01  2.35110E+01  3.39087E+01  2.73334E+01  1.74791E+01  2.06386E+01  3.60599E+01  3.04294E+01
   4.09820E+01  2.01519E+01  4.70202E+01  3.11408E+01  4.50247E+01  4.32665E+01  3.43609E+01  4.21893E+01  3.06899E+01  4.22699E+01
   3.45271E+01  5.38377E+01  4.20958E+01  4.30120E+01  5.09272E+01  4.49952E+01  5.03527E+01  4.94709E+01  5.26954E+01  4.70155E+01
   4.86354E+01  5.50385E+01  3.81185E+01  3.74956E+01  2.63760E+01  3.91650E+01  3.75451E+01  4.01619E+01  2.42393E+01  3.22757E+01
   3.56205E+01  3.43904E+01  3.08182E+01  4.98250E+01  3.82664E+01  3.41457E+01  3.25715E+01  3.88585E+01  4.50845E+01  2.47525E+01
   2.79209E+01  3.57348E+01  3.07731E+01  3.30810E+01  4.05841E+01  3.87288E+01  2.77667E+01  4.30491E+01  2.18576E+01  3.55927E+01
   3.53766E+01  3.97749E+01  3.80654E+01  3.50191E+01  4.64979E+01  1.68290E+01  2.48646E+01  3.84511E+01  4.52661E+01  4.30327E+01
   3.68571E+01  2.67566E+01  3.74710E+01  3.23421E+01  3.09900E+01  1.54696E+01  3.38558E+01  2.85380E+01  2.62300E+01  2.46998E+01
   3.66935E+01  2.57219E+01  3.46199E+01  3.56289E+01  2.68197E+01  2.57292E+01  2.69254E+01  3.94899E+01  4.05718E+01  3.00516E+01
   3.73152E+01  4.60068E+01  2.73643E+01  2.95159E+01  2.20008E+01  2.64695E+01  3.14069E+01  2.83494E+01  3.58865E+01  3.48785E+01
   3.70825E+01  3.84411E+01  3.16749E+01  3.94408E+01  2.91821E+01  3.20712E+01  3.23542E+01  3.28780E+01  1.60758E+01  3.74183E+01
   2.53522E+01  2.77367E+01  1.45953E+01  2.13284E+01  2.94564E+01  1.65386E+01  1.79353E+01  4.43194E+01
 NY points of the fit to the data follow
  -7.57472E+01 -7.53072E+01 -7.44393E+01 -7.27095E+01 -6.96616E+01 -6.13366E+01 -4.87918E+01 -3.78988E+01 -2.96336E+01 -2.56817E+01
  -2.69651E+01 -3.31046E+01 -4.26963E+01 -4.96755E+01 -5.31857E+01 -5.65594E+01 -5.91619E+01 -6.12532E+01 -6.15221E+01 -6.13351E+01
  -6.09035E+01 -6.02335E+01 -5.97427E+01 -5.98018E+01 -6.05399E+01 -6.09059E+01 -5.95046E+01 -5.67819E+01 -5.25669E+01 -4.73944E+01
  -4.24683E+01 -3.92772E+01 -3.90670E+01 -4.09438E+01 -4.37190E+01 -4.71508E+01 -4.98891E+01 -5.19893E+01 -5.26007E+01 -5.19701E+01
  -5.08182E+01 -4.88258E+01 -4.50659E+01 -3.92382E+01 -3.28948E+01 -2.81707E+01 -2.54879E+01 -2.54080E+01 -2.82513E+01 -3.33437E+01
  -3.83524E+01 -4.14166E+01 -4.29513E+01 -4.39300E+01 -4.39691E+01 -4.25044E+01 -3.99991E+01 -3.72685E+01 -3.50931E+01 -3.38754E+01
  -3.37743E+01 -3.49052E+01 -3.64930E+01 -3.75246E+01 -3.78916E+01 -3.72420E+01 -3.63270E+01 -3.49712E+01 -3.33970E+01 -3.20077E+01
  -3.07663E+01 -2.92961E+01 -2.77868E+01 -2.66303E+01 -2.63106E+01 -2.64439E+01 -2.71205E+01 -2.81770E+01 -2.92737E+01 -2.97466E+01
  -2.93304E+01 -2.83082E+01 -2.63559E+01 -2.28896E+01 -1.99223E+01 -1.80576E+01 -1.72684E+01 -1.76202E+01 -1.89634E+01 -2.10537E+01
  -2.29949E+01 -2.33895E+01 -2.36482E+01 -2.39772E+01 -2.41422E+01 -2.32278E+01 -2.12070E+01 -1.65477E+01 -4.05440E+00  2.05578E+01
   4.59533E+01  6.60673E+01  7.75046E+01  7.75668E+01  6.56306E+01  4.45019E+01  2.30799E+01  1.06687E+01  8.43460E-01 -6.81916E+00
  -1.33347E+01 -1.61528E+01 -1.66481E+01 -1.66320E+01 -1.64218E+01 -1.61570E+01 -1.58243E+01 -1.53824E+01 -1.47735E+01 -1.39164E+01
  -1.24001E+01 -8.81559E+00  1.10040E+00  2.49887E+01  5.32084E+01  7.64701E+01  9.15290E+01  9.48446E+01  8.52989E+01  6.49009E+01
   4.09958E+01  2.59730E+01  1.52918E+01  5.91042E+00 -2.54409E+00 -7.69100E+00 -9.20225E+00 -9.31685E+00 -8.46735E+00 -7.34915E+00
  -6.24680E+00 -5.42005E+00 -4.96947E+00 -4.84025E+00 -4.91792E+00 -5.04837E+00 -5.10489E+00 -5.18600E+00 -5.22221E+00 -5.26652E+00
  -5.31191E+00 -5.37524E+00 -5.35839E+00 -5.20586E+00 -4.90907E+00 -4.50804E+00 -4.23417E+00 -4.52411E+00 -5.27236E+00 -6.02323E+00
  -6.39326E+00 -5.99530E+00 -5.14531E+00 -4.25913E+00 -3.56423E+00 -3.63431E+00 -4.39812E+00 -5.38642E+00 -6.18415E+00 -6.46484E+00
  -6.64664E+00 -7.08867E+00 -7.90388E+00 -8.82932E+00 -9.11358E+00 -8.86349E+00 -8.20251E+00 -7.52023E+00 -6.90625E+00 -6.29085E+00
  -5.95581E+00 -5.92435E+00 -5.64786E+00 -5.37511E+00 -4.81712E+00 -3.88491E+00 -2.40931E+00 -7.51560E-02  2.86541E+00  5.67067E+00
   7.55353E+00  8.18728E+00  7.84510E+00  7.23140E+00  6.25674E+00  5.39247E+00  5.02240E+00  5.43994E+00  6.59508E+00  8.54338E+00
   1.12776E+01  1.44041E+01  1.67271E+01  1.76218E+01  1.68072E+01  1.40677E+01  9.27222E+00  4.33002E+00  6.90787E-01 -1.26241E+00
  -6.67442E-01  2.83238E+00  9.30623E+00  1.59371E+01  2.06146E+01  2.33620E+01  2.34735E+01  2.02823E+01  1.40855E+01  7.41586E+00
   3.58365E+00  2.35610E+00  3.58764E+00  7.17073E+00  1.25559E+01  1.81211E+01  2.19329E+01  2.35632E+01  2.40087E+01  2.40648E+01
   2.36891E+01  2.31733E+01  2.27924E+01  2.34826E+01  2.50182E+01  2.66803E+01  2.81826E+01  2.96076E+01  3.03845E+01  2.98684E+01
   2.86538E+01  2.78027E+01  2.76629E+01  2.82697E+01  2.95937E+01  3.14727E+01  3.32033E+01  3.42577E+01  3.52564E+01  3.65835E+01
   3.85524E+01  4.16008E+01  4.66610E+01  5.21264E+01  5.76477E+01  6.61840E+01  8.64489E+01  1.19522E+02  1.48376E+02  1.68894E+02
   1.77457E+02  1.70019E+02  1.46504E+02  1.12852E+02  8.39262E+01  6.73097E+01  5.26421E+01  4.09825E+01  3.15503E+01  2.77531E+01
   2.63075E+01  2.56353E+01  2.53430E+01  2.52084E+01  2.50040E+01  2.46704E+01  2.41261E+01  2.34547E+01  2.27955E+01  2.22062E+01
   2.17028E+01  2.12905E+01  2.10114E+01  2.08434E+01  2.07249E+01  2.06111E+01  2.05112E+01  2.04301E+01  2.03893E+01  2.03800E+01
   2.04147E+01  2.04860E+01  2.05805E+01  2.06832E+01  2.07800E+01  2.08553E+01  2.09344E+01  2.10201E+01  2.11130E+01  2.12139E+01
   2.13261E+01  2.14471E+01  2.15654E+01  2.16635E+01  2.17452E+01  2.18082E+01  2.18549E+01  2.18860E+01  2.19053E+01  2.19158E+01
   2.19210E+01  2.19236E+01  2.19278E+01  2.19362E+01  2.19525E+01  2.19791E+01  2.20197E+01  2.20764E+01  2.21527E+01  2.22510E+01
   2.23759E+01  2.25332E+01  2.27334E+01  2.29788E+01  2.32211E+01  2.34356E+01  2.36356E+01  2.38290E+01  2.40352E+01  2.42810E+01
   2.46098E+01  2.50926E+01  2.57167E+01  2.64389E+01  2.72538E+01  2.81473E+01  2.90979E+01  3.00787E+01  3.10924E+01  3.21924E+01
   3.34232E+01  3.48128E+01  3.64346E+01  3.83195E+01  3.99918E+01  4.10929E+01  4.16914E+01  4.18050E+01  4.15505E+01  4.11384E+01
   4.09907E+01  4.18249E+01  4.32533E+01  4.47743E+01  4.62657E+01  4.75211E+01  4.83069E+01  4.83335E+01  4.76701E+01  4.68443E+01
   4.59204E+01  4.48718E+01  4.36921E+01  4.24875E+01  4.13420E+01  4.02261E+01  3.91382E+01  3.80875E+01  3.70862E+01  3.61447E+01
   3.52724E+01  3.44762E+01  3.37612E+01  3.31303E+01  3.25851E+01  3.21255E+01  3.17509E+01  3.14597E+01  3.12504E+01  3.11213E+01
   3.10711E+01  3.10985E+01  3.12031E+01  3.13845E+01  3.16429E+01  3.19786E+01  3.23924E+01  3.28840E+01  3.34534E+01  3.40990E+01
   3.48185E+01  3.56073E+01  3.64592E+01  3.73653E+01  3.83144E+01  3.92925E+01  4.02832E+01  4.12677E+01  4.22256E+01  4.31349E+01
   4.39737E+01  4.47203E+01  4.53546E+01  4.58590E+01  4.62191E+01  4.64246E+01  4.64700E+01  4.63544E+01  4.60825E+01  4.56630E+01
   4.51093E+01  4.44381E+01  4.36690E+01  4.28229E+01  4.19220E+01  4.09876E+01  4.00404E+01  3.90990E+01  3.81798E+01  3.72965E+01
   3.64599E+01  3.56782E+01  3.49567E+01  3.42982E+01  3.37035E+01  3.31718E+01  3.27007E+01  3.22867E+01  3.19259E+01  3.16138E+01
   3.13459E+01  3.11176E+01  3.09245E+01  3.07624E+01  3.06275E+01  3.05165E+01  3.04262E+01  3.03539E+01  3.02972E+01  3.02540E+01
   3.02224E+01  3.02010E+01  3.01883E+01  3.01834E+01  3.01849E+01  3.01923E+01  3.02045E+01  3.02212E+01  3.02416E+01  3.02653E+01
   3.02918E+01  3.03209E+01  3.03520E+01  3.03852E+01  3.04199E+01  3.04561E+01  3.04935E+01  3.05321E+01  3.05716E+01  3.06121E+01
   3.06533E+01  3.06952E+01  3.07376E+01  3.07806E+01  3.08240E+01  3.08680E+01  3.09121E+01  3.09567E+01  3.10015E+01  3.10466E+01
   3.10919E+01  3.11375E+01  3.11831E+01  3.12291E+01  3.12751E+01  3.13213E+01  3.13677E+01  3.14143E+01  3.14608E+01  3.15077E+01
   3.15545E+01  3.16017E+01  3.16489E+01  3.16964E+01  3.17439E+01  3.17917E+01  3.18396E+01  3.18879E+01  3.19362E+01  3.19850E+01
   3.20338E+01  3.20831E+01  3.21326E+01  3.21826E+01  3.22329E+01  3.22837E+01  3.23349E+01  3.23867E+01
 NY background values follow
    -8.175E+01   -8.115E+01   -8.055E+01   -7.995E+01   -7.935E+01   -7.876E+01   -7.816E+01   -7.756E+01   -7.696E+01   -7.636E+01
    -7.577E+01   -7.517E+01   -7.457E+01   -7.397E+01   -7.338E+01   -7.278E+01   -7.219E+01   -7.159E+01   -7.100E+01   -7.040E+01
    -6.981E+01   -6.922E+01   -6.862E+01   -6.803E+01   -6.744E+01   -6.685E+01   -6.626E+01   -6.567E+01   -6.508E+01   -6.450E+01
    -6.391E+01   -6.333E+01   -6.274E+01   -6.216E+01   -6.158E+01   -6.100E+01   -6.042E+01   -5.984E+01   -5.926E+01   -5.868E+01
    -5.811E+01   -5.754E+01   -5.696E+01   -5.639E+01   -5.583E+01   -5.526E+01   -5.469E+01   -5.413E+01   -5.356E+01   -5.300E+01
    -5.244E+01   -5.189E+01   -5.133E+01   -5.078E+01   -5.022E+01   -4.967E+01   -4.912E+01   -4.858E+01   -4.803E+01   -4.749E+01
    -4.695E+01   -4.641E+01   -4.587E+01   -4.534E+01   -4.480E+01   -4.427E+01   -4.374E+01   -4.322E+01   -4.269E+01   -4.217E+01
    -4.165E+01   -4.113E+01   -4.062E+01   -4.010E+01   -3.959E+01   -3.908E+01   -3.858E+01   -3.807E+01   -3.757E+01   -3.708E+01
    -3.658E+01   -3.609E+01   -3.560E+01   -3.511E+01   -3.462E+01   -3.414E+01   -3.366E+01   -3.318E+01   -3.271E+01   -3.224E+01
    -3.177E+01   -3.130E+01   -3.084E+01   -3.038E+01   -2.992E+01   -2.947E+01   -2.902E+01   -2.857E+01   -2.812E+01   -2.768E+01
    -2.724E+01   -2.680E+01   -2.637E+01   -2.594E+01   -2.551E+01   -2.509E+01   -2.466E+01   -2.424E+01   -2.383E+01   -2.341E+01
    -2.300E+01   -2.259E+01   -2.219E+01   -2.178E+01   -2.138E+01   -2.099E+01   -2.059E+01   -2.020E+01   -1.981E+01   -1.943E+01
    -1.904E+01   -1.866E+01   -1.828E+01   -1.791E+01   -1.754E+01   -1.717E+01   -1.680E+01   -1.644E+01   -1.608E+01   -1.572E+01
    -1.536E+01   -1.501E+01   -1.466E+01   -1.431E+01   -1.397E+01   -1.363E+01   -1.329E+01   -1.295E+01   -1.262E+01   -1.229E+01
    -1.196E+01   -1.163E+01   -1.131E+01   -1.099E+01   -1.067E+01   -1.036E+01   -1.004E+01   -9.732E+00   -9.424E+00   -9.119E+00
    -8.816E+00   -8.515E+00   -8.216E+00   -7.920E+00   -7.627E+00   -7.335E+00   -7.046E+00   -6.759E+00   -6.474E+00   -6.191E+00
    -5.911E+00   -5.632E+00   -5.356E+00   -5.082E+00   -4.810E+00   -4.540E+00   -4.272E+00   -4.006E+00   -3.741E+00   -3.479E+00
    -3.219E+00   -2.960E+00   -2.704E+00   -2.449E+00   -2.196E+00   -1.945E+00   -1.695E+00   -1.448E+00   -1.202E+00   -9.575E-01
    -7.149E-01   -4.739E-01   -2.345E-01    3.297E-03    2.394E-01    4.740E-01    7.069E-01    9.381E-01    1.168E+00    1.396E+00
     1.622E+00    1.847E+00    2.070E+00    2.291E+00    2.511E+00    2.729E+00    2.945E+00    3.160E+00    3.373E+00    3.584E+00
     3.794E+00    4.002E+00    4.208E+00    4.412E+00    4.615E+00    4.816E+00    5.016E+00    5.213E+00    5.409E+00    5.604E+00
     5.796E+00    5.987E+00    6.176E+00    6.363E+00    6.549E+00    6.733E+00    6.915E+00    7.095E+00    7.274E+00    7.450E+00
     7.626E+00    7.799E+00    7.970E+00    8.140E+00    8.308E+00    8.474E+00    8.638E+00    8.801E+00    8.962E+00    9.121E+00
     9.278E+00    9.433E+00    9.587E+00    9.739E+00    9.890E+00    1.004E+01    1.019E+01    1.033E+01    1.048E+01    1.062E+01
     1.076E+01    1.090E+01    1.104E+01    1.117E+01    1.131E+01    1.144E+01    1.157E+01    1.170E+01    1.183E+01    1.196E+01
     1.209E+01    1.221E+01    1.234E+01    1.246E+01    1.258E+01    1.270E+01    1.282E+01    1.293E+01    1.305E+01    1.317E+01
     1.328E+01    1.339E+01    1.350E+01    1.361E+01    1.372E+01    1.383E+01    1.394E+01    1.404E+01    1.415E+01    1.425E+01
     1.435E+01    1.446E+01    1.456E+01    1.466E+01    1.476E+01    1.485E+01    1.495E+01    1.505E+01    1.514E+01    1.524E+01
     1.533E+01    1.543E+01    1.552E+01    1.561E+01    1.570E+01    1.579E+01    1.588E+01    1.597E+01    1.606E+01    1.615E+01
     1.624E+01    1.632E+01    1.641E+01    1.650E+01    1.658E+01    1.667E+01    1.675E+01    1.684E+01    1.692E+01    1.701E+01
     1.709E+01    1.717E+01    1.726E+01    1.734E+01    1.742E+01    1.751E+01    1.759E+01    1.767E+01    1.775E+01    1.784E+01
     1.792E+01    1.800E+01    1.808E+01    1.817E+01    1.825E+01    1.833E+01    1.842E+01    1.850E+01    1.858E+01    1.867E+01
     1.875E+01    1.883E+01    1.892E+01    1.900E+01    1.909E+01    1.917E+01    1.925E+01    1.934E+01    1.942E+01    1.951E+01
     1.959E+01    1.968E+01    1.976E+01    1.985E+01    1.994E+01    2.002E+01    2.011E+01    2.019E+01    2.028E+01    2.037E+01
     2.045E+01    2.054E+01    2.063E+01    2.071E+01    2.080E+01    2.089E+01    2.098E+01    2.107E+01    2.115E+01    2.124E+01
     2.133E+01    2.142E+01    2.151E+01    2.159E+01    2.168E+01    2.177E+01    2.186E+01    2.195E+01    2.204E+01    2.213E+01
     2.222E+01    2.231E+01    2.240E+01    2.249E+01    2.258E+01    2.267E+01    2.276E+01    2.285E+01    2.294E+01    2.303E+01
     2.313E+01    2.322E+01    2.331E+01    2.340E+01    2.349E+01    2.358E+01    2.367E+01    2.376E+01    2.386E+01    2.395E+01
     2.404E+01    2.413E+01    2.422E+01    2.431E+01    2.440E+01    2.450E+01    2.459E+01    2.468E+01    2.477E+01    2.486E+01
     2.495E+01    2.504E+01    2.513E+01    2.522E+01    2.532E+01    2.541E+01    2.550E+01    2.559E+01    2.568E+01    2.577E+01
     2.586E+01    2.595E+01    2.604E+01    2.613E+01    2.622E+01    2.631E+01    2.640E+01    2.648E+01    2.657E+01    2.666E+01
     2.675E+01    2.684E+01    2.693E+01    2.701E+01    2.710E+01    2.719E+01    2.727E+01    2.736E+01    2.745E+01    2.753E+01
     2.762E+01    2.770E+01    2.779E+01    2.787E+01    2.795E+01    2.804E+01    2.812E+01    2.820E+01    2.828E+01    2.836E+01
     2.845E+01    2.853E+01    2.861E+01    2.869E+01    2.876E+01    2.884E+01    2.892E+01    2.900E+01    2.907E+01    2.915E+01
     2.923E+01    2.930E+01    2.937E+01    2.945E+01    2.952E+01    2.959E+01    2.966E+01    2.974E+01    2.981E+01    2.988E+01
     2.994E+01    3.001E+01    3.008E+01    3.015E+01    3.021E+01    3.028E+01    3.034E+01    3.040E+01    3.047E+01    3.053E+01
     3.059E+01    3.065E+01    3.071E+01    3.077E+01    3.083E+01    3.089E+01    3.095E+01    3.101E+01    3.106E+01    3.112E+01
     3.118E+01    3.123E+01    3.129E+01    3.134E+01    3.140E+01    3.145E+01    3.151E+01    3.156E+01    3.161E+01    3.167E+01
     3.172E+01    3.177E+01    3.183E+01    3.188E+01    3.193E+01    3.198E+01    3.203E+01    3.209E+01    3.214E+01    3.219E+01
     3.224E+01    3.229E+01    3.234E+01    3.239E+01    3.245E+01    3.250E+01    3.255E+01    3.260E+01
