 LCModel (Version 6.3-1L) Copyright: S.W. Provencher.          Ref.: Magn. Reson. Med. 30:672-679 (1993).                
 Slice#3 Row#2 Col#6  PD_24_press_2_raw_act
 36 lines in following concentration table = NCONC+1
    Conc.  %SD /Cr+PCr  Metabolite                                         
  188.877  76%   0.890 Ala                                                 
   33.022 123%   0.156 Asp                                                 
    0.000 999%   0.000 Cr                                                  
  212.158  39%   1.000 PCr                                                 
   24.296 100%   0.115 GABA                                                
   26.911  91%   0.127 Glc                                                 
    0.000 999%   0.000 Gln                                                 
    0.000 999%   0.000 Glu                                                 
    0.000 999%   0.000 GPC                                                 
  117.719  28%   0.555 PCh                                                 
    0.000 999%   0.000 GSH                                                 
  614.846  55%   2.898 Ins                                                 
  133.370 112%   0.629 Lac                                                 
  140.820  64%   0.664 NAA                                                 
   94.408  97%   0.445 NAAG                                                
    9.589  84% 4.5E-02 Scyllo                                              
   55.155  73%   0.260 Tau                                                 
   18.555 222% 8.7E-02 -CrCH2                                              
  117.719  28%   0.555 GPC+PCh                                             
  235.229  45%   1.109 NAA+NAAG                                            
  212.158  39%   1.000 Cr+PCr                                              
    0.000 999%   0.000 Glu+Gln                                             
 2.65E+03  23%  12.514 Lip13a                                              
    0.000 999%   0.000 Lip13b                                              
  679.839  31%   3.204 Lip09                                               
  177.160 104%   0.835 MM09                                                
  306.655  47%   1.445 Lip20                                               
    0.000 999%   0.000 MM20                                                
   49.614 205%   0.234 MM12                                                
  289.129 125%   1.363 MM14                                                
  797.152  24%   3.757 MM17                                                
 2.65E+03  23%  12.514 Lip13a+Lip13b                                       
 2.99E+03  18%  14.111 MM14+Lip13a+Lip13b+MM12                             
  856.999  25%   4.039 MM09+Lip09                                          
  306.655  47%   1.445 MM20+Lip20                                          
   6 lines in following misc. output table
  FWHM = 0.038 ppm    S/N =   1                                            
  Data shift = 0.061 ppm                                                   
  Ph:   8 deg      18.4 deg/ppm                                            
  alphaB,S = 8.5E+01,   1.3E+01                                            
   14 spline knots.   Ns = 5(1)                                            
   2 inflections.     1 extrema                                            
  498 points on ppm-axis = NY
      4.000000     3.992357     3.984714     3.977070     3.969427     3.961784     3.954141     3.946497     3.938854     3.931211
      3.923568     3.915925     3.908281     3.900638     3.892995     3.885352     3.877708     3.870065     3.862422     3.854779
      3.847136     3.839492     3.831849     3.824206     3.816563     3.808919     3.801276     3.793633     3.785990     3.778347
      3.770703     3.763060     3.755417     3.747774     3.740130     3.732487     3.724844     3.717201     3.709558     3.701914
      3.694271     3.686628     3.678985     3.671341     3.663698     3.656055     3.648412     3.640769     3.633125     3.625482
      3.617839     3.610196     3.602552     3.594909     3.587266     3.579623     3.571980     3.564336     3.556693     3.549050
      3.541407     3.533763     3.526120     3.518477     3.510834     3.503191     3.495547     3.487904     3.480261     3.472618
      3.464974     3.457331     3.449688     3.442045     3.434402     3.426758     3.419115     3.411472     3.403829     3.396185
      3.388542     3.380899     3.373256     3.365613     3.357969     3.350326     3.342683     3.335040     3.327396     3.319753
      3.312110     3.304467     3.296824     3.289180     3.281537     3.273894     3.266251     3.258607     3.250964     3.243321
      3.235678     3.228034     3.220391     3.212748     3.205105     3.197462     3.189818     3.182175     3.174532     3.166889
      3.159245     3.151602     3.143959     3.136316     3.128673     3.121029     3.113386     3.105743     3.098100     3.090456
      3.082813     3.075170     3.067527     3.059884     3.052240     3.044597     3.036954     3.029311     3.021667     3.014024
      3.006381     2.998738     2.991095     2.983451     2.975808     2.968165     2.960522     2.952878     2.945235     2.937592
      2.929949     2.922306     2.914662     2.907019     2.899376     2.891733     2.884089     2.876446     2.868803     2.861160
      2.853517     2.845873     2.838230     2.830587     2.822944     2.815300     2.807657     2.800014     2.792371     2.784728
      2.777084     2.769441     2.761798     2.754155     2.746511     2.738868     2.731225     2.723582     2.715939     2.708295
      2.700652     2.693009     2.685366     2.677722     2.670079     2.662436     2.654793     2.647150     2.639506     2.631863
      2.624220     2.616577     2.608933     2.601290     2.593647     2.586004     2.578361     2.570717     2.563074     2.555431
      2.547788     2.540144     2.532501     2.524858     2.517215     2.509572     2.501928     2.494285     2.486642     2.478999
      2.471355     2.463712     2.456069     2.448426     2.440783     2.433139     2.425496     2.417853     2.410210     2.402566
      2.394923     2.387280     2.379637     2.371994     2.364350     2.356707     2.349064     2.341421     2.333777     2.326134
      2.318491     2.310848     2.303205     2.295561     2.287918     2.280275     2.272632     2.264988     2.257345     2.249702
      2.242059     2.234416     2.226772     2.219129     2.211486     2.203843     2.196199     2.188556     2.180913     2.173270
      2.165627     2.157983     2.150340     2.142697     2.135054     2.127410     2.119767     2.112124     2.104481     2.096838
      2.089194     2.081551     2.073908     2.066265     2.058621     2.050978     2.043335     2.035692     2.028049     2.020405
      2.012762     2.005119     1.997476     1.989833     1.982190     1.974546     1.966903     1.959260     1.951617     1.943974
      1.936331     1.928688     1.921045     1.913402     1.905759     1.898115     1.890472     1.882829     1.875186     1.867543
      1.859900     1.852257     1.844614     1.836971     1.829327     1.821684     1.814041     1.806398     1.798755     1.791112
      1.783469     1.775826     1.768183     1.760540     1.752896     1.745253     1.737610     1.729967     1.722324     1.714681
      1.707038     1.699395     1.691752     1.684108     1.676465     1.668822     1.661179     1.653536     1.645893     1.638250
      1.630607     1.622964     1.615321     1.607677     1.600034     1.592391     1.584748     1.577105     1.569462     1.561819
      1.554176     1.546533     1.538890     1.531246     1.523603     1.515960     1.508317     1.500674     1.493031     1.485388
      1.477745     1.470102     1.462458     1.454815     1.447172     1.439529     1.431886     1.424243     1.416600     1.408957
      1.401314     1.393671     1.386027     1.378384     1.370741     1.363098     1.355455     1.347812     1.340169     1.332526
      1.324883     1.317240     1.309596     1.301953     1.294310     1.286667     1.279024     1.271381     1.263738     1.256095
      1.248452     1.240808     1.233165     1.225522     1.217879     1.210236     1.202593     1.194950     1.187307     1.179664
      1.172021     1.164377     1.156734     1.149091     1.141448     1.133805     1.126162     1.118519     1.110876     1.103233
      1.095590     1.087946     1.080303     1.072660     1.065017     1.057374     1.049731     1.042088     1.034445     1.026802
      1.019158     1.011515     1.003872     0.996229     0.988586     0.980943     0.973300     0.965657     0.958014     0.950371
      0.942727     0.935084     0.927441     0.919798     0.912155     0.904512     0.896869     0.889226     0.881583     0.873940
      0.866296     0.858653     0.851010     0.843367     0.835724     0.828081     0.820438     0.812795     0.805152     0.797508
      0.789865     0.782222     0.774579     0.766936     0.759293     0.751650     0.744007     0.736364     0.728721     0.721077
      0.713434     0.705791     0.698148     0.690505     0.682862     0.675219     0.667576     0.659933     0.652290     0.644646
      0.637003     0.629360     0.621717     0.614074     0.606431     0.598788     0.591145     0.583502     0.575858     0.568215
      0.560572     0.552929     0.545286     0.537643     0.530000     0.522357     0.514714     0.507071     0.499427     0.491784
      0.484141     0.476498     0.468855     0.461212     0.453569     0.445925     0.438282     0.430639     0.422996     0.415353
      0.407710     0.400067     0.392424     0.384780     0.377137     0.369494     0.361851     0.354208     0.346565     0.338922
      0.331278     0.323635     0.315992     0.308349     0.300706     0.293063     0.285420     0.277777     0.270133     0.262490
      0.254847     0.247204     0.239561     0.231918     0.224275     0.216631     0.208988     0.201345
 NY phased data points follow
  -6.84570E+00 -8.54392E+00  8.46468E+00  6.46400E+00  5.28467E+00 -3.96747E+00  1.54452E+01  1.27267E+01  2.28490E+01  3.67007E+00
   1.79581E+01  2.89742E+00  1.38471E+01 -3.97847E+00  5.98482E+00  5.24234E+00  1.59063E+01  1.13472E+01  1.06246E+01  6.20580E+00
  -4.77931E-01 -8.15969E+00  1.66478E+01  6.49203E+00  5.33553E+00  3.85747E+00  6.85313E+00 -4.32225E-01 -1.56167E-01  6.66499E+00
   5.59184E-01  2.46693E-01  1.72131E+01  9.95812E+00  1.11096E+01  1.43132E+01  9.33160E+00  1.44910E+01  2.33708E+01  3.80185E+00
   8.57808E+00 -6.76232E+00  1.08036E+01 -8.86234E+00  1.24406E+01  2.96576E+00  1.12197E+01  1.83153E+01  3.64709E+00  1.06575E+01
   9.70167E+00  1.67677E+01  5.26514E+00  8.95581E+00  1.76975E+01  1.11584E+01  5.89616E+00  3.80900E-01  1.17327E+01  7.89003E+00
   7.53788E+00  6.13858E+00  1.19393E+01  3.23390E+00  8.10336E+00  9.40564E+00  1.05107E+01  8.33763E+00  1.08688E+01  6.42334E+00
   1.14477E+01  1.05050E+01  1.76088E+01  9.01359E+00  2.04177E+01  1.27867E+01  1.58772E+01  6.74536E+00  1.89682E+01  1.40070E+01
   1.22669E+01  1.02840E+01  6.26219E+00  1.31317E+01  1.30650E+01  1.50157E+01  1.42966E+00  3.50260E+00  9.56175E+00  6.61525E+00
   1.61912E+01  4.42033E+00  8.78505E+00  4.15948E-01  5.37150E+00  7.46599E-01  9.35187E+00  1.30527E+01  1.96643E+01  1.28194E+01
   9.36727E+00  3.20571E+00  2.21864E+01  2.33481E+01  2.02255E+01  2.18137E+01  1.34051E+01  1.42061E+00  8.29583E+00  1.07597E+01
   5.28275E+00  3.96230E-01  1.05478E+01  1.58410E+01  8.33993E+00  1.71799E+01  1.44536E+01  1.81150E+01  1.04753E+01  1.11366E+01
   2.37145E+01 -1.49368E+00  1.46820E+01  2.66666E+00  8.24397E+00  1.51062E+01  2.02426E+01  1.60949E+01  6.48180E+00  6.91265E+00
   8.32152E+00  1.64819E+00 -5.78962E+00  4.01870E+00  9.95494E+00 -7.59386E+00  3.82068E-01  9.27564E+00 -9.43079E-01  1.11222E+01
   2.95423E+00  6.03496E+00 -5.94534E-01  6.63943E+00  7.12344E+00  9.99529E+00  1.61604E+01  9.44711E+00  1.43009E+01  1.30812E+01
   5.75627E+00  1.80973E+01  1.12967E+01  1.81988E+01 -6.58190E-02  1.24764E+01  2.79519E+00  1.14156E+01  6.99327E+00  1.24647E+01
   5.56272E+00  9.64077E+00  1.64483E+00  1.25983E+01  8.13627E+00  7.27340E+00 -5.57500E+00  1.66500E+00  5.34295E+00 -7.18828E+00
   4.55863E+00  3.12300E+00  8.62125E+00  1.69464E+01  7.31004E+00  1.35071E+01  9.94495E-01  1.94527E+01  6.35850E+00  5.08818E-01
   6.82795E+00  1.13347E+01  7.56708E+00  6.20565E+00  1.46212E+00  2.17317E+00 -1.78426E+00  4.95845E+00  1.07465E+01  1.22961E+01
   7.02460E+00 -6.39689E+00  1.72046E+01  1.49130E+01  1.58750E+00  1.26110E+01  5.35053E+00  1.22754E+01 -1.25821E+00  6.88044E-01
   7.55656E+00  1.32471E+01 -9.12646E-02  4.95070E-01 -6.32976E+00  7.65604E+00  1.37096E+01  8.93656E+00  1.33445E+01 -1.09685E+00
   4.58898E+00 -2.40977E+00  1.08460E+01  5.98356E+00  5.97095E+00 -2.06029E+00  2.60664E+00 -1.57587E+00 -3.90873E+00  8.72669E-01
  -7.40810E+00  2.29984E+00  1.79037E+01  8.06807E+00 -4.84831E+00 -2.42685E+00  5.93148E+00  9.34708E-01 -1.11094E+00 -4.87055E+00
   3.57636E+00  7.70368E-01 -1.58762E+01  4.65682E+00  2.14920E+00 -4.93644E+00  8.43958E-01 -3.48358E+00 -1.04033E+01  7.18061E+00
   1.84064E+00 -9.19061E+00  4.44580E+00 -7.31309E-01 -2.34180E+00 -2.49937E+00  6.03695E+00  9.87146E+00  6.97170E+00  1.32146E+01
  -3.81054E+00 -1.07916E+01 -2.74850E+00  1.35941E+01  7.25574E+00  1.40413E+01  9.85860E+00  1.14685E+01  1.96558E+01  1.63365E+01
   1.59732E+01  6.14657E+00  4.84756E+00 -4.76077E+00  5.54091E-01 -5.84156E+00 -8.20829E+00 -2.38112E-01  5.22761E+00 -4.60931E+00
  -4.61145E+00  5.73676E+00  6.92076E-01  4.32104E+00 -2.59922E-01 -8.80266E+00  8.14801E+00 -9.17086E-01  4.41676E+00 -3.72696E+00
  -2.91818E+00 -3.83904E+00  2.84082E-01 -8.98763E-01  2.53128E+00 -5.85204E-01  2.33414E+01  3.19509E+00  2.18067E-01  9.44908E-01
   1.22530E+00  1.02509E+01  8.80400E+00  1.24684E+00  1.14658E+01  7.07771E+00  1.52365E+01  1.11281E+01  1.61198E+01  9.78516E+00
   2.84174E+01  4.68737E+00  9.20778E+00  9.07545E+00  1.93276E+01  2.18996E+01  1.12443E+01  1.46057E+01  1.22548E+01  2.00781E+01
   1.92987E+01  1.88999E+01  2.95724E+01  2.61284E+01  7.26024E+00  1.46739E+01  5.38109E+00  5.03382E+00  5.86352E+00 -1.46384E+01
   1.06695E+01  5.97165E+00  1.79854E+01  9.87870E+00 -2.49257E-01  1.07253E+01  1.55433E+00 -4.74158E+00 -4.35284E+00  7.49436E+00
  -3.81195E+00  1.11432E+01 -2.19500E+00  9.80864E+00  6.49634E+00  8.73080E+00  1.10714E+01  7.26818E+00  4.48321E+00  1.32301E+01
   1.02224E+01  1.15186E+01  2.38237E+01  3.27956E+01  2.27695E+01  2.01317E+01  2.27778E+01  2.04659E+01  1.94413E+01  2.25064E+01
   1.43705E+01  1.99781E+01  2.12630E+01  1.41931E+01  1.49931E+01  2.28806E+01  1.67125E+01  1.49343E+01  1.80640E+01  1.00797E+01
   1.32230E+01  2.47851E+01  1.52850E+01  1.18278E+01  1.46125E+01  1.28940E+01  8.99229E+00  1.26095E+01  1.63991E+01  1.25381E+01
   2.31373E+01  2.03561E+01  2.97822E+00  1.15956E+01  4.77468E+00  1.32201E+01  9.92455E+00  4.12100E-01  4.47899E+00 -7.34323E+00
  -7.04748E+00  3.81791E+00  9.96891E+00  2.51477E+01 -3.40235E+00  8.35225E+00 -5.11604E+00  6.38879E+00  2.33875E+01 -1.39461E+01
   4.79178E+00 -3.28821E+00  9.63469E+00 -4.65220E+00  1.53740E+01  1.28102E+00  4.99505E+00  7.30237E+00  1.02237E+01  8.21464E+00
   1.52990E+01  4.86193E+00  5.93932E+00  1.34614E+01  2.07791E+01  6.70723E+00  1.41206E+01  7.58523E+00  1.80492E+01  1.76012E+01
   2.21570E+01 -2.78997E+00  4.10411E+00  1.67672E+01  3.55009E+00  1.50772E+01 -3.16723E+00  1.83125E+00 -3.08538E-01  3.81424E+00
   1.72051E+01  1.88099E+00 -6.82194E+00 -3.77788E+00  1.52806E+01  7.27936E+00  6.39405E-01  1.12485E+00  6.85991E+00 -4.22106E+00
   1.36574E+01  1.34384E+01 -4.86120E+00  6.22334E+00  3.07206E+00  6.15541E+00  3.61156E+00  3.85586E+00  8.16055E+00  9.86528E+00
   3.28678E+00 -9.54483E+00  1.92987E+00  1.89946E+00  1.88638E+01  2.17069E+01  7.40350E+00  1.90964E+01  5.79297E+00  7.74979E+00
   1.66476E+01  3.58154E+00  5.27572E+00  4.56066E+00  8.66524E+00  1.48669E+00  1.66493E+01  4.80405E+00  3.35777E+00  5.13356E+00
   8.79199E-01 -7.25183E-01 -1.02980E+01  1.29274E+01  9.40489E+00 -1.27123E+01 -3.71782E+00  8.70552E+00  4.72129E+00  2.09704E+00
   7.16052E+00  8.37176E+00  1.74790E+00 -4.81734E-01  8.54858E+00  6.62591E+00 -1.86304E+00  6.55436E+00  2.63857E+00  3.88008E+00
   5.42900E+00  2.37394E+00 -3.19163E-01  1.17569E+01  1.80954E+00  1.09504E+01  8.20187E+00  1.10872E+01  7.84825E+00  2.72719E+00
   3.56899E+00  6.76125E+00 -8.92844E-02  1.08308E+00  5.75290E+00  4.63655E+00  5.05353E+00  1.33146E+01
 NY points of the fit to the data follow
   7.15893E+00  7.04464E+00  7.08046E+00  7.23556E+00  7.71371E+00  8.71130E+00  1.03227E+01  1.21067E+01  1.30710E+01  1.26530E+01
   1.11844E+01  9.35057E+00  7.74890E+00  6.74181E+00  6.35944E+00  6.32001E+00  6.28620E+00  6.27425E+00  6.38195E+00  6.60663E+00
   6.91164E+00  7.21634E+00  7.43226E+00  7.44036E+00  7.17875E+00  6.74957E+00  6.32253E+00  6.00993E+00  5.87167E+00  5.93392E+00
   6.22505E+00  6.72822E+00  7.31465E+00  7.85769E+00  8.27447E+00  8.50230E+00  8.44716E+00  7.99315E+00  7.20285E+00  6.38054E+00
   5.78529E+00  5.54044E+00  5.77702E+00  6.64902E+00  8.23593E+00  1.03868E+01  1.24078E+01  1.32436E+01  1.23435E+01  1.01643E+01
   7.72141E+00  5.88593E+00  5.06470E+00  5.16715E+00  5.75987E+00  6.40791E+00  7.01344E+00  7.72940E+00  8.53564E+00  9.15592E+00
   9.29562E+00  8.85919E+00  8.00840E+00  7.08002E+00  6.42186E+00  6.23813E+00  6.47362E+00  6.93125E+00  7.41607E+00  7.83160E+00
   8.18174E+00  8.40971E+00  8.45497E+00  8.35552E+00  8.14908E+00  7.84468E+00  7.49170E+00  7.17704E+00  6.96333E+00  6.85357E+00
   6.85273E+00  6.94833E+00  7.05535E+00  7.08291E+00  6.89815E+00  6.36802E+00  5.56279E+00  4.80429E+00  4.41483E+00  4.51150E+00
   4.99174E+00  5.63564E+00  6.22239E+00  6.59855E+00  6.76800E+00  6.76089E+00  6.61084E+00  6.42396E+00  6.61103E+00  7.95915E+00
   1.10061E+01  1.58020E+01  2.05504E+01  2.25116E+01  2.07456E+01  1.65602E+01  1.18057E+01  7.99890E+00  5.93805E+00  5.48635E+00
   5.74825E+00  5.85224E+00  5.84154E+00  5.81325E+00  5.77572E+00  5.72486E+00  5.66673E+00  5.60986E+00  5.56859E+00  5.56556E+00
   5.63454E+00  5.93089E+00  6.86872E+00  8.75176E+00  1.16865E+01  1.47418E+01  1.62151E+01  1.53447E+01  1.28258E+01  9.81276E+00
   7.28116E+00  5.79757E+00  5.35724E+00  5.45836E+00  5.51804E+00  5.51097E+00  5.51697E+00  5.53878E+00  5.56191E+00  5.57156E+00
   5.56568E+00  5.56062E+00  5.57346E+00  5.60553E+00  5.64585E+00  5.67342E+00  5.67376E+00  5.65333E+00  5.62770E+00  5.60761E+00
   5.59252E+00  5.57346E+00  5.54456E+00  5.51916E+00  5.52167E+00  5.55384E+00  5.58909E+00  5.58612E+00  5.51256E+00  5.38924E+00
   5.28500E+00  5.24970E+00  5.28630E+00  5.35195E+00  5.39032E+00  5.36832E+00  5.29115E+00  5.19108E+00  5.11103E+00  5.08370E+00
   5.10173E+00  5.11648E+00  5.08240E+00  4.99279E+00  4.88230E+00  4.81773E+00  4.82764E+00  4.87312E+00  4.88809E+00  4.84856E+00
   4.78906E+00  4.76942E+00  4.82292E+00  4.92643E+00  5.01734E+00  5.06741E+00  5.10523E+00  5.15626E+00  5.21632E+00  5.26708E+00
   5.28527E+00  5.25107E+00  5.18421E+00  5.12803E+00  5.10971E+00  5.11295E+00  5.10687E+00  5.08901E+00  5.07018E+00  5.05592E+00
   5.05814E+00  5.09230E+00  5.14156E+00  5.16406E+00  5.13330E+00  5.05920E+00  4.95752E+00  4.85180E+00  4.77283E+00  4.73091E+00
   4.70543E+00  4.68526E+00  4.69063E+00  4.72916E+00  4.78408E+00  4.83883E+00  4.88881E+00  4.93108E+00  4.97040E+00  5.02181E+00
   5.10204E+00  5.20648E+00  5.31041E+00  5.37977E+00  5.39152E+00  5.34290E+00  5.24562E+00  5.12646E+00  5.01468E+00  4.94389E+00
   4.94929E+00  5.03470E+00  5.16919E+00  5.30812E+00  5.40315E+00  5.42146E+00  5.37191E+00  5.29236E+00  5.21666E+00  5.15324E+00
   5.10938E+00  5.10682E+00  5.15271E+00  5.22704E+00  5.30237E+00  5.35929E+00  5.38394E+00  5.38111E+00  5.37562E+00  5.40189E+00
   5.51926E+00  5.88885E+00  6.64924E+00  7.89633E+00  9.38219E+00  1.05836E+01  1.12965E+01  1.18914E+01  1.26741E+01  1.31330E+01
   1.26085E+01  1.11497E+01  9.25502E+00  7.37198E+00  5.97300E+00  5.29512E+00  5.16231E+00  5.15653E+00  5.07085E+00  4.99340E+00
   4.95317E+00  4.94095E+00  4.93870E+00  4.92750E+00  4.89069E+00  4.82325E+00  4.73807E+00  4.65721E+00  4.59453E+00  4.55489E+00
   4.54083E+00  4.55251E+00  4.58361E+00  4.62889E+00  4.68968E+00  4.76685E+00  4.86143E+00  4.98067E+00  5.13527E+00  5.33700E+00
   5.59430E+00  5.90561E+00  6.26259E+00  6.65660E+00  7.08198E+00  7.53369E+00  8.00530E+00  8.49087E+00  8.98438E+00  9.47334E+00
   9.94050E+00  1.03673E+01  1.07351E+01  1.10277E+01  1.12331E+01  1.13449E+01  1.13620E+01  1.12865E+01  1.11237E+01  1.08828E+01
   1.05762E+01  1.02187E+01  9.82666E+00  9.41738E+00  9.00811E+00  8.61541E+00  8.25482E+00  7.94102E+00  7.68864E+00  7.51472E+00
   7.44562E+00  7.53962E+00  7.88644E+00  8.43601E+00  9.00004E+00  9.08911E+00  8.22699E+00  6.58198E+00  4.81279E+00  3.44245E+00
   2.79375E+00  3.02334E+00  4.23048E+00  6.31363E+00  8.65738E+00  1.05794E+01  1.17312E+01  1.21441E+01  1.20962E+01  1.19753E+01
   1.21185E+01  1.26665E+01  1.35244E+01  1.45723E+01  1.57072E+01  1.66494E+01  1.69648E+01  1.65464E+01  1.57701E+01  1.50845E+01
   1.48030E+01  1.50956E+01  1.60531E+01  1.75729E+01  1.91473E+01  2.02302E+01  2.06162E+01  2.03468E+01  1.96222E+01  1.87144E+01
   1.78550E+01  1.71303E+01  1.64420E+01  1.57152E+01  1.49645E+01  1.42051E+01  1.34497E+01  1.27098E+01  1.19951E+01  1.13139E+01
   1.06727E+01  1.00764E+01  9.52827E+00  9.02982E+00  8.58142E+00  8.18237E+00  7.83125E+00  7.52620E+00  7.26504E+00  7.04543E+00
   6.86510E+00  6.72196E+00  6.61423E+00  6.54047E+00  6.49949E+00  6.49037E+00  6.51237E+00  6.56495E+00  6.64764E+00  6.75988E+00
   6.90083E+00  7.06926E+00  7.26347E+00  7.48114E+00  7.71928E+00  7.97407E+00  8.24085E+00  8.51418E+00  8.78796E+00  9.05559E+00
   9.31012E+00  9.54450E+00  9.75183E+00  9.92571E+00  1.00606E+01  1.01518E+01  1.01962E+01  1.01919E+01  1.01383E+01  1.00367E+01
   9.88951E+00  9.70067E+00  9.47502E+00  9.21821E+00  8.93645E+00  8.63616E+00  8.32378E+00  8.00542E+00  7.68669E+00  7.37251E+00
   7.06708E+00  6.77382E+00  6.49532E+00  6.23340E+00  5.98913E+00  5.76296E+00  5.55484E+00  5.36432E+00  5.19062E+00  5.03273E+00
   4.88947E+00  4.75960E+00  4.64190E+00  4.53518E+00  4.43829E+00  4.35014E+00  4.26973E+00  4.19616E+00  4.12865E+00  4.06650E+00
   4.00910E+00  3.95588E+00  3.90634E+00  3.86007E+00  3.81675E+00  3.77605E+00  3.73770E+00  3.70143E+00  3.66703E+00  3.63434E+00
   3.60321E+00  3.57349E+00  3.54505E+00  3.51777E+00  3.49154E+00  3.46629E+00  3.44197E+00  3.41849E+00  3.39576E+00  3.37374E+00
   3.35237E+00  3.33162E+00  3.31146E+00  3.29183E+00  3.27269E+00  3.25400E+00  3.23575E+00  3.21792E+00  3.20048E+00  3.18340E+00
   3.16664E+00  3.15020E+00  3.13407E+00  3.11824E+00  3.10268E+00  3.08736E+00  3.07227E+00  3.05741E+00  3.04278E+00  3.02836E+00
   3.01413E+00  3.00008E+00  2.98620E+00  2.97248E+00  2.95894E+00  2.94556E+00  2.93231E+00  2.91918E+00  2.90619E+00  2.89333E+00
   2.88059E+00  2.86796E+00  2.85543E+00  2.84299E+00  2.83065E+00  2.81841E+00  2.80625E+00  2.79417E+00
 NY background values follow
     6.338E+00    6.330E+00    6.322E+00    6.315E+00    6.307E+00    6.299E+00    6.291E+00    6.283E+00    6.276E+00    6.268E+00
     6.260E+00    6.252E+00    6.244E+00    6.237E+00    6.229E+00    6.221E+00    6.213E+00    6.205E+00    6.198E+00    6.190E+00
     6.182E+00    6.174E+00    6.166E+00    6.158E+00    6.151E+00    6.143E+00    6.135E+00    6.127E+00    6.119E+00    6.112E+00
     6.104E+00    6.096E+00    6.088E+00    6.080E+00    6.072E+00    6.065E+00    6.057E+00    6.049E+00    6.041E+00    6.033E+00
     6.026E+00    6.018E+00    6.010E+00    6.002E+00    5.994E+00    5.986E+00    5.979E+00    5.971E+00    5.963E+00    5.955E+00
     5.947E+00    5.940E+00    5.932E+00    5.924E+00    5.916E+00    5.908E+00    5.900E+00    5.893E+00    5.885E+00    5.877E+00
     5.869E+00    5.861E+00    5.853E+00    5.846E+00    5.838E+00    5.830E+00    5.822E+00    5.814E+00    5.806E+00    5.799E+00
     5.791E+00    5.783E+00    5.775E+00    5.767E+00    5.760E+00    5.752E+00    5.744E+00    5.736E+00    5.728E+00    5.720E+00
     5.713E+00    5.705E+00    5.697E+00    5.689E+00    5.681E+00    5.673E+00    5.665E+00    5.658E+00    5.650E+00    5.642E+00
     5.634E+00    5.626E+00    5.618E+00    5.611E+00    5.603E+00    5.595E+00    5.587E+00    5.579E+00    5.571E+00    5.564E+00
     5.556E+00    5.548E+00    5.540E+00    5.532E+00    5.524E+00    5.517E+00    5.509E+00    5.501E+00    5.493E+00    5.485E+00
     5.477E+00    5.469E+00    5.462E+00    5.454E+00    5.446E+00    5.438E+00    5.430E+00    5.422E+00    5.415E+00    5.407E+00
     5.399E+00    5.391E+00    5.383E+00    5.375E+00    5.367E+00    5.360E+00    5.352E+00    5.344E+00    5.336E+00    5.328E+00
     5.320E+00    5.313E+00    5.305E+00    5.297E+00    5.289E+00    5.281E+00    5.273E+00    5.265E+00    5.258E+00    5.250E+00
     5.242E+00    5.234E+00    5.226E+00    5.218E+00    5.210E+00    5.203E+00    5.195E+00    5.187E+00    5.179E+00    5.171E+00
     5.163E+00    5.155E+00    5.148E+00    5.140E+00    5.132E+00    5.124E+00    5.116E+00    5.108E+00    5.101E+00    5.093E+00
     5.085E+00    5.077E+00    5.069E+00    5.061E+00    5.053E+00    5.046E+00    5.038E+00    5.030E+00    5.022E+00    5.014E+00
     5.006E+00    4.998E+00    4.990E+00    4.983E+00    4.975E+00    4.967E+00    4.959E+00    4.951E+00    4.943E+00    4.935E+00
     4.928E+00    4.920E+00    4.912E+00    4.904E+00    4.896E+00    4.888E+00    4.880E+00    4.873E+00    4.865E+00    4.857E+00
     4.849E+00    4.841E+00    4.833E+00    4.825E+00    4.818E+00    4.810E+00    4.802E+00    4.794E+00    4.786E+00    4.778E+00
     4.770E+00    4.763E+00    4.755E+00    4.747E+00    4.739E+00    4.731E+00    4.723E+00    4.715E+00    4.707E+00    4.700E+00
     4.692E+00    4.684E+00    4.676E+00    4.668E+00    4.660E+00    4.652E+00    4.645E+00    4.637E+00    4.629E+00    4.621E+00
     4.613E+00    4.605E+00    4.597E+00    4.589E+00    4.582E+00    4.574E+00    4.566E+00    4.558E+00    4.550E+00    4.542E+00
     4.534E+00    4.527E+00    4.519E+00    4.511E+00    4.503E+00    4.495E+00    4.487E+00    4.479E+00    4.471E+00    4.464E+00
     4.456E+00    4.448E+00    4.440E+00    4.432E+00    4.424E+00    4.416E+00    4.409E+00    4.401E+00    4.393E+00    4.385E+00
     4.377E+00    4.369E+00    4.361E+00    4.353E+00    4.346E+00    4.338E+00    4.330E+00    4.322E+00    4.314E+00    4.306E+00
     4.298E+00    4.290E+00    4.283E+00    4.275E+00    4.267E+00    4.259E+00    4.251E+00    4.243E+00    4.235E+00    4.228E+00
     4.220E+00    4.212E+00    4.204E+00    4.196E+00    4.188E+00    4.180E+00    4.172E+00    4.165E+00    4.157E+00    4.149E+00
     4.141E+00    4.133E+00    4.125E+00    4.117E+00    4.110E+00    4.102E+00    4.094E+00    4.086E+00    4.078E+00    4.070E+00
     4.062E+00    4.054E+00    4.047E+00    4.039E+00    4.031E+00    4.023E+00    4.015E+00    4.007E+00    3.999E+00    3.991E+00
     3.984E+00    3.976E+00    3.968E+00    3.960E+00    3.952E+00    3.944E+00    3.936E+00    3.929E+00    3.921E+00    3.913E+00
     3.905E+00    3.897E+00    3.889E+00    3.881E+00    3.873E+00    3.866E+00    3.858E+00    3.850E+00    3.842E+00    3.834E+00
     3.826E+00    3.818E+00    3.810E+00    3.803E+00    3.795E+00    3.787E+00    3.779E+00    3.771E+00    3.763E+00    3.755E+00
     3.748E+00    3.740E+00    3.732E+00    3.724E+00    3.716E+00    3.708E+00    3.700E+00    3.692E+00    3.685E+00    3.677E+00
     3.669E+00    3.661E+00    3.653E+00    3.645E+00    3.637E+00    3.630E+00    3.622E+00    3.614E+00    3.606E+00    3.598E+00
     3.590E+00    3.582E+00    3.574E+00    3.567E+00    3.559E+00    3.551E+00    3.543E+00    3.535E+00    3.527E+00    3.519E+00
     3.512E+00    3.504E+00    3.496E+00    3.488E+00    3.480E+00    3.472E+00    3.464E+00    3.456E+00    3.449E+00    3.441E+00
     3.433E+00    3.425E+00    3.417E+00    3.409E+00    3.401E+00    3.394E+00    3.386E+00    3.378E+00    3.370E+00    3.362E+00
     3.354E+00    3.346E+00    3.339E+00    3.331E+00    3.323E+00    3.315E+00    3.307E+00    3.299E+00    3.291E+00    3.283E+00
     3.276E+00    3.268E+00    3.260E+00    3.252E+00    3.244E+00    3.236E+00    3.228E+00    3.221E+00    3.213E+00    3.205E+00
     3.197E+00    3.189E+00    3.181E+00    3.173E+00    3.166E+00    3.158E+00    3.150E+00    3.142E+00    3.134E+00    3.126E+00
     3.118E+00    3.111E+00    3.103E+00    3.095E+00    3.087E+00    3.079E+00    3.071E+00    3.063E+00    3.056E+00    3.048E+00
     3.040E+00    3.032E+00    3.024E+00    3.016E+00    3.008E+00    3.001E+00    2.993E+00    2.985E+00    2.977E+00    2.969E+00
     2.961E+00    2.953E+00    2.946E+00    2.938E+00    2.930E+00    2.922E+00    2.914E+00    2.906E+00    2.898E+00    2.891E+00
     2.883E+00    2.875E+00    2.867E+00    2.859E+00    2.851E+00    2.843E+00    2.836E+00    2.828E+00    2.820E+00    2.812E+00
     2.804E+00    2.796E+00    2.788E+00    2.781E+00    2.773E+00    2.765E+00    2.757E+00    2.749E+00    2.741E+00    2.733E+00
     2.726E+00    2.718E+00    2.710E+00    2.702E+00    2.694E+00    2.686E+00    2.679E+00    2.671E+00    2.663E+00    2.655E+00
     2.647E+00    2.639E+00    2.631E+00    2.624E+00    2.616E+00    2.608E+00    2.600E+00    2.592E+00    2.584E+00    2.577E+00
     2.569E+00    2.561E+00    2.553E+00    2.545E+00    2.537E+00    2.529E+00    2.522E+00    2.514E+00    2.506E+00    2.498E+00
     2.490E+00    2.482E+00    2.475E+00    2.467E+00    2.459E+00    2.451E+00    2.443E+00    2.435E+00
 Ala      Conc. = 1.89E+02
