 LCModel (Version 6.3-1L) Copyright: S.W. Provencher.          Ref.: Magn. Reson. Med. 30:672-679 (1993).                
 Slice#2 Row#12 Col#6  PD_24_press_2_raw_act
 36 lines in following concentration table = NCONC+1
    Conc.  %SD /Cr+PCr  Metabolite                                         
  121.974  52%   0.000 Ala                                                 
    5.368  82%   0.000 Asp                                                 
    0.000 999%   0.000 Cr                                                  
    0.000 999%   0.000 PCr                                                 
    3.223  82%   0.000 GABA                                                
    3.266  81%   0.000 Glc                                                 
    0.000 999%   0.000 Gln                                                 
  202.231  67%   0.000 Glu                                                 
    0.000 999%   0.000 GPC                                                 
   28.062  33%   0.000 PCh                                                 
    0.000 999%   0.000 GSH                                                 
    0.000 999%   0.000 Ins                                                 
    0.000 999%   0.000 Lac                                                 
   24.301 112%   0.000 NAA                                                 
    0.000 999%   0.000 NAAG                                                
    1.147  77%   0.000 Scyllo                                              
    5.531  79%   0.000 Tau                                                 
    0.306 999%   0.000 -CrCH2                                              
   28.062  33%   0.000 GPC+PCh                                             
   24.301 112%   0.000 NAA+NAAG                                            
    0.000 999%   0.000 Cr+PCr                                              
  202.231  67%   0.000 Glu+Gln                                             
    0.000 999%   0.000 Lip13a                                              
  146.492  35%   0.000 Lip13b                                              
   37.993 103%   0.000 Lip09                                               
  155.132  44%   0.000 MM09                                                
   27.055 102%   0.000 Lip20                                               
  148.822  74%   0.000 MM20                                                
   53.531  65%   0.000 MM12                                                
   65.742 138%   0.000 MM14                                                
  267.558  23%   0.000 MM17                                                
  146.492  35%   0.000 Lip13a+Lip13b                                       
  265.765  40%   0.000 MM14+Lip13a+Lip13b+MM12                             
  193.125  34%   0.000 MM09+Lip09                                          
  175.877  62%   0.000 MM20+Lip20                                          
   6 lines in following misc. output table
  FWHM = 0.061 ppm    S/N =   1                                            
  Data shift = 0.069 ppm                                                   
  Ph:-174 deg      40.5 deg/ppm                                            
  alphaB,S = 8.5E+01,   5.1E+01                                            
   14 spline knots.   Ns = 8(1)                                            
  ( 5) 2 infls.   ( 2) 2 extrs.                                            
  498 points on ppm-axis = NY
      4.000000     3.992357     3.984714     3.977070     3.969427     3.961784     3.954141     3.946497     3.938854     3.931211
      3.923568     3.915925     3.908281     3.900638     3.892995     3.885352     3.877708     3.870065     3.862422     3.854779
      3.847136     3.839492     3.831849     3.824206     3.816563     3.808919     3.801276     3.793633     3.785990     3.778347
      3.770703     3.763060     3.755417     3.747774     3.740130     3.732487     3.724844     3.717201     3.709558     3.701914
      3.694271     3.686628     3.678985     3.671341     3.663698     3.656055     3.648412     3.640769     3.633125     3.625482
      3.617839     3.610196     3.602552     3.594909     3.587266     3.579623     3.571980     3.564336     3.556693     3.549050
      3.541407     3.533763     3.526120     3.518477     3.510834     3.503191     3.495547     3.487904     3.480261     3.472618
      3.464974     3.457331     3.449688     3.442045     3.434402     3.426758     3.419115     3.411472     3.403829     3.396185
      3.388542     3.380899     3.373256     3.365613     3.357969     3.350326     3.342683     3.335040     3.327396     3.319753
      3.312110     3.304467     3.296824     3.289180     3.281537     3.273894     3.266251     3.258607     3.250964     3.243321
      3.235678     3.228034     3.220391     3.212748     3.205105     3.197462     3.189818     3.182175     3.174532     3.166889
      3.159245     3.151602     3.143959     3.136316     3.128673     3.121029     3.113386     3.105743     3.098100     3.090456
      3.082813     3.075170     3.067527     3.059884     3.052240     3.044597     3.036954     3.029311     3.021667     3.014024
      3.006381     2.998738     2.991095     2.983451     2.975808     2.968165     2.960522     2.952878     2.945235     2.937592
      2.929949     2.922306     2.914662     2.907019     2.899376     2.891733     2.884089     2.876446     2.868803     2.861160
      2.853517     2.845873     2.838230     2.830587     2.822944     2.815300     2.807657     2.800014     2.792371     2.784728
      2.777084     2.769441     2.761798     2.754155     2.746511     2.738868     2.731225     2.723582     2.715939     2.708295
      2.700652     2.693009     2.685366     2.677722     2.670079     2.662436     2.654793     2.647150     2.639506     2.631863
      2.624220     2.616577     2.608933     2.601290     2.593647     2.586004     2.578361     2.570717     2.563074     2.555431
      2.547788     2.540144     2.532501     2.524858     2.517215     2.509572     2.501928     2.494285     2.486642     2.478999
      2.471355     2.463712     2.456069     2.448426     2.440783     2.433139     2.425496     2.417853     2.410210     2.402566
      2.394923     2.387280     2.379637     2.371994     2.364350     2.356707     2.349064     2.341421     2.333777     2.326134
      2.318491     2.310848     2.303205     2.295561     2.287918     2.280275     2.272632     2.264988     2.257345     2.249702
      2.242059     2.234416     2.226772     2.219129     2.211486     2.203843     2.196199     2.188556     2.180913     2.173270
      2.165627     2.157983     2.150340     2.142697     2.135054     2.127410     2.119767     2.112124     2.104481     2.096838
      2.089194     2.081551     2.073908     2.066265     2.058621     2.050978     2.043335     2.035692     2.028049     2.020405
      2.012762     2.005119     1.997476     1.989833     1.982190     1.974546     1.966903     1.959260     1.951617     1.943974
      1.936331     1.928688     1.921045     1.913402     1.905759     1.898115     1.890472     1.882829     1.875186     1.867543
      1.859900     1.852257     1.844614     1.836971     1.829327     1.821684     1.814041     1.806398     1.798755     1.791112
      1.783469     1.775826     1.768183     1.760540     1.752896     1.745253     1.737610     1.729967     1.722324     1.714681
      1.707038     1.699395     1.691752     1.684108     1.676465     1.668822     1.661179     1.653536     1.645893     1.638250
      1.630607     1.622964     1.615321     1.607677     1.600034     1.592391     1.584748     1.577105     1.569462     1.561819
      1.554176     1.546533     1.538890     1.531246     1.523603     1.515960     1.508317     1.500674     1.493031     1.485388
      1.477745     1.470102     1.462458     1.454815     1.447172     1.439529     1.431886     1.424243     1.416600     1.408957
      1.401314     1.393671     1.386027     1.378384     1.370741     1.363098     1.355455     1.347812     1.340169     1.332526
      1.324883     1.317240     1.309596     1.301953     1.294310     1.286667     1.279024     1.271381     1.263738     1.256095
      1.248452     1.240808     1.233165     1.225522     1.217879     1.210236     1.202593     1.194950     1.187307     1.179664
      1.172021     1.164377     1.156734     1.149091     1.141448     1.133805     1.126162     1.118519     1.110876     1.103233
      1.095590     1.087946     1.080303     1.072660     1.065017     1.057374     1.049731     1.042088     1.034445     1.026802
      1.019158     1.011515     1.003872     0.996229     0.988586     0.980943     0.973300     0.965657     0.958014     0.950371
      0.942727     0.935084     0.927441     0.919798     0.912155     0.904512     0.896869     0.889226     0.881583     0.873940
      0.866296     0.858653     0.851010     0.843367     0.835724     0.828081     0.820438     0.812795     0.805152     0.797508
      0.789865     0.782222     0.774579     0.766936     0.759293     0.751650     0.744007     0.736364     0.728721     0.721077
      0.713434     0.705791     0.698148     0.690505     0.682862     0.675219     0.667576     0.659933     0.652290     0.644646
      0.637003     0.629360     0.621717     0.614074     0.606431     0.598788     0.591145     0.583502     0.575858     0.568215
      0.560572     0.552929     0.545286     0.537643     0.530000     0.522357     0.514714     0.507071     0.499427     0.491784
      0.484141     0.476498     0.468855     0.461212     0.453569     0.445925     0.438282     0.430639     0.422996     0.415353
      0.407710     0.400067     0.392424     0.384780     0.377137     0.369494     0.361851     0.354208     0.346565     0.338922
      0.331278     0.323635     0.315992     0.308349     0.300706     0.293063     0.285420     0.277777     0.270133     0.262490
      0.254847     0.247204     0.239561     0.231918     0.224275     0.216631     0.208988     0.201345
 NY phased data points follow
   1.46099E+00  3.96274E+00  4.76649E+00  4.81973E+00  2.31982E+00  2.90645E+00  3.98826E+00  3.96426E+00  3.91110E+00  3.97205E+00
   4.78785E-01  2.49508E+00  3.79294E+00  3.79071E+00  2.60675E+00  1.78266E+00  2.25014E+00  7.04504E+00  2.57553E+00  3.21591E+00
   2.73807E+00  5.99248E+00  2.17664E+00  6.33494E+00  1.71029E+00  3.84508E+00  4.15026E+00  5.39662E+00  3.98562E+00  5.55559E+00
  -7.23381E-01  4.86705E+00  6.30507E+00  3.39405E+00  1.86882E+00  2.09813E+00  3.62708E+00  3.70562E+00  1.98685E+00  2.26557E+00
   1.86547E+00  2.93640E+00 -5.73491E-01  6.22910E+00  6.08017E+00  5.81450E+00  4.37676E-01  3.22322E+00  1.21927E+00  2.84295E+00
   2.43071E+00  6.32266E-01  2.67495E+00  4.84850E+00  4.16936E+00  3.36562E+00  3.26144E+00  2.76771E+00  3.43089E+00  4.30313E+00
   6.95779E-01  4.99376E+00  3.04290E+00  2.50341E+00  2.30213E+00  3.74495E+00  4.21933E+00  2.19808E+00  1.71813E+00  3.41158E+00
   3.55545E+00  2.86738E+00  6.47471E+00  4.77396E+00  5.37899E+00  4.45663E+00  4.04548E+00  5.76293E+00  7.93654E-01  3.65519E+00
  -2.17171E+00  4.35882E+00  3.46667E+00  6.04598E+00  3.07928E+00  3.84991E+00  2.22562E+00  3.80711E+00  4.11880E+00  5.54904E+00
   5.83398E+00  7.00856E+00  6.16908E-01  4.22392E-01  2.84577E+00  3.96852E+00  2.27498E+00  6.74490E-01  1.10554E+00  4.66642E+00
   4.09207E+00  6.17602E+00  3.48098E+00  4.74573E+00  5.35504E+00  7.04296E+00  5.23951E+00  5.20956E+00  4.04163E+00  4.70792E+00
   4.72294E+00  6.31323E+00  4.56662E+00  4.96664E+00  3.06685E+00  1.17055E+00  4.72049E+00  2.13088E+00  1.01848E+00  4.01758E+00
  -7.69381E-02  5.52323E-01  3.02512E+00  3.06565E+00  3.20837E+00  3.00654E+00  2.14728E+00  2.04234E+00  3.82985E+00  4.72843E+00
   7.77021E-01  3.97070E+00  3.44802E+00  8.55363E-01  2.49962E+00  3.49094E+00  3.47581E+00  1.86885E+00 -7.30922E-01  2.81210E+00
   1.36181E+00  6.02260E+00  5.66956E+00  5.34982E+00  2.57018E+00  2.05967E+00  1.87383E+00  1.20864E+00  5.22284E+00  3.57604E+00
   2.50472E+00  5.18061E+00  2.23004E+00  4.24331E+00  5.09746E+00  5.20221E+00  3.35561E+00  1.60536E+00  4.56201E+00  2.69333E+00
   2.97019E+00  4.58339E+00  3.52204E+00  2.56892E+00  3.83405E+00  3.36903E+00  1.75304E+00  3.10859E+00  2.92928E+00  3.13948E+00
   2.45390E+00  3.11754E+00  5.74279E+00  2.53133E+00  4.77129E+00  6.36087E+00  2.61607E+00  2.47053E+00  5.03475E+00  2.12253E+00
   3.83917E+00  1.84034E+00  1.10437E+00  5.75478E+00  3.88140E+00  8.50548E-01 -8.06307E-01  4.29893E+00  6.04778E+00  2.99214E+00
   1.18382E+00  1.29144E+00  7.59892E-01  3.86987E+00  3.70160E+00  3.11500E+00  3.40297E+00  4.29667E+00  5.32478E+00  5.78377E+00
   3.15167E+00  4.94989E+00  6.27724E+00  5.61640E+00  3.23987E+00  1.86218E-01  2.48750E-01  2.16209E+00  2.57587E+00  4.70052E+00
   2.75951E+00  5.18824E+00  1.88260E+00  1.91129E+00  4.38598E+00  3.62414E+00  5.08651E+00  1.90707E+00  2.16663E+00  2.47543E-01
   1.80287E+00  3.37553E+00  3.37792E-01 -7.10717E-01  3.98623E+00  3.59069E+00 -3.61008E-02  1.75420E+00  2.35457E+00  3.84975E+00
   2.24756E+00  2.72327E+00  3.76567E+00  2.06863E+00  4.84202E+00  5.16265E+00  2.73378E+00  3.04683E+00  2.19063E+00  1.50072E+00
   2.78791E+00  1.36674E+00  2.88477E+00  4.36183E+00  4.63436E+00  2.36145E+00  6.09267E-01  3.35427E+00  3.08610E-01  6.23850E-01
  -3.22231E+00 -1.59078E+00 -1.83571E+00  4.06826E-01  5.10278E-01  8.35747E-01  5.17006E+00  1.49461E+00  2.45192E+00  5.87044E+00
   9.45374E-01  5.89559E-01  1.49618E+00  3.24086E+00  3.84233E+00  4.85093E+00  5.67879E+00  3.22265E+00  1.18691E+00  1.58195E+00
   3.89475E+00  1.61042E+00  4.72822E+00  2.28867E+00  3.84339E+00  4.55363E+00  2.11932E+00  5.36970E+00  2.75735E+00  1.33278E+00
   1.47453E+00  2.52977E+00  4.46984E+00  2.92172E-01 -1.27512E-01  3.15127E+00  3.96678E+00  5.20131E+00  2.50696E+00  8.11189E+00
   3.39279E+00  5.92617E+00  4.31666E+00  3.63396E+00  1.63003E+00  4.50528E+00  4.74034E+00  4.52336E+00  1.54878E+00  3.70891E+00
   4.81997E+00  8.13072E+00  3.43345E+00  3.31117E+00  3.39755E+00  3.58460E+00  5.36454E+00  1.57121E+00  2.90035E+00  1.72011E-01
   1.92637E+00  4.09420E+00  2.04148E+00  3.18188E-01 -2.40073E-01  8.03528E-01  7.41369E-01  1.91303E-01  3.09897E+00  2.51464E+00
   2.58243E-01  3.26281E+00  3.00735E+00  4.78674E+00  2.15615E-01  2.13284E+00  1.25910E+00  5.51593E+00  2.98696E+00  6.16506E+00
   3.23279E+00  3.08839E+00  1.85060E+00 -9.62838E-01 -7.22282E-01 -1.83545E+00 -1.55432E+00  2.07842E+00  2.41304E+00 -1.35070E+00
   2.20781E+00  2.26613E+00  1.12971E+00  8.04531E-01  7.36134E-01 -4.12204E-02  2.97158E+00  1.06322E+00  7.75619E-01  2.31405E-01
  -7.42876E-01  4.00431E+00  2.49940E+00  3.75119E+00  3.39657E+00  4.82847E+00  4.74415E+00  2.73240E+00  3.36374E+00  1.70059E+00
   2.74250E+00  2.43683E+00  2.95195E+00  2.47774E+00 -1.27881E-01  4.70630E+00  1.37163E+00  4.85781E-01  2.70693E+00  2.55689E+00
  -1.33754E+00 -1.92927E+00  3.25512E-01  1.49415E+00  2.12531E+00  2.60881E+00  3.44005E+00  4.56022E+00  4.28368E+00  2.01773E+00
   2.06896E+00  3.87575E+00  3.12135E+00  4.33143E+00  3.11977E+00  3.04644E+00  1.80079E+00 -6.59161E-01 -1.16467E+00  4.58471E+00
   5.45967E-01  3.44863E+00  2.69474E+00  2.95761E+00  2.60473E+00  3.06633E+00  2.48727E+00 -1.55184E+00  2.28043E+00 -2.21802E+00
   3.05418E+00  2.09679E+00  2.81079E+00  2.40171E+00  1.55425E-01  4.10363E+00 -1.38964E+00  1.53173E+00  3.93800E+00  1.16131E+00
   1.37255E+00  3.02880E+00 -3.74329E-01 -3.17928E+00  3.43097E+00  5.13626E+00  1.10689E+00 -4.88963E-01  1.35794E+00 -8.97169E-03
   5.32723E-01  3.53926E+00 -3.44418E-01  1.85477E+00  2.04365E+00  3.29289E+00 -8.88204E-01  3.84527E+00  1.68226E+00  6.81503E-01
   1.50140E-01  3.20649E+00 -1.92980E+00 -1.78232E+00 -1.22634E+00  1.27048E+00 -4.81533E-01 -1.60992E+00 -6.76133E-01  1.07079E+00
   1.25643E-01  1.63676E+00  7.53703E-01  1.28945E+00  9.39609E-01  7.98487E-01  1.08681E+00  9.68885E-01 -9.95959E-01 -1.12219E-01
   1.13169E+00 -2.57300E+00  1.42784E+00 -1.95629E+00  3.52414E-01  1.46151E+00 -3.38436E-01  9.29199E-01  1.43458E+00 -2.03379E+00
   9.99304E-01 -5.45399E-01 -2.61858E+00  3.74189E+00 -1.51977E+00  3.90998E+00 -3.92867E+00  1.19800E+00 -1.07605E+00  4.21922E+00
  -2.04036E+00  6.13835E-01  2.22218E-01 -2.02106E+00 -2.66193E+00  1.88679E+00 -3.11146E+00 -6.52627E-02 -1.75640E+00 -4.81713E-01
   3.75766E-02  1.00663E+00  1.22790E+00 -2.08534E+00 -1.95660E+00 -2.44894E+00  2.51580E+00  2.84957E-01 -1.80545E+00  9.78827E-01
  -1.06807E+00  8.45947E-01 -4.40614E-01 -1.59953E+00  8.48730E-01 -2.30878E+00 -9.02119E-01  1.01821E+00
 NY points of the fit to the data follow
   3.61632E+00  3.61556E+00  3.61455E+00  3.61268E+00  3.60986E+00  3.60669E+00  3.60342E+00  3.59986E+00  3.59603E+00  3.59324E+00
   3.59334E+00  3.59237E+00  3.58505E+00  3.57130E+00  3.55513E+00  3.54037E+00  3.52809E+00  3.51916E+00  3.52943E+00  3.58329E+00
   3.67274E+00  3.76661E+00  3.83821E+00  3.87366E+00  3.86435E+00  3.80165E+00  3.68485E+00  3.54181E+00  3.40492E+00  3.30607E+00
   3.26099E+00  3.26811E+00  3.33056E+00  3.45358E+00  3.62016E+00  3.78858E+00  3.89260E+00  3.88900E+00  3.80235E+00  3.67139E+00
   3.53033E+00  3.41484E+00  3.35357E+00  3.35700E+00  3.40472E+00  3.44431E+00  3.45725E+00  3.44378E+00  3.41728E+00  3.40075E+00
   3.39488E+00  3.38912E+00  3.38577E+00  3.38293E+00  3.38027E+00  3.37733E+00  3.37339E+00  3.36965E+00  3.36514E+00  3.35787E+00
   3.34873E+00  3.33798E+00  3.32765E+00  3.32083E+00  3.31637E+00  3.31268E+00  3.30894E+00  3.30411E+00  3.29830E+00  3.29314E+00
   3.28970E+00  3.28788E+00  3.28719E+00  3.28723E+00  3.28757E+00  3.28804E+00  3.28833E+00  3.28712E+00  3.28270E+00  3.27684E+00
   3.27206E+00  3.27001E+00  3.27116E+00  3.27542E+00  3.28319E+00  3.29532E+00  3.30962E+00  3.32138E+00  3.32737E+00  3.32655E+00
   3.31935E+00  3.30784E+00  3.29543E+00  3.28404E+00  3.27243E+00  3.24511E+00  3.18809E+00  3.18389E+00  3.30868E+00  3.56547E+00
   3.90707E+00  4.29317E+00  4.70030E+00  5.09844E+00  5.43387E+00  5.63925E+00  5.66407E+00  5.49751E+00  5.15665E+00  4.67318E+00
   4.10050E+00  3.52108E+00  3.03810E+00  2.75683E+00  2.70262E+00  2.72545E+00  2.75008E+00  2.77020E+00  2.78635E+00  2.79893E+00
   2.80875E+00  2.81670E+00  2.82327E+00  2.82885E+00  2.83394E+00  2.83893E+00  2.84385E+00  2.84829E+00  2.85153E+00  2.85306E+00
   2.85253E+00  2.84978E+00  2.84455E+00  2.83685E+00  2.82762E+00  2.81766E+00  2.80743E+00  2.79724E+00  2.78738E+00  2.77843E+00
   2.77090E+00  2.76433E+00  2.75779E+00  2.75079E+00  2.74327E+00  2.73540E+00  2.72738E+00  2.71885E+00  2.70985E+00  2.70073E+00
   2.69140E+00  2.68169E+00  2.67163E+00  2.66189E+00  2.65252E+00  2.64290E+00  2.63267E+00  2.62124E+00  2.60913E+00  2.59702E+00
   2.58515E+00  2.57381E+00  2.56359E+00  2.55511E+00  2.54853E+00  2.54356E+00  2.53960E+00  2.53593E+00  2.53201E+00  2.52646E+00
   2.51727E+00  2.50434E+00  2.49011E+00  2.47703E+00  2.46560E+00  2.45532E+00  2.44505E+00  2.43539E+00  2.42756E+00  2.42188E+00
   2.41712E+00  2.41217E+00  2.40745E+00  2.40381E+00  2.40145E+00  2.39978E+00  2.39791E+00  2.39672E+00  2.39758E+00  2.39959E+00
   2.40187E+00  2.40405E+00  2.40689E+00  2.41070E+00  2.41483E+00  2.41795E+00  2.41849E+00  2.41716E+00  2.41921E+00  2.43032E+00
   2.44615E+00  2.46676E+00  2.48900E+00  2.50470E+00  2.50506E+00  2.48230E+00  2.43196E+00  2.35074E+00  2.25592E+00  2.19419E+00
   2.19245E+00  2.25320E+00  2.36963E+00  2.54026E+00  2.75064E+00  2.94361E+00  3.04167E+00  3.00434E+00  2.83830E+00  2.55454E+00
   2.18454E+00  1.78099E+00  1.41662E+00  1.17408E+00  1.11409E+00  1.25579E+00  1.54869E+00  1.90107E+00  2.25705E+00  2.56562E+00
   2.77808E+00  2.86251E+00  2.83571E+00  2.76312E+00  2.70090E+00  2.65264E+00  2.61156E+00  2.57700E+00  2.54960E+00  2.52669E+00
   2.50100E+00  2.47499E+00  2.46297E+00  2.47202E+00  2.49723E+00  2.53147E+00  2.57092E+00  2.61062E+00  2.64323E+00  2.65869E+00
   2.64826E+00  2.61034E+00  2.53741E+00  2.45268E+00  2.40755E+00  2.42436E+00  2.49347E+00  2.60417E+00  2.74129E+00  2.88348E+00
   3.01340E+00  3.12026E+00  3.19571E+00  3.22908E+00  3.20784E+00  3.12213E+00  2.96945E+00  2.76015E+00  2.52527E+00  2.31669E+00
   2.18070E+00  2.11592E+00  2.08532E+00  2.07923E+00  2.09066E+00  2.10824E+00  2.13279E+00  2.16228E+00  2.19196E+00  2.21861E+00
   2.24147E+00  2.26214E+00  2.28676E+00  2.32287E+00  2.37347E+00  2.43760E+00  2.51393E+00  2.60063E+00  2.69478E+00  2.79270E+00
   2.89065E+00  2.98649E+00  3.07806E+00  3.16259E+00  3.23726E+00  3.29942E+00  3.34671E+00  3.37694E+00  3.38845E+00  3.38055E+00
   3.35321E+00  3.30694E+00  3.24307E+00  3.16363E+00  3.07104E+00  2.96812E+00  2.85791E+00  2.74352E+00  2.62796E+00  2.51403E+00
   2.40423E+00  2.30071E+00  2.20524E+00  2.11916E+00  2.04326E+00  1.97787E+00  1.92286E+00  1.87723E+00  1.83743E+00  1.79475E+00
   1.77551E+00  1.84295E+00  1.99834E+00  2.19404E+00  2.38087E+00  2.53487E+00  2.64066E+00  2.64902E+00  2.47505E+00  2.11772E+00
   1.64841E+00  1.15126E+00  6.84260E-01  2.99800E-01  6.53745E-02  5.14012E-02  2.97603E-01  7.76893E-01  1.34819E+00  1.84667E+00
   2.22853E+00  2.46909E+00  2.54870E+00  2.47000E+00  2.27554E+00  2.07572E+00  1.98881E+00  1.99718E+00  2.07316E+00  2.20553E+00
   2.38504E+00  2.59906E+00  2.82993E+00  3.05554E+00  3.25152E+00  3.39465E+00  3.46665E+00  3.45736E+00  3.36657E+00  3.20387E+00
   2.98667E+00  2.73684E+00  2.47689E+00  2.22656E+00  2.00051E+00  1.80737E+00  1.65008E+00  1.52710E+00  1.43398E+00  1.36498E+00
   1.31425E+00  1.27668E+00  1.24822E+00  1.22598E+00  1.20806E+00  1.19338E+00  1.18138E+00  1.17194E+00  1.16514E+00  1.16123E+00
   1.16053E+00  1.16341E+00  1.17024E+00  1.18141E+00  1.19727E+00  1.21811E+00  1.24417E+00  1.27561E+00  1.31245E+00  1.35459E+00
   1.40174E+00  1.45346E+00  1.50907E+00  1.56772E+00  1.62834E+00  1.68968E+00  1.75034E+00  1.80880E+00  1.86349E+00  1.91284E+00
   1.95536E+00  1.98967E+00  2.01463E+00  2.02934E+00  2.03320E+00  2.02593E+00  2.00762E+00  1.97865E+00  1.93973E+00  1.89182E+00
   1.83609E+00  1.77386E+00  1.70653E+00  1.63553E+00  1.56223E+00  1.48794E+00  1.41382E+00  1.34090E+00  1.27002E+00  1.20185E+00
   1.13688E+00  1.07545E+00  1.01775E+00  9.63839E-01  9.13687E-01  8.67173E-01  8.24121E-01  7.84313E-01  7.47509E-01  7.13455E-01
   6.81898E-01  6.52592E-01  6.25304E-01  5.99818E-01  5.75935E-01  5.53476E-01  5.32279E-01  5.12202E-01  4.93118E-01  4.74917E-01
   4.57502E-01  4.40786E-01  4.24696E-01  4.09166E-01  3.94141E-01  3.79570E-01  3.65410E-01  3.51621E-01  3.38169E-01  3.25025E-01
   3.12161E-01  2.99555E-01  2.87185E-01  2.75032E-01  2.63080E-01  2.51313E-01  2.39718E-01  2.28284E-01  2.16998E-01  2.05849E-01
   1.94830E-01  1.83932E-01  1.73147E-01  1.62468E-01  1.51888E-01  1.41401E-01  1.31002E-01  1.20687E-01  1.10450E-01  1.00288E-01
   9.01956E-02  8.01694E-02  7.02067E-02  6.03046E-02  5.04598E-02  4.06696E-02  3.09311E-02  2.12422E-02  1.16010E-02  2.00507E-03
  -7.54814E-03 -1.70610E-02 -2.65353E-02 -3.59725E-02 -4.53743E-02 -5.47422E-02 -6.40783E-02 -7.33843E-02 -8.26615E-02 -9.19111E-02
  -1.01135E-01 -1.10334E-01 -1.19511E-01 -1.28666E-01 -1.37803E-01 -1.46921E-01 -1.56023E-01 -1.65110E-01
 NY background values follow
     3.391E+00    3.387E+00    3.383E+00    3.379E+00    3.375E+00    3.371E+00    3.367E+00    3.363E+00    3.358E+00    3.354E+00
     3.350E+00    3.346E+00    3.341E+00    3.337E+00    3.333E+00    3.328E+00    3.324E+00    3.320E+00    3.315E+00    3.311E+00
     3.306E+00    3.302E+00    3.297E+00    3.293E+00    3.288E+00    3.284E+00    3.279E+00    3.275E+00    3.270E+00    3.265E+00
     3.261E+00    3.256E+00    3.251E+00    3.246E+00    3.242E+00    3.237E+00    3.232E+00    3.227E+00    3.222E+00    3.217E+00
     3.212E+00    3.207E+00    3.203E+00    3.198E+00    3.193E+00    3.188E+00    3.182E+00    3.177E+00    3.172E+00    3.167E+00
     3.162E+00    3.157E+00    3.152E+00    3.147E+00    3.141E+00    3.136E+00    3.131E+00    3.126E+00    3.120E+00    3.115E+00
     3.110E+00    3.104E+00    3.099E+00    3.094E+00    3.088E+00    3.083E+00    3.077E+00    3.072E+00    3.066E+00    3.061E+00
     3.055E+00    3.050E+00    3.044E+00    3.038E+00    3.033E+00    3.027E+00    3.021E+00    3.016E+00    3.010E+00    3.004E+00
     2.999E+00    2.993E+00    2.987E+00    2.981E+00    2.975E+00    2.970E+00    2.964E+00    2.958E+00    2.952E+00    2.946E+00
     2.940E+00    2.934E+00    2.928E+00    2.922E+00    2.916E+00    2.910E+00    2.904E+00    2.898E+00    2.892E+00    2.886E+00
     2.880E+00    2.874E+00    2.867E+00    2.861E+00    2.855E+00    2.849E+00    2.843E+00    2.836E+00    2.830E+00    2.824E+00
     2.817E+00    2.811E+00    2.805E+00    2.798E+00    2.792E+00    2.786E+00    2.779E+00    2.773E+00    2.766E+00    2.760E+00
     2.753E+00    2.747E+00    2.740E+00    2.734E+00    2.727E+00    2.721E+00    2.714E+00    2.708E+00    2.701E+00    2.694E+00
     2.688E+00    2.681E+00    2.674E+00    2.668E+00    2.661E+00    2.654E+00    2.647E+00    2.641E+00    2.634E+00    2.627E+00
     2.620E+00    2.613E+00    2.607E+00    2.600E+00    2.593E+00    2.586E+00    2.579E+00    2.572E+00    2.565E+00    2.558E+00
     2.551E+00    2.544E+00    2.537E+00    2.530E+00    2.523E+00    2.516E+00    2.509E+00    2.502E+00    2.495E+00    2.488E+00
     2.481E+00    2.474E+00    2.467E+00    2.459E+00    2.452E+00    2.445E+00    2.438E+00    2.431E+00    2.423E+00    2.416E+00
     2.409E+00    2.402E+00    2.394E+00    2.387E+00    2.380E+00    2.372E+00    2.365E+00    2.358E+00    2.350E+00    2.343E+00
     2.336E+00    2.328E+00    2.321E+00    2.313E+00    2.306E+00    2.299E+00    2.291E+00    2.284E+00    2.276E+00    2.269E+00
     2.261E+00    2.254E+00    2.246E+00    2.238E+00    2.231E+00    2.223E+00    2.216E+00    2.208E+00    2.200E+00    2.193E+00
     2.185E+00    2.178E+00    2.170E+00    2.162E+00    2.154E+00    2.147E+00    2.139E+00    2.131E+00    2.124E+00    2.116E+00
     2.108E+00    2.100E+00    2.093E+00    2.085E+00    2.077E+00    2.069E+00    2.061E+00    2.054E+00    2.046E+00    2.038E+00
     2.030E+00    2.022E+00    2.014E+00    2.006E+00    1.998E+00    1.990E+00    1.983E+00    1.975E+00    1.967E+00    1.959E+00
     1.951E+00    1.943E+00    1.935E+00    1.927E+00    1.919E+00    1.911E+00    1.903E+00    1.895E+00    1.887E+00    1.879E+00
     1.871E+00    1.862E+00    1.854E+00    1.846E+00    1.838E+00    1.830E+00    1.822E+00    1.814E+00    1.806E+00    1.798E+00
     1.789E+00    1.781E+00    1.773E+00    1.765E+00    1.757E+00    1.749E+00    1.740E+00    1.732E+00    1.724E+00    1.716E+00
     1.708E+00    1.699E+00    1.691E+00    1.683E+00    1.675E+00    1.666E+00    1.658E+00    1.650E+00    1.641E+00    1.633E+00
     1.625E+00    1.617E+00    1.608E+00    1.600E+00    1.592E+00    1.583E+00    1.575E+00    1.567E+00    1.558E+00    1.550E+00
     1.542E+00    1.533E+00    1.525E+00    1.516E+00    1.508E+00    1.500E+00    1.491E+00    1.483E+00    1.474E+00    1.466E+00
     1.458E+00    1.449E+00    1.441E+00    1.432E+00    1.424E+00    1.415E+00    1.407E+00    1.398E+00    1.390E+00    1.381E+00
     1.373E+00    1.365E+00    1.356E+00    1.348E+00    1.339E+00    1.331E+00    1.322E+00    1.314E+00    1.305E+00    1.296E+00
     1.288E+00    1.279E+00    1.271E+00    1.262E+00    1.254E+00    1.245E+00    1.237E+00    1.228E+00    1.220E+00    1.211E+00
     1.203E+00    1.194E+00    1.185E+00    1.177E+00    1.168E+00    1.160E+00    1.151E+00    1.143E+00    1.134E+00    1.125E+00
     1.117E+00    1.108E+00    1.100E+00    1.091E+00    1.082E+00    1.074E+00    1.065E+00    1.057E+00    1.048E+00    1.039E+00
     1.031E+00    1.022E+00    1.014E+00    1.005E+00    9.963E-01    9.877E-01    9.791E-01    9.705E-01    9.619E-01    9.532E-01
     9.446E-01    9.360E-01    9.274E-01    9.187E-01    9.101E-01    9.015E-01    8.928E-01    8.842E-01    8.756E-01    8.669E-01
     8.583E-01    8.497E-01    8.410E-01    8.324E-01    8.238E-01    8.151E-01    8.065E-01    7.979E-01    7.892E-01    7.806E-01
     7.720E-01    7.633E-01    7.547E-01    7.460E-01    7.374E-01    7.288E-01    7.201E-01    7.115E-01    7.029E-01    6.943E-01
     6.856E-01    6.770E-01    6.684E-01    6.597E-01    6.511E-01    6.425E-01    6.339E-01    6.253E-01    6.166E-01    6.080E-01
     5.994E-01    5.908E-01    5.822E-01    5.736E-01    5.650E-01    5.564E-01    5.478E-01    5.391E-01    5.305E-01    5.220E-01
     5.134E-01    5.048E-01    4.962E-01    4.876E-01    4.790E-01    4.704E-01    4.618E-01    4.533E-01    4.447E-01    4.361E-01
     4.276E-01    4.190E-01    4.104E-01    4.019E-01    3.933E-01    3.848E-01    3.762E-01    3.677E-01    3.591E-01    3.506E-01
     3.421E-01    3.335E-01    3.250E-01    3.165E-01    3.080E-01    2.995E-01    2.910E-01    2.825E-01    2.740E-01    2.655E-01
     2.570E-01    2.485E-01    2.400E-01    2.315E-01    2.231E-01    2.146E-01    2.061E-01    1.977E-01    1.892E-01    1.808E-01
     1.723E-01    1.639E-01    1.555E-01    1.470E-01    1.386E-01    1.302E-01    1.218E-01    1.134E-01    1.050E-01    9.661E-02
     8.822E-02    7.985E-02    7.147E-02    6.311E-02    5.475E-02    4.639E-02    3.804E-02    2.970E-02    2.137E-02    1.304E-02
     4.719E-03   -3.596E-03   -1.190E-02   -2.021E-02   -2.850E-02   -3.679E-02   -4.507E-02   -5.334E-02   -6.161E-02   -6.986E-02
    -7.812E-02   -8.636E-02   -9.460E-02   -1.028E-01   -1.110E-01   -1.193E-01   -1.275E-01   -1.357E-01   -1.439E-01   -1.520E-01
    -1.602E-01   -1.684E-01   -1.765E-01   -1.847E-01   -1.928E-01   -2.010E-01   -2.091E-01   -2.172E-01   -2.253E-01   -2.334E-01
    -2.415E-01   -2.496E-01   -2.576E-01   -2.657E-01   -2.738E-01   -2.818E-01   -2.898E-01   -2.979E-01
 Ala      Conc. = 1.22E+02
