 LCModel (Version 6.3-1L) Copyright: S.W. Provencher.          Ref.: Magn. Reson. Med. 30:672-679 (1993).                
 Slice#1 Row#12 Col#10  PD_24_press_2_raw_act
 36 lines in following concentration table = NCONC+1
    Conc.  %SD /Cr+PCr  Metabolite                                         
  142.444 154%   1.515 Ala                                                 
   16.879  25%   0.179 Asp                                                 
    0.000 999%   0.000 Cr                                                  
   94.041  37%   1.000 PCr                                                 
   10.163  25%   0.108 GABA                                                
   10.145  25%   0.108 Glc                                                 
  267.269 128%   2.842 Gln                                                 
    0.000 999%   0.000 Glu                                                 
   41.317  31%   0.439 GPC                                                 
    0.000 999%   0.000 PCh                                                 
  146.717  38%   1.560 GSH                                                 
  570.098  24%   6.062 Ins                                                 
    0.000 999%   0.000 Lac                                                 
    0.000 999%   0.000 NAA                                                 
  120.384  44%   1.280 NAAG                                                
    3.388  25% 3.6E-02 Scyllo                                              
   16.894  25%   0.180 Tau                                                 
    9.370  39%   0.100 -CrCH2                                              
   41.317  31%   0.439 GPC+PCh                                             
  120.384  44%   1.280 NAA+NAAG                                            
   94.041  37%   1.000 Cr+PCr                                              
  267.269 128%   2.842 Glu+Gln                                             
    0.000 999%   0.000 Lip13a                                              
    0.000 999%   0.000 Lip13b                                              
    0.000 999%   0.000 Lip09                                               
  120.626  37%   1.283 MM09                                                
   23.703 194%   0.252 Lip20                                               
  205.059  64%   2.181 MM20                                                
   28.303 136%   0.301 MM12                                                
    0.000 999%   0.000 MM14                                                
  726.468   8%   7.725+MM17                                                
    0.000 999%   0.000 Lip13a+Lip13b                                       
   28.303 136%   0.301 MM14+Lip13a+Lip13b+MM12                             
  120.626  37%   1.283 MM09+Lip09                                          
  228.762  57%   2.433 MM20+Lip20                                          
   6 lines in following misc. output table
  FWHM = 0.183 ppm    S/N =   2                                            
  Data shift = 0.107 ppm                                                   
  Ph: -74 deg      82.6 deg/ppm                                            
  alphaB,S = 8.5E+01,   2.0E+02                                            
    9 spline knots.   Ns = 9(2)                                            
  (15) 4 infls.   (17) 3 extrs.                                            
  498 points on ppm-axis = NY
      4.000000     3.992357     3.984714     3.977070     3.969427     3.961784     3.954141     3.946497     3.938854     3.931211
      3.923568     3.915925     3.908281     3.900638     3.892995     3.885352     3.877708     3.870065     3.862422     3.854779
      3.847136     3.839492     3.831849     3.824206     3.816563     3.808919     3.801276     3.793633     3.785990     3.778347
      3.770703     3.763060     3.755417     3.747774     3.740130     3.732487     3.724844     3.717201     3.709558     3.701914
      3.694271     3.686628     3.678985     3.671341     3.663698     3.656055     3.648412     3.640769     3.633125     3.625482
      3.617839     3.610196     3.602552     3.594909     3.587266     3.579623     3.571980     3.564336     3.556693     3.549050
      3.541407     3.533763     3.526120     3.518477     3.510834     3.503191     3.495547     3.487904     3.480261     3.472618
      3.464974     3.457331     3.449688     3.442045     3.434402     3.426758     3.419115     3.411472     3.403829     3.396185
      3.388542     3.380899     3.373256     3.365613     3.357969     3.350326     3.342683     3.335040     3.327396     3.319753
      3.312110     3.304467     3.296824     3.289180     3.281537     3.273894     3.266251     3.258607     3.250964     3.243321
      3.235678     3.228034     3.220391     3.212748     3.205105     3.197462     3.189818     3.182175     3.174532     3.166889
      3.159245     3.151602     3.143959     3.136316     3.128673     3.121029     3.113386     3.105743     3.098100     3.090456
      3.082813     3.075170     3.067527     3.059884     3.052240     3.044597     3.036954     3.029311     3.021667     3.014024
      3.006381     2.998738     2.991095     2.983451     2.975808     2.968165     2.960522     2.952878     2.945235     2.937592
      2.929949     2.922306     2.914662     2.907019     2.899376     2.891733     2.884089     2.876446     2.868803     2.861160
      2.853517     2.845873     2.838230     2.830587     2.822944     2.815300     2.807657     2.800014     2.792371     2.784728
      2.777084     2.769441     2.761798     2.754155     2.746511     2.738868     2.731225     2.723582     2.715939     2.708295
      2.700652     2.693009     2.685366     2.677722     2.670079     2.662436     2.654793     2.647150     2.639506     2.631863
      2.624220     2.616577     2.608933     2.601290     2.593647     2.586004     2.578361     2.570717     2.563074     2.555431
      2.547788     2.540144     2.532501     2.524858     2.517215     2.509572     2.501928     2.494285     2.486642     2.478999
      2.471355     2.463712     2.456069     2.448426     2.440783     2.433139     2.425496     2.417853     2.410210     2.402566
      2.394923     2.387280     2.379637     2.371994     2.364350     2.356707     2.349064     2.341421     2.333777     2.326134
      2.318491     2.310848     2.303205     2.295561     2.287918     2.280275     2.272632     2.264988     2.257345     2.249702
      2.242059     2.234416     2.226772     2.219129     2.211486     2.203843     2.196199     2.188556     2.180913     2.173270
      2.165627     2.157983     2.150340     2.142697     2.135054     2.127410     2.119767     2.112124     2.104481     2.096838
      2.089194     2.081551     2.073908     2.066265     2.058621     2.050978     2.043335     2.035692     2.028049     2.020405
      2.012762     2.005119     1.997476     1.989833     1.982190     1.974546     1.966903     1.959260     1.951617     1.943974
      1.936331     1.928688     1.921045     1.913402     1.905759     1.898115     1.890472     1.882829     1.875186     1.867543
      1.859900     1.852257     1.844614     1.836971     1.829327     1.821684     1.814041     1.806398     1.798755     1.791112
      1.783469     1.775826     1.768183     1.760540     1.752896     1.745253     1.737610     1.729967     1.722324     1.714681
      1.707038     1.699395     1.691752     1.684108     1.676465     1.668822     1.661179     1.653536     1.645893     1.638250
      1.630607     1.622964     1.615321     1.607677     1.600034     1.592391     1.584748     1.577105     1.569462     1.561819
      1.554176     1.546533     1.538890     1.531246     1.523603     1.515960     1.508317     1.500674     1.493031     1.485388
      1.477745     1.470102     1.462458     1.454815     1.447172     1.439529     1.431886     1.424243     1.416600     1.408957
      1.401314     1.393671     1.386027     1.378384     1.370741     1.363098     1.355455     1.347812     1.340169     1.332526
      1.324883     1.317240     1.309596     1.301953     1.294310     1.286667     1.279024     1.271381     1.263738     1.256095
      1.248452     1.240808     1.233165     1.225522     1.217879     1.210236     1.202593     1.194950     1.187307     1.179664
      1.172021     1.164377     1.156734     1.149091     1.141448     1.133805     1.126162     1.118519     1.110876     1.103233
      1.095590     1.087946     1.080303     1.072660     1.065017     1.057374     1.049731     1.042088     1.034445     1.026802
      1.019158     1.011515     1.003872     0.996229     0.988586     0.980943     0.973300     0.965657     0.958014     0.950371
      0.942727     0.935084     0.927441     0.919798     0.912155     0.904512     0.896869     0.889226     0.881583     0.873940
      0.866296     0.858653     0.851010     0.843367     0.835724     0.828081     0.820438     0.812795     0.805152     0.797508
      0.789865     0.782222     0.774579     0.766936     0.759293     0.751650     0.744007     0.736364     0.728721     0.721077
      0.713434     0.705791     0.698148     0.690505     0.682862     0.675219     0.667576     0.659933     0.652290     0.644646
      0.637003     0.629360     0.621717     0.614074     0.606431     0.598788     0.591145     0.583502     0.575858     0.568215
      0.560572     0.552929     0.545286     0.537643     0.530000     0.522357     0.514714     0.507071     0.499427     0.491784
      0.484141     0.476498     0.468855     0.461212     0.453569     0.445925     0.438282     0.430639     0.422996     0.415353
      0.407710     0.400067     0.392424     0.384780     0.377137     0.369494     0.361851     0.354208     0.346565     0.338922
      0.331278     0.323635     0.315992     0.308349     0.300706     0.293063     0.285420     0.277777     0.270133     0.262490
      0.254847     0.247204     0.239561     0.231918     0.224275     0.216631     0.208988     0.201345
 NY phased data points follow
  -1.33325E+00 -8.35361E-01 -9.92199E-01 -1.49140E+00 -1.69611E+00  6.33060E-01 -4.59686E-01  1.30545E-01 -9.80532E-01  1.29074E+00
  -3.46889E-01 -2.30453E+00 -3.90474E-01  1.61700E+00  8.55394E-01  4.98435E-04 -8.89245E-01 -8.30932E-02  8.47822E-01  1.94331E+00
  -1.86870E+00  1.33418E+00 -1.16417E+00  3.56618E-01 -8.40271E-01 -1.40561E+00 -1.96496E+00  9.20249E-01 -1.02301E+00  7.86237E-01
  -3.55549E-01  1.16396E+00 -3.81174E-01 -5.65680E-01 -2.12338E-01  1.48860E+00  6.62632E-01  4.85292E-01  1.17675E+00  9.24638E-01
  -1.37002E-01  2.46518E+00 -2.79507E+00  1.34435E+00 -4.17841E-01  1.01087E+00  6.35202E-01  3.42540E+00  2.09668E+00  1.03719E+00
   1.42636E+00  8.81679E-01 -2.99474E-01  5.34704E-01  5.23104E-02  1.99061E+00 -7.11626E-02  2.27509E-01 -1.61416E-01  1.18629E+00
   1.11231E+00  2.20310E+00  9.85318E-01  7.08531E-01  1.25652E+00  2.35727E+00  1.57139E+00  2.24069E+00 -1.53104E+00  2.84802E+00
  -2.00855E+00  9.58481E-01  1.24064E+00  1.88601E+00  5.10240E-01  1.10735E-01  1.18224E+00  1.88189E+00 -2.12845E-01  1.95855E+00
  -1.06132E-02  1.42854E-01 -8.32877E-01  1.47233E+00  1.46303E+00 -2.24042E-01  1.14512E+00 -1.04801E+00 -2.63238E+00 -1.42048E+00
  -1.32875E+00  2.59057E+00  5.36816E-01  1.93398E+00 -1.18441E+00  1.04542E+00  1.79603E-01  5.68586E-01  9.58325E-01  1.32457E+00
   1.42395E+00  1.70127E+00 -4.99010E-01  3.33082E+00  1.89042E+00  3.82824E-01 -2.02256E-01  1.87412E+00 -9.25012E-01 -7.31881E-02
  -1.67963E+00  8.33563E-01 -1.73390E-01 -1.06217E+00 -2.60108E+00  1.52569E+00  5.35923E-01 -1.02932E-01  2.99958E-01  1.61124E+00
   3.23446E-01  1.33883E+00 -9.10722E-01  1.42773E-01 -6.09614E-01  5.34359E-01 -4.37351E-01  2.49470E+00 -4.65967E-01  1.20379E+00
  -3.58064E-01  4.99318E-01  3.80595E-01 -6.29176E-01  3.15954E-01  1.75153E+00 -8.79415E-01  2.98441E+00  1.48596E+00  1.45952E-01
   5.81475E-01 -5.63738E-02  1.85971E+00 -2.89474E-01  1.59806E+00 -1.15799E+00  1.78985E+00  1.38244E+00 -2.28904E-01  1.68467E+00
   1.22675E+00 -4.47383E-03  1.71991E+00  5.30603E-01  4.37139E-02  6.74372E-02  1.42261E+00 -4.18714E-01  1.38591E+00  1.99444E+00
  -1.10857E+00  1.06835E+00 -9.78656E-01  1.71329E-01 -9.69191E-01 -2.21628E-01 -2.61975E+00  5.26228E-01 -7.71783E-01  1.06161E+00
  -4.60096E-02  3.25338E+00 -2.25860E-01 -4.98223E-01 -1.71695E+00 -1.35727E+00  8.01300E-01 -6.03444E-01 -2.13336E-01 -1.24512E+00
  -1.64661E+00 -4.05995E-01 -1.93386E+00 -2.23040E-01 -5.00167E-03 -5.52369E-01 -1.89361E+00 -5.90684E-01 -2.10687E+00 -9.59681E-01
  -5.85616E-01  4.15261E-01 -5.00144E-01 -3.81392E-01 -8.24662E-01 -3.66858E-01 -1.52120E+00  9.89044E-01 -3.93884E-01 -1.88373E+00
  -8.35085E-01 -1.48403E+00 -1.45034E+00 -3.84329E-01 -1.69643E+00  7.96817E-01 -2.15962E+00 -1.66621E+00  2.87027E-01 -9.13611E-01
  -1.68189E+00 -3.28381E+00 -2.28944E+00  1.10905E-02  1.18177E+00  1.08190E+00 -1.03538E+00 -2.08002E+00  5.35651E-02 -8.09229E-01
  -1.14358E+00 -5.86054E-01 -2.25445E+00 -9.50205E-02  5.34332E-01  5.86835E-01  7.17439E-01  8.98307E-01 -4.33268E-01 -1.14063E-01
   9.92403E-01 -8.45863E-01  5.84551E-02  1.53291E+00  4.94260E-01 -3.28600E-01 -4.67862E-01  1.81119E-01  1.93988E-01  1.10304E+00
   9.90139E-02  1.25109E+00  1.51793E+00  3.43221E+00  3.99046E+00  2.42421E+00  2.12064E+00  1.26042E+00  7.12614E-01  1.29410E+00
   2.50664E+00  1.21234E+00  1.24893E+00  1.65732E+00  9.83140E-01  1.59641E+00  9.55333E-01  6.07261E-01  2.68842E+00  7.71879E-01
  -1.99056E-01 -7.97621E-01  1.31506E+00  1.79215E+00  9.03370E-01  1.76423E+00  1.39446E+00  3.90154E-01  1.96812E+00  2.56111E-01
  -4.10648E-01 -2.17718E+00 -3.75480E-01 -1.00828E+00 -8.45987E-01 -2.24489E+00 -1.55301E+00 -5.08653E+00 -1.93677E+00 -2.85303E+00
  -1.83958E+00 -2.47598E+00 -3.87887E+00 -4.61794E+00 -3.95875E+00 -4.45125E+00 -1.43104E+00 -3.06865E+00 -3.55529E+00 -1.66005E+00
  -2.89580E+00 -2.14641E+00 -1.10146E+00 -9.13976E-01  1.23339E+00 -5.21237E-01  1.91536E+00  1.73571E+00  1.29531E+00  3.95740E+00
   2.87720E+00  4.35475E+00  3.80129E+00  4.46494E+00  7.18242E+00  4.66405E+00  5.40465E+00  7.91992E+00  5.04879E+00  5.63065E+00
   5.19770E+00  7.03615E+00  5.74006E+00  4.29851E+00  5.16430E+00  5.29785E+00  6.49671E+00  5.73330E+00  4.16119E+00  4.35256E+00
   2.95627E+00  1.59467E+00  3.61960E-01  2.38498E+00 -3.64236E-01  8.41413E-02  1.64660E-01 -2.80615E+00 -2.42035E+00  4.65677E-01
   3.59528E-02 -1.28519E+00 -9.79024E-01 -1.13211E+00 -9.95366E-01 -1.61213E+00  1.55572E+00 -1.13500E+00  3.37156E-01 -6.32668E-01
  -1.34031E+00 -1.83692E+00 -8.85513E-01 -7.98722E-01 -1.06165E+00 -1.65408E+00  4.08584E-01  1.21034E+00 -9.20557E-01 -1.42181E+00
  -6.68446E-01 -1.68789E+00 -1.40701E+00 -2.32750E+00  1.09159E+00 -2.43847E+00 -1.90604E+00 -1.04105E+00 -2.11175E-01 -2.24103E+00
  -1.96861E+00  9.43476E-01 -1.55674E+00 -1.56900E+00  1.46353E+00 -1.84191E+00 -7.81793E-01 -4.11058E-01  7.65487E-01  9.27184E-01
  -6.75387E-02 -1.95636E-02  1.70660E+00 -1.82239E-01 -1.54589E+00 -3.51910E-01 -9.36767E-02 -3.88003E+00 -2.99375E+00  6.25306E-04
  -1.49511E+00  2.06225E-01 -3.47226E-01 -7.40016E-01 -1.16723E+00  1.08775E+00 -3.74974E-02 -1.46031E+00  7.22150E-01 -2.49048E+00
  -9.82728E-01 -1.85893E-01 -5.93705E-01 -1.02246E+00  1.53480E+00 -1.01766E-01 -8.28001E-01  6.34237E-01 -4.93754E-02 -8.22194E-01
  -1.33244E-01 -1.80567E+00 -6.15344E-01 -8.33848E-01 -1.26435E+00 -3.61238E-01 -2.73320E-01 -5.52678E-01 -2.77092E+00  1.10656E+00
   8.76974E-03  9.61577E-02 -8.14471E-01 -1.10671E+00  1.75064E+00  4.68442E-02 -2.09176E+00  1.52123E+00  1.44177E-01  7.55647E-02
  -9.25848E-01  1.09292E+00  6.72069E-02  4.68663E-02 -1.53105E+00 -2.25917E+00 -1.52141E+00  6.03093E-01 -5.15789E-01  9.55160E-01
  -3.46026E+00 -1.82632E+00 -5.79730E-01 -5.71726E-02 -3.74695E+00 -1.23790E+00 -1.39055E+00 -1.99260E+00 -1.15219E+00 -9.82523E-01
   3.79286E-01 -6.03402E-01 -1.63715E+00 -2.93892E+00 -1.05349E+00 -2.76092E+00 -1.60317E+00  9.00195E-01 -5.02318E-01 -6.27641E-01
  -9.11574E-01 -1.60121E+00 -2.56382E+00 -1.54398E+00 -3.00578E+00 -1.64282E+00 -1.93228E+00 -3.11803E-01 -7.49816E-01 -1.16053E+00
  -1.64957E+00 -2.81653E+00 -1.15398E+00 -5.18711E-01  3.35102E-01 -2.25893E+00  4.04887E-01 -1.23070E+00 -1.75050E+00 -2.09696E+00
   5.09412E-01 -5.39811E-02 -3.21986E-01 -2.53801E-01 -6.09560E-01 -4.97093E-01 -1.75747E+00  2.77046E-01  1.48285E-01 -6.18417E-01
   5.58578E-01 -6.88483E-01 -1.27951E+00 -1.46311E-01 -4.47227E-01  5.47352E-02  5.56594E-01 -1.59696E+00 -1.21426E+00 -3.63889E-01
   4.13295E-01 -4.25607E-01  4.79482E-01 -3.43868E-01  2.81241E-01 -3.73974E-01 -2.00067E+00  1.44384E+00
 NY points of the fit to the data follow
  -7.42213E-01 -6.18916E-01 -5.95713E-01 -4.85673E-01 -4.83646E-01 -3.87892E-01 -4.07871E-01 -3.27706E-01 -3.73366E-01 -3.41287E-01
  -4.29579E-01 -4.80356E-01 -5.82677E-01 -6.39743E-01 -7.32731E-01 -7.47095E-01 -8.05307E-01 -7.51054E-01 -7.93974E-01 -6.73105E-01
  -7.16533E-01 -5.38834E-01 -5.93455E-01 -3.93067E-01 -4.70904E-01 -2.61717E-01 -3.69763E-01 -1.67642E-01 -3.18134E-01 -1.40284E-01
  -2.88808E-01 -7.30878E-02 -1.74492E-01  5.86569E-02  1.88937E-03  2.35498E-01  2.10553E-01  4.24687E-01  4.11266E-01  5.93829E-01
   5.76502E-01  7.18068E-01  7.06646E-01  8.22228E-01  8.28450E-01  9.24312E-01  9.39619E-01  1.00016E+00  1.00452E+00  1.00790E+00
   9.96306E-01  9.62151E-01  9.58245E-01  9.30168E-01  9.32627E-01  9.24629E-01  9.33198E-01  9.48299E-01  9.55210E-01  9.89517E-01
   9.85180E-01  1.03033E+00  1.00110E+00  1.03064E+00  9.77100E-01  9.97705E-01  9.32695E-01  9.54818E-01  9.05132E-01  9.51762E-01
   9.27271E-01  9.98013E-01  9.61976E-01  1.01316E+00  9.37475E-01  9.56737E-01  8.40341E-01  8.34981E-01  6.89121E-01  6.78707E-01
   5.16671E-01  5.03524E-01  3.25142E-01  3.02953E-01  1.25859E-01  1.72565E-01 -1.33882E-02  1.13011E-01 -9.01823E-02  1.21170E-01
  -1.01526E-01  1.85366E-01 -6.18240E-02  2.76359E-01  3.82587E-03  3.80806E-01  8.50278E-02  4.81873E-01  1.68726E-01  5.69628E-01
   2.45746E-01  6.29326E-01  3.02621E-01  6.48242E-01  3.26731E-01  6.18848E-01  3.06404E-01  5.37051E-01  2.52900E-01  4.89860E-01
   2.29868E-01  4.88108E-01  2.44945E-01  5.30712E-01  2.99886E-01  6.06147E-01  3.96534E-01  6.99973E-01  5.03614E-01  7.88808E-01
   5.94699E-01  8.47829E-01  6.62213E-01  8.95632E-01  7.40168E-01  9.74944E-01  8.36725E-01  1.03483E+00  9.15245E-01  1.06711E+00
   9.66682E-01  1.07298E+00  9.90505E-01  1.05540E+00  9.91169E-01  1.02073E+00  9.72120E-01  9.65115E-01  9.28466E-01  8.82899E-01
   8.53102E-01  7.67524E-01  7.40135E-01  6.20900E-01  5.95822E-01  4.56554E-01  4.37481E-01  3.02944E-01  2.95209E-01  1.96048E-01
   1.87653E-01  1.05977E-01  9.04256E-02  2.63139E-02  5.78373E-03 -4.04131E-02 -6.49062E-02 -1.03187E-01 -1.44318E-01 -1.79387E-01
  -2.32413E-01 -2.63774E-01 -3.16552E-01 -3.43108E-01 -3.91525E-01 -4.17178E-01 -4.59482E-01 -4.86899E-01 -5.25233E-01 -5.54683E-01
  -5.90669E-01 -6.21917E-01 -6.50505E-01 -6.74279E-01 -6.84762E-01 -6.96036E-01 -6.95599E-01 -6.97190E-01 -6.98432E-01 -7.03372E-01
  -7.29049E-01 -7.39511E-01 -7.85673E-01 -7.90091E-01 -8.36292E-01 -8.22376E-01 -8.60212E-01 -8.16269E-01 -8.43173E-01 -7.75766E-01
  -8.03795E-01 -7.38326E-01 -8.06828E-01 -7.47760E-01 -8.40301E-01 -7.80580E-01 -8.82916E-01 -8.16073E-01 -9.16671E-01 -8.39234E-01
  -9.31894E-01 -8.49450E-01 -9.38074E-01 -8.57817E-01 -9.42237E-01 -8.65674E-01 -9.36783E-01 -8.58430E-01 -9.06105E-01 -8.19965E-01
  -8.37964E-01 -7.42855E-01 -7.32945E-01 -6.42247E-01 -6.30173E-01 -5.56554E-01 -5.57061E-01 -5.07405E-01 -5.36820E-01 -4.95474E-01
  -5.29471E-01 -4.76663E-01 -4.93582E-01 -4.15145E-01 -4.19829E-01 -3.42164E-01 -3.52434E-01 -2.95736E-01 -3.17893E-01 -2.94693E-01
  -3.31908E-01 -3.44320E-01 -3.88591E-01 -4.11229E-01 -4.34547E-01 -4.61137E-01 -4.63690E-01 -4.65606E-01 -3.71012E-01 -3.58944E-01
  -1.66033E-01 -1.63905E-01  1.17399E-01  9.16883E-02  4.38978E-01  3.72638E-01  7.56565E-01  6.44428E-01  1.04428E+00  8.83722E-01
   1.28017E+00  1.06779E+00  1.43968E+00  1.17698E+00  1.50443E+00  1.20859E+00  1.48534E+00  1.17932E+00  1.40102E+00  1.10705E+00
   1.28597E+00  1.00884E+00  1.14182E+00  8.82324E-01  9.68357E-01  7.17770E-01  7.61324E-01  5.25390E-01  5.29272E-01  3.14116E-01
   2.78135E-01  9.43724E-02  3.09016E-02 -1.10401E-01 -1.85946E-01 -2.79904E-01 -3.43569E-01 -3.91315E-01 -4.19677E-01 -4.52915E-01
  -4.73789E-01 -5.00233E-01 -5.12485E-01 -5.29618E-01 -5.29540E-01 -5.32551E-01 -5.13778E-01 -4.94106E-01 -4.46431E-01 -3.91677E-01
  -3.01497E-01 -1.95647E-01 -4.64665E-02  1.27686E-01  3.51992E-01  6.07985E-01  9.17028E-01  1.25937E+00  1.65051E+00  2.06837E+00
   2.52203E+00  2.98644E+00  3.46369E+00  3.92706E+00  4.37332E+00  4.77719E+00  5.13340E+00  5.42287E+00  5.64743E+00  5.79834E+00
   5.83010E+00  5.79680E+00  5.61700E+00  5.39677E+00  5.02436E+00  4.64359E+00  4.12407E+00  3.67185E+00  3.10916E+00  2.65613E+00
   2.12410E+00  1.71960E+00  1.26640E+00  9.34881E-01  5.80715E-01  3.23944E-01  6.96686E-02 -1.15812E-01 -2.77397E-01 -4.00537E-01
  -4.83786E-01 -5.58394E-01 -5.83979E-01 -6.30370E-01 -6.22450E-01 -6.58550E-01 -6.37326E-01 -6.74512E-01 -6.50744E-01 -6.91201E-01
  -6.65112E-01 -7.05376E-01 -6.70993E-01 -7.03890E-01 -6.59014E-01 -6.82417E-01 -6.29730E-01 -6.44893E-01 -5.96915E-01 -6.12822E-01
  -5.93942E-01 -6.25316E-01 -6.26894E-01 -6.63481E-01 -6.78249E-01 -7.07801E-01 -7.24093E-01 -7.31886E-01 -7.36184E-01 -7.38286E-01
  -7.39444E-01 -7.39771E-01 -7.39987E-01 -7.39924E-01 -7.40106E-01 -7.40232E-01 -7.40708E-01 -7.41146E-01 -7.41861E-01 -7.42400E-01
  -7.43010E-01 -7.43193E-01 -7.43148E-01 -7.42348E-01 -7.40956E-01 -7.38433E-01 -7.34924E-01 -7.29889E-01 -7.23464E-01 -7.15116E-01
  -7.04979E-01 -6.92539E-01 -6.77944E-01 -6.60716E-01 -6.41038E-01 -6.18494E-01 -5.93343E-01 -5.65282E-01 -5.34694E-01 -5.01447E-01
  -4.66111E-01 -4.28777E-01 -3.90250E-01 -3.50881E-01 -3.11721E-01 -2.73364E-01 -2.37056E-01 -2.03551E-01 -1.74176E-01 -1.49692E-01
  -1.31329E-01 -1.19663E-01 -1.15632E-01 -1.19439E-01 -1.31568E-01 -1.51730E-01 -1.79879E-01 -2.15212E-01 -2.57193E-01 -3.04605E-01
  -3.56573E-01 -4.11652E-01 -4.68836E-01 -5.26676E-01 -5.84255E-01 -6.40313E-01 -6.94188E-01 -7.44938E-01 -7.92234E-01 -8.35488E-01
  -8.74704E-01 -9.09610E-01 -9.40475E-01 -9.67260E-01 -9.90403E-01 -1.01000E+00 -1.02656E+00 -1.04024E+00 -1.05155E+00 -1.06062E+00
  -1.06793E+00 -1.07358E+00 -1.07799E+00 -1.08118E+00 -1.08351E+00 -1.08498E+00 -1.08587E+00 -1.08614E+00 -1.08604E+00 -1.08549E+00
  -1.08470E+00 -1.08357E+00 -1.08229E+00 -1.08076E+00 -1.07914E+00 -1.07731E+00 -1.07544E+00 -1.07340E+00 -1.07134E+00 -1.06913E+00
  -1.06692E+00 -1.06458E+00 -1.06225E+00 -1.05980E+00 -1.05737E+00 -1.05483E+00 -1.05231E+00 -1.04969E+00 -1.04709E+00 -1.04439E+00
  -1.04172E+00 -1.03895E+00 -1.03620E+00 -1.03337E+00 -1.03055E+00 -1.02764E+00 -1.02475E+00 -1.02177E+00 -1.01880E+00 -1.01574E+00
  -1.01269E+00 -1.00956E+00 -1.00642E+00 -1.00320E+00 -9.99971E-01 -9.96655E-01 -9.93324E-01 -9.89902E-01 -9.86458E-01 -9.82920E-01
  -9.79349E-01 -9.75678E-01 -9.71963E-01 -9.68139E-01 -9.64258E-01 -9.60258E-01 -9.56182E-01 -9.51970E-01 -9.47662E-01 -9.43198E-01
  -9.38607E-01 -9.33830E-01 -9.28886E-01 -9.23711E-01 -9.18311E-01 -9.12613E-01 -9.06599E-01 -9.00175E-01
 NY background values follow
    -1.339E-01   -1.363E-01   -1.386E-01   -1.409E-01   -1.432E-01   -1.456E-01   -1.479E-01   -1.503E-01   -1.526E-01   -1.550E-01
    -1.573E-01   -1.597E-01   -1.620E-01   -1.644E-01   -1.667E-01   -1.691E-01   -1.715E-01   -1.738E-01   -1.762E-01   -1.786E-01
    -1.809E-01   -1.833E-01   -1.857E-01   -1.881E-01   -1.904E-01   -1.928E-01   -1.952E-01   -1.976E-01   -2.000E-01   -2.024E-01
    -2.047E-01   -2.071E-01   -2.095E-01   -2.119E-01   -2.143E-01   -2.167E-01   -2.191E-01   -2.215E-01   -2.239E-01   -2.263E-01
    -2.287E-01   -2.311E-01   -2.335E-01   -2.359E-01   -2.383E-01   -2.407E-01   -2.431E-01   -2.455E-01   -2.479E-01   -2.503E-01
    -2.527E-01   -2.551E-01   -2.575E-01   -2.599E-01   -2.623E-01   -2.647E-01   -2.671E-01   -2.696E-01   -2.720E-01   -2.744E-01
    -2.768E-01   -2.792E-01   -2.816E-01   -2.840E-01   -2.864E-01   -2.888E-01   -2.912E-01   -2.936E-01   -2.960E-01   -2.984E-01
    -3.008E-01   -3.032E-01   -3.056E-01   -3.080E-01   -3.104E-01   -3.128E-01   -3.152E-01   -3.176E-01   -3.200E-01   -3.224E-01
    -3.247E-01   -3.271E-01   -3.295E-01   -3.319E-01   -3.343E-01   -3.367E-01   -3.390E-01   -3.414E-01   -3.438E-01   -3.462E-01
    -3.486E-01   -3.509E-01   -3.533E-01   -3.557E-01   -3.580E-01   -3.604E-01   -3.627E-01   -3.651E-01   -3.675E-01   -3.698E-01
    -3.722E-01   -3.745E-01   -3.769E-01   -3.792E-01   -3.815E-01   -3.839E-01   -3.862E-01   -3.885E-01   -3.909E-01   -3.932E-01
    -3.955E-01   -3.978E-01   -4.002E-01   -4.025E-01   -4.048E-01   -4.071E-01   -4.094E-01   -4.117E-01   -4.140E-01   -4.163E-01
    -4.186E-01   -4.209E-01   -4.231E-01   -4.254E-01   -4.277E-01   -4.300E-01   -4.322E-01   -4.345E-01   -4.368E-01   -4.390E-01
    -4.413E-01   -4.435E-01   -4.458E-01   -4.480E-01   -4.502E-01   -4.524E-01   -4.547E-01   -4.569E-01   -4.591E-01   -4.613E-01
    -4.635E-01   -4.657E-01   -4.679E-01   -4.701E-01   -4.723E-01   -4.745E-01   -4.767E-01   -4.788E-01   -4.810E-01   -4.831E-01
    -4.853E-01   -4.874E-01   -4.896E-01   -4.917E-01   -4.939E-01   -4.960E-01   -4.981E-01   -5.002E-01   -5.023E-01   -5.044E-01
    -5.065E-01   -5.086E-01   -5.107E-01   -5.128E-01   -5.149E-01   -5.169E-01   -5.190E-01   -5.211E-01   -5.231E-01   -5.251E-01
    -5.272E-01   -5.292E-01   -5.312E-01   -5.332E-01   -5.353E-01   -5.373E-01   -5.393E-01   -5.412E-01   -5.432E-01   -5.452E-01
    -5.472E-01   -5.491E-01   -5.511E-01   -5.530E-01   -5.550E-01   -5.569E-01   -5.588E-01   -5.607E-01   -5.626E-01   -5.646E-01
    -5.664E-01   -5.683E-01   -5.702E-01   -5.721E-01   -5.739E-01   -5.758E-01   -5.776E-01   -5.795E-01   -5.813E-01   -5.831E-01
    -5.850E-01   -5.868E-01   -5.886E-01   -5.904E-01   -5.921E-01   -5.939E-01   -5.957E-01   -5.974E-01   -5.992E-01   -6.009E-01
    -6.027E-01   -6.044E-01   -6.061E-01   -6.078E-01   -6.095E-01   -6.112E-01   -6.129E-01   -6.145E-01   -6.162E-01   -6.178E-01
    -6.195E-01   -6.211E-01   -6.227E-01   -6.243E-01   -6.259E-01   -6.275E-01   -6.291E-01   -6.307E-01   -6.323E-01   -6.338E-01
    -6.354E-01   -6.369E-01   -6.384E-01   -6.400E-01   -6.415E-01   -6.430E-01   -6.444E-01   -6.459E-01   -6.474E-01   -6.488E-01
    -6.503E-01   -6.517E-01   -6.532E-01   -6.546E-01   -6.560E-01   -6.574E-01   -6.588E-01   -6.601E-01   -6.615E-01   -6.629E-01
    -6.642E-01   -6.655E-01   -6.668E-01   -6.682E-01   -6.695E-01   -6.707E-01   -6.720E-01   -6.733E-01   -6.745E-01   -6.758E-01
    -6.770E-01   -6.782E-01   -6.795E-01   -6.807E-01   -6.818E-01   -6.830E-01   -6.842E-01   -6.853E-01   -6.865E-01   -6.876E-01
    -6.887E-01   -6.898E-01   -6.909E-01   -6.920E-01   -6.931E-01   -6.941E-01   -6.952E-01   -6.962E-01   -6.973E-01   -6.983E-01
    -6.993E-01   -7.003E-01   -7.012E-01   -7.022E-01   -7.032E-01   -7.041E-01   -7.050E-01   -7.059E-01   -7.068E-01   -7.077E-01
    -7.086E-01   -7.095E-01   -7.103E-01   -7.112E-01   -7.120E-01   -7.128E-01   -7.136E-01   -7.144E-01   -7.152E-01   -7.160E-01
    -7.167E-01   -7.174E-01   -7.182E-01   -7.189E-01   -7.196E-01   -7.203E-01   -7.209E-01   -7.216E-01   -7.223E-01   -7.229E-01
    -7.235E-01   -7.241E-01   -7.247E-01   -7.253E-01   -7.259E-01   -7.264E-01   -7.270E-01   -7.275E-01   -7.280E-01   -7.285E-01
    -7.290E-01   -7.295E-01   -7.299E-01   -7.304E-01   -7.308E-01   -7.313E-01   -7.317E-01   -7.321E-01   -7.324E-01   -7.328E-01
    -7.332E-01   -7.335E-01   -7.338E-01   -7.341E-01   -7.344E-01   -7.347E-01   -7.350E-01   -7.352E-01   -7.355E-01   -7.357E-01
    -7.359E-01   -7.361E-01   -7.363E-01   -7.365E-01   -7.366E-01   -7.368E-01   -7.369E-01   -7.370E-01   -7.371E-01   -7.372E-01
    -7.373E-01   -7.373E-01   -7.374E-01   -7.374E-01   -7.374E-01   -7.374E-01   -7.374E-01   -7.374E-01   -7.373E-01   -7.372E-01
    -7.372E-01   -7.371E-01   -7.370E-01   -7.369E-01   -7.367E-01   -7.366E-01   -7.364E-01   -7.362E-01   -7.361E-01   -7.358E-01
    -7.356E-01   -7.354E-01   -7.351E-01   -7.349E-01   -7.346E-01   -7.343E-01   -7.340E-01   -7.337E-01   -7.333E-01   -7.330E-01
    -7.326E-01   -7.322E-01   -7.318E-01   -7.314E-01   -7.310E-01   -7.305E-01   -7.301E-01   -7.296E-01   -7.291E-01   -7.286E-01
    -7.281E-01   -7.276E-01   -7.270E-01   -7.264E-01   -7.259E-01   -7.253E-01   -7.247E-01   -7.240E-01   -7.234E-01   -7.227E-01
    -7.221E-01   -7.214E-01   -7.207E-01   -7.200E-01   -7.192E-01   -7.185E-01   -7.177E-01   -7.169E-01   -7.162E-01   -7.153E-01
    -7.145E-01   -7.137E-01   -7.128E-01   -7.120E-01   -7.111E-01   -7.102E-01   -7.093E-01   -7.083E-01   -7.074E-01   -7.064E-01
    -7.055E-01   -7.045E-01   -7.035E-01   -7.024E-01   -7.014E-01   -7.003E-01   -6.993E-01   -6.982E-01   -6.971E-01   -6.960E-01
    -6.949E-01   -6.937E-01   -6.926E-01   -6.914E-01   -6.902E-01   -6.890E-01   -6.878E-01   -6.865E-01   -6.853E-01   -6.840E-01
    -6.827E-01   -6.814E-01   -6.801E-01   -6.788E-01   -6.775E-01   -6.761E-01   -6.747E-01   -6.733E-01   -6.719E-01   -6.705E-01
    -6.691E-01   -6.676E-01   -6.662E-01   -6.647E-01   -6.632E-01   -6.617E-01   -6.602E-01   -6.586E-01   -6.571E-01   -6.555E-01
    -6.539E-01   -6.523E-01   -6.507E-01   -6.490E-01   -6.474E-01   -6.457E-01   -6.441E-01   -6.424E-01   -6.407E-01   -6.389E-01
    -6.372E-01   -6.355E-01   -6.337E-01   -6.319E-01   -6.301E-01   -6.283E-01   -6.265E-01   -6.246E-01   -6.228E-01   -6.209E-01
    -6.190E-01   -6.171E-01   -6.152E-01   -6.133E-01   -6.113E-01   -6.094E-01   -6.074E-01   -6.054E-01   -6.034E-01   -6.014E-01
    -5.993E-01   -5.973E-01   -5.952E-01   -5.931E-01   -5.910E-01   -5.889E-01   -5.868E-01   -5.847E-01
 Ala      Conc. = 1.42E+02
