 LCModel (Version 6.3-1L) Copyright: S.W. Provencher.          Ref.: Magn. Reson. Med. 30:672-679 (1993).                
 Slice#1 Row#12 Col#4  PD_24_press_2_raw_act
 36 lines in following concentration table = NCONC+1
    Conc.  %SD /Cr+PCr  Metabolite                                         
   87.906  54%   2.877 Ala                                                 
   28.946  86%   0.947 Asp                                                 
    0.000 999%   0.000 Cr                                                  
   30.552  48%   1.000 PCr                                                 
   16.212  94%   0.531 GABA                                                
   16.675  90%   0.546 Glc                                                 
  108.147  96%   3.540 Gln                                                 
    0.000 999%   0.000 Glu                                                 
    0.000 999%   0.000 GPC                                                 
    6.026  92%   0.197 PCh                                                 
    0.000 999%   0.000 GSH                                                 
    0.000 999%   0.000 Ins                                                 
    0.000 999%   0.000 Lac                                                 
  292.343  21%   9.569 NAA                                                 
  142.377  31%   4.660 NAAG                                                
    1.049 422% 3.4E-02 Scyllo                                              
   20.722 119%   0.678 Tau                                                 
    3.518 316%   0.115 -CrCH2                                              
    6.026  92%   0.197 GPC+PCh                                             
  434.720  13%  14.229 NAA+NAAG                                            
   30.552  48%   1.000 Cr+PCr                                              
  108.147  96%   3.540 Glu+Gln                                             
    0.000 999%   0.000 Lip13a                                              
    0.000 999%   0.000 Lip13b                                              
    0.000 999%   0.000 Lip09                                               
    0.000 999%   0.000 MM09                                                
    0.000 999%   0.000 Lip20                                               
    0.000 999%   0.000 MM20                                                
    0.000 999%   0.000 MM12                                                
    0.000 999%   0.000 MM14                                                
    1.518 236% 5.0E-02 MM17                                                
    0.000 999%   0.000 Lip13a+Lip13b                                       
    0.000 999%   0.000 MM14+Lip13a+Lip13b+MM12                             
    0.000 999%   0.000 MM09+Lip09                                          
    0.000 999%   0.000 MM20+Lip20                                          
   6 lines in following misc. output table
  FWHM = 0.107 ppm    S/N =   4                                            
  Data shift = 0.390 ppm                                                   
  Ph:-138 deg      15.4 deg/ppm                                            
  alphaB,S = 5.7E-01,   2.0E+01                                            
   14 spline knots.   Ns = 7(2)                                            
  ( 4) 5 infls.   ( 4) 2 extrs.                                            
  498 points on ppm-axis = NY
      4.000000     3.992357     3.984714     3.977070     3.969427     3.961784     3.954141     3.946497     3.938854     3.931211
      3.923568     3.915925     3.908281     3.900638     3.892995     3.885352     3.877708     3.870065     3.862422     3.854779
      3.847136     3.839492     3.831849     3.824206     3.816563     3.808919     3.801276     3.793633     3.785990     3.778347
      3.770703     3.763060     3.755417     3.747774     3.740130     3.732487     3.724844     3.717201     3.709558     3.701914
      3.694271     3.686628     3.678985     3.671341     3.663698     3.656055     3.648412     3.640769     3.633125     3.625482
      3.617839     3.610196     3.602552     3.594909     3.587266     3.579623     3.571980     3.564336     3.556693     3.549050
      3.541407     3.533763     3.526120     3.518477     3.510834     3.503191     3.495547     3.487904     3.480261     3.472618
      3.464974     3.457331     3.449688     3.442045     3.434402     3.426758     3.419115     3.411472     3.403829     3.396185
      3.388542     3.380899     3.373256     3.365613     3.357969     3.350326     3.342683     3.335040     3.327396     3.319753
      3.312110     3.304467     3.296824     3.289180     3.281537     3.273894     3.266251     3.258607     3.250964     3.243321
      3.235678     3.228034     3.220391     3.212748     3.205105     3.197462     3.189818     3.182175     3.174532     3.166889
      3.159245     3.151602     3.143959     3.136316     3.128673     3.121029     3.113386     3.105743     3.098100     3.090456
      3.082813     3.075170     3.067527     3.059884     3.052240     3.044597     3.036954     3.029311     3.021667     3.014024
      3.006381     2.998738     2.991095     2.983451     2.975808     2.968165     2.960522     2.952878     2.945235     2.937592
      2.929949     2.922306     2.914662     2.907019     2.899376     2.891733     2.884089     2.876446     2.868803     2.861160
      2.853517     2.845873     2.838230     2.830587     2.822944     2.815300     2.807657     2.800014     2.792371     2.784728
      2.777084     2.769441     2.761798     2.754155     2.746511     2.738868     2.731225     2.723582     2.715939     2.708295
      2.700652     2.693009     2.685366     2.677722     2.670079     2.662436     2.654793     2.647150     2.639506     2.631863
      2.624220     2.616577     2.608933     2.601290     2.593647     2.586004     2.578361     2.570717     2.563074     2.555431
      2.547788     2.540144     2.532501     2.524858     2.517215     2.509572     2.501928     2.494285     2.486642     2.478999
      2.471355     2.463712     2.456069     2.448426     2.440783     2.433139     2.425496     2.417853     2.410210     2.402566
      2.394923     2.387280     2.379637     2.371994     2.364350     2.356707     2.349064     2.341421     2.333777     2.326134
      2.318491     2.310848     2.303205     2.295561     2.287918     2.280275     2.272632     2.264988     2.257345     2.249702
      2.242059     2.234416     2.226772     2.219129     2.211486     2.203843     2.196199     2.188556     2.180913     2.173270
      2.165627     2.157983     2.150340     2.142697     2.135054     2.127410     2.119767     2.112124     2.104481     2.096838
      2.089194     2.081551     2.073908     2.066265     2.058621     2.050978     2.043335     2.035692     2.028049     2.020405
      2.012762     2.005119     1.997476     1.989833     1.982190     1.974546     1.966903     1.959260     1.951617     1.943974
      1.936331     1.928688     1.921045     1.913402     1.905759     1.898115     1.890472     1.882829     1.875186     1.867543
      1.859900     1.852257     1.844614     1.836971     1.829327     1.821684     1.814041     1.806398     1.798755     1.791112
      1.783469     1.775826     1.768183     1.760540     1.752896     1.745253     1.737610     1.729967     1.722324     1.714681
      1.707038     1.699395     1.691752     1.684108     1.676465     1.668822     1.661179     1.653536     1.645893     1.638250
      1.630607     1.622964     1.615321     1.607677     1.600034     1.592391     1.584748     1.577105     1.569462     1.561819
      1.554176     1.546533     1.538890     1.531246     1.523603     1.515960     1.508317     1.500674     1.493031     1.485388
      1.477745     1.470102     1.462458     1.454815     1.447172     1.439529     1.431886     1.424243     1.416600     1.408957
      1.401314     1.393671     1.386027     1.378384     1.370741     1.363098     1.355455     1.347812     1.340169     1.332526
      1.324883     1.317240     1.309596     1.301953     1.294310     1.286667     1.279024     1.271381     1.263738     1.256095
      1.248452     1.240808     1.233165     1.225522     1.217879     1.210236     1.202593     1.194950     1.187307     1.179664
      1.172021     1.164377     1.156734     1.149091     1.141448     1.133805     1.126162     1.118519     1.110876     1.103233
      1.095590     1.087946     1.080303     1.072660     1.065017     1.057374     1.049731     1.042088     1.034445     1.026802
      1.019158     1.011515     1.003872     0.996229     0.988586     0.980943     0.973300     0.965657     0.958014     0.950371
      0.942727     0.935084     0.927441     0.919798     0.912155     0.904512     0.896869     0.889226     0.881583     0.873940
      0.866296     0.858653     0.851010     0.843367     0.835724     0.828081     0.820438     0.812795     0.805152     0.797508
      0.789865     0.782222     0.774579     0.766936     0.759293     0.751650     0.744007     0.736364     0.728721     0.721077
      0.713434     0.705791     0.698148     0.690505     0.682862     0.675219     0.667576     0.659933     0.652290     0.644646
      0.637003     0.629360     0.621717     0.614074     0.606431     0.598788     0.591145     0.583502     0.575858     0.568215
      0.560572     0.552929     0.545286     0.537643     0.530000     0.522357     0.514714     0.507071     0.499427     0.491784
      0.484141     0.476498     0.468855     0.461212     0.453569     0.445925     0.438282     0.430639     0.422996     0.415353
      0.407710     0.400067     0.392424     0.384780     0.377137     0.369494     0.361851     0.354208     0.346565     0.338922
      0.331278     0.323635     0.315992     0.308349     0.300706     0.293063     0.285420     0.277777     0.270133     0.262490
      0.254847     0.247204     0.239561     0.231918     0.224275     0.216631     0.208988     0.201345
 NY phased data points follow
  -3.01499E+00 -1.45369E+00 -3.55508E+00 -2.72837E+00 -3.47775E+00 -3.76306E+00 -3.06422E+00 -7.56740E-01 -4.40939E+00 -1.06740E+00
  -3.47135E+00 -3.24049E+00 -5.98458E+00 -2.83934E+00 -4.39813E+00 -2.72871E+00 -5.22172E+00 -3.09634E+00 -3.24304E+00 -1.15097E+00
  -5.99126E+00 -2.66988E+00 -3.16708E+00 -3.11518E+00 -4.40184E+00 -2.51387E+00 -2.21638E+00 -3.53074E+00 -3.58507E+00  1.91912E-01
  -3.76518E+00 -2.49950E+00 -3.17282E+00 -3.62273E+00 -5.59680E+00 -3.35675E+00 -4.68684E+00 -3.20403E+00 -4.05787E+00 -3.16341E+00
  -3.98906E+00  8.58180E-01 -5.45206E+00 -5.15688E+00 -4.07946E+00 -1.33330E+00 -4.83956E+00 -1.37606E+00 -2.68423E+00 -4.25186E+00
  -3.91286E+00 -5.81659E+00 -4.81474E+00 -3.76206E+00 -3.04702E+00 -2.67901E+00 -1.64517E+00  9.12189E-01 -3.57747E+00 -2.58632E+00
  -3.15457E+00 -3.71555E+00 -3.86629E+00 -3.26677E+00 -2.50093E+00 -1.40916E+00 -2.50511E+00 -3.71811E+00 -4.90410E+00 -2.56697E+00
  -2.14532E+00  4.31720E-01 -3.21431E+00 -2.89841E+00 -3.02678E+00 -3.28995E+00 -6.25752E+00 -4.28746E+00 -4.30759E+00 -3.41040E+00
  -2.47643E+00 -7.06654E-01 -1.11834E+00 -1.40231E+00 -3.32250E+00 -2.50934E+00 -4.62827E+00 -3.01391E+00 -3.36558E+00 -5.09886E+00
  -5.33016E+00 -2.06892E+00 -2.54246E+00 -1.86798E+00 -1.91626E+00 -2.33816E+00 -2.72285E+00  1.07964E+00 -1.63768E+00 -1.75352E+00
  -2.00220E+00 -2.61235E+00 -1.61486E+00 -3.20600E+00 -2.80819E+00 -1.04482E+00 -2.85475E+00 -2.90845E+00 -3.24395E+00 -2.04721E+00
  -5.08210E-01 -3.51225E-01 -1.52651E+00 -3.97396E+00 -4.38015E+00 -1.34864E+00 -2.95921E+00 -1.15875E-03 -2.84419E+00 -1.00159E+00
  -2.56033E+00 -1.59565E+00 -1.25121E+00 -2.30349E-01  3.68228E-01 -1.42024E-01 -2.00712E+00 -1.19241E+00 -4.04073E+00 -1.96845E+00
  -4.31171E+00 -1.84891E+00 -2.76819E+00 -2.53815E+00 -2.53283E+00 -1.21617E+00 -3.59978E+00 -4.56258E+00 -2.44404E+00 -2.90653E+00
  -4.09505E+00 -2.86266E+00 -7.47324E-01  1.50342E+00 -1.66896E+00 -9.87663E-01 -4.29958E+00 -4.22654E+00 -1.39147E+00 -1.18354E+00
  -3.27584E+00 -2.27032E+00 -2.75918E+00 -3.37835E-01 -2.59469E+00  8.66527E-01 -1.69887E+00 -3.17818E-01 -8.11685E-01 -1.10286E+00
  -1.36666E+00 -1.85320E+00 -4.39150E+00 -2.65191E+00 -2.52566E+00  3.41058E-01 -1.14918E+00 -5.84317E-01 -2.70959E+00 -2.94631E-01
  -7.23257E-01 -7.04133E-01 -1.74010E+00 -7.89964E-01 -1.08176E+00 -1.30649E+00 -5.31649E-01 -5.28448E-01  6.88581E-01 -2.22127E+00
  -6.42706E-01 -8.21309E-01 -9.94206E-01 -2.47136E+00 -2.49103E+00 -3.00440E-01 -2.44527E+00  2.67495E+00 -3.09773E-01  1.65200E-01
  -6.47145E-01  1.02193E+00  1.10362E+00  9.81191E-01 -1.44379E+00 -3.10631E-01 -2.17454E+00  6.21324E-01  1.07742E-01  3.55287E-02
   2.19829E-01  3.09744E-01 -1.94053E+00 -1.74826E+00 -6.98726E-01 -2.34363E+00 -4.08761E+00 -5.29491E+00 -3.59141E+00 -3.62460E+00
  -2.69737E+00 -4.59215E+00 -2.76371E+00 -2.19371E+00 -2.19452E-01 -2.04864E+00 -1.39829E+00  3.70628E-01 -1.81518E+00 -9.57869E-01
  -1.75449E+00  8.01964E-01 -3.54903E+00  1.77696E+00 -2.46294E+00  3.69127E-01 -1.61163E+00 -2.51873E+00 -3.45387E+00 -8.85474E-01
  -3.50536E+00 -7.51738E-01 -2.75737E+00 -3.49750E+00 -2.70024E+00 -1.49244E+00 -3.54248E-02 -7.98639E-01 -6.05833E-01 -3.93823E-01
  -5.85748E-01  1.35251E+00  5.96878E-01  2.06326E+00  2.93269E+00  5.24139E+00  4.39396E+00  7.30645E+00  7.11718E+00  9.58779E+00
   1.14873E+01  1.21561E+01  1.12865E+01  1.17377E+01  1.43654E+01  1.10041E+01  1.23699E+01  1.27947E+01  1.19447E+01  1.32958E+01
   7.87995E+00  6.92091E+00  3.99083E+00  1.64442E-01  8.18520E-01 -5.75048E-01 -4.74470E+00 -6.07191E+00 -6.06668E+00 -5.49357E+00
  -5.97027E+00 -8.49192E+00 -8.78873E+00 -6.84925E+00 -7.93139E+00 -5.40619E+00 -4.52108E+00 -1.09650E+00 -1.40126E+00  3.24262E+00
   1.91308E+00  2.41527E+00  4.99277E+00  2.43560E+00  2.92705E+00  9.29567E-01  1.28737E+00  3.30765E+00  1.85414E+00  3.61917E+00
   4.00546E+00  4.73344E+00  3.98124E+00  5.14960E+00  4.87366E+00  4.02019E+00  6.11110E+00  3.53138E+00  4.87988E+00  3.49044E+00
   4.98174E+00  5.58668E+00  3.36896E+00  3.37256E+00  2.73127E+00  3.07780E+00  5.15919E+00  2.13832E+00  6.06631E+00  3.88627E+00
   1.59522E+00  3.42663E+00  4.25724E+00  2.09912E+00  3.21570E-01  1.68309E+00 -1.78834E+00  9.57395E-01 -2.35914E-01  6.81221E-01
   1.23643E+00  5.74619E-01  7.92910E-01  1.46754E+00  2.21157E+00  7.44789E-01 -1.74926E-01  1.10362E+00 -3.34481E-01 -9.34266E-01
  -2.06348E+00  1.20336E+00 -1.22723E+00  4.73401E-01 -2.43095E-01 -3.11867E+00 -2.58847E+00 -1.40476E+00 -2.54019E+00  1.20648E+00
   9.71013E-01  9.70508E-01  1.17990E+00 -1.09825E+00 -1.21732E+00  9.19987E-01 -1.63448E+00 -1.80480E+00 -5.30383E-01  7.25964E-01
   1.33338E+00 -3.10591E+00  1.21862E+00 -1.15001E+00 -4.91273E-01  3.83300E-01 -2.03719E+00 -2.41501E-01 -3.33509E+00 -7.78794E-01
  -1.47410E+00 -2.01864E+00 -1.32694E+00 -2.24742E+00 -2.47898E+00 -7.05927E-01 -3.79219E-01  1.45057E-01 -4.74066E-01  1.32074E+00
  -1.95245E+00 -1.03866E+00  5.43489E-02 -1.36877E+00 -1.00686E-01  2.18003E+00 -4.47035E-01 -1.84285E-01  3.14016E-01 -1.13662E+00
   2.04541E-01  2.10242E-01 -8.61441E-01 -2.37183E+00 -1.83930E+00  1.21894E+00 -1.51439E+00 -1.48575E+00 -1.91076E+00 -1.45655E+00
  -3.81976E-01  5.61268E-01 -1.32527E+00  7.00183E-01 -2.58111E+00 -1.98513E+00  8.68618E-01 -2.33804E+00 -1.46399E+00 -2.39114E-01
  -1.78792E+00 -4.99895E-01 -7.88683E-01 -1.63402E+00 -1.82955E+00 -2.06001E+00 -2.17397E+00  1.16381E+00 -2.03802E+00  1.96109E-01
   1.25932E+00 -1.02189E+00  6.63324E-01 -4.82693E-01 -9.45046E-01  8.36996E-01 -3.28080E-01  1.89124E+00 -3.03152E+00  9.36043E-02
  -3.19943E-01  2.17534E+00 -1.26027E+00  1.01982E+00 -2.73532E+00  9.48176E-01 -3.30894E-01  4.78018E-01 -6.56319E-01 -1.10947E-01
  -8.98576E-01  2.45988E-01  4.27858E-02 -3.03013E-01  3.64626E-01 -1.83408E-01 -1.51408E+00  4.51601E-01  7.45828E-03 -6.05158E-01
   8.84278E-01  1.23051E-01 -1.30831E-01 -1.26020E+00 -1.07972E+00  5.44303E-01  7.57252E-02 -1.06498E+00  5.62629E-01 -3.76736E-01
  -1.73614E+00 -9.38058E-01 -2.76115E+00  1.04227E+00 -1.96319E-01 -5.29375E-01 -1.95240E+00  1.06088E+00  3.27147E-02 -2.18684E+00
  -4.14638E-01 -2.42549E+00  1.61140E+00 -1.91348E-01 -4.64192E-01  6.78464E-01 -3.05591E+00  3.59882E-01  4.96014E-01 -1.24851E+00
  -1.11629E+00  6.87887E-01  5.33136E-01  5.03874E-01 -2.15499E+00  2.02059E+00 -1.28135E+00 -1.75947E+00  1.16577E+00  1.56543E+00
  -1.81293E+00 -7.26791E-01  1.63546E+00 -1.75056E+00 -1.56134E+00 -1.15300E+00  2.99809E-01  3.31477E+00 -6.06728E-01  2.27731E-01
   2.02216E-01 -1.85620E+00  9.69602E-01 -1.42089E+00  1.26102E+00 -9.26070E-01  1.59620E-01 -5.73930E-01
 NY points of the fit to the data follow
  -3.39643E+00 -3.24563E+00 -3.31087E+00 -3.16619E+00 -3.25909E+00 -3.08483E+00 -3.20173E+00 -3.04559E+00 -3.16973E+00 -3.09976E+00
  -3.14963E+00 -3.06569E+00 -3.18394E+00 -3.16761E+00 -3.35900E+00 -3.42887E+00 -3.62642E+00 -3.72074E+00 -3.75548E+00 -3.78371E+00
  -3.70747E+00 -3.65390E+00 -3.61951E+00 -3.55167E+00 -3.58210E+00 -3.46606E+00 -3.48378E+00 -3.41747E+00 -3.34574E+00 -3.28316E+00
  -3.21659E+00 -3.22404E+00 -3.23626E+00 -3.31557E+00 -3.37211E+00 -3.41971E+00 -3.35842E+00 -3.30557E+00 -3.19967E+00 -3.14099E+00
  -3.11194E+00 -3.11137E+00 -3.24247E+00 -3.35127E+00 -3.41564E+00 -3.46419E+00 -3.41186E+00 -3.37073E+00 -3.23191E+00 -3.17550E+00
  -3.10765E+00 -3.11458E+00 -3.09560E+00 -3.08944E+00 -3.10190E+00 -3.04661E+00 -3.07216E+00 -3.04069E+00 -3.05283E+00 -3.02374E+00
  -3.03618E+00 -2.98606E+00 -2.96988E+00 -2.91776E+00 -2.89919E+00 -2.86303E+00 -2.85874E+00 -2.84699E+00 -2.83026E+00 -2.81846E+00
  -2.78261E+00 -2.77058E+00 -2.71505E+00 -2.71479E+00 -2.67333E+00 -2.69896E+00 -2.68068E+00 -2.70987E+00 -2.68081E+00 -2.70411E+00
  -2.67839E+00 -2.69845E+00 -2.70307E+00 -2.72235E+00 -2.74367E+00 -2.73914E+00 -2.78099E+00 -2.75804E+00 -2.77720E+00 -2.65360E+00
  -2.54590E+00 -2.44327E+00 -2.29563E+00 -2.28237E+00 -2.15253E+00 -2.17662E+00 -2.04930E+00 -2.07659E+00 -1.91849E+00 -1.95306E+00
  -1.76869E+00 -1.85546E+00 -1.70877E+00 -1.85908E+00 -1.80871E+00 -1.96440E+00 -1.97555E+00 -2.10815E+00 -2.16880E+00 -2.31120E+00
  -2.42562E+00 -2.52239E+00 -2.52615E+00 -2.33953E+00 -2.40656E+00 -2.03758E+00 -2.16080E+00 -1.75259E+00 -1.84115E+00 -1.45262E+00
  -1.48683E+00 -1.18700E+00 -1.26282E+00 -9.52131E-01 -1.09831E+00 -8.68549E-01 -1.11684E+00 -1.06911E+00 -1.31095E+00 -1.36595E+00
  -1.53948E+00 -1.64031E+00 -1.75882E+00 -1.92621E+00 -1.99647E+00 -2.21748E+00 -2.26274E+00 -2.54472E+00 -2.43566E+00 -2.59660E+00
  -2.38225E+00 -2.34482E+00 -2.10560E+00 -1.92700E+00 -1.83952E+00 -1.76210E+00 -1.74352E+00 -1.71340E+00 -1.80720E+00 -1.79655E+00
  -1.92449E+00 -1.85701E+00 -1.91490E+00 -1.84723E+00 -1.89407E+00 -1.87384E+00 -1.99627E+00 -1.98050E+00 -2.11743E+00 -2.07412E+00
  -2.13288E+00 -2.10882E+00 -2.13169E+00 -2.21489E+00 -2.20328E+00 -2.29191E+00 -2.27147E+00 -2.34355E+00 -2.38268E+00 -2.42773E+00
  -2.37885E+00 -2.38985E+00 -2.25385E+00 -2.27128E+00 -2.19610E+00 -2.10432E+00 -2.09866E+00 -1.86627E+00 -1.84276E+00 -1.55342E+00
  -1.45741E+00 -1.20453E+00 -1.12497E+00 -9.15113E-01 -9.04996E-01 -6.80500E-01 -6.27835E-01 -3.83334E-01 -2.66806E-01 -1.90154E-01
  -8.00757E-02 -5.50502E-02  2.39608E-02  2.17648E-02  1.66153E-02 -1.43531E-01 -3.41718E-01 -5.09712E-01 -6.63510E-01 -7.69236E-01
  -8.78770E-01 -9.11770E-01 -1.13224E+00 -1.11597E+00 -1.38849E+00 -1.31198E+00 -1.52265E+00 -1.42462E+00 -1.56601E+00 -1.37730E+00
  -1.45614E+00 -1.23336E+00 -1.25035E+00 -1.03092E+00 -9.42714E-01 -7.65065E-01 -5.50965E-01 -3.85299E-01 -9.38067E-02  5.93307E-02
   3.31797E-01  3.23112E-01  2.96653E-01  1.20573E-01 -4.88966E-02 -2.15001E-01 -3.37068E-01 -3.17256E-01 -3.94008E-01 -4.06459E-01
  -5.33836E-01 -5.19207E-01 -6.40583E-01 -6.17472E-01 -7.20431E-01 -6.71917E-01 -6.84383E-01 -6.08191E-01 -5.57727E-01 -5.05097E-01
  -3.60136E-01  1.98849E-01  1.33005E+00  1.58872E+00  2.94787E+00  2.75771E+00  4.76324E+00  6.39297E+00  8.11251E+00  9.92824E+00
   1.09216E+01  1.20489E+01  1.25967E+01  1.30634E+01  1.31185E+01  1.34369E+01  1.25874E+01  1.32466E+01  1.14134E+01  1.14169E+01
   8.74027E+00  7.27219E+00  4.39851E+00  2.69893E+00  1.97042E-01 -1.28730E+00 -3.54067E+00 -4.65153E+00 -5.85490E+00 -6.66350E+00
  -6.67049E+00 -7.86390E+00 -6.38602E+00 -6.99959E+00 -5.19561E+00 -4.12453E+00 -2.35930E+00 -5.35601E-01 -6.98482E-02  9.44352E-02
   1.91764E-01  2.39564E-01  2.84335E-01  2.96221E-01  3.13658E-01  3.18225E-01  3.45328E-01  3.67903E-01  4.13598E-01  4.28874E-01
   4.63839E-01  4.61660E-01  4.69991E-01  4.42883E-01  4.48670E-01  4.30059E-01  4.41619E-01  4.37538E-01  4.53531E-01  4.65806E-01
   4.79673E-01  4.87342E-01  4.91934E-01  5.00675E-01  5.02974E-01  5.22703E-01  5.37569E-01  5.73731E-01  6.12949E-01  6.70743E-01
   7.31623E-01  8.44818E-01  1.03930E+00  1.19007E+00  1.07685E+00  1.15566E+00  8.01037E-01  8.37687E-01  3.96014E-01  3.89929E-01
   1.15075E-03  3.67414E-01 -1.30562E-02  4.90459E-01 -7.26646E-02  3.37924E-01 -3.22190E-01  1.00506E-02 -4.43178E-01 -4.69290E-02
  -2.75935E-01  2.16521E-01  1.07206E-01  5.13480E-01  5.03333E-01  6.13722E-01  7.08348E-01  6.70265E-01  1.05412E+00  9.94878E-01
   1.42126E+00  1.22612E+00  1.41275E+00  1.01890E+00  8.17050E-01  2.03139E-01  1.08857E-01 -3.39345E-01 -3.14646E-01 -4.22253E-01
  -2.96981E-01 -9.14014E-02 -4.36248E-04  4.47189E-02  6.98549E-02  8.44301E-02  9.25205E-02  9.65905E-02  9.77789E-02  9.70958E-02
   9.49130E-02  9.17908E-02  8.78152E-02  8.33422E-02  7.83260E-02  7.30457E-02  6.74153E-02  6.16728E-02  5.56841E-02  4.96485E-02
   4.34169E-02  3.71972E-02  3.08440E-02  2.45473E-02  1.81360E-02  1.17849E-02  5.33231E-03 -1.03119E-03 -7.46370E-03 -1.37946E-02
  -2.02000E-02 -2.65122E-02 -3.28884E-02 -3.91471E-02 -4.54509E-02 -5.16390E-02 -5.78865E-02 -6.40241E-02 -7.02071E-02 -7.62588E-02
  -8.23477E-02 -8.83174E-02 -9.43375E-02 -1.00237E-01 -1.06168E-01 -1.11962E-01 -1.17789E-01 -1.23495E-01 -1.29244E-01 -1.34863E-01
  -1.40504E-01 -1.46009E-01 -1.51544E-01 -1.56957E-01 -1.62403E-01 -1.67711E-01 -1.73035E-01 -1.78222E-01 -1.83439E-01 -1.88532E-01
  -1.93651E-01 -1.98632E-01 -2.03629E-01 -2.08498E-01 -2.13400E-01 -2.18182E-01 -2.22986E-01 -2.27657E-01 -2.32350E-01 -2.36926E-01
  -2.41536E-01 -2.46029E-01 -2.50542E-01 -2.54929E-01 -2.59343E-01 -2.63646E-01 -2.67985E-01 -2.72207E-01 -2.76450E-01 -2.80573E-01
  -2.84730E-01 -2.88780E-01 -2.92865E-01 -2.96831E-01 -3.00822E-01 -3.04698E-01 -3.08615E-01 -3.12426E-01 -3.16274E-01 -3.20003E-01
  -3.23761E-01 -3.27413E-01 -3.31108E-01 -3.34700E-01 -3.38326E-01 -3.41838E-01 -3.45386E-01 -3.48835E-01 -3.52329E-01 -3.55722E-01
  -3.59146E-01 -3.62462E-01 -3.65816E-01 -3.69077E-01 -3.72381E-01 -3.75583E-01 -3.78816E-01 -3.81946E-01 -3.85118E-01 -3.88199E-01
  -3.91319E-01 -3.94336E-01 -3.97383E-01 -4.00334E-01 -4.03327E-01 -4.06230E-01 -4.09167E-01 -4.12002E-01 -4.14868E-01 -4.17641E-01
  -4.20454E-01 -4.23174E-01 -4.25923E-01 -4.28567E-01 -4.31243E-01 -4.33824E-01 -4.36441E-01 -4.38956E-01 -4.41491E-01 -4.43917E-01
  -4.46368E-01 -4.48716E-01 -4.51086E-01 -4.53339E-01 -4.55597E-01 -4.57733E-01 -4.59875E-01 -4.61893E-01 -4.63901E-01 -4.65760E-01
  -4.67587E-01 -4.69253E-01 -4.70874E-01 -4.72308E-01 -4.73653E-01 -4.74758E-01 -4.75721E-01 -4.76389E-01
 NY background values follow
    -3.630E+00   -3.621E+00   -3.611E+00   -3.601E+00   -3.591E+00   -3.581E+00   -3.571E+00   -3.561E+00   -3.551E+00   -3.540E+00
    -3.530E+00   -3.520E+00   -3.509E+00   -3.499E+00   -3.489E+00   -3.478E+00   -3.467E+00   -3.457E+00   -3.446E+00   -3.435E+00
    -3.424E+00   -3.414E+00   -3.403E+00   -3.392E+00   -3.381E+00   -3.369E+00   -3.358E+00   -3.347E+00   -3.336E+00   -3.324E+00
    -3.313E+00   -3.302E+00   -3.290E+00   -3.279E+00   -3.267E+00   -3.255E+00   -3.244E+00   -3.232E+00   -3.220E+00   -3.208E+00
    -3.196E+00   -3.184E+00   -3.172E+00   -3.160E+00   -3.148E+00   -3.135E+00   -3.123E+00   -3.111E+00   -3.098E+00   -3.086E+00
    -3.073E+00   -3.061E+00   -3.048E+00   -3.035E+00   -3.022E+00   -3.010E+00   -2.997E+00   -2.984E+00   -2.971E+00   -2.958E+00
    -2.945E+00   -2.931E+00   -2.918E+00   -2.905E+00   -2.892E+00   -2.878E+00   -2.865E+00   -2.851E+00   -2.837E+00   -2.824E+00
    -2.810E+00   -2.796E+00   -2.783E+00   -2.769E+00   -2.755E+00   -2.741E+00   -2.727E+00   -2.713E+00   -2.698E+00   -2.684E+00
    -2.670E+00   -2.656E+00   -2.641E+00   -2.627E+00   -2.612E+00   -2.598E+00   -2.583E+00   -2.568E+00   -2.554E+00   -2.539E+00
    -2.524E+00   -2.509E+00   -2.494E+00   -2.479E+00   -2.464E+00   -2.449E+00   -2.434E+00   -2.418E+00   -2.403E+00   -2.388E+00
    -2.372E+00   -2.357E+00   -2.341E+00   -2.326E+00   -2.310E+00   -2.295E+00   -2.279E+00   -2.263E+00   -2.248E+00   -2.232E+00
    -2.216E+00   -2.200E+00   -2.184E+00   -2.168E+00   -2.152E+00   -2.136E+00   -2.120E+00   -2.104E+00   -2.088E+00   -2.072E+00
    -2.055E+00   -2.039E+00   -2.023E+00   -2.007E+00   -1.990E+00   -1.974E+00   -1.958E+00   -1.941E+00   -1.925E+00   -1.908E+00
    -1.892E+00   -1.875E+00   -1.859E+00   -1.842E+00   -1.826E+00   -1.809E+00   -1.793E+00   -1.776E+00   -1.759E+00   -1.743E+00
    -1.726E+00   -1.709E+00   -1.693E+00   -1.676E+00   -1.659E+00   -1.643E+00   -1.626E+00   -1.609E+00   -1.593E+00   -1.576E+00
    -1.559E+00   -1.543E+00   -1.526E+00   -1.509E+00   -1.492E+00   -1.476E+00   -1.459E+00   -1.442E+00   -1.426E+00   -1.409E+00
    -1.392E+00   -1.376E+00   -1.359E+00   -1.343E+00   -1.326E+00   -1.310E+00   -1.293E+00   -1.276E+00   -1.260E+00   -1.243E+00
    -1.227E+00   -1.211E+00   -1.194E+00   -1.178E+00   -1.161E+00   -1.145E+00   -1.129E+00   -1.113E+00   -1.096E+00   -1.080E+00
    -1.064E+00   -1.048E+00   -1.032E+00   -1.016E+00   -9.998E-01   -9.839E-01   -9.680E-01   -9.521E-01   -9.362E-01   -9.204E-01
    -9.047E-01   -8.889E-01   -8.732E-01   -8.576E-01   -8.419E-01   -8.264E-01   -8.108E-01   -7.953E-01   -7.798E-01   -7.644E-01
    -7.490E-01   -7.336E-01   -7.183E-01   -7.030E-01   -6.877E-01   -6.725E-01   -6.573E-01   -6.421E-01   -6.270E-01   -6.119E-01
    -5.968E-01   -5.818E-01   -5.668E-01   -5.518E-01   -5.369E-01   -5.220E-01   -5.071E-01   -4.923E-01   -4.774E-01   -4.627E-01
    -4.479E-01   -4.332E-01   -4.185E-01   -4.039E-01   -3.892E-01   -3.746E-01   -3.601E-01   -3.456E-01   -3.311E-01   -3.166E-01
    -3.022E-01   -2.878E-01   -2.735E-01   -2.592E-01   -2.450E-01   -2.309E-01   -2.168E-01   -2.028E-01   -1.889E-01   -1.751E-01
    -1.613E-01   -1.477E-01   -1.341E-01   -1.206E-01   -1.073E-01   -9.402E-02   -8.089E-02   -6.788E-02   -5.498E-02   -4.221E-02
    -2.958E-02   -1.708E-02   -4.718E-03    7.498E-03    1.957E-02    3.148E-02    4.324E-02    5.483E-02    6.626E-02    7.751E-02
     8.860E-02    9.950E-02    1.102E-01    1.207E-01    1.311E-01    1.412E-01    1.512E-01    1.609E-01    1.704E-01    1.797E-01
     1.888E-01    1.977E-01    2.063E-01    2.147E-01    2.229E-01    2.308E-01    2.385E-01    2.460E-01    2.533E-01    2.603E-01
     2.671E-01    2.737E-01    2.800E-01    2.861E-01    2.920E-01    2.977E-01    3.031E-01    3.083E-01    3.132E-01    3.180E-01
     3.224E-01    3.267E-01    3.307E-01    3.345E-01    3.381E-01    3.414E-01    3.445E-01    3.474E-01    3.500E-01    3.524E-01
     3.546E-01    3.565E-01    3.582E-01    3.597E-01    3.610E-01    3.620E-01    3.627E-01    3.633E-01    3.636E-01    3.637E-01
     3.635E-01    3.631E-01    3.625E-01    3.617E-01    3.606E-01    3.593E-01    3.577E-01    3.559E-01    3.539E-01    3.517E-01
     3.492E-01    3.466E-01    3.437E-01    3.406E-01    3.373E-01    3.339E-01    3.303E-01    3.264E-01    3.224E-01    3.183E-01
     3.140E-01    3.095E-01    3.049E-01    3.001E-01    2.952E-01    2.901E-01    2.850E-01    2.797E-01    2.743E-01    2.688E-01
     2.631E-01    2.574E-01    2.516E-01    2.457E-01    2.397E-01    2.336E-01    2.275E-01    2.213E-01    2.150E-01    2.087E-01
     2.023E-01    1.959E-01    1.894E-01    1.829E-01    1.764E-01    1.699E-01    1.633E-01    1.568E-01    1.502E-01    1.436E-01
     1.370E-01    1.305E-01    1.240E-01    1.174E-01    1.109E-01    1.045E-01    9.802E-02    9.159E-02    8.518E-02    7.879E-02
     7.244E-02    6.610E-02    5.980E-02    5.352E-02    4.726E-02    4.104E-02    3.484E-02    2.868E-02    2.254E-02    1.644E-02
     1.036E-02    4.325E-03   -1.682E-03   -7.655E-03   -1.359E-02   -1.950E-02   -2.536E-02   -3.119E-02   -3.699E-02   -4.274E-02
    -4.846E-02   -5.414E-02   -5.977E-02   -6.537E-02   -7.093E-02   -7.644E-02   -8.191E-02   -8.734E-02   -9.272E-02   -9.806E-02
    -1.034E-01   -1.086E-01   -1.138E-01   -1.190E-01   -1.241E-01   -1.291E-01   -1.341E-01   -1.391E-01   -1.440E-01   -1.488E-01
    -1.537E-01   -1.584E-01   -1.631E-01   -1.678E-01   -1.724E-01   -1.770E-01   -1.815E-01   -1.860E-01   -1.904E-01   -1.948E-01
    -1.992E-01   -2.035E-01   -2.078E-01   -2.120E-01   -2.162E-01   -2.203E-01   -2.244E-01   -2.285E-01   -2.325E-01   -2.365E-01
    -2.405E-01   -2.444E-01   -2.483E-01   -2.521E-01   -2.559E-01   -2.597E-01   -2.634E-01   -2.671E-01   -2.708E-01   -2.744E-01
    -2.781E-01   -2.816E-01   -2.852E-01   -2.887E-01   -2.922E-01   -2.957E-01   -2.991E-01   -3.025E-01   -3.059E-01   -3.092E-01
    -3.125E-01   -3.158E-01   -3.191E-01   -3.224E-01   -3.256E-01   -3.288E-01   -3.320E-01   -3.351E-01   -3.383E-01   -3.414E-01
    -3.445E-01   -3.476E-01   -3.506E-01   -3.536E-01   -3.566E-01   -3.596E-01   -3.626E-01   -3.656E-01   -3.685E-01   -3.714E-01
    -3.743E-01   -3.772E-01   -3.801E-01   -3.830E-01   -3.858E-01   -3.887E-01   -3.915E-01   -3.943E-01   -3.971E-01   -3.998E-01
    -4.026E-01   -4.054E-01   -4.081E-01   -4.108E-01   -4.136E-01   -4.163E-01   -4.190E-01   -4.217E-01   -4.243E-01   -4.270E-01
    -4.297E-01   -4.324E-01   -4.350E-01   -4.377E-01   -4.403E-01   -4.429E-01   -4.456E-01   -4.482E-01
 Ala      Conc. = 8.79E+01
