 LCModel (Version 6.3-1L) Copyright: S.W. Provencher.          Ref.: Magn. Reson. Med. 30:672-679 (1993).                
 Slice#2 Row#12 Col#10  PD_24_press_2_raw_act
 36 lines in following concentration table = NCONC+1
    Conc.  %SD /Cr+PCr  Metabolite                                         
 1.58E+03  11%  23.723 Ala                                                 
    8.932 225%   0.134 Asp                                                 
   66.611  47%   1.000 Cr                                                  
    0.000 999%   0.000 PCr                                                 
    6.187 196% 9.3E-02 GABA                                                
    7.042 172%   0.106 Glc                                                 
    0.000 999%   0.000 Gln                                                 
   48.557 804%   0.729 Glu                                                 
    0.000 999%   0.000 GPC                                                 
   33.691  36%   0.506 PCh                                                 
  103.218  56%   1.550 GSH                                                 
   10.860 999%   0.163 Ins                                                 
    0.000 999%   0.000 Lac                                                 
   45.683  81%   0.686 NAA                                                 
    0.000 999%   0.000 NAAG                                                
    3.480 114% 5.2E-02 Scyllo                                              
   14.458 137%   0.217 Tau                                                 
   25.666  97%   0.385 -CrCH2                                              
   33.691  36%   0.506 GPC+PCh                                             
   45.683  81%   0.686 NAA+NAAG                                            
   66.611  47%   1.000 Cr+PCr                                              
   48.557 804%   0.729 Glu+Gln                                             
    0.000 999%   0.000 Lip13a                                              
    0.000 999%   0.000 Lip13b                                              
    0.000 999%   0.000 Lip09                                               
  160.601  25%   2.411 MM09                                                
    0.000 999%   0.000 Lip20                                               
  240.566  25%   3.612 MM20                                                
   48.056  26%   0.721 MM12                                                
  127.182  24%   1.909 MM14                                                
   62.353  26%   0.936 MM17                                                
    0.000 999%   0.000 Lip13a+Lip13b                                       
  175.239  24%   2.631 MM14+Lip13a+Lip13b+MM12                             
  160.601  25%   2.411 MM09+Lip09                                          
  240.566  25%   3.612 MM20+Lip20                                          
   6 lines in following misc. output table
  FWHM = 0.183 ppm    S/N =   1                                            
  Data shift = 0.099 ppm                                                   
  Ph: 104 deg     -19.3 deg/ppm                                            
  alphaB,S = 8.5E+01,   4.0E+02                                            
    6 spline knots.   Ns = 9(2)                                            
   3 inflections.     1 extrema                                            
  498 points on ppm-axis = NY
      4.000000     3.992357     3.984714     3.977070     3.969427     3.961784     3.954141     3.946497     3.938854     3.931211
      3.923568     3.915925     3.908281     3.900638     3.892995     3.885352     3.877708     3.870065     3.862422     3.854779
      3.847136     3.839492     3.831849     3.824206     3.816563     3.808919     3.801276     3.793633     3.785990     3.778347
      3.770703     3.763060     3.755417     3.747774     3.740130     3.732487     3.724844     3.717201     3.709558     3.701914
      3.694271     3.686628     3.678985     3.671341     3.663698     3.656055     3.648412     3.640769     3.633125     3.625482
      3.617839     3.610196     3.602552     3.594909     3.587266     3.579623     3.571980     3.564336     3.556693     3.549050
      3.541407     3.533763     3.526120     3.518477     3.510834     3.503191     3.495547     3.487904     3.480261     3.472618
      3.464974     3.457331     3.449688     3.442045     3.434402     3.426758     3.419115     3.411472     3.403829     3.396185
      3.388542     3.380899     3.373256     3.365613     3.357969     3.350326     3.342683     3.335040     3.327396     3.319753
      3.312110     3.304467     3.296824     3.289180     3.281537     3.273894     3.266251     3.258607     3.250964     3.243321
      3.235678     3.228034     3.220391     3.212748     3.205105     3.197462     3.189818     3.182175     3.174532     3.166889
      3.159245     3.151602     3.143959     3.136316     3.128673     3.121029     3.113386     3.105743     3.098100     3.090456
      3.082813     3.075170     3.067527     3.059884     3.052240     3.044597     3.036954     3.029311     3.021667     3.014024
      3.006381     2.998738     2.991095     2.983451     2.975808     2.968165     2.960522     2.952878     2.945235     2.937592
      2.929949     2.922306     2.914662     2.907019     2.899376     2.891733     2.884089     2.876446     2.868803     2.861160
      2.853517     2.845873     2.838230     2.830587     2.822944     2.815300     2.807657     2.800014     2.792371     2.784728
      2.777084     2.769441     2.761798     2.754155     2.746511     2.738868     2.731225     2.723582     2.715939     2.708295
      2.700652     2.693009     2.685366     2.677722     2.670079     2.662436     2.654793     2.647150     2.639506     2.631863
      2.624220     2.616577     2.608933     2.601290     2.593647     2.586004     2.578361     2.570717     2.563074     2.555431
      2.547788     2.540144     2.532501     2.524858     2.517215     2.509572     2.501928     2.494285     2.486642     2.478999
      2.471355     2.463712     2.456069     2.448426     2.440783     2.433139     2.425496     2.417853     2.410210     2.402566
      2.394923     2.387280     2.379637     2.371994     2.364350     2.356707     2.349064     2.341421     2.333777     2.326134
      2.318491     2.310848     2.303205     2.295561     2.287918     2.280275     2.272632     2.264988     2.257345     2.249702
      2.242059     2.234416     2.226772     2.219129     2.211486     2.203843     2.196199     2.188556     2.180913     2.173270
      2.165627     2.157983     2.150340     2.142697     2.135054     2.127410     2.119767     2.112124     2.104481     2.096838
      2.089194     2.081551     2.073908     2.066265     2.058621     2.050978     2.043335     2.035692     2.028049     2.020405
      2.012762     2.005119     1.997476     1.989833     1.982190     1.974546     1.966903     1.959260     1.951617     1.943974
      1.936331     1.928688     1.921045     1.913402     1.905759     1.898115     1.890472     1.882829     1.875186     1.867543
      1.859900     1.852257     1.844614     1.836971     1.829327     1.821684     1.814041     1.806398     1.798755     1.791112
      1.783469     1.775826     1.768183     1.760540     1.752896     1.745253     1.737610     1.729967     1.722324     1.714681
      1.707038     1.699395     1.691752     1.684108     1.676465     1.668822     1.661179     1.653536     1.645893     1.638250
      1.630607     1.622964     1.615321     1.607677     1.600034     1.592391     1.584748     1.577105     1.569462     1.561819
      1.554176     1.546533     1.538890     1.531246     1.523603     1.515960     1.508317     1.500674     1.493031     1.485388
      1.477745     1.470102     1.462458     1.454815     1.447172     1.439529     1.431886     1.424243     1.416600     1.408957
      1.401314     1.393671     1.386027     1.378384     1.370741     1.363098     1.355455     1.347812     1.340169     1.332526
      1.324883     1.317240     1.309596     1.301953     1.294310     1.286667     1.279024     1.271381     1.263738     1.256095
      1.248452     1.240808     1.233165     1.225522     1.217879     1.210236     1.202593     1.194950     1.187307     1.179664
      1.172021     1.164377     1.156734     1.149091     1.141448     1.133805     1.126162     1.118519     1.110876     1.103233
      1.095590     1.087946     1.080303     1.072660     1.065017     1.057374     1.049731     1.042088     1.034445     1.026802
      1.019158     1.011515     1.003872     0.996229     0.988586     0.980943     0.973300     0.965657     0.958014     0.950371
      0.942727     0.935084     0.927441     0.919798     0.912155     0.904512     0.896869     0.889226     0.881583     0.873940
      0.866296     0.858653     0.851010     0.843367     0.835724     0.828081     0.820438     0.812795     0.805152     0.797508
      0.789865     0.782222     0.774579     0.766936     0.759293     0.751650     0.744007     0.736364     0.728721     0.721077
      0.713434     0.705791     0.698148     0.690505     0.682862     0.675219     0.667576     0.659933     0.652290     0.644646
      0.637003     0.629360     0.621717     0.614074     0.606431     0.598788     0.591145     0.583502     0.575858     0.568215
      0.560572     0.552929     0.545286     0.537643     0.530000     0.522357     0.514714     0.507071     0.499427     0.491784
      0.484141     0.476498     0.468855     0.461212     0.453569     0.445925     0.438282     0.430639     0.422996     0.415353
      0.407710     0.400067     0.392424     0.384780     0.377137     0.369494     0.361851     0.354208     0.346565     0.338922
      0.331278     0.323635     0.315992     0.308349     0.300706     0.293063     0.285420     0.277777     0.270133     0.262490
      0.254847     0.247204     0.239561     0.231918     0.224275     0.216631     0.208988     0.201345
 NY phased data points follow
  -1.41528E+00 -1.74803E-01 -1.36079E+00 -1.92978E+00 -8.75945E-01 -9.05227E-01 -2.67674E-01 -2.90414E+00 -8.61029E-01  6.15495E-01
  -6.56227E-01 -1.35276E-01  7.29543E-01  5.14673E-01 -1.36596E+00 -9.08278E-01  1.01202E+00 -1.27332E+00 -3.91133E-01 -1.20988E+00
   7.28640E-01  4.25185E-01  6.87557E-01  3.40346E-01 -1.17339E+00  4.44735E-01 -2.00236E-01 -7.98978E-01  6.53806E-01  1.73696E+00
  -8.27164E-01 -5.55832E-01  3.81980E-02 -1.31305E-02  5.24909E-02  5.80471E-02 -2.27311E-01  5.85392E-01  1.13887E-01 -9.58154E-01
  -8.14074E-01  1.11740E+00 -1.13520E+00  1.94462E+00  6.25378E-01  6.28308E-01 -3.75518E-01 -1.24928E+00 -9.28294E-01 -1.89866E+00
  -2.10438E-01  8.07597E-01 -1.20197E+00 -2.41666E-01  3.44307E-01 -2.74588E-01 -7.35397E-01 -5.03082E-01  1.59722E+00  1.02243E+00
  -2.88502E-01  4.73837E-01  3.96940E-01 -1.35919E+00  1.17527E+00 -9.14731E-01 -1.33234E+00 -1.59226E-01 -1.35349E+00  6.16574E-01
  -2.45059E+00 -1.82733E+00  7.43543E-01  5.01945E-02 -1.26900E+00 -8.71584E-01 -5.11242E-01 -1.69991E+00 -6.14735E-01 -7.29830E-01
   5.58566E-01 -1.45392E-01 -2.04891E-01 -2.64240E-02  1.49483E+00 -5.17679E-01  1.98132E+00  2.72966E-01 -1.23023E+00  8.49582E-01
   1.61684E+00  4.59504E-01 -7.52655E-01 -3.41908E-02  5.18088E-02  1.42494E+00  1.88920E+00 -6.84834E-01  2.64364E+00  9.40380E-01
   1.90825E-01  1.15090E+00 -4.30429E-01  2.11159E+00  6.82631E-01 -1.25458E+00  7.49618E-01 -2.68844E-01 -1.24990E+00  1.12180E+00
   8.12611E-01  2.14890E+00  2.69335E+00 -2.90658E-02  1.16483E+00 -1.75609E-01 -1.14965E-01 -5.00522E-01 -5.09885E-01  1.31465E+00
   1.28352E+00 -1.83271E-01  5.85009E-01  1.21081E+00  6.04891E-01  1.74256E+00  1.26567E+00  1.92579E+00  1.37357E+00  9.20031E-01
   1.92130E+00 -1.20797E-02  6.69424E-01  1.22600E+00  7.36566E-01 -2.93408E-01  6.36858E-01  2.61172E-01  1.25700E+00 -9.01070E-01
  -3.10242E-01  3.79797E-01  6.90237E-01 -4.72781E-02 -2.07612E-01 -1.32219E-01  7.34356E-01 -9.56648E-01  6.53598E-01  5.23695E-01
   1.98691E+00  1.73160E-01 -1.47690E+00  9.77502E-01  9.28503E-01  1.10788E+00  2.10051E-01  2.09019E+00 -2.17980E+00 -8.99287E-02
   3.68466E-01 -1.33595E-01 -6.72471E-01 -1.06198E+00 -1.03083E+00 -2.10702E+00 -3.81190E-01 -9.88475E-01  5.07350E-01 -1.34317E+00
   4.68932E-01 -3.58020E-01  2.33084E+00  9.75318E-01  1.38448E-01 -9.28761E-01  5.83033E-01 -6.90711E-01  9.22084E-01 -1.22039E-01
  -1.34138E+00 -1.56704E+00  3.04130E-01 -5.05821E-01  3.59778E-01 -1.84970E-01 -1.07353E-01 -1.01943E-01  1.14135E+00  5.12260E-02
   1.40863E+00 -2.75000E-01  6.66597E-01  5.39082E-01 -4.72225E-02 -6.92873E-01 -3.84840E-01 -3.69807E-01  2.15157E+00  1.09301E+00
   9.45782E-01  3.21885E-01 -1.59255E+00  1.96985E-01 -2.72699E-01 -1.61473E+00  1.06733E+00 -5.94699E-01 -1.67203E+00  1.65460E+00
  -1.16773E+00  1.85397E-01 -1.09110E+00  3.72595E-01  2.86422E-01 -6.90539E-01  9.21812E-01 -5.75015E-01  3.54234E-01  3.12853E-01
  -5.21629E-01 -5.15820E-01 -2.64274E-01  4.22693E-01 -7.00469E-01  1.49529E-01 -6.86744E-01 -8.12002E-02  4.40704E-01 -6.65381E-01
  -5.52387E-01 -1.10412E+00 -7.43315E-01  2.77423E-01 -1.58118E-01 -1.23449E+00 -1.52288E-01 -2.99826E-01 -6.41899E-01 -3.03172E-01
   5.17564E-01 -6.46390E-01  1.49046E-01  7.54479E-02  2.51834E+00  2.67006E+00  1.79167E+00  1.50609E+00  8.27323E-01 -2.59784E-01
  -1.08004E-01  2.42604E+00  3.52001E-01  1.37672E-01  1.05894E+00  2.06257E+00  1.31657E+00  1.97413E+00  5.32105E-01  4.62695E-01
   2.11615E+00  3.68414E-01 -6.94251E-01 -8.92281E-01  9.44323E-01 -8.09074E-01 -2.51854E-01  3.52396E+00  1.07694E+00  9.36063E-01
   2.97907E+00  2.28678E+00  2.10119E+00 -4.72444E-01  1.37908E+00  2.26652E+00  1.38282E+00  3.98613E+00 -3.53421E-02  3.21404E-01
   2.17072E+00 -7.48185E-01  1.53600E+00  1.62102E+00 -9.67109E-01 -8.34317E-02 -3.44667E-01 -1.50174E+00  1.28525E+00 -2.35942E+00
  -3.70030E-01 -1.15994E+00 -1.79620E+00 -1.80392E+00 -2.06538E+00 -2.02661E+00 -1.28093E+00 -1.43323E+00  1.20852E-01 -1.72211E+00
  -2.89880E+00  9.35320E-02  6.65536E-01  7.97340E-01 -3.17325E-01  6.26200E-01  2.38043E+00  2.65458E-01  2.24860E+00  3.78862E+00
   4.20059E+00  3.42000E+00  3.78923E+00  5.91829E+00  2.82505E+00  2.02699E+00  3.12987E+00  2.35275E+00  5.04550E+00  4.23183E+00
   4.87923E+00  4.87076E+00  7.11537E+00  5.47802E+00  6.52522E+00  4.81583E+00  4.84844E+00  6.08100E+00  6.47705E+00  3.71862E+00
   3.31804E+00  5.06485E+00  3.42639E+00  4.24787E+00  3.28409E+00  3.12902E+00  2.58632E+00  5.95222E-01  1.64016E+00  1.61915E-01
   3.32435E+00  1.63181E+00  2.43988E+00  2.00965E+00  9.95338E-01  1.75962E+00  2.81537E+00  3.61323E-01  1.67451E+00  3.07353E+00
   1.21790E+00  7.92655E-01  1.78539E+00  2.78861E+00  1.81662E+00 -1.29804E+00  3.13751E+00  9.37370E-01  8.57101E-01  1.34988E+00
   3.00262E+00  6.61326E-01 -1.21728E-01  1.34145E-01  1.98780E+00  5.35201E-01 -2.05884E-01  3.63542E-01 -3.42712E-01  3.37416E-01
   7.99126E-01  2.04640E-01  1.43567E+00  3.12798E-01 -1.53790E+00  2.38285E+00 -3.57733E-01 -1.70947E-01  1.67594E+00 -7.05574E-01
  -4.43480E-01  1.43730E+00 -1.08992E-01  3.75255E-01  3.66302E-02 -4.24704E-01 -1.30678E+00 -1.06317E+00  7.22780E-01 -1.66145E+00
   3.48568E-01  5.88698E-01  4.60901E-01 -1.06153E-02 -3.63194E-01 -3.22087E-01 -2.51171E-01  1.80605E+00  4.54149E-01 -1.99985E-01
   4.17153E-01 -2.81026E-01  5.23397E-01  6.09161E-01  3.39700E-02  1.20335E+00  1.00229E+00  1.30290E+00  5.34162E-03  2.30954E+00
  -6.36050E-01 -1.32393E+00  8.11850E-04 -1.35350E-01 -6.09411E-01  1.72452E-01 -1.94028E+00  3.82452E-01  9.75195E-01 -2.09259E-01
   2.45084E+00  1.69211E-01 -1.51580E+00 -1.11863E+00  1.37162E+00 -1.14601E-03  2.57633E+00  2.59361E+00  1.20041E+00  1.36379E+00
   4.77351E-02  1.77934E+00  9.54884E-01 -1.03488E+00 -8.04994E-03  1.55175E+00  1.35952E+00  1.25147E-01  3.32942E-01  6.64898E-01
   1.52058E+00 -8.87136E-01 -5.70248E-01 -9.08931E-01  1.76957E+00  5.94157E-01  3.02996E-01  2.76459E+00  3.62953E-01  4.35744E-01
   1.37306E+00  1.23717E-01  1.66986E+00 -3.96754E-01 -3.50064E-01  3.84824E-01  1.18896E+00  7.31747E-01  1.92726E+00 -5.18783E-01
   3.19430E-01 -1.33279E+00  1.23540E+00  1.13557E+00  1.04354E+00 -7.23895E-01 -2.35837E-01 -7.75594E-01  2.09541E+00  1.66998E+00
   8.90024E-01  1.36741E+00  1.12778E+00  1.36592E+00  1.13879E+00  1.67300E+00 -3.91068E-01  2.27418E-02  1.60519E+00 -2.19744E-01
   1.48731E+00  1.58436E+00  7.78245E-01  8.38777E-01  3.07597E-01 -3.02426E-02  2.57168E+00  4.02718E-01  1.42884E+00  2.35485E+00
   1.19330E+00  6.35083E-01 -1.45233E-01  2.33175E+00 -1.02134E+00  1.09368E+00 -1.48720E-01  1.03784E+00
 NY points of the fit to the data follow
  -4.59849E-01 -4.91872E-01 -4.77504E-01 -4.92100E-01 -4.56697E-01 -4.36435E-01 -3.48442E-01 -2.59826E-01 -2.11454E-01 -1.38777E-01
  -1.62533E-01 -1.18364E-01 -1.68451E-01 -1.55154E-01 -2.49007E-01 -1.66223E-01 -2.25813E-01 -8.35739E-02 -1.25303E-01  4.31891E-02
   4.38040E-03  1.65530E-01  7.83484E-02  1.96204E-01  9.03173E-02  1.76577E-01  8.84365E-02  1.45417E-01  9.09989E-02  1.17041E-01
   9.49339E-02  6.57170E-02  8.52485E-02  8.00639E-03  8.75035E-02 -5.67589E-02  7.36539E-02 -1.25229E-01  4.75753E-02 -2.01086E-01
  -1.81835E-02 -2.88326E-01 -7.81686E-02 -3.52539E-01 -1.25873E-01 -3.77868E-01 -1.54701E-01 -3.65504E-01 -2.19715E-01 -4.47753E-01
  -3.50080E-01 -5.54764E-01 -4.77056E-01 -6.35842E-01 -5.99540E-01 -6.60521E-01 -5.92666E-01 -6.05016E-01 -5.43287E-01 -5.26569E-01
  -4.83913E-01 -4.59594E-01 -4.53808E-01 -4.46804E-01 -4.47902E-01 -4.43010E-01 -4.45103E-01 -4.39112E-01 -4.37054E-01 -4.29232E-01
  -4.25229E-01 -4.18470E-01 -4.14135E-01 -4.09426E-01 -4.04273E-01 -4.01069E-01 -3.95251E-01 -3.93905E-01 -3.86673E-01 -3.86829E-01
  -3.77020E-01 -3.76958E-01 -3.64700E-01 -3.62295E-01 -3.37046E-01 -2.82701E-01 -2.29016E-01 -1.58939E-01 -8.97403E-02 -2.84776E-02
   4.57987E-02  8.74052E-02  1.62479E-01  1.94054E-01  2.73928E-01  3.03211E-01  3.90052E-01  4.15708E-01  5.09214E-01  5.25740E-01
   6.22347E-01  6.20490E-01  7.13954E-01  6.90390E-01  7.77900E-01  7.31116E-01  8.11200E-01  7.45229E-01  8.23728E-01  7.66156E-01
   8.43002E-01  7.69944E-01  8.34266E-01  7.38622E-01  7.87274E-01  6.81684E-01  7.22446E-01  6.18048E-01  6.49726E-01  5.53280E-01
   5.77543E-01  4.98427E-01  5.29616E-01  4.85281E-01  5.47098E-01  5.48781E-01  6.39811E-01  6.22410E-01  7.17432E-01  6.72368E-01
   7.64589E-01  6.91129E-01  7.76308E-01  6.70700E-01  7.45525E-01  6.08443E-01  6.71289E-01  5.08631E-01  5.60556E-01  3.83973E-01
   4.25620E-01  2.47388E-01  2.79445E-01  1.08063E-01  1.34176E-01 -1.98255E-02  5.55161E-03 -1.15594E-01 -8.57282E-02 -1.58577E-01
  -1.26762E-01 -1.87146E-01 -1.65234E-01 -2.11860E-01 -1.98008E-01 -2.29744E-01 -2.23144E-01 -2.51550E-01 -2.61865E-01 -2.85821E-01
  -3.05808E-01 -3.20976E-01 -3.38551E-01 -3.46226E-01 -3.56995E-01 -3.62376E-01 -3.69786E-01 -3.76850E-01 -3.83437E-01 -3.92346E-01
  -3.97784E-01 -4.05390E-01 -4.05058E-01 -4.07257E-01 -3.98839E-01 -3.98153E-01 -3.87109E-01 -3.87942E-01 -3.78665E-01 -3.85345E-01
  -3.84954E-01 -3.89159E-01 -3.89611E-01 -3.86384E-01 -3.84134E-01 -3.71381E-01 -3.65630E-01 -3.45449E-01 -3.40162E-01 -3.15792E-01
  -3.13148E-01 -2.84096E-01 -2.85688E-01 -2.51523E-01 -2.57326E-01 -2.18322E-01 -2.26468E-01 -1.84496E-01 -1.91188E-01 -1.50717E-01
  -1.56288E-01 -1.20729E-01 -1.26440E-01 -9.81819E-02 -1.04370E-01 -8.31585E-02 -8.34661E-02 -6.78969E-02 -6.12759E-02 -4.90421E-02
  -3.33811E-02 -2.26908E-02  1.68024E-03  6.71032E-03  3.04511E-02  2.93375E-02  4.98463E-02  4.56326E-02  6.48899E-02  6.52696E-02
   8.66556E-02  9.06112E-02  1.10695E-01  1.11721E-01  1.25208E-01  1.22752E-01  1.31616E-01  1.33763E-01  1.50115E-01  1.60961E-01
   1.87681E-01  2.05539E-01  2.38484E-01  2.58301E-01  2.94124E-01  3.13205E-01  3.53714E-01  3.74081E-01  4.24437E-01  4.44632E-01
   5.01501E-01  5.24502E-01  6.06473E-01  6.39981E-01  7.23865E-01  7.62488E-01  8.37200E-01  8.78372E-01  9.34958E-01  9.76863E-01
   1.01693E+00  1.05934E+00  1.08063E+00  1.12167E+00  1.11884E+00  1.16425E+00  1.14236E+00  1.19399E+00  1.15349E+00  1.20938E+00
   1.15100E+00  1.19921E+00  1.11664E+00  1.15558E+00  1.05609E+00  1.08650E+00  9.75071E-01  9.98235E-01  8.84210E-01  8.96712E-01
   7.82108E-01  7.81511E-01  6.71426E-01  6.58701E-01  5.58862E-01  5.37730E-01  4.52224E-01  4.26471E-01  3.59108E-01  3.33261E-01
   2.90092E-01  2.72391E-01  2.62398E-01  2.58467E-01  2.55370E-01  2.56212E-01  2.58535E-01  2.63524E-01  2.70610E-01  2.80418E-01
   2.92567E-01  3.07664E-01  3.25484E-01  3.47165E-01  3.72202E-01  4.02516E-01  4.37309E-01  4.78805E-01  5.26315E-01  5.82587E-01
   6.47107E-01  7.23498E-01  8.11985E-01  9.17457E-01  1.04234E+00  1.19494E+00  1.38486E+00  1.63700E+00  2.01041E+00  2.55343E+00
   2.80213E+00  3.27677E+00  3.29185E+00  3.56540E+00  3.33973E+00  3.35669E+00  2.91193E+00  3.09142E+00  2.83801E+00  3.16796E+00
   3.10335E+00  3.42957E+00  3.44982E+00  3.62355E+00  3.59201E+00  3.56696E+00  3.49682E+00  3.31318E+00  3.27354E+00  2.95197E+00
   2.99967E+00  2.56150E+00  2.72735E+00  2.13111E+00  2.43672E+00  1.70810E+00  2.19715E+00  1.40511E+00  2.10993E+00  1.35258E+00
   2.27671E+00  1.57622E+00  2.62170E+00  1.95460E+00  3.01352E+00  2.39628E+00  3.39155E+00  2.90753E+00  3.76191E+00  3.45047E+00
   3.87162E+00  3.38513E+00  3.44981E+00  2.88560E+00  2.66005E+00  2.12939E+00  1.75764E+00  1.52531E+00  1.35999E+00  1.23519E+00
   1.13619E+00  1.05644E+00  9.89749E-01  9.33955E-01  8.85423E-01  8.43629E-01  8.06052E-01  7.72977E-01  7.42475E-01  7.15284E-01
   6.89815E-01  6.67081E-01  6.45714E-01  6.26910E-01  6.09443E-01  5.94619E-01  5.81291E-01  5.70829E-01  5.62133E-01  5.56616E-01
   5.53204E-01  5.53323E-01  5.55903E-01  5.62367E-01  5.71633E-01  5.85106E-01  6.01663E-01  6.22646E-01  6.46850E-01  6.75510E-01
   7.07285E-01  7.43250E-01  7.81870E-01  8.24000E-01  8.67865E-01  9.14075E-01  9.60612E-01  1.00785E+00  1.05358E+00  1.09802E+00
   1.13885E+00  1.17626E+00  1.20801E+00  1.23444E+00  1.25350E+00  1.26585E+00  1.26984E+00  1.26652E+00  1.25468E+00  1.23586E+00
   1.20927E+00  1.17685E+00  1.13814E+00  1.09534E+00  1.04819E+00  9.98985E-01  9.47472E-01  8.95875E-01  8.43810E-01  7.93319E-01
   7.43792E-01  6.97025E-01  6.52152E-01  6.10719E-01  5.71630E-01  5.36225E-01  5.03226E-01  4.73822E-01  4.46617E-01  4.22718E-01
   4.00668E-01  3.81540E-01  3.63861E-01  3.48700E-01  3.34598E-01  3.22646E-01  3.11409E-01  3.02010E-01  2.93039E-01  2.85649E-01
   2.78460E-01  2.72650E-01  2.66865E-01  2.62305E-01  2.57632E-01  2.54064E-01  2.50277E-01  2.47507E-01  2.44438E-01  2.42316E-01
   2.39832E-01  2.38239E-01  2.36236E-01  2.35084E-01  2.33485E-01  2.32702E-01  2.31440E-01  2.30967E-01  2.29992E-01  2.29786E-01
   2.29057E-01  2.29079E-01  2.28561E-01  2.28780E-01  2.28447E-01  2.28839E-01  2.28667E-01  2.29210E-01  2.29179E-01  2.29855E-01
   2.29950E-01  2.30745E-01  2.30952E-01  2.31853E-01  2.32159E-01  2.33154E-01  2.33552E-01  2.34635E-01  2.35114E-01  2.36275E-01
   2.36829E-01  2.38063E-01  2.38688E-01  2.39990E-01  2.40680E-01  2.42044E-01  2.42796E-01  2.44224E-01  2.45038E-01  2.46527E-01
   2.47401E-01  2.48951E-01  2.49891E-01  2.51512E-01  2.52526E-01  2.54228E-01  2.55332E-01  2.57140E-01
 NY background values follow
    -7.047E-01   -7.029E-01   -7.010E-01   -6.992E-01   -6.973E-01   -6.955E-01   -6.936E-01   -6.918E-01   -6.899E-01   -6.881E-01
    -6.862E-01   -6.844E-01   -6.825E-01   -6.807E-01   -6.788E-01   -6.770E-01   -6.751E-01   -6.733E-01   -6.714E-01   -6.696E-01
    -6.677E-01   -6.659E-01   -6.640E-01   -6.622E-01   -6.603E-01   -6.585E-01   -6.566E-01   -6.548E-01   -6.529E-01   -6.511E-01
    -6.492E-01   -6.474E-01   -6.455E-01   -6.437E-01   -6.418E-01   -6.400E-01   -6.381E-01   -6.363E-01   -6.344E-01   -6.326E-01
    -6.307E-01   -6.289E-01   -6.270E-01   -6.252E-01   -6.233E-01   -6.215E-01   -6.196E-01   -6.178E-01   -6.159E-01   -6.141E-01
    -6.122E-01   -6.104E-01   -6.085E-01   -6.067E-01   -6.048E-01   -6.030E-01   -6.011E-01   -5.993E-01   -5.974E-01   -5.956E-01
    -5.937E-01   -5.919E-01   -5.900E-01   -5.882E-01   -5.863E-01   -5.845E-01   -5.826E-01   -5.808E-01   -5.790E-01   -5.771E-01
    -5.753E-01   -5.734E-01   -5.716E-01   -5.697E-01   -5.679E-01   -5.660E-01   -5.642E-01   -5.623E-01   -5.605E-01   -5.586E-01
    -5.568E-01   -5.549E-01   -5.531E-01   -5.512E-01   -5.494E-01   -5.475E-01   -5.457E-01   -5.438E-01   -5.420E-01   -5.401E-01
    -5.383E-01   -5.364E-01   -5.346E-01   -5.327E-01   -5.309E-01   -5.290E-01   -5.272E-01   -5.253E-01   -5.235E-01   -5.216E-01
    -5.198E-01   -5.180E-01   -5.161E-01   -5.143E-01   -5.124E-01   -5.106E-01   -5.087E-01   -5.069E-01   -5.050E-01   -5.032E-01
    -5.013E-01   -4.995E-01   -4.976E-01   -4.958E-01   -4.939E-01   -4.921E-01   -4.902E-01   -4.884E-01   -4.865E-01   -4.847E-01
    -4.828E-01   -4.810E-01   -4.791E-01   -4.773E-01   -4.755E-01   -4.736E-01   -4.718E-01   -4.699E-01   -4.681E-01   -4.662E-01
    -4.644E-01   -4.625E-01   -4.607E-01   -4.588E-01   -4.570E-01   -4.551E-01   -4.533E-01   -4.514E-01   -4.496E-01   -4.477E-01
    -4.459E-01   -4.440E-01   -4.422E-01   -4.404E-01   -4.385E-01   -4.367E-01   -4.348E-01   -4.330E-01   -4.311E-01   -4.293E-01
    -4.274E-01   -4.256E-01   -4.237E-01   -4.219E-01   -4.200E-01   -4.182E-01   -4.163E-01   -4.145E-01   -4.126E-01   -4.108E-01
    -4.090E-01   -4.071E-01   -4.053E-01   -4.034E-01   -4.016E-01   -3.997E-01   -3.979E-01   -3.960E-01   -3.942E-01   -3.923E-01
    -3.905E-01   -3.886E-01   -3.868E-01   -3.850E-01   -3.831E-01   -3.813E-01   -3.794E-01   -3.776E-01   -3.757E-01   -3.739E-01
    -3.720E-01   -3.702E-01   -3.683E-01   -3.665E-01   -3.646E-01   -3.628E-01   -3.609E-01   -3.591E-01   -3.573E-01   -3.554E-01
    -3.536E-01   -3.517E-01   -3.499E-01   -3.480E-01   -3.462E-01   -3.443E-01   -3.425E-01   -3.406E-01   -3.388E-01   -3.369E-01
    -3.351E-01   -3.333E-01   -3.314E-01   -3.296E-01   -3.277E-01   -3.259E-01   -3.240E-01   -3.222E-01   -3.203E-01   -3.185E-01
    -3.166E-01   -3.148E-01   -3.129E-01   -3.111E-01   -3.092E-01   -3.074E-01   -3.055E-01   -3.037E-01   -3.019E-01   -3.000E-01
    -2.982E-01   -2.963E-01   -2.945E-01   -2.926E-01   -2.908E-01   -2.889E-01   -2.871E-01   -2.852E-01   -2.834E-01   -2.815E-01
    -2.797E-01   -2.778E-01   -2.760E-01   -2.741E-01   -2.723E-01   -2.704E-01   -2.686E-01   -2.668E-01   -2.649E-01   -2.631E-01
    -2.612E-01   -2.594E-01   -2.575E-01   -2.557E-01   -2.538E-01   -2.520E-01   -2.501E-01   -2.483E-01   -2.464E-01   -2.446E-01
    -2.427E-01   -2.409E-01   -2.390E-01   -2.372E-01   -2.353E-01   -2.335E-01   -2.316E-01   -2.298E-01   -2.279E-01   -2.261E-01
    -2.242E-01   -2.224E-01   -2.205E-01   -2.187E-01   -2.168E-01   -2.150E-01   -2.131E-01   -2.113E-01   -2.094E-01   -2.076E-01
    -2.057E-01   -2.039E-01   -2.020E-01   -2.002E-01   -1.983E-01   -1.965E-01   -1.946E-01   -1.928E-01   -1.909E-01   -1.890E-01
    -1.872E-01   -1.853E-01   -1.835E-01   -1.816E-01   -1.798E-01   -1.779E-01   -1.761E-01   -1.742E-01   -1.724E-01   -1.705E-01
    -1.687E-01   -1.668E-01   -1.650E-01   -1.631E-01   -1.612E-01   -1.594E-01   -1.575E-01   -1.557E-01   -1.538E-01   -1.520E-01
    -1.501E-01   -1.483E-01   -1.464E-01   -1.446E-01   -1.427E-01   -1.408E-01   -1.390E-01   -1.371E-01   -1.353E-01   -1.334E-01
    -1.316E-01   -1.297E-01   -1.278E-01   -1.260E-01   -1.241E-01   -1.223E-01   -1.204E-01   -1.186E-01   -1.167E-01   -1.148E-01
    -1.130E-01   -1.111E-01   -1.093E-01   -1.074E-01   -1.055E-01   -1.037E-01   -1.018E-01   -9.997E-02   -9.811E-02   -9.625E-02
    -9.439E-02   -9.253E-02   -9.067E-02   -8.881E-02   -8.695E-02   -8.509E-02   -8.322E-02   -8.136E-02   -7.950E-02   -7.764E-02
    -7.578E-02   -7.391E-02   -7.205E-02   -7.019E-02   -6.833E-02   -6.646E-02   -6.460E-02   -6.274E-02   -6.087E-02   -5.901E-02
    -5.714E-02   -5.528E-02   -5.342E-02   -5.155E-02   -4.969E-02   -4.782E-02   -4.596E-02   -4.409E-02   -4.223E-02   -4.036E-02
    -3.850E-02   -3.663E-02   -3.476E-02   -3.290E-02   -3.103E-02   -2.917E-02   -2.730E-02   -2.543E-02   -2.357E-02   -2.170E-02
    -1.983E-02   -1.796E-02   -1.610E-02   -1.423E-02   -1.236E-02   -1.049E-02   -8.624E-03   -6.756E-03   -4.888E-03   -3.019E-03
    -1.150E-03    7.185E-04    2.587E-03    4.457E-03    6.326E-03    8.195E-03    1.006E-02    1.193E-02    1.380E-02    1.567E-02
     1.754E-02    1.941E-02    2.128E-02    2.316E-02    2.503E-02    2.690E-02    2.877E-02    3.064E-02    3.251E-02    3.438E-02
     3.625E-02    3.812E-02    4.000E-02    4.187E-02    4.374E-02    4.561E-02    4.748E-02    4.935E-02    5.123E-02    5.310E-02
     5.497E-02    5.684E-02    5.872E-02    6.059E-02    6.246E-02    6.434E-02    6.621E-02    6.808E-02    6.996E-02    7.183E-02
     7.370E-02    7.558E-02    7.745E-02    7.932E-02    8.120E-02    8.307E-02    8.495E-02    8.682E-02    8.869E-02    9.057E-02
     9.244E-02    9.432E-02    9.619E-02    9.807E-02    9.994E-02    1.018E-01    1.037E-01    1.056E-01    1.074E-01    1.093E-01
     1.112E-01    1.131E-01    1.149E-01    1.168E-01    1.187E-01    1.206E-01    1.224E-01    1.243E-01    1.262E-01    1.281E-01
     1.300E-01    1.318E-01    1.337E-01    1.356E-01    1.375E-01    1.393E-01    1.412E-01    1.431E-01    1.450E-01    1.468E-01
     1.487E-01    1.506E-01    1.525E-01    1.543E-01    1.562E-01    1.581E-01    1.600E-01    1.619E-01    1.637E-01    1.656E-01
     1.675E-01    1.694E-01    1.712E-01    1.731E-01    1.750E-01    1.769E-01    1.787E-01    1.806E-01    1.825E-01    1.844E-01
     1.863E-01    1.881E-01    1.900E-01    1.919E-01    1.938E-01    1.956E-01    1.975E-01    1.994E-01    2.013E-01    2.032E-01
     2.050E-01    2.069E-01    2.088E-01    2.107E-01    2.126E-01    2.144E-01    2.163E-01    2.182E-01
 Ala      Conc. = 1.58E+03
