 LCModel (Version 6.3-1L) Copyright: S.W. Provencher.          Ref.: Magn. Reson. Med. 30:672-679 (1993).                
 Slice#1 Row#2 Col#10  PD_24_press_2_raw_act
 36 lines in following concentration table = NCONC+1
    Conc.  %SD /Cr+PCr  Metabolite                                         
    0.000 999%   0.000 Ala                                                 
   18.853  62%   1.494 Asp                                                 
    0.000 999%   0.000 Cr                                                  
   12.620 690%   1.000 PCr                                                 
   11.309  62%   0.896 GABA                                                
   11.285  62%   0.894 Glc                                                 
   84.380 419%   6.686 Gln                                                 
  739.007  58%  58.556 Glu                                                 
   18.402 178%   1.458 GPC                                                 
    0.000 999%   0.000 PCh                                                 
    0.000 999%   0.000 GSH                                                 
    0.000 999%   0.000 Ins                                                 
    0.000 999%   0.000 Lac                                                 
   95.439 128%   7.562 NAA                                                 
  214.207  57%  16.973 NAAG                                                
    3.745  62%   0.297 Scyllo                                              
   18.715  62%   1.483 Tau                                                 
    1.187 999% 9.4E-02 -CrCH2                                              
   18.402 178%   1.458 GPC+PCh                                             
  309.646  36%  24.535 NAA+NAAG                                            
   12.620 690%   1.000 Cr+PCr                                              
  823.387  66%  65.242 Glu+Gln                                             
    0.000 999%   0.000 Lip13a                                              
    0.000 999%   0.000 Lip13b                                              
    0.000 999%   0.000 Lip09                                               
    0.000 999%   0.000 MM09                                                
 6.32E-04 999% 5.0E-05 Lip20                                               
 7.44E-03 999% 5.9E-04 MM20                                                
    0.000 999%   0.000 MM12                                                
    0.000 999%   0.000 MM14                                                
    0.143 999% 1.1E-02 MM17                                                
    0.000 999%   0.000 Lip13a+Lip13b                                       
    0.000 999%   0.000 MM14+Lip13a+Lip13b+MM12                             
    0.000 999%   0.000 MM09+Lip09                                          
 8.07E-03 999% 6.4E-04 MM20+Lip20                                          
   6 lines in following misc. output table
  FWHM = 0.046 ppm    S/N =   0                                            
  Data shift = 0.023 ppm                                                   
  Ph: -18 deg     -36.8 deg/ppm                                            
  alphaB,S = 1.3E+01,   2.9E+01                                            
   14 spline knots.   Ns = 5(1)                                            
  ( 8) 3 infls.   ( 7) 3 extrs.                                            
  498 points on ppm-axis = NY
      4.000000     3.992357     3.984714     3.977070     3.969427     3.961784     3.954141     3.946497     3.938854     3.931211
      3.923568     3.915925     3.908281     3.900638     3.892995     3.885352     3.877708     3.870065     3.862422     3.854779
      3.847136     3.839492     3.831849     3.824206     3.816563     3.808919     3.801276     3.793633     3.785990     3.778347
      3.770703     3.763060     3.755417     3.747774     3.740130     3.732487     3.724844     3.717201     3.709558     3.701914
      3.694271     3.686628     3.678985     3.671341     3.663698     3.656055     3.648412     3.640769     3.633125     3.625482
      3.617839     3.610196     3.602552     3.594909     3.587266     3.579623     3.571980     3.564336     3.556693     3.549050
      3.541407     3.533763     3.526120     3.518477     3.510834     3.503191     3.495547     3.487904     3.480261     3.472618
      3.464974     3.457331     3.449688     3.442045     3.434402     3.426758     3.419115     3.411472     3.403829     3.396185
      3.388542     3.380899     3.373256     3.365613     3.357969     3.350326     3.342683     3.335040     3.327396     3.319753
      3.312110     3.304467     3.296824     3.289180     3.281537     3.273894     3.266251     3.258607     3.250964     3.243321
      3.235678     3.228034     3.220391     3.212748     3.205105     3.197462     3.189818     3.182175     3.174532     3.166889
      3.159245     3.151602     3.143959     3.136316     3.128673     3.121029     3.113386     3.105743     3.098100     3.090456
      3.082813     3.075170     3.067527     3.059884     3.052240     3.044597     3.036954     3.029311     3.021667     3.014024
      3.006381     2.998738     2.991095     2.983451     2.975808     2.968165     2.960522     2.952878     2.945235     2.937592
      2.929949     2.922306     2.914662     2.907019     2.899376     2.891733     2.884089     2.876446     2.868803     2.861160
      2.853517     2.845873     2.838230     2.830587     2.822944     2.815300     2.807657     2.800014     2.792371     2.784728
      2.777084     2.769441     2.761798     2.754155     2.746511     2.738868     2.731225     2.723582     2.715939     2.708295
      2.700652     2.693009     2.685366     2.677722     2.670079     2.662436     2.654793     2.647150     2.639506     2.631863
      2.624220     2.616577     2.608933     2.601290     2.593647     2.586004     2.578361     2.570717     2.563074     2.555431
      2.547788     2.540144     2.532501     2.524858     2.517215     2.509572     2.501928     2.494285     2.486642     2.478999
      2.471355     2.463712     2.456069     2.448426     2.440783     2.433139     2.425496     2.417853     2.410210     2.402566
      2.394923     2.387280     2.379637     2.371994     2.364350     2.356707     2.349064     2.341421     2.333777     2.326134
      2.318491     2.310848     2.303205     2.295561     2.287918     2.280275     2.272632     2.264988     2.257345     2.249702
      2.242059     2.234416     2.226772     2.219129     2.211486     2.203843     2.196199     2.188556     2.180913     2.173270
      2.165627     2.157983     2.150340     2.142697     2.135054     2.127410     2.119767     2.112124     2.104481     2.096838
      2.089194     2.081551     2.073908     2.066265     2.058621     2.050978     2.043335     2.035692     2.028049     2.020405
      2.012762     2.005119     1.997476     1.989833     1.982190     1.974546     1.966903     1.959260     1.951617     1.943974
      1.936331     1.928688     1.921045     1.913402     1.905759     1.898115     1.890472     1.882829     1.875186     1.867543
      1.859900     1.852257     1.844614     1.836971     1.829327     1.821684     1.814041     1.806398     1.798755     1.791112
      1.783469     1.775826     1.768183     1.760540     1.752896     1.745253     1.737610     1.729967     1.722324     1.714681
      1.707038     1.699395     1.691752     1.684108     1.676465     1.668822     1.661179     1.653536     1.645893     1.638250
      1.630607     1.622964     1.615321     1.607677     1.600034     1.592391     1.584748     1.577105     1.569462     1.561819
      1.554176     1.546533     1.538890     1.531246     1.523603     1.515960     1.508317     1.500674     1.493031     1.485388
      1.477745     1.470102     1.462458     1.454815     1.447172     1.439529     1.431886     1.424243     1.416600     1.408957
      1.401314     1.393671     1.386027     1.378384     1.370741     1.363098     1.355455     1.347812     1.340169     1.332526
      1.324883     1.317240     1.309596     1.301953     1.294310     1.286667     1.279024     1.271381     1.263738     1.256095
      1.248452     1.240808     1.233165     1.225522     1.217879     1.210236     1.202593     1.194950     1.187307     1.179664
      1.172021     1.164377     1.156734     1.149091     1.141448     1.133805     1.126162     1.118519     1.110876     1.103233
      1.095590     1.087946     1.080303     1.072660     1.065017     1.057374     1.049731     1.042088     1.034445     1.026802
      1.019158     1.011515     1.003872     0.996229     0.988586     0.980943     0.973300     0.965657     0.958014     0.950371
      0.942727     0.935084     0.927441     0.919798     0.912155     0.904512     0.896869     0.889226     0.881583     0.873940
      0.866296     0.858653     0.851010     0.843367     0.835724     0.828081     0.820438     0.812795     0.805152     0.797508
      0.789865     0.782222     0.774579     0.766936     0.759293     0.751650     0.744007     0.736364     0.728721     0.721077
      0.713434     0.705791     0.698148     0.690505     0.682862     0.675219     0.667576     0.659933     0.652290     0.644646
      0.637003     0.629360     0.621717     0.614074     0.606431     0.598788     0.591145     0.583502     0.575858     0.568215
      0.560572     0.552929     0.545286     0.537643     0.530000     0.522357     0.514714     0.507071     0.499427     0.491784
      0.484141     0.476498     0.468855     0.461212     0.453569     0.445925     0.438282     0.430639     0.422996     0.415353
      0.407710     0.400067     0.392424     0.384780     0.377137     0.369494     0.361851     0.354208     0.346565     0.338922
      0.331278     0.323635     0.315992     0.308349     0.300706     0.293063     0.285420     0.277777     0.270133     0.262490
      0.254847     0.247204     0.239561     0.231918     0.224275     0.216631     0.208988     0.201345
 NY phased data points follow
  -4.57429E+00  1.91934E+01  2.43821E+01  2.04833E+01  8.82074E+00 -7.22386E-01 -5.95400E+00 -9.09877E-02  2.15173E+01  1.55498E+01
   1.69048E+00  1.46327E+01  7.72757E+00  3.85449E+00  1.45746E+01  8.33639E+00  1.33639E+01 -1.22415E+00  6.70945E+00  1.35177E+00
   1.09004E+00  6.81826E+00  1.25698E+01  3.71673E+00  2.20199E+01  1.22656E+00  9.92570E+00  1.03952E+00  1.83543E+00  2.52718E+00
   7.48059E+00  3.16480E+00  5.15997E+00  1.26385E+01  1.44113E+01  1.77146E+01  7.32490E+00 -6.00954E+00  3.44857E+00 -2.46618E+00
   6.29694E+00  1.30734E+01  8.71445E+00 -2.23728E-01  7.96526E+00  6.54978E+00  1.00569E+01  1.04377E+01  8.61378E+00  2.55768E+00
   5.25669E+00  8.61902E+00  5.96454E+00  2.29429E+00  7.18757E+00  1.48619E+01  1.49886E+01  5.76326E+00 -8.27138E-01  1.48359E+01
   7.86227E+00  1.52628E+01  4.52438E+00  2.46541E+00  6.14263E+00  1.73446E+00 -5.02608E-01  1.82518E+01  9.62741E+00  1.69714E+01
   7.86385E+00  3.24311E+00  7.90462E+00  3.92244E+00  9.54636E+00  6.75026E+00  4.98979E+00  1.03935E+01  3.33719E+00  4.97793E+00
   9.15303E+00  3.60279E+00 -1.47491E-01  1.31988E+01  6.44559E+00  8.76245E+00  5.62008E+00  7.09871E+00  2.91524E+00  6.37890E+00
   4.23096E+00  3.57845E+00  8.67453E+00  4.40108E+00 -1.32335E+00  3.75993E-01  6.86967E+00 -4.00760E+00  1.27126E+01  4.92850E+00
   7.92135E+00  1.03185E+01  1.98991E+01  1.41454E+01  5.54165E+00  1.69024E+01  6.77351E+00  4.13450E+00  2.59562E+00  1.38464E+00
   9.41318E-02 -2.95586E-01  1.78325E+00  2.60782E+00  5.16351E+00  7.50525E+00  8.42605E+00  6.03740E+00 -1.61778E+00  1.03917E+01
   9.23826E+00  1.12822E+00 -2.96449E+00  6.77971E+00  8.09280E+00  2.87993E+00  1.07449E+01  1.07336E+01  1.80655E+00  4.37075E+00
   1.29305E+01  2.76042E+00 -8.79430E+00  3.62260E+00  7.03113E+00  5.74564E+00  2.50686E+00  9.56201E+00  3.73956E+00  5.85750E+00
   2.31784E+00 -2.25693E+00  4.57435E+00 -2.63227E+00 -2.48203E+00  5.42860E+00  3.71363E+00  1.27045E+01  1.37390E+01  1.29976E+00
   3.51606E+00  6.25419E+00  1.41812E+01  1.00600E+00  8.69719E+00  3.20152E+00 -2.60811E+00  1.19859E+01 -1.92787E+00  7.22695E+00
   8.10995E+00  1.01096E+01  1.15151E+01  3.25306E+00  8.84712E+00  1.65176E+00  8.69895E+00  2.72418E+00  1.49038E+01  6.82663E+00
   1.00794E+01  1.39132E+01  1.15362E+01 -3.02082E+00  9.63387E+00 -1.33615E+00  8.77821E+00  1.42235E+00  3.35912E+00  1.52229E+00
   6.30353E+00  6.89781E+00  9.14375E+00  5.78296E-01  2.30932E+00  1.51383E+01  1.30451E+01  4.37524E+00  1.54438E+00  5.28773E+00
   4.65460E+00  3.69056E+00  1.18008E+01  1.41112E+01  3.47857E+00 -1.59924E-01 -2.90279E+00 -2.24527E+00  4.70258E+00 -5.27010E-01
   4.77067E+00  1.02292E+01  3.72503E+00  3.11486E-01  1.46679E+01  6.81252E+00  7.44887E+00 -1.38326E+00  4.44323E+00  5.97655E+00
   6.14637E+00  7.89612E+00  2.15328E+01  3.06895E+00  1.20892E+01  1.80244E+01  5.32317E-01  4.86448E+00  1.81011E+01 -2.50399E+00
  -1.85475E+00  8.12166E+00  5.51961E+00 -2.19306E+00  8.17347E+00  1.21356E+00  3.06529E+00  6.22898E+00  8.56256E+00 -2.74468E+00
   1.50228E+01  8.46682E-01  1.92754E-01 -5.38078E+00  3.74272E+00 -2.01228E+00  3.62594E+00  7.24177E+00 -8.96854E+00 -1.22563E+00
   1.38066E+01 -7.05745E+00  1.69761E+00 -1.32031E+01 -1.23111E+01 -5.46995E+00 -3.25755E+00 -9.19343E-01 -1.45898E+00  1.46030E+00
  -4.18846E+00 -8.56541E+00 -8.28562E+00 -5.51319E+00 -1.00459E-01 -2.67892E+00  3.28211E+00  3.74305E-01  1.11339E+01  1.06121E+01
   9.23915E+00 -1.42433E+00  7.09101E+00  3.34510E+00 -4.27247E+00 -3.15067E+00 -6.38666E+00  3.79359E-01 -3.01527E+00  4.58729E+00
   6.54482E+00  2.15810E+00  9.31069E-01 -5.89320E+00  1.43845E+01  1.26644E+01  1.09184E+00  3.95870E+00  4.47303E+00  2.19794E+00
   1.70294E+00  5.05456E+00  7.79224E+00 -2.72590E+00 -1.03596E+00  4.73608E+00  7.58895E+00  1.71008E+01  7.01303E+00  8.30018E+00
   1.20784E+01  7.30748E+00  1.30764E+01  1.75174E+01  1.39657E+01  2.20984E+01  1.48905E+01  2.16765E+01  2.10915E+01  2.91087E+01
   1.62680E+01  5.00206E+00  2.30612E+01  9.70604E+00  1.96361E+01  1.14918E+01  2.21907E+01  2.52573E+01  2.88723E+01  2.22049E+01
   2.70153E+01  2.48264E+01  3.24134E+01  2.77910E+01  3.19846E+01  2.52757E+01  3.25365E+01  2.78520E+01  2.02094E+01  2.96596E+01
   1.71214E+01  1.81457E+01  2.33399E+01  1.64057E+01  9.68075E+00  1.56475E+01  5.38133E+00  1.19090E+01  2.02601E+00  1.37006E+01
   6.39686E+00  3.14671E+00  2.19363E+01 -1.77148E+00  7.68609E+00  5.93749E-01  4.20012E+00  9.67472E+00  2.42389E+00 -6.89706E+00
  -3.86693E+00  4.66175E+00  6.12654E+00  2.82667E-01 -7.22728E+00  4.39465E+00  2.46023E+00  4.53603E+00  2.32444E+00  1.32547E+01
  -5.45794E+00 -8.03175E+00 -3.46485E+00 -7.62122E+00  5.38373E+00 -2.72844E+00 -2.07719E+00 -7.24760E-01 -5.15437E+00 -8.15542E-01
  -5.95919E+00 -8.97321E+00 -8.24590E+00 -5.37898E+00 -1.41537E+01 -7.61390E+00 -6.05683E+00 -2.76384E+00  2.99347E+00 -6.36791E+00
   2.83505E+00 -1.82255E+00  3.65033E+00 -7.55960E+00  4.49722E+00 -4.54526E+00  9.65933E-01  2.34639E+00 -6.59977E+00 -1.52457E+00
  -3.78115E+00 -1.83766E+00  1.52908E+00  4.90599E+00  4.15919E+00  9.78855E+00  6.62902E+00  6.76578E+00 -1.72857E+00  2.48648E+00
  -9.29061E+00 -8.95062E+00 -4.24434E+00 -9.84501E+00  3.63515E+00  5.12563E+00  6.07151E+00 -4.89048E+00 -7.82247E+00 -1.16865E+01
  -4.67870E+00  1.88802E+00 -1.26778E+01 -2.02142E+00 -8.63528E+00 -7.61327E-02 -2.23032E+00 -3.39828E+00 -4.62077E+00 -8.70755E-01
  -6.41394E-01 -3.15020E+00 -3.18505E+00 -2.74554E-01 -1.11602E+00 -9.06203E+00 -8.40805E+00 -1.91630E+00  3.79698E-01 -3.09117E+00
  -6.18075E+00 -3.99842E+00 -5.69949E+00 -1.57044E+01 -3.87360E+00 -3.11794E+00 -1.75987E+00 -1.19418E+01 -7.52330E+00 -1.34816E+00
  -5.23367E-01 -8.43495E-01 -2.61658E+00 -6.24495E+00  2.66686E+00  5.71810E+00  9.16081E+00 -4.76309E+00 -1.12937E+01 -2.01095E+00
  -1.99094E+00  3.22488E+00 -6.74537E+00  2.42931E+00 -7.40658E-01  2.37617E+00 -6.37733E+00  3.61618E+00 -5.77939E+00 -9.14091E+00
  -1.64674E+00  8.54952E-01 -3.97195E+00 -3.39144E-01  2.59644E+00 -5.27733E+00 -2.19114E+00 -4.61801E+00  5.52414E+00 -2.60195E+00
  -6.82674E+00 -5.69401E+00 -2.10113E+00  1.94087E+00 -4.33418E+00  1.53255E+00 -3.47391E+00 -5.92227E+00  7.38122E-01  2.99524E+00
  -7.42169E+00 -5.58784E+00 -2.46792E+00 -2.77294E+00 -3.70302E+00 -2.00804E+00 -1.85256E+00  2.66096E+00 -1.68442E+00  9.18747E+00
   3.44528E+00 -2.74151E+00  1.11858E+00  2.66392E+00 -1.27986E+00  2.74291E+00 -1.11863E+01  5.93068E+00  2.50884E+00 -1.65999E+00
   3.85211E+00 -4.79392E+00  6.04719E+00  9.42213E+00 -7.09037E-01 -3.27105E+00  3.91197E+00  3.11528E-01
 NY points of the fit to the data follow
   6.18084E+00  6.15953E+00  6.14440E+00  6.13237E+00  6.13502E+00  6.17771E+00  6.25085E+00  6.33746E+00  6.42126E+00  6.48162E+00
   6.50821E+00  6.50441E+00  6.48705E+00  6.46864E+00  6.45377E+00  6.43604E+00  6.40771E+00  6.37628E+00  6.35265E+00  6.35199E+00
   6.41272E+00  6.62948E+00  7.08497E+00  7.53862E+00  7.70344E+00  7.44123E+00  6.75139E+00  5.84928E+00  5.16000E+00  5.04505E+00
   5.65074E+00  6.74541E+00  7.91747E+00  8.71070E+00  8.79184E+00  8.25853E+00  7.45966E+00  6.73324E+00  6.30277E+00  6.22566E+00
   6.42087E+00  6.75134E+00  7.08341E+00  7.30817E+00  7.39786E+00  7.40164E+00  7.36918E+00  7.33354E+00  7.30625E+00  7.28322E+00
   7.26205E+00  7.24304E+00  7.22447E+00  7.20207E+00  7.17441E+00  7.14326E+00  7.11160E+00  7.08129E+00  7.05229E+00  7.02486E+00
   6.99981E+00  6.97862E+00  6.96601E+00  6.95955E+00  6.95553E+00  6.95274E+00  6.94410E+00  6.92493E+00  6.89643E+00  6.85783E+00
   6.81359E+00  6.78731E+00  6.79202E+00  6.81963E+00  6.85346E+00  6.87501E+00  6.86914E+00  6.83446E+00  6.78086E+00  6.71816E+00
   6.65208E+00  6.60064E+00  6.60014E+00  6.64889E+00  6.72093E+00  6.78689E+00  6.82708E+00  6.83816E+00  6.82466E+00  6.78476E+00
   6.71645E+00  6.62463E+00  6.51287E+00  6.38243E+00  6.24803E+00  6.11104E+00  5.93959E+00  5.72432E+00  5.70234E+00  6.03701E+00
   6.62960E+00  7.29733E+00  7.86892E+00  8.24793E+00  8.40698E+00  8.35785E+00  8.15518E+00  7.89642E+00  7.66941E+00  7.49740E+00
   7.37219E+00  7.27883E+00  7.20330E+00  7.14003E+00  7.08599E+00  7.03672E+00  6.98731E+00  6.93712E+00  6.88456E+00  6.82433E+00
   6.75006E+00  6.65903E+00  6.60167E+00  6.63368E+00  6.74204E+00  6.88428E+00  7.02009E+00  7.12174E+00  7.17428E+00  7.17309E+00
   7.12300E+00  7.04537E+00  6.96694E+00  6.89671E+00  6.83626E+00  6.78794E+00  6.75282E+00  6.72844E+00  6.70639E+00  6.68210E+00
   6.65582E+00  6.63286E+00  6.61955E+00  6.61412E+00  6.61263E+00  6.61204E+00  6.61102E+00  6.61048E+00  6.61541E+00  6.62408E+00
   6.60393E+00  6.54278E+00  6.45387E+00  6.36280E+00  6.31532E+00  6.33581E+00  6.38941E+00  6.43107E+00  6.43697E+00  6.40129E+00
   6.34047E+00  6.27759E+00  6.22192E+00  6.18215E+00  6.15669E+00  6.11439E+00  6.01507E+00  5.88877E+00  5.78383E+00  5.73526E+00
   5.74847E+00  5.76740E+00  5.74202E+00  5.67769E+00  5.59900E+00  5.52743E+00  5.46989E+00  5.41416E+00  5.32514E+00  5.19924E+00
   5.08193E+00  5.00522E+00  4.97302E+00  4.97378E+00  5.00706E+00  5.06813E+00  5.14339E+00  5.23010E+00  5.34443E+00  5.46275E+00
   5.55027E+00  5.57966E+00  5.53822E+00  5.43393E+00  5.27779E+00  5.11071E+00  4.98457E+00  4.94073E+00  4.99430E+00  5.13704E+00
   5.37299E+00  5.73715E+00  6.17232E+00  6.55914E+00  6.83633E+00  6.77044E+00  6.22496E+00  5.28636E+00  4.13006E+00  3.01741E+00
   2.23590E+00  2.38390E+00  3.67916E+00  5.68837E+00  7.79652E+00  9.48297E+00  1.04228E+01  1.02331E+01  8.62816E+00  5.97854E+00
   3.21912E+00  1.09331E+00 -4.78108E-02 -1.76396E-01  5.10311E-01  1.71941E+00  3.03670E+00  4.05190E+00  4.60719E+00  4.76589E+00
   4.69492E+00  4.54108E+00  4.41996E+00  4.37255E+00  4.42944E+00  4.55649E+00  4.65266E+00  4.67633E+00  4.44276E+00  3.95211E+00
   3.39929E+00  2.96876E+00  2.70554E+00  2.63958E+00  2.75818E+00  2.91008E+00  2.87184E+00  2.47665E+00  1.74941E+00  8.08987E-01
  -2.64290E-01 -7.74766E-01  2.17560E-01  2.36575E+00  4.75349E+00  6.76686E+00  8.51085E+00  9.96706E+00  1.09657E+01  1.14363E+01
   1.14863E+01  1.12654E+01  1.08584E+01  1.02457E+01  9.49656E+00  8.73759E+00  8.05985E+00  7.45490E+00  6.92987E+00  6.51598E+00
   6.24009E+00  6.11096E+00  6.09436E+00  6.12735E+00  6.16211E+00  6.16449E+00  6.10464E+00  5.98081E+00  5.81936E+00  5.66643E+00
   5.54736E+00  5.46802E+00  5.42144E+00  5.39407E+00  5.37005E+00  5.33651E+00  5.27870E+00  5.19817E+00  5.11317E+00  5.03925E+00
   4.98289E+00  4.94450E+00  4.91989E+00  4.90385E+00  4.88566E+00  4.85246E+00  4.80240E+00  4.74106E+00  4.67672E+00  4.61638E+00
   4.56379E+00  4.51980E+00  4.48326E+00  4.45117E+00  4.41996E+00  4.38759E+00  4.35355E+00  4.31802E+00  4.28192E+00  4.24579E+00
   4.20978E+00  4.17383E+00  4.13784E+00  4.10175E+00  4.06560E+00  4.02941E+00  3.99325E+00  3.95721E+00  3.92132E+00  3.88561E+00
   3.85004E+00  3.81460E+00  3.77928E+00  3.74406E+00  3.70892E+00  3.67388E+00  3.63892E+00  3.60403E+00  3.56921E+00  3.53443E+00
   3.49970E+00  3.46502E+00  3.43038E+00  3.39579E+00  3.36123E+00  3.32669E+00  3.29216E+00  3.25766E+00  3.22319E+00  3.18873E+00
   3.15427E+00  3.11981E+00  3.08536E+00  3.05091E+00  3.01646E+00  2.98199E+00  2.94751E+00  2.91300E+00  2.87849E+00  2.84396E+00
   2.80941E+00  2.77483E+00  2.74022E+00  2.70558E+00  2.67091E+00  2.63622E+00  2.60148E+00  2.56671E+00  2.53190E+00  2.49705E+00
   2.46217E+00  2.42724E+00  2.39227E+00  2.35725E+00  2.32218E+00  2.28706E+00  2.25191E+00  2.21670E+00  2.18143E+00  2.14611E+00
   2.11074E+00  2.07532E+00  2.03985E+00  2.00431E+00  1.96871E+00  1.93305E+00  1.89734E+00  1.86157E+00  1.82574E+00  1.78985E+00
   1.75388E+00  1.71786E+00  1.68178E+00  1.64563E+00  1.60942E+00  1.57313E+00  1.53678E+00  1.50036E+00  1.46388E+00  1.42734E+00
   1.39072E+00  1.35402E+00  1.31726E+00  1.28043E+00  1.24353E+00  1.20656E+00  1.16951E+00  1.13239E+00  1.09520E+00  1.05794E+00
   1.02060E+00  9.83193E-01  9.45704E-01  9.08140E-01  8.70505E-01  8.32796E-01  7.95010E-01  7.57144E-01  7.19200E-01  6.81180E-01
   6.43086E-01  6.04917E-01  5.66667E-01  5.28336E-01  4.89925E-01  4.51438E-01  4.12876E-01  3.74233E-01  3.35509E-01  2.96702E-01
   2.57815E-01  2.18852E-01  1.79810E-01  1.40685E-01  1.01477E-01  6.21855E-02  2.28148E-02 -1.66362E-02 -5.61701E-02 -9.57900E-02
  -1.35493E-01 -1.75278E-01 -2.15140E-01 -2.55083E-01 -2.95111E-01 -3.35227E-01 -3.75431E-01 -4.15722E-01 -4.56097E-01 -4.96556E-01
  -5.37101E-01 -5.77732E-01 -6.18447E-01 -6.59245E-01 -7.00125E-01 -7.41093E-01 -7.82150E-01 -8.23297E-01 -8.64531E-01 -9.05852E-01
  -9.47261E-01 -9.88762E-01 -1.03035E+00 -1.07204E+00 -1.11380E+00 -1.15565E+00 -1.19760E+00 -1.23963E+00 -1.28176E+00 -1.32398E+00
  -1.36630E+00 -1.40870E+00 -1.45120E+00 -1.49380E+00 -1.53649E+00 -1.57928E+00 -1.62216E+00 -1.66514E+00 -1.70822E+00 -1.75141E+00
  -1.79470E+00 -1.83808E+00 -1.88157E+00 -1.92516E+00 -1.96886E+00 -2.01266E+00 -2.05657E+00 -2.10058E+00 -2.14471E+00 -2.18896E+00
  -2.23332E+00 -2.27780E+00 -2.32240E+00 -2.36713E+00 -2.41199E+00 -2.45697E+00 -2.50210E+00 -2.54736E+00 -2.59277E+00 -2.63834E+00
  -2.68406E+00 -2.72995E+00 -2.77601E+00 -2.82226E+00 -2.86870E+00 -2.91536E+00 -2.96223E+00 -3.00934E+00
 NY background values follow
     6.777E+00    6.784E+00    6.791E+00    6.797E+00    6.803E+00    6.810E+00    6.816E+00    6.822E+00    6.828E+00    6.833E+00
     6.839E+00    6.845E+00    6.850E+00    6.856E+00    6.861E+00    6.866E+00    6.871E+00    6.876E+00    6.881E+00    6.885E+00
     6.890E+00    6.894E+00    6.899E+00    6.903E+00    6.907E+00    6.911E+00    6.915E+00    6.919E+00    6.922E+00    6.926E+00
     6.929E+00    6.933E+00    6.936E+00    6.939E+00    6.942E+00    6.945E+00    6.947E+00    6.950E+00    6.953E+00    6.955E+00
     6.957E+00    6.960E+00    6.962E+00    6.964E+00    6.965E+00    6.967E+00    6.969E+00    6.970E+00    6.972E+00    6.973E+00
     6.974E+00    6.975E+00    6.976E+00    6.977E+00    6.978E+00    6.979E+00    6.979E+00    6.979E+00    6.980E+00    6.980E+00
     6.980E+00    6.980E+00    6.980E+00    6.980E+00    6.979E+00    6.979E+00    6.978E+00    6.977E+00    6.977E+00    6.976E+00
     6.975E+00    6.973E+00    6.972E+00    6.971E+00    6.969E+00    6.968E+00    6.966E+00    6.964E+00    6.962E+00    6.960E+00
     6.958E+00    6.956E+00    6.953E+00    6.951E+00    6.948E+00    6.946E+00    6.943E+00    6.940E+00    6.937E+00    6.934E+00
     6.930E+00    6.927E+00    6.924E+00    6.920E+00    6.916E+00    6.913E+00    6.909E+00    6.905E+00    6.900E+00    6.896E+00
     6.892E+00    6.887E+00    6.883E+00    6.878E+00    6.873E+00    6.868E+00    6.863E+00    6.858E+00    6.853E+00    6.848E+00
     6.842E+00    6.836E+00    6.831E+00    6.825E+00    6.819E+00    6.813E+00    6.807E+00    6.801E+00    6.794E+00    6.788E+00
     6.781E+00    6.775E+00    6.768E+00    6.761E+00    6.754E+00    6.747E+00    6.740E+00    6.732E+00    6.725E+00    6.717E+00
     6.710E+00    6.702E+00    6.694E+00    6.686E+00    6.678E+00    6.670E+00    6.661E+00    6.653E+00    6.644E+00    6.636E+00
     6.627E+00    6.618E+00    6.609E+00    6.600E+00    6.591E+00    6.581E+00    6.572E+00    6.563E+00    6.553E+00    6.543E+00
     6.533E+00    6.523E+00    6.513E+00    6.503E+00    6.493E+00    6.483E+00    6.472E+00    6.461E+00    6.451E+00    6.440E+00
     6.429E+00    6.418E+00    6.407E+00    6.395E+00    6.384E+00    6.373E+00    6.361E+00    6.349E+00    6.338E+00    6.326E+00
     6.314E+00    6.302E+00    6.289E+00    6.277E+00    6.265E+00    6.252E+00    6.239E+00    6.227E+00    6.214E+00    6.201E+00
     6.188E+00    6.174E+00    6.161E+00    6.148E+00    6.134E+00    6.121E+00    6.107E+00    6.093E+00    6.079E+00    6.065E+00
     6.051E+00    6.037E+00    6.022E+00    6.008E+00    5.993E+00    5.978E+00    5.964E+00    5.949E+00    5.934E+00    5.919E+00
     5.903E+00    5.888E+00    5.873E+00    5.857E+00    5.841E+00    5.826E+00    5.810E+00    5.794E+00    5.778E+00    5.762E+00
     5.745E+00    5.729E+00    5.712E+00    5.696E+00    5.679E+00    5.662E+00    5.645E+00    5.628E+00    5.611E+00    5.594E+00
     5.577E+00    5.559E+00    5.542E+00    5.524E+00    5.506E+00    5.488E+00    5.470E+00    5.452E+00    5.434E+00    5.416E+00
     5.397E+00    5.379E+00    5.360E+00    5.341E+00    5.323E+00    5.304E+00    5.285E+00    5.265E+00    5.246E+00    5.227E+00
     5.207E+00    5.188E+00    5.168E+00    5.148E+00    5.129E+00    5.109E+00    5.089E+00    5.068E+00    5.048E+00    5.028E+00
     5.007E+00    4.987E+00    4.966E+00    4.945E+00    4.924E+00    4.903E+00    4.882E+00    4.861E+00    4.839E+00    4.818E+00
     4.796E+00    4.775E+00    4.753E+00    4.731E+00    4.709E+00    4.687E+00    4.665E+00    4.643E+00    4.620E+00    4.598E+00
     4.575E+00    4.553E+00    4.530E+00    4.507E+00    4.484E+00    4.461E+00    4.438E+00    4.415E+00    4.391E+00    4.368E+00
     4.344E+00    4.320E+00    4.297E+00    4.273E+00    4.249E+00    4.225E+00    4.200E+00    4.176E+00    4.152E+00    4.127E+00
     4.102E+00    4.078E+00    4.053E+00    4.028E+00    4.003E+00    3.978E+00    3.953E+00    3.927E+00    3.902E+00    3.876E+00
     3.851E+00    3.825E+00    3.799E+00    3.773E+00    3.747E+00    3.721E+00    3.695E+00    3.668E+00    3.642E+00    3.615E+00
     3.589E+00    3.562E+00    3.535E+00    3.508E+00    3.481E+00    3.454E+00    3.427E+00    3.399E+00    3.372E+00    3.344E+00
     3.317E+00    3.289E+00    3.261E+00    3.233E+00    3.205E+00    3.177E+00    3.149E+00    3.120E+00    3.092E+00    3.063E+00
     3.034E+00    3.006E+00    2.977E+00    2.948E+00    2.919E+00    2.890E+00    2.860E+00    2.831E+00    2.802E+00    2.772E+00
     2.742E+00    2.713E+00    2.683E+00    2.653E+00    2.623E+00    2.593E+00    2.562E+00    2.532E+00    2.502E+00    2.471E+00
     2.440E+00    2.410E+00    2.379E+00    2.348E+00    2.317E+00    2.286E+00    2.255E+00    2.223E+00    2.192E+00    2.160E+00
     2.129E+00    2.097E+00    2.065E+00    2.033E+00    2.001E+00    1.969E+00    1.937E+00    1.905E+00    1.872E+00    1.840E+00
     1.807E+00    1.775E+00    1.742E+00    1.709E+00    1.676E+00    1.643E+00    1.610E+00    1.576E+00    1.543E+00    1.510E+00
     1.476E+00    1.442E+00    1.409E+00    1.375E+00    1.341E+00    1.307E+00    1.273E+00    1.238E+00    1.204E+00    1.170E+00
     1.135E+00    1.101E+00    1.066E+00    1.031E+00    9.962E-01    9.613E-01    9.262E-01    8.910E-01    8.557E-01    8.204E-01
     7.849E-01    7.494E-01    7.137E-01    6.780E-01    6.421E-01    6.062E-01    5.702E-01    5.341E-01    4.979E-01    4.616E-01
     4.252E-01    3.887E-01    3.521E-01    3.154E-01    2.786E-01    2.418E-01    2.048E-01    1.678E-01    1.306E-01    9.336E-02
     5.603E-02    1.860E-02   -1.891E-02   -5.653E-02   -9.423E-02   -1.320E-01   -1.699E-01   -2.079E-01   -2.460E-01   -2.841E-01
    -3.224E-01   -3.608E-01   -3.992E-01   -4.377E-01   -4.764E-01   -5.151E-01   -5.539E-01   -5.928E-01   -6.318E-01   -6.709E-01
    -7.101E-01   -7.493E-01   -7.887E-01   -8.281E-01   -8.677E-01   -9.073E-01   -9.470E-01   -9.869E-01   -1.027E+00   -1.067E+00
    -1.107E+00   -1.147E+00   -1.187E+00   -1.228E+00   -1.268E+00   -1.309E+00   -1.349E+00   -1.390E+00   -1.431E+00   -1.472E+00
    -1.513E+00   -1.554E+00   -1.595E+00   -1.636E+00   -1.678E+00   -1.719E+00   -1.761E+00   -1.802E+00   -1.844E+00   -1.886E+00
    -1.928E+00   -1.970E+00   -2.012E+00   -2.054E+00   -2.096E+00   -2.138E+00   -2.181E+00   -2.223E+00   -2.266E+00   -2.309E+00
    -2.351E+00   -2.394E+00   -2.437E+00   -2.480E+00   -2.523E+00   -2.567E+00   -2.610E+00   -2.653E+00   -2.697E+00   -2.740E+00
    -2.784E+00   -2.828E+00   -2.871E+00   -2.915E+00   -2.959E+00   -3.003E+00   -3.048E+00   -3.092E+00
 Asp      Conc. = 1.89E+01
