 LCModel (Version 6.3-1L) Copyright: S.W. Provencher.          Ref.: Magn. Reson. Med. 30:672-679 (1993).                
 Slice#1 Row#8 Col#4  PD_24_press_2_raw_act
 36 lines in following concentration table = NCONC+1
    Conc.  %SD /Cr+PCr  Metabolite                                         
    0.000 999%   0.000 Ala                                                 
  134.312 318% 5.8E-02 Asp                                                 
 1.30E+03  32%   0.558 Cr                                                  
 1.03E+03  42%   0.442 PCr                                                 
    0.000 999%   0.000 GABA                                                
   34.278 805% 1.5E-02 Glc                                                 
 1.10E+03  47%   0.472 Gln                                                 
 2.72E+03  22%   1.164 Glu                                                 
  607.457   8%   0.260 GPC                                                 
    0.000 999%   0.000 PCh                                                 
  495.184  34%   0.212 GSH                                                 
 1.60E+03  36%   0.685 Ins                                                 
  738.336  40%   0.317 Lac                                                 
 3.90E+03   7%   1.671 NAA                                                 
  469.682  57%   0.201 NAAG                                                
  125.128  45% 5.4E-02 Scyllo                                              
   31.092 999% 1.3E-02 Tau                                                 
  410.655  59%   0.176 -CrCH2                                              
  607.457   8%   0.260 GPC+PCh                                             
 4.37E+03   5%   1.872 NAA+NAAG                                            
 2.33E+03   6%   1.000 Cr+PCr                                              
 3.82E+03  23%   1.637 Glu+Gln                                             
 4.21E+03  17%   1.805 Lip13a                                              
    0.000 999%   0.000 Lip13b                                              
    0.000 999%   0.000 Lip09                                               
 4.41E+03  10%   1.890 MM09                                                
 1.24E+03  49%   0.533 Lip20                                               
 1.17E+04   9%   4.996 MM20                                                
 1.73E+03  24%   0.743 MM12                                                
    0.000 999%   0.000 MM14                                                
 3.52E+03   9%   1.507 MM17                                                
 4.21E+03  17%   1.805 Lip13a+Lip13b                                       
 5.94E+03  12%   2.548 MM14+Lip13a+Lip13b+MM12                             
 4.41E+03  10%   1.890 MM09+Lip09                                          
 1.29E+04   8%   5.528 MM20+Lip20                                          
   6 lines in following misc. output table
  FWHM = 0.038 ppm    S/N =  11                                            
  Data shift = 0.000 ppm                                                   
  Ph:   1 deg       2.4 deg/ppm                                            
  alphaB,S = 7.9E-01,   9.9E+00                                            
   14 spline knots.   Ns = 7(1)                                            
  (11) 9 infls.   (13) 5 extrs.                                            
  498 points on ppm-axis = NY
      4.000000     3.992357     3.984714     3.977070     3.969427     3.961784     3.954141     3.946497     3.938854     3.931211
      3.923568     3.915925     3.908281     3.900638     3.892995     3.885352     3.877708     3.870065     3.862422     3.854779
      3.847136     3.839492     3.831849     3.824206     3.816563     3.808919     3.801276     3.793633     3.785990     3.778347
      3.770703     3.763060     3.755417     3.747774     3.740130     3.732487     3.724844     3.717201     3.709558     3.701914
      3.694271     3.686628     3.678985     3.671341     3.663698     3.656055     3.648412     3.640769     3.633125     3.625482
      3.617839     3.610196     3.602552     3.594909     3.587266     3.579623     3.571980     3.564336     3.556693     3.549050
      3.541407     3.533763     3.526120     3.518477     3.510834     3.503191     3.495547     3.487904     3.480261     3.472618
      3.464974     3.457331     3.449688     3.442045     3.434402     3.426758     3.419115     3.411472     3.403829     3.396185
      3.388542     3.380899     3.373256     3.365613     3.357969     3.350326     3.342683     3.335040     3.327396     3.319753
      3.312110     3.304467     3.296824     3.289180     3.281537     3.273894     3.266251     3.258607     3.250964     3.243321
      3.235678     3.228034     3.220391     3.212748     3.205105     3.197462     3.189818     3.182175     3.174532     3.166889
      3.159245     3.151602     3.143959     3.136316     3.128673     3.121029     3.113386     3.105743     3.098100     3.090456
      3.082813     3.075170     3.067527     3.059884     3.052240     3.044597     3.036954     3.029311     3.021667     3.014024
      3.006381     2.998738     2.991095     2.983451     2.975808     2.968165     2.960522     2.952878     2.945235     2.937592
      2.929949     2.922306     2.914662     2.907019     2.899376     2.891733     2.884089     2.876446     2.868803     2.861160
      2.853517     2.845873     2.838230     2.830587     2.822944     2.815300     2.807657     2.800014     2.792371     2.784728
      2.777084     2.769441     2.761798     2.754155     2.746511     2.738868     2.731225     2.723582     2.715939     2.708295
      2.700652     2.693009     2.685366     2.677722     2.670079     2.662436     2.654793     2.647150     2.639506     2.631863
      2.624220     2.616577     2.608933     2.601290     2.593647     2.586004     2.578361     2.570717     2.563074     2.555431
      2.547788     2.540144     2.532501     2.524858     2.517215     2.509572     2.501928     2.494285     2.486642     2.478999
      2.471355     2.463712     2.456069     2.448426     2.440783     2.433139     2.425496     2.417853     2.410210     2.402566
      2.394923     2.387280     2.379637     2.371994     2.364350     2.356707     2.349064     2.341421     2.333777     2.326134
      2.318491     2.310848     2.303205     2.295561     2.287918     2.280275     2.272632     2.264988     2.257345     2.249702
      2.242059     2.234416     2.226772     2.219129     2.211486     2.203843     2.196199     2.188556     2.180913     2.173270
      2.165627     2.157983     2.150340     2.142697     2.135054     2.127410     2.119767     2.112124     2.104481     2.096838
      2.089194     2.081551     2.073908     2.066265     2.058621     2.050978     2.043335     2.035692     2.028049     2.020405
      2.012762     2.005119     1.997476     1.989833     1.982190     1.974546     1.966903     1.959260     1.951617     1.943974
      1.936331     1.928688     1.921045     1.913402     1.905759     1.898115     1.890472     1.882829     1.875186     1.867543
      1.859900     1.852257     1.844614     1.836971     1.829327     1.821684     1.814041     1.806398     1.798755     1.791112
      1.783469     1.775826     1.768183     1.760540     1.752896     1.745253     1.737610     1.729967     1.722324     1.714681
      1.707038     1.699395     1.691752     1.684108     1.676465     1.668822     1.661179     1.653536     1.645893     1.638250
      1.630607     1.622964     1.615321     1.607677     1.600034     1.592391     1.584748     1.577105     1.569462     1.561819
      1.554176     1.546533     1.538890     1.531246     1.523603     1.515960     1.508317     1.500674     1.493031     1.485388
      1.477745     1.470102     1.462458     1.454815     1.447172     1.439529     1.431886     1.424243     1.416600     1.408957
      1.401314     1.393671     1.386027     1.378384     1.370741     1.363098     1.355455     1.347812     1.340169     1.332526
      1.324883     1.317240     1.309596     1.301953     1.294310     1.286667     1.279024     1.271381     1.263738     1.256095
      1.248452     1.240808     1.233165     1.225522     1.217879     1.210236     1.202593     1.194950     1.187307     1.179664
      1.172021     1.164377     1.156734     1.149091     1.141448     1.133805     1.126162     1.118519     1.110876     1.103233
      1.095590     1.087946     1.080303     1.072660     1.065017     1.057374     1.049731     1.042088     1.034445     1.026802
      1.019158     1.011515     1.003872     0.996229     0.988586     0.980943     0.973300     0.965657     0.958014     0.950371
      0.942727     0.935084     0.927441     0.919798     0.912155     0.904512     0.896869     0.889226     0.881583     0.873940
      0.866296     0.858653     0.851010     0.843367     0.835724     0.828081     0.820438     0.812795     0.805152     0.797508
      0.789865     0.782222     0.774579     0.766936     0.759293     0.751650     0.744007     0.736364     0.728721     0.721077
      0.713434     0.705791     0.698148     0.690505     0.682862     0.675219     0.667576     0.659933     0.652290     0.644646
      0.637003     0.629360     0.621717     0.614074     0.606431     0.598788     0.591145     0.583502     0.575858     0.568215
      0.560572     0.552929     0.545286     0.537643     0.530000     0.522357     0.514714     0.507071     0.499427     0.491784
      0.484141     0.476498     0.468855     0.461212     0.453569     0.445925     0.438282     0.430639     0.422996     0.415353
      0.407710     0.400067     0.392424     0.384780     0.377137     0.369494     0.361851     0.354208     0.346565     0.338922
      0.331278     0.323635     0.315992     0.308349     0.300706     0.293063     0.285420     0.277777     0.270133     0.262490
      0.254847     0.247204     0.239561     0.231918     0.224275     0.216631     0.208988     0.201345
 NY phased data points follow
   2.11652E+01  5.18507E+00  1.64765E+01  1.12892E+01  2.74725E+01  1.83657E+01  3.74418E+01  2.44152E+01  3.94022E+01  4.46458E+01
   6.09033E+01  5.43853E+01  6.54100E+01  4.81180E+01  5.54693E+01  3.42267E+01  4.45795E+01  2.96101E+01  3.33594E+01  2.02802E+01
   2.80200E+01  1.67868E+01  2.89911E+01  2.14963E+01  2.65081E+01  1.38763E+01  2.09802E+01  1.45050E+01  2.75940E+01  1.40380E+01
   3.12937E+01  2.53710E+01  3.57914E+01  2.64584E+01  3.10438E+01  1.79931E+01  2.39197E+01  1.35808E+01  2.53676E+01  1.19508E+01
   2.63048E+01  1.79299E+01  3.08942E+01  1.37131E+01  2.88947E+01  2.13253E+01  3.40336E+01  2.65874E+01  3.13519E+01  2.18988E+01
   2.78844E+01  1.40071E+01  2.50734E+01  1.24709E+01  2.18970E+01  1.98073E+01  2.53496E+01  1.47554E+01  2.23519E+01  1.56567E+01
   1.88530E+01  8.38542E+00  1.03898E+01  5.86526E+00  1.22888E+01  7.14280E+00  1.42891E+01  1.69170E+00  9.39481E+00  4.18253E+00
   1.41471E+01  6.11670E+00  1.08529E+01 -1.55057E+00  5.89716E+00 -1.27501E+00  2.10744E+01  1.43346E+00  1.12598E+01  1.10195E+01
   7.13002E+00  6.54448E+00  1.36068E+01 -1.31725E+00  1.51578E+01  5.35802E+00  1.28836E+01  9.01427E+00  9.62802E+00  6.50267E+00
   1.35870E+01  7.95714E+00  1.42942E+01  2.78428E+00  1.78786E+01  8.65530E+00  1.32086E+01  6.69704E+00  2.06932E+01  1.95776E+01
   3.21599E+01  3.24779E+01  5.33830E+01  5.62145E+01  6.96342E+01  4.39424E+01  4.37291E+01  3.44261E+01  3.62244E+01  1.43936E+01
   1.95587E+01  1.58460E+01  1.24223E+01  3.89629E+00  1.44403E+01  3.88836E+00  1.57327E+01  1.60505E+00  1.25839E+01  3.84411E+00
   7.72468E+00  8.83141E+00  2.40086E+01  2.38778E+01  3.77169E+01  4.71854E+01  7.64368E+01  8.29821E+01  9.29159E+01  7.18865E+01
   6.65962E+01  4.81732E+01  4.32592E+01  2.74089E+01  2.91675E+01  2.39597E+01  3.12477E+01  1.16148E+01  1.52052E+01  5.86269E+00
   1.39392E+01  5.71759E+00  8.24167E+00  5.88135E+00  7.81930E+00  3.45577E+00  2.20756E+00  5.78754E+00  6.32285E+00  1.32587E+00
   1.07222E+01 -2.90421E+00  3.79196E+00 -2.03896E-01  8.41063E+00 -7.63909E+00  6.05239E+00  1.14279E+00  2.75647E+00  1.15688E+00
  -5.96602E-01  1.49756E+00 -8.43440E-01 -1.19824E+01 -1.65433E-01 -6.57583E+00 -7.44381E+00 -9.97477E+00 -7.20498E+00 -1.89977E+01
  -1.40443E+01 -8.36450E+00 -9.70824E+00 -2.09984E+01 -2.17846E+01 -2.68117E+01 -2.48533E+01 -2.29241E+01 -1.80387E+01 -2.34556E+01
  -1.31396E+01 -1.61310E+01 -5.46929E+00 -9.53076E+00 -1.10289E+01 -1.70926E+01 -2.77792E+00 -7.12271E+00 -1.70446E+00 -1.19175E+01
  -9.30030E+00 -9.56647E+00 -4.49787E+00 -4.33627E+00 -2.96594E-01 -9.71048E+00 -5.97323E+00 -9.73914E+00 -4.22800E+00 -1.06260E+01
  -7.64368E+00 -1.18654E+01  5.52650E+00 -1.17526E+00  1.07207E+01  2.95911E+00  1.13923E-01 -4.33807E+00  3.29123E+00 -2.02609E+00
  -3.18105E+00 -1.08360E+01  7.08455E+00  1.34437E+00  2.04135E+01  1.29352E+01  1.61146E+01  6.56240E+00  7.14973E+00  1.71372E-01
   6.79756E-01 -8.99773E+00  5.86955E-01 -8.84149E+00 -1.15274E+00  1.74923E+00  8.15113E+00  1.44281E+01  2.05277E+01  6.01852E+00
   8.70260E+00  1.26053E+01  1.27797E+01  1.21537E+01  1.16797E+01  1.65313E+01  1.41706E+01  1.48930E+01  1.62391E+01  1.28417E+01
   1.88058E+01  8.97196E+00  1.75457E+01  6.60856E+00  2.06634E+01  1.82422E+01  1.79228E+01  2.23986E+01  3.20149E+01  2.16697E+01
   3.73981E+01  3.38718E+01  4.44968E+01  4.96198E+01  6.47652E+01  7.15604E+01  8.34168E+01  1.01882E+02  1.19920E+02  1.38084E+02
   1.60528E+02  1.63044E+02  1.43177E+02  1.05141E+02  8.39538E+01  5.47155E+01  4.59114E+01  3.98273E+01  3.53549E+01  2.36476E+01
   1.64466E+01  1.97475E+01  1.69957E+01  1.72927E+01  1.43290E+01  9.16021E+00  1.25864E+01  8.98682E+00  1.29368E+01  6.72136E+00
   1.36403E+01  9.58851E-01  1.25538E+01  7.31433E+00  9.11687E+00  1.07238E+01  5.43274E+00  2.40747E+00  7.14241E+00  8.61395E+00
   1.24434E+01  1.27167E+01  6.59660E+00  2.63445E+00  1.20797E+01  1.17311E+01  1.48144E+01  1.35557E+01  1.16412E+01  1.01233E+01
   1.50030E+01  1.38882E+01  1.73449E+01  9.77706E+00  1.40981E+01  3.98809E+00  2.18862E+00  2.25896E+00 -1.81612E+00 -4.62165E+00
  -1.36445E+01 -1.78893E+01 -1.31213E+01 -2.98510E+01 -2.29381E+01 -3.81839E+01 -3.73157E+01 -4.42420E+01 -4.10176E+01 -3.74669E+01
  -4.22211E+01 -5.09272E+01 -3.75610E+01 -4.64969E+01 -3.17944E+01 -4.04912E+01 -3.52820E+01 -3.10692E+01 -2.21705E+01 -2.52320E+01
  -1.66029E+01 -1.87237E+01 -8.39652E+00 -8.44759E+00 -6.68702E+00  2.70724E+00 -1.05799E-01  8.03052E+00  1.12431E+01  6.73176E+00
   1.06233E+01  1.22702E+01  1.78352E+01  1.42320E+01  1.12288E+01  1.21181E+01  1.49560E+01  1.70385E+01  1.70395E+01  8.94714E+00
   1.37658E+01  8.59969E+00  1.09569E+01  2.09904E+00  1.36699E+01  9.43285E+00  1.17332E+01  5.47834E+00  1.10307E+01  4.54064E+00
   1.00948E+01 -9.27583E-01  1.35351E+01  1.12537E+01  1.00020E+01  6.93690E+00  1.18494E+01 -6.38477E-01  9.09871E+00  7.95144E-01
   4.83360E+00 -2.04216E-01  9.08460E-01 -5.77237E+00 -1.69627E+00 -3.05935E+00 -6.07670E+00 -1.84389E-01 -2.83836E+00 -4.62591E+00
   8.76677E-01 -6.03480E+00 -3.10894E+00 -3.43012E+00 -3.73224E+00  3.05870E-01 -6.42819E+00 -3.61139E+00 -8.47546E-01 -3.82094E+00
   5.98085E+00  2.83865E+00  4.17711E+00  3.25752E-01  7.66797E+00 -2.65158E+00  1.14693E+01  9.56350E+00  1.08783E+01  8.28086E+00
   1.40581E+01  8.89072E+00  9.54316E+00  6.79602E+00  1.20102E+01  5.35787E+00  2.07970E+01  2.00466E+01  1.19316E+01  9.37288E+00
   1.71672E+01  6.51579E+00  1.33150E+01  1.12604E+00  1.05420E+01 -6.64529E-02 -6.81830E+00  3.32266E+00 -6.15344E+00 -5.81196E+00
   1.16875E+00 -5.80065E+00  3.61562E+00 -6.29389E+00 -9.87173E+00 -1.32797E+01 -6.27026E+00 -1.30017E+01 -9.58547E+00 -1.03985E+01
  -1.20614E+01 -9.42307E+00 -5.62620E+00 -7.82941E+00 -6.17057E+00 -1.46309E+01 -8.62850E+00 -1.27388E+01 -8.36936E+00 -9.83180E+00
  -1.44769E+00 -4.28207E+00 -9.39665E-01 -1.00372E+01 -1.10736E+01 -5.72564E+00 -2.28450E+00 -1.44197E+01 -1.03265E+01 -9.97462E+00
  -1.05175E+01 -5.32950E+00 -7.63233E+00 -5.50208E+00 -6.70705E+00 -1.10516E+01 -1.37688E+00 -1.26765E+01 -6.34966E+00 -1.32075E+01
  -4.92076E+00 -4.63768E+00 -5.64114E+00 -9.52345E+00 -1.26033E+00 -3.96302E+00 -1.66614E+00 -6.20770E+00  2.52275E+00 -1.03340E+01
  -2.57336E+00 -6.31831E+00 -6.13288E+00 -4.68960E+00 -2.20316E+00 -3.50945E+00 -1.11350E+00 -6.14522E+00 -2.60380E+00  9.88346E-01
  -5.06770E+00 -3.66577E+00 -7.21991E-01 -3.79564E+00 -7.45707E+00  3.40662E+00 -5.48897E+00 -1.10504E+01 -7.52483E+00 -6.78628E+00
  -1.66754E+00 -7.81016E+00 -2.38014E-01 -8.56635E+00 -7.95971E+00 -2.67677E+00 -7.40900E+00 -6.52202E+00
 NY points of the fit to the data follow
   1.96747E+01  1.84241E+01  1.82555E+01  1.96263E+01  2.14080E+01  2.34683E+01  2.81360E+01  3.15723E+01  3.85769E+01  4.62441E+01
   5.55141E+01  5.97838E+01  6.08959E+01  5.57059E+01  4.84294E+01  4.03800E+01  3.65638E+01  3.30274E+01  2.94772E+01  2.87257E+01
   2.45862E+01  2.14983E+01  2.04123E+01  2.03619E+01  2.03104E+01  1.96152E+01  1.92173E+01  1.92642E+01  2.06852E+01  2.42516E+01
   2.90687E+01  3.21603E+01  3.29248E+01  3.19643E+01  2.85554E+01  2.30139E+01  1.93976E+01  1.79109E+01  1.64319E+01  1.60604E+01
   1.76668E+01  1.88062E+01  1.89908E+01  1.98015E+01  2.17645E+01  2.33177E+01  2.55769E+01  2.78083E+01  2.66487E+01  2.34200E+01
   2.04988E+01  1.80897E+01  1.56503E+01  1.47062E+01  1.49953E+01  1.46096E+01  1.36794E+01  1.36304E+01  1.42891E+01  1.49177E+01
   1.50687E+01  1.44331E+01  1.33681E+01  1.21696E+01  1.08455E+01  1.02757E+01  1.03705E+01  1.05595E+01  1.08361E+01  1.10805E+01
   1.12034E+01  1.14218E+01  1.14758E+01  1.12121E+01  1.07931E+01  1.03541E+01  9.96410E+00  9.39565E+00  9.16375E+00  9.17593E+00
   9.23461E+00  9.12138E+00  9.05802E+00  9.64150E+00  1.02271E+01  1.08983E+01  1.11802E+01  1.05894E+01  8.71314E+00  7.18312E+00
   6.50192E+00  6.01445E+00  5.77393E+00  6.44055E+00  6.57612E+00  5.97054E+00  7.78172E+00  1.23612E+01  1.54410E+01  1.88979E+01
   2.76178E+01  3.80695E+01  5.06422E+01  6.13122E+01  6.42253E+01  5.43934E+01  4.27092E+01  3.36353E+01  2.53259E+01  1.82276E+01
   1.93177E+01  1.73598E+01  9.76024E+00  7.13831E+00  6.53204E+00  6.38516E+00  6.38281E+00  6.50728E+00  6.79047E+00  7.49957E+00
   1.01533E+01  1.67053E+01  2.26832E+01  2.71385E+01  3.86887E+01  5.21587E+01  6.90067E+01  8.33067E+01  9.01019E+01  7.88517E+01
   6.33060E+01  5.06698E+01  4.02045E+01  2.92447E+01  2.85809E+01  2.64971E+01  1.48100E+01  9.29518E+00  8.01731E+00  7.74007E+00
   8.27479E+00  8.61112E+00  8.31619E+00  7.70636E+00  7.15170E+00  6.42565E+00  5.89032E+00  5.27663E+00  4.57116E+00  3.99835E+00
   3.21995E+00  2.49653E+00  1.89064E+00  1.33290E+00  6.12671E-01 -5.73212E-02 -3.09616E-01 -7.09296E-01 -1.30555E+00 -2.18453E+00
  -3.51215E+00 -4.60041E+00 -4.80291E+00 -4.20773E+00 -3.77696E+00 -3.82353E+00 -4.64949E+00 -6.18163E+00 -7.79144E+00 -8.68070E+00
  -9.46498E+00 -9.78918E+00 -9.95002E+00 -1.12782E+01 -1.26009E+01 -1.36013E+01 -1.39242E+01 -1.36310E+01 -1.26901E+01 -1.25342E+01
  -1.31104E+01 -1.37322E+01 -1.35295E+01 -1.32944E+01 -1.25538E+01 -1.15560E+01 -1.09246E+01 -1.00225E+01 -8.40007E+00 -5.85924E+00
  -3.79363E+00 -2.80875E+00 -2.95806E+00 -3.67652E+00 -5.03269E+00 -5.37976E+00 -5.49416E+00 -5.57254E+00 -5.29205E+00 -4.11171E+00
  -2.42727E+00 -6.34909E-01  1.19430E+00  2.04659E+00  1.90188E+00  3.11612E-01 -2.63714E+00 -6.41323E+00 -9.52156E+00 -1.15795E+01
  -1.20541E+01 -1.04547E+01 -5.88003E+00 -1.62640E+00  2.91300E+00  6.71261E+00  7.31574E+00  3.59257E+00  3.66897E-02 -4.42217E+00
  -9.10235E+00 -1.23366E+01 -1.21392E+01 -8.39966E+00 -4.34359E+00  4.05246E-01  4.40590E+00  7.77596E+00  9.40140E+00  9.15101E+00
   9.45505E+00  1.09301E+01  1.13894E+01  1.18394E+01  1.30556E+01  1.43094E+01  1.53358E+01  1.68325E+01  1.81115E+01  1.83458E+01
   1.83890E+01  1.86035E+01  1.87533E+01  1.87168E+01  2.09571E+01  2.37544E+01  2.56284E+01  2.69793E+01  2.90952E+01  3.07741E+01
   3.24636E+01  3.51172E+01  3.99071E+01  4.88208E+01  6.35623E+01  7.45333E+01  8.42313E+01  1.00808E+02  1.18927E+02  1.41602E+02
   1.60330E+02  1.61431E+02  1.36541E+02  1.08972E+02  8.49403E+01  6.26452E+01  4.48728E+01  4.50754E+01  3.83126E+01  1.94741E+01
   1.20719E+01  9.36598E+00  7.37568E+00  6.18698E+00  5.33706E+00  4.27128E+00  3.23606E+00  2.34177E+00  1.60847E+00  1.11663E+00
   1.01840E+00  1.20974E+00  1.65670E+00  2.34030E+00  3.24443E+00  4.38977E+00  5.71702E+00  7.10045E+00  8.58469E+00  1.01325E+01
   1.16560E+01  1.30444E+01  1.42369E+01  1.51696E+01  1.57499E+01  1.59249E+01  1.57042E+01  1.50513E+01  1.40038E+01  1.26179E+01
   1.09172E+01  8.96021E+00  6.80963E+00  4.53142E+00  2.19819E+00 -1.42995E-01 -2.42792E+00 -4.57936E+00 -6.57867E+00 -8.39799E+00
  -1.00134E+01 -1.14257E+01 -1.26345E+01 -1.36464E+01 -1.44762E+01 -1.51398E+01 -1.56564E+01 -1.60457E+01 -1.63256E+01 -1.65105E+01
  -1.66138E+01 -1.66462E+01 -1.66154E+01 -1.65265E+01 -1.63806E+01 -1.61755E+01 -1.59068E+01 -1.55682E+01 -1.51514E+01 -1.46454E+01
  -1.40367E+01 -1.33099E+01 -1.24504E+01 -1.14431E+01 -1.02737E+01 -8.92697E+00 -7.38800E+00 -5.64050E+00 -3.66187E+00 -1.39873E+00
   1.28557E+00  4.27001E+00  6.76005E+00  9.19804E+00  1.23036E+01  1.46851E+01  1.63469E+01  1.62805E+01  1.45109E+01  1.15721E+01
   9.46931E+00  8.44857E+00  8.61580E+00  9.72026E+00  1.29782E+01  1.56675E+01  1.68224E+01  1.69996E+01  1.59450E+01  1.44310E+01
   1.22609E+01  9.67657E+00  8.71059E+00  7.50026E+00  5.02231E+00  3.08645E+00  1.57161E+00  2.91449E-01 -8.16839E-01 -1.78223E+00
  -2.62253E+00 -3.34968E+00 -3.97315E+00 -4.49945E+00 -4.93330E+00 -5.27655E+00 -5.52976E+00 -5.69161E+00 -5.76044E+00 -5.73318E+00
  -5.60667E+00 -5.37692E+00 -5.04098E+00 -4.59619E+00 -4.04165E+00 -3.37705E+00 -2.60417E+00 -1.72622E+00 -7.49653E-01  3.16813E-01
   1.46099E+00  2.66859E+00  3.92177E+00  5.20035E+00  6.48061E+00  7.73730E+00  8.94323E+00  1.00715E+01  1.10949E+01  1.19880E+01
   1.27269E+01  1.32919E+01  1.36671E+01  1.38426E+01  1.38133E+01  1.35803E+01  1.31496E+01  1.25335E+01  1.17486E+01  1.08164E+01
   9.76018E+00  8.60594E+00  7.37960E+00  6.10789E+00  4.81578E+00  3.52696E+00  2.26147E+00  1.03702E+00 -1.32566E-01 -1.23571E+00
  -2.26475E+00 -3.21429E+00 -4.08263E+00 -4.86946E+00 -5.57686E+00 -6.20733E+00 -6.76527E+00 -7.25520E+00 -7.68299E+00 -8.05371E+00
  -8.37297E+00 -8.64526E+00 -8.87580E+00 -9.06884E+00 -9.22916E+00 -9.36006E+00 -9.46512E+00 -9.54668E+00 -9.60788E+00 -9.65081E+00
  -9.67807E+00 -9.69090E+00 -9.69109E+00 -9.67946E+00 -9.65782E+00 -9.62697E+00 -9.58833E+00 -9.54207E+00 -9.48918E+00 -9.42984E+00
  -9.36529E+00 -9.29572E+00 -9.22197E+00 -9.14374E+00 -9.06173E+00 -8.97590E+00 -8.88722E+00 -8.79553E+00 -8.70138E+00 -8.60431E+00
  -8.50496E+00 -8.40321E+00 -8.29987E+00 -8.19454E+00 -8.08762E+00 -7.97863E+00 -7.86826E+00 -7.75633E+00 -7.64349E+00 -7.52922E+00
  -7.41388E+00 -7.29699E+00 -7.17929E+00 -7.06053E+00 -6.94125E+00 -6.82079E+00 -6.69959E+00 -6.57722E+00 -6.45445E+00 -6.33091E+00
  -6.20706E+00 -6.08218E+00 -5.95678E+00 -5.83050E+00 -5.70408E+00 -5.57703E+00 -5.44973E+00 -5.32149E+00 -5.19290E+00 -5.06363E+00
  -4.93435E+00 -4.80445E+00 -4.67429E+00 -4.54322E+00 -4.41190E+00 -4.27996E+00 -4.14800E+00 -4.01528E+00
 NY background values follow
     1.644E+01    1.631E+01    1.617E+01    1.604E+01    1.590E+01    1.577E+01    1.563E+01    1.550E+01    1.536E+01    1.523E+01
     1.509E+01    1.496E+01    1.482E+01    1.469E+01    1.455E+01    1.441E+01    1.428E+01    1.414E+01    1.401E+01    1.387E+01
     1.374E+01    1.360E+01    1.347E+01    1.333E+01    1.319E+01    1.306E+01    1.292E+01    1.279E+01    1.265E+01    1.251E+01
     1.238E+01    1.224E+01    1.211E+01    1.197E+01    1.183E+01    1.170E+01    1.156E+01    1.142E+01    1.128E+01    1.115E+01
     1.101E+01    1.087E+01    1.074E+01    1.060E+01    1.046E+01    1.032E+01    1.018E+01    1.005E+01    9.908E+00    9.770E+00
     9.632E+00    9.493E+00    9.354E+00    9.216E+00    9.077E+00    8.938E+00    8.799E+00    8.660E+00    8.521E+00    8.381E+00
     8.242E+00    8.102E+00    7.963E+00    7.823E+00    7.683E+00    7.544E+00    7.404E+00    7.264E+00    7.124E+00    6.984E+00
     6.843E+00    6.703E+00    6.563E+00    6.423E+00    6.282E+00    6.142E+00    6.001E+00    5.861E+00    5.720E+00    5.579E+00
     5.439E+00    5.298E+00    5.157E+00    5.016E+00    4.876E+00    4.735E+00    4.594E+00    4.453E+00    4.312E+00    4.171E+00
     4.030E+00    3.889E+00    3.748E+00    3.607E+00    3.466E+00    3.325E+00    3.184E+00    3.043E+00    2.902E+00    2.761E+00
     2.620E+00    2.479E+00    2.338E+00    2.198E+00    2.057E+00    1.916E+00    1.775E+00    1.634E+00    1.493E+00    1.353E+00
     1.212E+00    1.071E+00    9.307E-01    7.902E-01    6.497E-01    5.092E-01    3.688E-01    2.285E-01    8.828E-02   -5.190E-02
    -1.920E-01   -3.321E-01   -4.720E-01   -6.119E-01   -7.517E-01   -8.914E-01   -1.031E+00   -1.171E+00   -1.310E+00   -1.449E+00
    -1.589E+00   -1.728E+00   -1.867E+00   -2.006E+00   -2.145E+00   -2.283E+00   -2.422E+00   -2.560E+00   -2.699E+00   -2.837E+00
    -2.975E+00   -3.113E+00   -3.251E+00   -3.388E+00   -3.526E+00   -3.663E+00   -3.800E+00   -3.937E+00   -4.074E+00   -4.210E+00
    -4.347E+00   -4.483E+00   -4.619E+00   -4.755E+00   -4.890E+00   -5.026E+00   -5.161E+00   -5.296E+00   -5.430E+00   -5.565E+00
    -5.699E+00   -5.833E+00   -5.966E+00   -6.100E+00   -6.233E+00   -6.366E+00   -6.498E+00   -6.631E+00   -6.763E+00   -6.894E+00
    -7.026E+00   -7.157E+00   -7.288E+00   -7.418E+00   -7.548E+00   -7.678E+00   -7.807E+00   -7.936E+00   -8.065E+00   -8.194E+00
    -8.322E+00   -8.449E+00   -8.577E+00   -8.704E+00   -8.830E+00   -8.957E+00   -9.083E+00   -9.208E+00   -9.333E+00   -9.458E+00
    -9.582E+00   -9.706E+00   -9.830E+00   -9.953E+00   -1.008E+01   -1.020E+01   -1.032E+01   -1.044E+01   -1.056E+01   -1.069E+01
    -1.081E+01   -1.093E+01   -1.105E+01   -1.117E+01   -1.129E+01   -1.141E+01   -1.152E+01   -1.164E+01   -1.176E+01   -1.188E+01
    -1.200E+01   -1.211E+01   -1.223E+01   -1.234E+01   -1.246E+01   -1.258E+01   -1.269E+01   -1.281E+01   -1.292E+01   -1.303E+01
    -1.315E+01   -1.326E+01   -1.337E+01   -1.349E+01   -1.360E+01   -1.371E+01   -1.382E+01   -1.393E+01   -1.405E+01   -1.416E+01
    -1.427E+01   -1.438E+01   -1.449E+01   -1.459E+01   -1.470E+01   -1.481E+01   -1.492E+01   -1.503E+01   -1.513E+01   -1.524E+01
    -1.534E+01   -1.545E+01   -1.555E+01   -1.566E+01   -1.576E+01   -1.586E+01   -1.596E+01   -1.607E+01   -1.617E+01   -1.627E+01
    -1.637E+01   -1.647E+01   -1.656E+01   -1.666E+01   -1.676E+01   -1.686E+01   -1.695E+01   -1.705E+01   -1.714E+01   -1.723E+01
    -1.733E+01   -1.742E+01   -1.751E+01   -1.760E+01   -1.769E+01   -1.778E+01   -1.786E+01   -1.795E+01   -1.804E+01   -1.812E+01
    -1.820E+01   -1.829E+01   -1.837E+01   -1.845E+01   -1.853E+01   -1.861E+01   -1.869E+01   -1.876E+01   -1.884E+01   -1.892E+01
    -1.899E+01   -1.906E+01   -1.913E+01   -1.920E+01   -1.927E+01   -1.934E+01   -1.941E+01   -1.947E+01   -1.954E+01   -1.960E+01
    -1.966E+01   -1.972E+01   -1.978E+01   -1.983E+01   -1.989E+01   -1.994E+01   -2.000E+01   -2.005E+01   -2.010E+01   -2.014E+01
    -2.019E+01   -2.023E+01   -2.028E+01   -2.032E+01   -2.036E+01   -2.039E+01   -2.043E+01   -2.046E+01   -2.049E+01   -2.052E+01
    -2.055E+01   -2.058E+01   -2.060E+01   -2.062E+01   -2.065E+01   -2.066E+01   -2.068E+01   -2.069E+01   -2.071E+01   -2.072E+01
    -2.073E+01   -2.073E+01   -2.074E+01   -2.074E+01   -2.074E+01   -2.074E+01   -2.073E+01   -2.073E+01   -2.072E+01   -2.071E+01
    -2.070E+01   -2.069E+01   -2.067E+01   -2.066E+01   -2.064E+01   -2.062E+01   -2.059E+01   -2.057E+01   -2.055E+01   -2.052E+01
    -2.049E+01   -2.046E+01   -2.043E+01   -2.039E+01   -2.036E+01   -2.032E+01   -2.028E+01   -2.024E+01   -2.020E+01   -2.016E+01
    -2.011E+01   -2.006E+01   -2.002E+01   -1.997E+01   -1.991E+01   -1.986E+01   -1.981E+01   -1.975E+01   -1.970E+01   -1.964E+01
    -1.958E+01   -1.952E+01   -1.945E+01   -1.939E+01   -1.932E+01   -1.926E+01   -1.919E+01   -1.912E+01   -1.905E+01   -1.898E+01
    -1.891E+01   -1.883E+01   -1.876E+01   -1.868E+01   -1.860E+01   -1.852E+01   -1.844E+01   -1.836E+01   -1.828E+01   -1.819E+01
    -1.811E+01   -1.802E+01   -1.794E+01   -1.785E+01   -1.776E+01   -1.767E+01   -1.758E+01   -1.748E+01   -1.739E+01   -1.729E+01
    -1.720E+01   -1.710E+01   -1.700E+01   -1.690E+01   -1.680E+01   -1.670E+01   -1.660E+01   -1.650E+01   -1.639E+01   -1.629E+01
    -1.618E+01   -1.608E+01   -1.597E+01   -1.586E+01   -1.575E+01   -1.564E+01   -1.553E+01   -1.542E+01   -1.531E+01   -1.519E+01
    -1.508E+01   -1.496E+01   -1.485E+01   -1.473E+01   -1.461E+01   -1.449E+01   -1.438E+01   -1.426E+01   -1.414E+01   -1.402E+01
    -1.389E+01   -1.377E+01   -1.365E+01   -1.353E+01   -1.340E+01   -1.328E+01   -1.315E+01   -1.303E+01   -1.290E+01   -1.277E+01
    -1.265E+01   -1.252E+01   -1.239E+01   -1.226E+01   -1.213E+01   -1.200E+01   -1.187E+01   -1.174E+01   -1.161E+01   -1.148E+01
    -1.135E+01   -1.122E+01   -1.109E+01   -1.095E+01   -1.082E+01   -1.069E+01   -1.055E+01   -1.042E+01   -1.029E+01   -1.015E+01
    -1.002E+01   -9.886E+00   -9.752E+00   -9.617E+00   -9.483E+00   -9.348E+00   -9.213E+00   -9.078E+00   -8.943E+00   -8.808E+00
    -8.673E+00   -8.537E+00   -8.402E+00   -8.266E+00   -8.130E+00   -7.994E+00   -7.859E+00   -7.723E+00   -7.587E+00   -7.450E+00
    -7.314E+00   -7.178E+00   -7.042E+00   -6.906E+00   -6.769E+00   -6.633E+00   -6.497E+00   -6.360E+00   -6.224E+00   -6.087E+00
    -5.951E+00   -5.814E+00   -5.678E+00   -5.541E+00   -5.405E+00   -5.269E+00   -5.132E+00   -4.996E+00   -4.860E+00   -4.723E+00
    -4.587E+00   -4.451E+00   -4.315E+00   -4.179E+00   -4.043E+00   -3.907E+00   -3.771E+00   -3.635E+00
 Asp      Conc. = 1.34E+02
