 LCModel (Version 6.3-1L) Copyright: S.W. Provencher.          Ref.: Magn. Reson. Med. 30:672-679 (1993).                
 Slice#1 Row#8 Col#7  PD_24_press_2_raw_act
 36 lines in following concentration table = NCONC+1
    Conc.  %SD /Cr+PCr  Metabolite                                         
  305.192  45%   0.187 Ala                                                 
  199.451 134%   0.122 Asp                                                 
 1.09E+03  19%   0.668 Cr                                                  
  542.286  41%   0.332 PCr                                                 
    0.000 999%   0.000 GABA                                                
  201.064  87%   0.123 Glc                                                 
  552.429  49%   0.338 Gln                                                 
 1.79E+03  17%   1.094 Glu                                                 
  412.321   7%   0.252 GPC                                                 
    0.000 999%   0.000 PCh                                                 
  422.660  23%   0.259 GSH                                                 
 1.73E+03  18%   1.056 Ins                                                 
    0.000 999%   0.000 Lac                                                 
 2.62E+03   6%   1.602 NAA                                                 
  435.483  35%   0.266 NAAG                                                
  106.315  32% 6.5E-02 Scyllo                                              
   65.756 361% 4.0E-02 Tau                                                 
  101.183 138% 6.2E-02 -CrCH2                                              
  412.321   7%   0.252 GPC+PCh                                             
 3.05E+03   4%   1.868 NAA+NAAG                                            
 1.63E+03   5%   1.000 Cr+PCr                                              
 2.34E+03  18%   1.432 Glu+Gln                                             
 2.14E+03  23%   1.307 Lip13a                                              
    0.000 999%   0.000 Lip13b                                              
  542.923  57%   0.332 Lip09                                               
 1.99E+03  18%   1.214 MM09                                                
  259.091  83%   0.158 Lip20                                               
 3.29E+03  15%   2.014 MM20                                                
  569.161  53%   0.348 MM12                                                
    0.000 999%   0.000 MM14                                                
 2.35E+03   8%   1.439 MM17                                                
 2.14E+03  23%   1.307 Lip13a+Lip13b                                       
 2.71E+03  15%   1.655 MM14+Lip13a+Lip13b+MM12                             
 2.53E+03  10%   1.546 MM09+Lip09                                          
 3.55E+03  14%   2.172 MM20+Lip20                                          
   6 lines in following misc. output table
  FWHM = 0.046 ppm    S/N =  11                                            
  Data shift = 0.008 ppm                                                   
  Ph:   2 deg       5.8 deg/ppm                                            
  alphaB,S = 5.9E+00,   5.7E+01                                            
   14 spline knots.   Ns = 6(1)                                            
  ( 8) 2 infls.   ( 7) 1 extrs.                                            
  498 points on ppm-axis = NY
      4.000000     3.992357     3.984714     3.977070     3.969427     3.961784     3.954141     3.946497     3.938854     3.931211
      3.923568     3.915925     3.908281     3.900638     3.892995     3.885352     3.877708     3.870065     3.862422     3.854779
      3.847136     3.839492     3.831849     3.824206     3.816563     3.808919     3.801276     3.793633     3.785990     3.778347
      3.770703     3.763060     3.755417     3.747774     3.740130     3.732487     3.724844     3.717201     3.709558     3.701914
      3.694271     3.686628     3.678985     3.671341     3.663698     3.656055     3.648412     3.640769     3.633125     3.625482
      3.617839     3.610196     3.602552     3.594909     3.587266     3.579623     3.571980     3.564336     3.556693     3.549050
      3.541407     3.533763     3.526120     3.518477     3.510834     3.503191     3.495547     3.487904     3.480261     3.472618
      3.464974     3.457331     3.449688     3.442045     3.434402     3.426758     3.419115     3.411472     3.403829     3.396185
      3.388542     3.380899     3.373256     3.365613     3.357969     3.350326     3.342683     3.335040     3.327396     3.319753
      3.312110     3.304467     3.296824     3.289180     3.281537     3.273894     3.266251     3.258607     3.250964     3.243321
      3.235678     3.228034     3.220391     3.212748     3.205105     3.197462     3.189818     3.182175     3.174532     3.166889
      3.159245     3.151602     3.143959     3.136316     3.128673     3.121029     3.113386     3.105743     3.098100     3.090456
      3.082813     3.075170     3.067527     3.059884     3.052240     3.044597     3.036954     3.029311     3.021667     3.014024
      3.006381     2.998738     2.991095     2.983451     2.975808     2.968165     2.960522     2.952878     2.945235     2.937592
      2.929949     2.922306     2.914662     2.907019     2.899376     2.891733     2.884089     2.876446     2.868803     2.861160
      2.853517     2.845873     2.838230     2.830587     2.822944     2.815300     2.807657     2.800014     2.792371     2.784728
      2.777084     2.769441     2.761798     2.754155     2.746511     2.738868     2.731225     2.723582     2.715939     2.708295
      2.700652     2.693009     2.685366     2.677722     2.670079     2.662436     2.654793     2.647150     2.639506     2.631863
      2.624220     2.616577     2.608933     2.601290     2.593647     2.586004     2.578361     2.570717     2.563074     2.555431
      2.547788     2.540144     2.532501     2.524858     2.517215     2.509572     2.501928     2.494285     2.486642     2.478999
      2.471355     2.463712     2.456069     2.448426     2.440783     2.433139     2.425496     2.417853     2.410210     2.402566
      2.394923     2.387280     2.379637     2.371994     2.364350     2.356707     2.349064     2.341421     2.333777     2.326134
      2.318491     2.310848     2.303205     2.295561     2.287918     2.280275     2.272632     2.264988     2.257345     2.249702
      2.242059     2.234416     2.226772     2.219129     2.211486     2.203843     2.196199     2.188556     2.180913     2.173270
      2.165627     2.157983     2.150340     2.142697     2.135054     2.127410     2.119767     2.112124     2.104481     2.096838
      2.089194     2.081551     2.073908     2.066265     2.058621     2.050978     2.043335     2.035692     2.028049     2.020405
      2.012762     2.005119     1.997476     1.989833     1.982190     1.974546     1.966903     1.959260     1.951617     1.943974
      1.936331     1.928688     1.921045     1.913402     1.905759     1.898115     1.890472     1.882829     1.875186     1.867543
      1.859900     1.852257     1.844614     1.836971     1.829327     1.821684     1.814041     1.806398     1.798755     1.791112
      1.783469     1.775826     1.768183     1.760540     1.752896     1.745253     1.737610     1.729967     1.722324     1.714681
      1.707038     1.699395     1.691752     1.684108     1.676465     1.668822     1.661179     1.653536     1.645893     1.638250
      1.630607     1.622964     1.615321     1.607677     1.600034     1.592391     1.584748     1.577105     1.569462     1.561819
      1.554176     1.546533     1.538890     1.531246     1.523603     1.515960     1.508317     1.500674     1.493031     1.485388
      1.477745     1.470102     1.462458     1.454815     1.447172     1.439529     1.431886     1.424243     1.416600     1.408957
      1.401314     1.393671     1.386027     1.378384     1.370741     1.363098     1.355455     1.347812     1.340169     1.332526
      1.324883     1.317240     1.309596     1.301953     1.294310     1.286667     1.279024     1.271381     1.263738     1.256095
      1.248452     1.240808     1.233165     1.225522     1.217879     1.210236     1.202593     1.194950     1.187307     1.179664
      1.172021     1.164377     1.156734     1.149091     1.141448     1.133805     1.126162     1.118519     1.110876     1.103233
      1.095590     1.087946     1.080303     1.072660     1.065017     1.057374     1.049731     1.042088     1.034445     1.026802
      1.019158     1.011515     1.003872     0.996229     0.988586     0.980943     0.973300     0.965657     0.958014     0.950371
      0.942727     0.935084     0.927441     0.919798     0.912155     0.904512     0.896869     0.889226     0.881583     0.873940
      0.866296     0.858653     0.851010     0.843367     0.835724     0.828081     0.820438     0.812795     0.805152     0.797508
      0.789865     0.782222     0.774579     0.766936     0.759293     0.751650     0.744007     0.736364     0.728721     0.721077
      0.713434     0.705791     0.698148     0.690505     0.682862     0.675219     0.667576     0.659933     0.652290     0.644646
      0.637003     0.629360     0.621717     0.614074     0.606431     0.598788     0.591145     0.583502     0.575858     0.568215
      0.560572     0.552929     0.545286     0.537643     0.530000     0.522357     0.514714     0.507071     0.499427     0.491784
      0.484141     0.476498     0.468855     0.461212     0.453569     0.445925     0.438282     0.430639     0.422996     0.415353
      0.407710     0.400067     0.392424     0.384780     0.377137     0.369494     0.361851     0.354208     0.346565     0.338922
      0.331278     0.323635     0.315992     0.308349     0.300706     0.293063     0.285420     0.277777     0.270133     0.262490
      0.254847     0.247204     0.239561     0.231918     0.224275     0.216631     0.208988     0.201345
 NY phased data points follow
   1.10984E+01  1.15210E+01  1.89325E+01  1.53341E+01  2.45805E+01  1.79799E+01  2.93381E+01  2.34347E+01  3.32467E+01  3.52446E+01
   4.42716E+01  4.19566E+01  4.58151E+01  3.61722E+01  3.55927E+01  3.10568E+01  2.23012E+01  1.62457E+01  1.86015E+01  9.32493E+00
   1.89772E+01  1.40107E+01  2.61388E+01  1.22452E+01  1.66407E+01  2.10227E+01  2.05150E+01  2.14783E+01  1.48194E+01  1.59918E+01
   2.68649E+01  1.13359E+01  1.55425E+01  1.29746E+01  1.81718E+01  1.51989E+01  1.85766E+01  1.24150E+01  1.88367E+01  1.14536E+01
   1.53319E+01  1.30254E+01  2.11336E+01  1.17698E+01  1.35053E+01  1.74851E+01  2.28719E+01  2.80614E+01  2.48892E+01  1.58713E+01
   1.86136E+01  1.40938E+01  2.05756E+01  1.03624E+01  2.36758E+01  1.90900E+01  1.89159E+01  1.52546E+01  2.19764E+01  1.34872E+01
   2.11415E+01  3.71734E+00  1.36982E+01  1.11178E+01  1.30956E+01  6.30504E+00  5.88171E+00  7.33072E+00  1.07388E+01  2.79593E+00
   9.90566E+00  2.86605E+00  1.68835E+01  6.51594E+00  1.02664E+01  5.88405E+00  5.01021E+00  7.40190E+00  1.12590E+01  2.51074E+00
   1.05598E+01  1.25820E-02  1.22584E+01  6.49150E+00  1.66295E+01  3.88569E+00  2.08414E+01  6.25282E+00  1.19223E+01  6.92287E+00
   8.86472E+00  5.47924E+00  1.16968E+01  1.32597E+01  1.54081E+01  1.58564E+01  7.82238E+00  6.08549E+00  1.67437E+01  5.87124E+00
   2.88869E+01  3.14482E+01  4.71136E+01  4.85897E+01  4.45207E+01  4.11908E+01  3.36182E+01  2.08116E+01  1.99203E+01  1.24712E+01
   1.44490E+01  1.14193E+01  7.60295E+00  3.25624E+00  6.43489E+00  5.44832E+00  9.10405E+00  7.98318E+00  4.54423E+00  1.19325E+00
   8.89490E+00  6.57528E+00  1.18313E+01  1.17886E+01  2.84002E+01  4.56145E+01  7.08507E+01  6.22751E+01  7.29866E+01  5.54804E+01
   4.25660E+01  3.68926E+01  2.90156E+01  1.82977E+01  1.86189E+01  1.92445E+01  9.19206E+00  9.87011E+00  1.51958E+01  6.35276E+00
   1.39830E+01  1.39036E+01  1.56050E+00  3.04606E+00 -5.12106E-02 -3.30214E+00  8.50412E+00  3.58554E+00  5.14811E+00  1.02219E+01
   8.37671E+00  2.17478E+00  3.54351E+00 -3.36444E+00  2.57988E+00  1.54705E+00  7.16096E-01  4.86264E+00  2.52744E+00 -7.93081E-01
   1.03480E+01 -1.82938E+00  2.85605E-01  7.83693E-01  2.24263E+00  2.51874E+00  9.06337E-01  3.65369E+00 -4.80962E+00 -7.13307E+00
  -1.94925E+00 -7.84881E+00 -1.36963E-01 -8.74379E+00 -3.84353E+00 -1.56964E+01 -1.57238E+01 -9.50552E+00 -1.02213E+01 -7.78496E+00
  -6.21735E+00 -1.54142E+01 -3.44628E+00 -1.16001E+01 -3.48592E+00 -4.15607E+00 -4.32393E+00 -8.13063E-01  2.74218E+00 -1.21033E+00
   2.15105E+00  7.60042E-01  8.53516E-03 -2.79346E+00 -3.14378E+00 -5.88349E+00 -4.15403E+00 -5.21705E+00 -4.07450E+00 -5.04822E+00
  -2.37716E+00 -6.80898E+00  4.26702E-01  7.39875E+00  1.43729E+00  9.59141E+00 -4.31217E+00  1.11484E+01 -5.66004E+00 -1.50575E+00
   4.21708E+00  4.56665E+00  3.71486E+00  2.02374E+01  1.71704E+01  1.87921E+01  2.11016E+01  1.76863E+01  1.92921E+01  9.67834E+00
  -2.25251E-01 -7.51356E+00 -3.32776E+00 -2.41118E+00  8.76367E+00  8.56697E+00  1.10619E+01  6.88182E+00  1.27666E+01  1.19832E+01
   1.33171E+01  7.36933E+00  1.60914E+01  1.49549E+01  1.28578E+01  8.61674E+00  1.47431E+01  6.26096E+00  1.01236E+01  9.76788E+00
   1.43016E+01  6.09264E+00  7.18631E+00  8.16211E+00  1.04149E+01  1.20898E+01  1.37075E+01  1.66427E+01  1.99454E+01  1.60363E+01
   1.34806E+01  1.64644E+01  2.37302E+01  3.10162E+01  3.38850E+01  4.35092E+01  5.12322E+01  5.72991E+01  9.10266E+01  1.15688E+02
   1.34737E+02  1.12493E+02  9.79817E+01  7.41201E+01  5.16835E+01  3.45660E+01  2.22446E+01  9.42248E+00  1.87916E+01  1.44138E+01
   5.78405E+00  8.66112E+00 -1.74517E+00 -8.36966E-01  9.67726E+00 -5.29516E-01  8.64880E+00  6.44860E-01  6.79941E+00  3.09799E+00
   5.05658E+00  5.33028E+00 -2.50924E+00  7.71230E+00  3.42963E+00  1.10883E+00  2.14537E+00  4.73813E+00  9.82138E+00  1.08220E+01
   6.90786E+00  3.10619E+00  2.46424E+00  2.56663E+00  7.65953E+00  3.47860E+00  1.08241E+01 -8.27219E-01  1.39335E+01  1.27099E+01
   1.43004E+01  8.03974E+00  1.61645E+01  2.56752E+01  1.55116E+01  1.17242E+01  2.09428E+01  2.35838E+01  2.22934E+01  2.67257E+01
   1.99079E+01  2.03461E+01  2.65820E+01  2.22556E+01  2.39842E+01  6.60320E+00  2.03811E+01  1.21071E+01  1.87788E+01  1.25557E+01
   6.48621E+00  9.20108E+00  7.48406E+00  1.63406E+01  3.39081E+00 -2.25146E+00  1.34931E+00 -4.49214E+00 -4.56236E+00 -2.47707E+00
  -3.65369E+00 -8.13921E+00 -8.38437E+00 -2.45321E-01  6.32586E+00 -8.15528E+00 -1.22718E+00  1.28714E+00  2.53104E+00  3.45996E+00
   1.00211E+01  7.26950E+00  9.20409E+00  4.81629E+00  1.70004E+01  5.04342E+00  1.77151E+01  1.11558E+01  2.18351E+01  7.58113E+00
   1.24879E+01  1.17696E+01  1.42481E+01  1.73192E+01  1.91797E+01  1.35070E+01  1.37291E+01  9.22502E+00  6.07787E+00  9.64937E+00
   6.51636E+00  1.44491E+01  1.77863E+01  9.06129E+00  1.62885E+01  1.45340E+01  1.19278E+01  1.20819E+01  1.47170E+01  4.94625E+00
   1.15606E+01  2.20348E+00  8.81078E+00  6.40170E+00  6.59522E+00  6.08171E+00  1.49013E+01  5.19988E+00  1.90962E+00  4.67729E+00
  -1.18272E+00 -1.26784E+00  4.19646E+00  5.94727E+00  3.05005E+00 -6.49046E-01  4.93852E+00 -3.13477E+00  6.60993E+00  1.01571E+01
   7.20706E+00  6.17589E+00  4.65530E+00  1.15009E+01  1.18314E+01  1.35924E+01  1.37964E+01  1.20087E+01  1.56795E+01  9.14431E+00
   1.21373E+01  2.20138E+01  1.84360E+01  1.68798E+01  2.28314E+01  1.92481E+01  1.75994E+01  2.24614E+01  2.59537E+01  9.93740E+00
   1.70770E+01  2.51205E+01  1.32006E+01  9.59752E+00  9.08916E+00  1.44349E+01  1.55329E+01  3.72132E+00  1.29500E+01  5.65094E+00
   8.00053E+00  8.07872E+00  6.08894E+00  5.82586E+00  4.16011E+00  1.20390E+00  6.69420E+00  4.95432E+00  4.07027E-01  3.28826E+00
   6.12185E+00  8.36697E+00  6.15209E+00  2.37639E+00 -2.32354E+00  7.55107E+00  3.87301E+00 -6.91773E+00  1.52138E+00 -3.65758E+00
  -5.03463E+00 -4.29001E+00 -8.79180E-01  3.38413E+00  1.92699E+00  5.92639E+00  1.22888E+00  1.41622E-01 -1.05935E+00 -5.91956E-01
  -2.81695E-02  7.55370E+00  1.05638E+01  1.87900E+00  1.64292E+00  3.27960E-01  2.16266E+00 -6.50008E+00 -1.31565E+00 -1.31036E+00
   5.93664E+00 -1.26395E+00 -1.02436E+00 -4.23458E+00  1.70366E+00  2.81712E-01  2.22366E+00  7.96948E-01  1.86869E+00 -3.18475E+00
   4.55676E+00  1.36048E+00 -1.07313E+00  1.74034E-01 -2.30722E+00 -3.76101E+00  4.56035E+00  2.01311E+00  2.65900E+00  1.29216E+00
  -2.62941E+00 -1.08507E+00 -3.35945E+00 -3.56968E+00 -1.04308E+00  1.14579E+00 -2.16277E+00 -1.21446E+00 -1.17858E+00 -5.27695E+00
  -8.17058E-01  3.09988E+00  4.35313E+00 -4.20400E+00 -5.38820E+00 -2.09740E+00  3.91100E+00 -1.75181E+00
 NY points of the fit to the data follow
   1.30624E+01  1.27172E+01  1.28805E+01  1.36395E+01  1.50708E+01  1.75151E+01  2.15596E+01  2.66036E+01  3.19618E+01  3.78295E+01
   4.34790E+01  4.65669E+01  4.51176E+01  3.98080E+01  3.30278E+01  2.65234E+01  2.10779E+01  1.72573E+01  1.47907E+01  1.30616E+01
   1.23234E+01  1.24543E+01  1.27902E+01  1.32863E+01  1.36818E+01  1.41638E+01  1.53813E+01  1.72660E+01  1.90237E+01  2.01251E+01
   2.08128E+01  2.13021E+01  2.11999E+01  2.00963E+01  1.80976E+01  1.55872E+01  1.29459E+01  1.10340E+01  1.00224E+01  9.60982E+00
   9.74973E+00  1.05129E+01  1.18429E+01  1.37922E+01  1.67387E+01  2.05783E+01  2.38732E+01  2.48187E+01  2.30510E+01  1.96006E+01
   1.57913E+01  1.25513E+01  1.03274E+01  9.09272E+00  8.55105E+00  8.63262E+00  9.46417E+00  1.08878E+01  1.24687E+01  1.36249E+01
   1.38507E+01  1.30711E+01  1.15932E+01  9.98787E+00  8.80044E+00  8.28140E+00  8.35875E+00  8.81408E+00  9.51330E+00  1.03701E+01
   1.12607E+01  1.19160E+01  1.21849E+01  1.21264E+01  1.18487E+01  1.14340E+01  1.09352E+01  1.04386E+01  9.97990E+00  9.59359E+00
   9.45590E+00  9.57827E+00  9.95228E+00  1.07736E+01  1.18136E+01  1.22402E+01  1.14246E+01  9.65964E+00  7.86169E+00  6.67886E+00
   6.26116E+00  6.44332E+00  6.91440E+00  7.38428E+00  7.77141E+00  8.05626E+00  8.16306E+00  8.77997E+00  1.07722E+01  1.49037E+01
   2.32017E+01  3.52978E+01  4.65362E+01  5.14112E+01  4.84096E+01  4.05105E+01  3.13396E+01  2.31295E+01  1.68834E+01  1.25050E+01
   9.16096E+00  6.90727E+00  6.33002E+00  6.31543E+00  6.40960E+00  6.51783E+00  6.62172E+00  6.73806E+00  6.93942E+00  7.33741E+00
   8.19684E+00  1.01095E+01  1.38187E+01  2.02832E+01  3.11307E+01  4.62664E+01  6.10793E+01  6.90992E+01  6.74064E+01  5.84952E+01
   4.68649E+01  3.55444E+01  2.58301E+01  1.79342E+01  1.16027E+01  7.14888E+00  5.19786E+00  5.17583E+00  5.87899E+00  6.63100E+00
   7.07476E+00  7.16234E+00  6.98294E+00  6.68981E+00  6.37778E+00  6.03289E+00  5.63884E+00  5.21140E+00  4.76631E+00  4.38334E+00
   4.03478E+00  3.69019E+00  3.39140E+00  3.21727E+00  3.20368E+00  3.26579E+00  3.28769E+00  3.03956E+00  2.30294E+00  1.26001E+00
   3.97445E-01  2.33324E-01  8.19580E-01  1.64478E+00  2.10051E+00  1.91647E+00  1.27048E+00  5.30914E-01 -4.21561E-02 -4.37637E-01
  -7.42918E-01 -1.10751E+00 -1.68702E+00 -2.50634E+00 -3.33646E+00 -3.72291E+00 -3.38330E+00 -2.67501E+00 -2.30919E+00 -2.47685E+00
  -2.79776E+00 -2.86468E+00 -2.53903E+00 -2.05747E+00 -1.74160E+00 -1.38086E+00 -3.17851E-01  1.61466E+00  3.93545E+00  5.79619E+00
   6.63654E+00  6.47328E+00  5.60099E+00  4.49672E+00  3.58867E+00  3.00789E+00  2.83036E+00  3.12381E+00  3.84221E+00  4.89763E+00
   6.26928E+00  7.85786E+00  9.36808E+00  1.02929E+01  1.00096E+01  8.47675E+00  5.87155E+00  2.54902E+00 -5.82667E-01 -2.60322E+00
  -3.01765E+00 -1.86824E+00  9.88018E-01  5.49719E+00  1.04006E+01  1.36799E+01  1.40392E+01  1.17072E+01  7.51592E+00  2.38782E+00
  -2.62952E+00 -6.08608E+00 -6.70476E+00 -4.50321E+00 -5.25191E-01  3.73963E+00  7.19154E+00  9.37466E+00  1.02581E+01  1.02811E+01
   9.97285E+00  9.75561E+00  9.86806E+00  1.04100E+01  1.11661E+01  1.18513E+01  1.21829E+01  1.20086E+01  1.14937E+01  1.06594E+01
   9.59641E+00  8.82851E+00  9.00264E+00  1.02038E+01  1.18516E+01  1.34234E+01  1.45812E+01  1.51904E+01  1.52747E+01  1.52775E+01
   1.59572E+01  1.75617E+01  2.07708E+01  2.60156E+01  3.32750E+01  4.13726E+01  5.05424E+01  6.70512E+01  9.20627E+01  1.15462E+02
   1.24528E+02  1.15894E+02  9.64261E+01  7.42260E+01  5.45603E+01  3.95243E+01  2.85558E+01  1.94886E+01  1.28834E+01  1.03655E+01
   9.18301E+00  8.47094E+00  8.10433E+00  7.90604E+00  7.63043E+00  7.22588E+00  6.72864E+00  6.19305E+00  5.65494E+00  5.16018E+00
   4.74814E+00  4.43590E+00  4.21107E+00  4.04086E+00  3.89374E+00  3.75505E+00  3.63615E+00  3.56120E+00  3.56322E+00  3.67378E+00
   3.92227E+00  4.31703E+00  4.84371E+00  5.48499E+00  6.24096E+00  7.11096E+00  8.09278E+00  9.18994E+00  1.04030E+01  1.17194E+01
   1.31150E+01  1.45473E+01  1.59648E+01  1.73126E+01  1.85374E+01  1.95931E+01  2.04394E+01  2.10400E+01  2.13726E+01  2.14252E+01
   2.11957E+01  2.06952E+01  1.99469E+01  1.89838E+01  1.78472E+01  1.65838E+01  1.52437E+01  1.38790E+01  1.25429E+01  1.12912E+01
   1.01933E+01  9.33287E+00  8.69980E+00  8.36302E+00  8.25203E+00  7.84791E+00  6.59023E+00  4.45498E+00  2.00199E+00 -1.08426E-01
  -1.62457E+00 -2.46316E+00 -2.30762E+00 -9.99754E-01  1.09138E+00  3.30098E+00  4.96189E+00  5.90159E+00  6.34236E+00  6.53740E+00
   6.69865E+00  6.91883E+00  7.13757E+00  7.43165E+00  7.90992E+00  8.50336E+00  9.16401E+00  9.86280E+00  1.05759E+01  1.12816E+01
   1.19593E+01  1.25896E+01  1.31546E+01  1.36378E+01  1.40248E+01  1.43042E+01  1.44685E+01  1.45144E+01  1.44418E+01  1.42543E+01
   1.39590E+01  1.35659E+01  1.30879E+01  1.25399E+01  1.19372E+01  1.12955E+01  1.06300E+01  9.95569E+00  9.28610E+00  8.63341E+00
   8.00759E+00  7.41685E+00  6.86776E+00  6.36573E+00  5.91485E+00  5.51805E+00  5.17711E+00  4.89341E+00  4.66825E+00  4.50321E+00
   4.39988E+00  4.36002E+00  4.38546E+00  4.47868E+00  4.64261E+00  4.88060E+00  5.19570E+00  5.59050E+00  6.06680E+00  6.62565E+00
   7.26666E+00  7.98757E+00  8.78335E+00  9.64614E+00  1.05650E+01  1.15262E+01  1.25129E+01  1.35054E+01  1.44813E+01  1.54167E+01
   1.62871E+01  1.70685E+01  1.77382E+01  1.82761E+01  1.86652E+01  1.88932E+01  1.89529E+01  1.88429E+01  1.85669E+01  1.81337E+01
   1.75568E+01  1.68535E+01  1.60442E+01  1.51512E+01  1.41975E+01  1.32054E+01  1.21961E+01  1.11891E+01  1.02015E+01  9.24743E+00
   8.33791E+00  7.48092E+00  6.68172E+00  5.94334E+00  5.26664E+00  4.65070E+00  4.09298E+00  3.59004E+00  3.13790E+00  2.73246E+00
   2.36936E+00  2.04424E+00  1.75271E+00  1.49084E+00  1.25508E+00  1.04245E+00  8.50076E-01  6.75372E-01  5.15935E-01  3.69886E-01
   2.35663E-01  1.12018E-01 -2.36350E-03 -1.08647E-01 -2.07902E-01 -3.00810E-01 -3.87953E-01 -4.69810E-01 -5.47046E-01 -6.20215E-01
  -6.89795E-01 -7.55962E-01 -8.18935E-01 -8.78944E-01 -9.36411E-01 -9.91611E-01 -1.04475E+00 -1.09581E+00 -1.14491E+00 -1.19223E+00
  -1.23808E+00 -1.28258E+00 -1.32577E+00 -1.36756E+00 -1.40808E+00 -1.44748E+00 -1.48599E+00 -1.52363E+00 -1.56037E+00 -1.59611E+00
  -1.63102E+00 -1.66522E+00 -1.69889E+00 -1.73191E+00 -1.76426E+00 -1.79587E+00 -1.82695E+00 -1.85760E+00 -1.88790E+00 -1.91772E+00
  -1.94701E+00 -1.97579E+00 -2.00427E+00 -2.03249E+00 -2.06048E+00 -2.08806E+00 -2.11525E+00 -2.14211E+00 -2.16884E+00 -2.19544E+00
  -2.22187E+00 -2.24797E+00 -2.27382E+00 -2.29952E+00 -2.32523E+00 -2.35090E+00 -2.37646E+00 -2.40181E+00
 NY background values follow
     6.827E+00    6.799E+00    6.772E+00    6.744E+00    6.716E+00    6.689E+00    6.661E+00    6.633E+00    6.606E+00    6.578E+00
     6.550E+00    6.523E+00    6.495E+00    6.467E+00    6.440E+00    6.412E+00    6.384E+00    6.357E+00    6.329E+00    6.301E+00
     6.274E+00    6.246E+00    6.218E+00    6.191E+00    6.163E+00    6.135E+00    6.108E+00    6.080E+00    6.052E+00    6.025E+00
     5.997E+00    5.969E+00    5.941E+00    5.914E+00    5.886E+00    5.858E+00    5.831E+00    5.803E+00    5.775E+00    5.747E+00
     5.720E+00    5.692E+00    5.664E+00    5.637E+00    5.609E+00    5.581E+00    5.553E+00    5.526E+00    5.498E+00    5.470E+00
     5.443E+00    5.415E+00    5.387E+00    5.360E+00    5.332E+00    5.304E+00    5.276E+00    5.249E+00    5.221E+00    5.193E+00
     5.166E+00    5.138E+00    5.110E+00    5.083E+00    5.055E+00    5.028E+00    5.000E+00    4.972E+00    4.945E+00    4.917E+00
     4.890E+00    4.862E+00    4.834E+00    4.807E+00    4.779E+00    4.752E+00    4.724E+00    4.697E+00    4.669E+00    4.642E+00
     4.614E+00    4.587E+00    4.559E+00    4.532E+00    4.505E+00    4.477E+00    4.450E+00    4.423E+00    4.395E+00    4.368E+00
     4.341E+00    4.313E+00    4.286E+00    4.259E+00    4.231E+00    4.204E+00    4.177E+00    4.150E+00    4.123E+00    4.096E+00
     4.068E+00    4.041E+00    4.014E+00    3.987E+00    3.960E+00    3.933E+00    3.906E+00    3.879E+00    3.852E+00    3.825E+00
     3.798E+00    3.772E+00    3.745E+00    3.718E+00    3.691E+00    3.664E+00    3.638E+00    3.611E+00    3.584E+00    3.558E+00
     3.531E+00    3.504E+00    3.478E+00    3.451E+00    3.425E+00    3.398E+00    3.372E+00    3.345E+00    3.319E+00    3.293E+00
     3.266E+00    3.240E+00    3.214E+00    3.188E+00    3.161E+00    3.135E+00    3.109E+00    3.083E+00    3.057E+00    3.031E+00
     3.005E+00    2.979E+00    2.953E+00    2.927E+00    2.901E+00    2.876E+00    2.850E+00    2.824E+00    2.798E+00    2.773E+00
     2.747E+00    2.722E+00    2.696E+00    2.671E+00    2.645E+00    2.620E+00    2.594E+00    2.569E+00    2.544E+00    2.519E+00
     2.493E+00    2.468E+00    2.443E+00    2.418E+00    2.393E+00    2.368E+00    2.343E+00    2.318E+00    2.294E+00    2.269E+00
     2.244E+00    2.219E+00    2.195E+00    2.170E+00    2.146E+00    2.121E+00    2.097E+00    2.073E+00    2.048E+00    2.024E+00
     2.000E+00    1.976E+00    1.952E+00    1.928E+00    1.904E+00    1.880E+00    1.856E+00    1.832E+00    1.808E+00    1.785E+00
     1.761E+00    1.738E+00    1.714E+00    1.691E+00    1.667E+00    1.644E+00    1.620E+00    1.597E+00    1.574E+00    1.551E+00
     1.528E+00    1.505E+00    1.482E+00    1.459E+00    1.436E+00    1.413E+00    1.390E+00    1.367E+00    1.345E+00    1.322E+00
     1.300E+00    1.277E+00    1.255E+00    1.232E+00    1.210E+00    1.187E+00    1.165E+00    1.143E+00    1.121E+00    1.098E+00
     1.076E+00    1.054E+00    1.032E+00    1.010E+00    9.885E-01    9.667E-01    9.449E-01    9.231E-01    9.014E-01    8.798E-01
     8.582E-01    8.366E-01    8.151E-01    7.937E-01    7.722E-01    7.509E-01    7.296E-01    7.083E-01    6.871E-01    6.659E-01
     6.448E-01    6.237E-01    6.027E-01    5.817E-01    5.608E-01    5.399E-01    5.191E-01    4.983E-01    4.775E-01    4.569E-01
     4.362E-01    4.156E-01    3.951E-01    3.746E-01    3.542E-01    3.338E-01    3.134E-01    2.931E-01    2.729E-01    2.526E-01
     2.325E-01    2.124E-01    1.923E-01    1.723E-01    1.524E-01    1.324E-01    1.126E-01    9.276E-02    7.299E-02    5.328E-02
     3.360E-02    1.398E-02   -5.593E-03   -2.512E-02   -4.460E-02   -6.403E-02   -8.341E-02   -1.027E-01   -1.220E-01   -1.413E-01
    -1.605E-01   -1.796E-01   -1.987E-01   -2.177E-01   -2.367E-01   -2.557E-01   -2.746E-01   -2.935E-01   -3.123E-01   -3.310E-01
    -3.498E-01   -3.684E-01   -3.871E-01   -4.057E-01   -4.242E-01   -4.427E-01   -4.611E-01   -4.795E-01   -4.979E-01   -5.162E-01
    -5.344E-01   -5.527E-01   -5.708E-01   -5.890E-01   -6.070E-01   -6.251E-01   -6.431E-01   -6.610E-01   -6.789E-01   -6.968E-01
    -7.146E-01   -7.324E-01   -7.501E-01   -7.678E-01   -7.854E-01   -8.030E-01   -8.205E-01   -8.381E-01   -8.555E-01   -8.729E-01
    -8.903E-01   -9.076E-01   -9.249E-01   -9.422E-01   -9.594E-01   -9.766E-01   -9.937E-01   -1.011E+00   -1.028E+00   -1.045E+00
    -1.062E+00   -1.079E+00   -1.096E+00   -1.112E+00   -1.129E+00   -1.146E+00   -1.163E+00   -1.179E+00   -1.196E+00   -1.213E+00
    -1.229E+00   -1.246E+00   -1.262E+00   -1.279E+00   -1.295E+00   -1.311E+00   -1.328E+00   -1.344E+00   -1.360E+00   -1.377E+00
    -1.393E+00   -1.409E+00   -1.425E+00   -1.441E+00   -1.457E+00   -1.473E+00   -1.489E+00   -1.505E+00   -1.521E+00   -1.537E+00
    -1.553E+00   -1.569E+00   -1.584E+00   -1.600E+00   -1.616E+00   -1.631E+00   -1.647E+00   -1.663E+00   -1.678E+00   -1.694E+00
    -1.709E+00   -1.725E+00   -1.740E+00   -1.756E+00   -1.771E+00   -1.786E+00   -1.802E+00   -1.817E+00   -1.832E+00   -1.848E+00
    -1.863E+00   -1.878E+00   -1.893E+00   -1.908E+00   -1.923E+00   -1.938E+00   -1.953E+00   -1.968E+00   -1.983E+00   -1.998E+00
    -2.013E+00   -2.028E+00   -2.043E+00   -2.058E+00   -2.073E+00   -2.088E+00   -2.102E+00   -2.117E+00   -2.132E+00   -2.147E+00
    -2.161E+00   -2.176E+00   -2.191E+00   -2.205E+00   -2.220E+00   -2.234E+00   -2.249E+00   -2.264E+00   -2.278E+00   -2.293E+00
    -2.307E+00   -2.322E+00   -2.336E+00   -2.350E+00   -2.365E+00   -2.379E+00   -2.394E+00   -2.408E+00   -2.422E+00   -2.437E+00
    -2.451E+00   -2.465E+00   -2.479E+00   -2.494E+00   -2.508E+00   -2.522E+00   -2.536E+00   -2.550E+00   -2.565E+00   -2.579E+00
    -2.593E+00   -2.607E+00   -2.621E+00   -2.635E+00   -2.649E+00   -2.663E+00   -2.677E+00   -2.691E+00   -2.705E+00   -2.719E+00
    -2.733E+00   -2.747E+00   -2.761E+00   -2.775E+00   -2.789E+00   -2.803E+00   -2.817E+00   -2.831E+00   -2.845E+00   -2.859E+00
    -2.873E+00   -2.887E+00   -2.901E+00   -2.915E+00   -2.929E+00   -2.943E+00   -2.956E+00   -2.970E+00   -2.984E+00   -2.998E+00
    -3.012E+00   -3.026E+00   -3.040E+00   -3.053E+00   -3.067E+00   -3.081E+00   -3.095E+00   -3.109E+00   -3.123E+00   -3.136E+00
    -3.150E+00   -3.164E+00   -3.178E+00   -3.192E+00   -3.205E+00   -3.219E+00   -3.233E+00   -3.247E+00   -3.260E+00   -3.274E+00
    -3.288E+00   -3.302E+00   -3.315E+00   -3.329E+00   -3.343E+00   -3.357E+00   -3.370E+00   -3.384E+00   -3.398E+00   -3.412E+00
    -3.425E+00   -3.439E+00   -3.453E+00   -3.467E+00   -3.480E+00   -3.494E+00   -3.508E+00   -3.521E+00
 Ala      Conc. = 3.05E+02
