 LCModel (Version 6.3-1L) Copyright: S.W. Provencher.          Ref.: Magn. Reson. Med. 30:672-679 (1993).                
 Slice#1 Row#4 Col#4  PD_24_press_2_raw_act
 36 lines in following concentration table = NCONC+1
    Conc.  %SD /Cr+PCr  Metabolite                                         
 2.86E+03  22%   1.531 Ala                                                 
  129.937 358% 7.0E-02 Asp                                                 
    0.000 999%   0.000 Cr                                                  
 1.87E+03  11%   1.000 PCr                                                 
  119.465 251% 6.4E-02 GABA                                                
   14.492 999% 7.8E-03 Glc                                                 
 1.41E+03  89%   0.754 Gln                                                 
 2.22E+03  64%   1.189 Glu                                                 
  840.301   9%   0.451 GPC                                                 
    0.000 999%   0.000 PCh                                                 
 1.15E+03  26%   0.615 GSH                                                 
 2.52E+03  34%   1.351 Ins                                                 
    0.000 999%   0.000 Lac                                                 
 3.14E+03   8%   1.682 NAA                                                 
    0.000 999%   0.000 NAAG                                                
  127.018  58% 6.8E-02 Scyllo                                              
  371.558 116%   0.199 Tau                                                 
  259.447 127%   0.139 -CrCH2                                              
  840.301   9%   0.451 GPC+PCh                                             
 3.14E+03   8%   1.682 NAA+NAAG                                            
 1.87E+03  11%   1.000 Cr+PCr                                              
 3.62E+03  63%   1.943 Glu+Gln                                             
 3.46E+03  29%   1.853 Lip13a                                              
    0.000 999%   0.000 Lip13b                                              
  626.961  89%   0.336 Lip09                                               
 3.05E+03  21%   1.636 MM09                                                
  696.553  57%   0.373 Lip20                                               
 5.60E+03  17%   3.004 MM20                                                
 1.17E+03  40%   0.627 MM12                                                
 4.23E+03  10%   2.270 MM14                                                
    0.000 999%   0.000 MM17                                                
 3.46E+03  29%   1.853 Lip13a+Lip13b                                       
 8.86E+03  10%   4.750 MM14+Lip13a+Lip13b+MM12                             
 3.68E+03  12%   1.972 MM09+Lip09                                          
 6.30E+03  15%   3.377 MM20+Lip20                                          
   6 lines in following misc. output table
  FWHM = 0.099 ppm    S/N =   4                                            
  Data shift = 0.015 ppm                                                   
  Ph:  15 deg       7.4 deg/ppm                                            
  alphaB,S = 2.3E+00,   2.3E+01                                            
   14 spline knots.   Ns =11(1)                                            
  (19) 7 infls.   (21) 5 extrs.                                            
  498 points on ppm-axis = NY
      4.000000     3.992357     3.984714     3.977070     3.969427     3.961784     3.954141     3.946497     3.938854     3.931211
      3.923568     3.915925     3.908281     3.900638     3.892995     3.885352     3.877708     3.870065     3.862422     3.854779
      3.847136     3.839492     3.831849     3.824206     3.816563     3.808919     3.801276     3.793633     3.785990     3.778347
      3.770703     3.763060     3.755417     3.747774     3.740130     3.732487     3.724844     3.717201     3.709558     3.701914
      3.694271     3.686628     3.678985     3.671341     3.663698     3.656055     3.648412     3.640769     3.633125     3.625482
      3.617839     3.610196     3.602552     3.594909     3.587266     3.579623     3.571980     3.564336     3.556693     3.549050
      3.541407     3.533763     3.526120     3.518477     3.510834     3.503191     3.495547     3.487904     3.480261     3.472618
      3.464974     3.457331     3.449688     3.442045     3.434402     3.426758     3.419115     3.411472     3.403829     3.396185
      3.388542     3.380899     3.373256     3.365613     3.357969     3.350326     3.342683     3.335040     3.327396     3.319753
      3.312110     3.304467     3.296824     3.289180     3.281537     3.273894     3.266251     3.258607     3.250964     3.243321
      3.235678     3.228034     3.220391     3.212748     3.205105     3.197462     3.189818     3.182175     3.174532     3.166889
      3.159245     3.151602     3.143959     3.136316     3.128673     3.121029     3.113386     3.105743     3.098100     3.090456
      3.082813     3.075170     3.067527     3.059884     3.052240     3.044597     3.036954     3.029311     3.021667     3.014024
      3.006381     2.998738     2.991095     2.983451     2.975808     2.968165     2.960522     2.952878     2.945235     2.937592
      2.929949     2.922306     2.914662     2.907019     2.899376     2.891733     2.884089     2.876446     2.868803     2.861160
      2.853517     2.845873     2.838230     2.830587     2.822944     2.815300     2.807657     2.800014     2.792371     2.784728
      2.777084     2.769441     2.761798     2.754155     2.746511     2.738868     2.731225     2.723582     2.715939     2.708295
      2.700652     2.693009     2.685366     2.677722     2.670079     2.662436     2.654793     2.647150     2.639506     2.631863
      2.624220     2.616577     2.608933     2.601290     2.593647     2.586004     2.578361     2.570717     2.563074     2.555431
      2.547788     2.540144     2.532501     2.524858     2.517215     2.509572     2.501928     2.494285     2.486642     2.478999
      2.471355     2.463712     2.456069     2.448426     2.440783     2.433139     2.425496     2.417853     2.410210     2.402566
      2.394923     2.387280     2.379637     2.371994     2.364350     2.356707     2.349064     2.341421     2.333777     2.326134
      2.318491     2.310848     2.303205     2.295561     2.287918     2.280275     2.272632     2.264988     2.257345     2.249702
      2.242059     2.234416     2.226772     2.219129     2.211486     2.203843     2.196199     2.188556     2.180913     2.173270
      2.165627     2.157983     2.150340     2.142697     2.135054     2.127410     2.119767     2.112124     2.104481     2.096838
      2.089194     2.081551     2.073908     2.066265     2.058621     2.050978     2.043335     2.035692     2.028049     2.020405
      2.012762     2.005119     1.997476     1.989833     1.982190     1.974546     1.966903     1.959260     1.951617     1.943974
      1.936331     1.928688     1.921045     1.913402     1.905759     1.898115     1.890472     1.882829     1.875186     1.867543
      1.859900     1.852257     1.844614     1.836971     1.829327     1.821684     1.814041     1.806398     1.798755     1.791112
      1.783469     1.775826     1.768183     1.760540     1.752896     1.745253     1.737610     1.729967     1.722324     1.714681
      1.707038     1.699395     1.691752     1.684108     1.676465     1.668822     1.661179     1.653536     1.645893     1.638250
      1.630607     1.622964     1.615321     1.607677     1.600034     1.592391     1.584748     1.577105     1.569462     1.561819
      1.554176     1.546533     1.538890     1.531246     1.523603     1.515960     1.508317     1.500674     1.493031     1.485388
      1.477745     1.470102     1.462458     1.454815     1.447172     1.439529     1.431886     1.424243     1.416600     1.408957
      1.401314     1.393671     1.386027     1.378384     1.370741     1.363098     1.355455     1.347812     1.340169     1.332526
      1.324883     1.317240     1.309596     1.301953     1.294310     1.286667     1.279024     1.271381     1.263738     1.256095
      1.248452     1.240808     1.233165     1.225522     1.217879     1.210236     1.202593     1.194950     1.187307     1.179664
      1.172021     1.164377     1.156734     1.149091     1.141448     1.133805     1.126162     1.118519     1.110876     1.103233
      1.095590     1.087946     1.080303     1.072660     1.065017     1.057374     1.049731     1.042088     1.034445     1.026802
      1.019158     1.011515     1.003872     0.996229     0.988586     0.980943     0.973300     0.965657     0.958014     0.950371
      0.942727     0.935084     0.927441     0.919798     0.912155     0.904512     0.896869     0.889226     0.881583     0.873940
      0.866296     0.858653     0.851010     0.843367     0.835724     0.828081     0.820438     0.812795     0.805152     0.797508
      0.789865     0.782222     0.774579     0.766936     0.759293     0.751650     0.744007     0.736364     0.728721     0.721077
      0.713434     0.705791     0.698148     0.690505     0.682862     0.675219     0.667576     0.659933     0.652290     0.644646
      0.637003     0.629360     0.621717     0.614074     0.606431     0.598788     0.591145     0.583502     0.575858     0.568215
      0.560572     0.552929     0.545286     0.537643     0.530000     0.522357     0.514714     0.507071     0.499427     0.491784
      0.484141     0.476498     0.468855     0.461212     0.453569     0.445925     0.438282     0.430639     0.422996     0.415353
      0.407710     0.400067     0.392424     0.384780     0.377137     0.369494     0.361851     0.354208     0.346565     0.338922
      0.331278     0.323635     0.315992     0.308349     0.300706     0.293063     0.285420     0.277777     0.270133     0.262490
      0.254847     0.247204     0.239561     0.231918     0.224275     0.216631     0.208988     0.201345
 NY phased data points follow
   2.64148E+01  4.09843E+01  3.26203E+01  6.19838E+01  5.69241E+01  5.43371E+01  5.72642E+01  4.82075E+01  3.14493E+01  5.15449E+01
   4.43500E+01  5.43383E+01  4.79421E+01  5.20395E+01  5.32967E+01  6.85227E+01  6.00744E+01  5.32301E+01  4.05306E+01  4.81780E+01
   2.92529E+01  4.25746E+01  3.04304E+01  3.19242E+01  3.08445E+01  4.49553E+01  4.45185E+01  3.90139E+01  3.72100E+01  4.72786E+01
   3.89545E+01  4.10398E+01  4.22800E+01  4.36327E+01  4.13367E+01  4.10037E+01  3.65104E+01  4.53851E+01  4.05030E+01  2.77143E+01
   3.72486E+01  4.31408E+01  3.97980E+01  3.81268E+01  4.29396E+01  4.40327E+01  3.33420E+01  3.85944E+01  4.08904E+01  4.14391E+01
   4.01299E+01  4.48200E+01  2.57794E+01  4.00484E+01  3.75552E+01  2.27664E+01  3.51959E+01  1.98972E+01  1.92075E+01  3.79863E+01
   1.93603E+01  3.52629E+01  1.96452E+01  3.81592E+01  2.14719E+01  2.53718E+01  9.13411E+00  7.39712E+00  2.36152E+01  3.73467E+01
   2.21742E+01  3.23170E+01  2.40847E+01  2.22152E+01  2.49507E+01  2.89096E+01  2.09986E+01  2.67940E+01  1.94848E+01  2.91659E+01
   2.19801E+01  1.94202E+01  1.40369E+01  1.56949E+01  1.62027E+01  2.92886E+01  2.59877E+01  3.22467E+01  2.11078E+01  2.79924E+01
   1.35176E+01  3.61134E+01  2.54143E+01  2.79731E+01  2.31971E+01  2.22459E+01  3.54312E+01  4.52173E+01  5.25317E+01  6.39565E+01
   5.79808E+01  5.26993E+01  4.58673E+01  6.07473E+01  6.84329E+01  6.43546E+01  6.32277E+01  6.36993E+01  5.50667E+01  4.98376E+01
   3.97642E+01  3.53478E+01  2.42710E+01  3.03181E+01  1.93735E+01  1.98688E+01  1.90811E+01  2.83294E+01  1.85839E+01  1.55163E+01
   2.72889E+01  4.11430E+01  4.10614E+01  4.43018E+01  5.29673E+01  5.65610E+01  4.31178E+01  6.05407E+01  5.01802E+01  5.47523E+01
   4.33733E+01  5.43435E+01  5.10217E+01  3.82902E+01  4.34572E+01  3.24578E+01  1.78349E+01  2.70284E+01  2.07060E+01  4.04983E+01
   2.17197E+01  3.05628E+01  2.28413E+01  2.39132E+01  2.42948E+01  2.44735E+01  1.14730E+01  2.24606E+01  1.37074E+01  8.97067E+00
   9.86707E+00  1.27268E+01  1.28898E+01  9.01472E+00  8.54759E+00  2.71646E+01  1.74221E+01  1.00610E+01  1.95853E+01 -7.93257E-01
   1.96026E+00  5.28578E+00  1.24796E+01  1.43589E+01  1.16234E+01  2.60611E+00  6.25503E+00 -7.07677E-01 -2.55013E+00  1.69569E+01
  -1.58363E+00  8.85933E+00 -2.64853E+00 -9.97600E+00 -3.04539E+00 -6.73012E+00 -9.74944E+00 -4.19789E+00 -1.31293E+00 -5.03392E+00
  -5.17889E+00 -4.82201E-01 -6.87296E-01  1.38573E+01  2.97963E+00  7.86342E+00  6.03718E+00  1.48911E+01  1.25837E+01  1.38530E+01
   6.90120E+00  1.53524E+00 -5.38293E+00  5.25933E+00 -2.62155E+00 -2.02861E+00 -4.82370E+00  1.27075E+01  2.44452E+00  2.59142E+00
   2.83476E+00  1.53850E+01 -5.18512E+00  2.20541E+00  4.22360E+00  1.14300E+01 -7.43185E-01  2.11575E+01  1.12495E+01  1.08713E+01
   1.01775E+01  9.66814E+00  1.19987E+01  1.68442E+01  2.34106E+01  2.19205E+01  9.77835E+00  1.79061E+01  7.33690E+00  1.71607E+01
   9.14251E+00  6.30585E+00 -3.71721E+00  5.15740E+00  5.91662E-01  1.84147E+01  5.10653E+00  1.14280E+01  1.45806E+01  1.88695E+01
   2.49849E+01  1.72745E+01  1.69320E+01  1.49361E+01  2.55469E+01  3.11713E+01  9.13901E+00  1.47752E+01  2.24676E+01  1.70338E+01
   1.38601E+01  2.39980E+01  2.13420E+01  1.80170E+01  2.35505E+01  2.73315E+01  5.82963E+00  1.64779E+01  1.18696E+01  2.52487E+01
   2.12177E+01  2.44847E+01  2.20639E+01  3.63331E+01  5.52087E+01  5.97842E+01  7.72393E+01  8.40536E+01  7.80202E+01  9.41600E+01
   8.43352E+01  7.56973E+01  9.10502E+01  7.25591E+01  6.91295E+01  4.88640E+01  3.87984E+01  3.43151E+01  2.20875E+01  1.36702E-01
   1.64147E+01  1.57390E+01  1.43913E+01  2.13969E+01  8.70709E+00  4.00545E+00  3.79991E+00  1.06583E-01  6.83265E+00  6.21496E+00
  -7.71091E-01  3.42193E+00  1.04237E+01 -5.28052E+00  1.05143E+00  8.79277E+00  3.44958E+00  8.31160E+00 -2.21899E+00 -2.86565E+00
  -7.07041E-01  5.58979E+00 -7.54501E+00 -1.37133E+01 -1.41287E+01 -2.27151E+01 -1.73115E+01 -1.17959E+01 -1.69423E+01 -1.85270E+01
  -3.85377E+01 -2.21456E+01 -3.26427E+01 -3.40245E+01 -2.27557E+01 -4.03572E+01 -2.92682E+01 -2.71812E+01 -2.44477E+01 -1.34957E+01
   1.98742E+00  4.01490E-01  2.95063E+01  2.39175E+01  3.26325E+01  3.70050E+01  3.27578E+01  3.48526E+01  3.01835E+01  3.66975E+01
   4.10556E+01  3.08953E+01  3.47277E+01  3.74098E+01  2.47606E+01  3.02584E+01  1.87331E+01  1.85994E+01  8.16480E+00  1.98171E+01
   1.63914E+01  1.86844E+01  1.67113E+01  1.96123E+01  1.70651E+01  8.96402E+00  3.17662E+01  2.45036E+01  2.50405E+01  2.22691E+01
   1.65114E+01  2.36066E+01  8.58950E+00  1.28807E+01  8.33480E+00  1.33829E+01  1.56962E+01  2.28059E+01  2.47081E+01  1.30359E+01
   7.43397E+00  1.49429E+01  5.89173E+00  1.85394E+01  4.87198E+00  1.67235E+01  1.02083E+01  1.26758E+01  1.55707E+01  1.91077E+01
   1.39941E+01  1.59891E+01  2.12347E+01  1.07945E+01  1.33589E+01  1.05897E+01  1.32733E+01  2.21463E+01  1.31267E+01  1.27374E+01
   1.67631E+01  5.37563E+00  1.08350E+01  8.20824E+00  5.47308E+00 -6.95053E+00 -9.07965E+00  1.27126E+01  1.00282E+01  9.48899E+00
   8.90981E+00  5.47477E+00  1.73797E+00  1.49130E+01  8.13594E-01  1.11211E+01  6.67038E+00  4.76124E+00  3.95744E+00  1.05123E+01
   1.43975E+00  1.68874E+01  1.07406E+01  4.59420E+00  5.13215E+00  3.04779E+00  4.16366E-01  1.89442E+01  1.51499E+01  1.49759E+01
   1.72156E+01  1.93261E+00  1.28529E+01  1.55999E+01  1.71907E+01  2.16383E+01  1.80902E+01  2.11520E+01  1.16696E+01  1.07672E+01
   9.92416E+00  1.39727E+01  1.69772E+01  1.35717E+01  6.87983E+00  1.32264E+01  1.11488E+01  1.11239E+01 -7.10707E+00 -3.98783E-01
  -1.03564E+01  9.33373E+00  3.33639E+00 -5.28554E+00 -3.33316E+00 -7.74189E+00 -5.55090E+00  9.09075E-01 -8.72192E+00 -9.37975E+00
  -1.40134E+01 -8.36924E+00 -6.75168E-01 -5.80532E+00 -9.68317E+00  1.79185E+00 -8.74736E+00 -2.75501E-01 -1.46447E+00 -1.04511E+01
  -8.45100E+00  1.70764E+00 -1.67103E+01 -1.11973E+01 -1.03819E+01 -1.49134E+01 -1.63616E+01 -2.82739E+01 -1.80628E+01 -1.58097E+01
  -7.41394E+00 -2.01777E+01 -1.80175E+01 -5.33261E+00 -9.43003E+00 -4.54351E+00 -5.09430E+00 -5.55298E+00 -3.03242E+00 -3.45193E+00
  -1.76993E+01 -1.82343E+01 -6.60324E+00 -8.02721E+00 -5.52657E+00 -6.59314E+00 -2.64612E+01 -3.62498E+00 -1.23619E+01 -1.59090E+01
  -5.00319E+00 -1.10824E+01 -1.21659E+01 -6.95240E+00 -1.51069E+01 -2.89124E+00 -3.08681E-02 -1.27951E+01 -3.26199E+00 -4.08584E+00
  -9.15288E+00  7.67243E+00 -4.67800E+00 -1.18186E+00 -5.28937E+00 -7.93186E+00 -5.12482E+00 -7.00619E-01 -6.85864E+00 -1.17629E+01
  -1.22421E+01 -4.77026E-02 -3.78424E+00 -3.23156E+00  3.61405E+00  2.59141E+00 -1.15891E+01 -4.93834E+00
 NY points of the fit to the data follow
   3.74528E+01  3.62053E+01  3.88449E+01  4.45252E+01  4.85244E+01  5.12289E+01  5.35612E+01  5.32540E+01  5.26098E+01  5.38423E+01
   5.45266E+01  5.44305E+01  5.34519E+01  5.20874E+01  4.99693E+01  4.74071E+01  4.56028E+01  4.29733E+01  3.91363E+01  3.80047E+01
   3.84604E+01  3.70948E+01  3.44359E+01  3.52320E+01  3.76128E+01  4.05662E+01  4.37670E+01  4.45617E+01  4.42128E+01  4.46490E+01
   4.47134E+01  4.44285E+01  4.44967E+01  4.50842E+01  4.52447E+01  4.39832E+01  4.22013E+01  3.88229E+01  3.43851E+01  3.28408E+01
   3.50737E+01  3.73598E+01  3.79802E+01  3.89522E+01  3.94225E+01  3.79178E+01  3.68605E+01  3.68367E+01  3.70064E+01  3.66226E+01
   3.56063E+01  3.41687E+01  3.28063E+01  3.19894E+01  3.11809E+01  2.96101E+01  2.82636E+01  2.85384E+01  2.93491E+01  2.88154E+01
   2.76632E+01  2.72662E+01  2.73038E+01  2.70499E+01  2.67134E+01  2.66485E+01  2.64740E+01  2.60676E+01  2.58600E+01  2.58875E+01
   2.62040E+01  2.65891E+01  2.65349E+01  2.60743E+01  2.55164E+01  2.52874E+01  2.49224E+01  2.44479E+01  2.45917E+01  2.50493E+01
   2.49058E+01  2.43175E+01  2.38076E+01  2.29256E+01  2.18952E+01  2.18100E+01  2.20642E+01  2.18686E+01  2.13799E+01  2.09137E+01
   2.04388E+01  2.02579E+01  2.13002E+01  2.21565E+01  2.07167E+01  2.30838E+01  3.35110E+01  4.59084E+01  5.38143E+01  5.94832E+01
   6.17628E+01  5.99401E+01  6.06131E+01  6.37796E+01  6.48381E+01  6.39534E+01  6.11379E+01  5.72326E+01  5.12470E+01  4.48409E+01
   3.81468E+01  2.87001E+01  2.13640E+01  2.24220E+01  2.65998E+01  2.56073E+01  2.05545E+01  1.98067E+01  1.91539E+01  2.01086E+01
   2.66950E+01  3.63066E+01  4.34924E+01  4.89716E+01  5.19835E+01  5.12673E+01  5.20583E+01  5.55120E+01  5.71697E+01  5.66806E+01
   5.38272E+01  4.97718E+01  4.46047E+01  3.94788E+01  3.48018E+01  2.83641E+01  2.18605E+01  2.10985E+01  2.38273E+01  2.35691E+01
   1.87712E+01  1.64110E+01  1.59679E+01  1.64343E+01  1.69801E+01  1.68306E+01  1.58842E+01  1.47988E+01  1.38363E+01  1.30343E+01
   1.24661E+01  1.22864E+01  1.21526E+01  1.16951E+01  1.06428E+01  9.69631E+00  9.03358E+00  8.75988E+00  8.86639E+00  8.85703E+00
   8.52536E+00  8.00694E+00  7.36306E+00  6.88929E+00  6.57263E+00  6.18631E+00  5.87796E+00  5.60923E+00  5.11932E+00  4.36496E+00
   3.48601E+00  2.75427E+00  2.15114E+00  1.83903E+00  1.64497E+00  1.27552E+00  7.77916E-01  3.15835E-01  1.42639E-01 -1.01306E-01
  -6.08943E-01 -8.10827E-01 -5.18524E-01  3.95424E-01  1.93208E+00  3.22971E+00  3.72059E+00  3.96521E+00  4.70146E+00  5.47780E+00
   5.34483E+00  4.75237E+00  4.52566E+00  4.90958E+00  5.61132E+00  6.45078E+00  6.89136E+00  7.03080E+00  7.49315E+00  8.03790E+00
   8.70297E+00  9.23743E+00  8.79051E+00  7.50794E+00  6.57806E+00  6.09539E+00  5.50810E+00  5.32971E+00  5.71973E+00  6.21368E+00
   6.96473E+00  7.42724E+00  7.56724E+00  7.27314E+00  6.91606E+00  6.70202E+00  6.24806E+00  6.42641E+00  7.07437E+00  7.38979E+00
   6.99845E+00  6.47065E+00  6.67168E+00  6.46925E+00  5.75737E+00  6.37526E+00  8.25057E+00  9.91939E+00  1.03903E+01  1.13877E+01
   1.33449E+01  1.45512E+01  1.41825E+01  1.41048E+01  1.50589E+01  1.53825E+01  1.49293E+01  1.48486E+01  1.51863E+01  1.57336E+01
   1.67373E+01  1.72893E+01  1.69664E+01  1.69257E+01  1.75418E+01  1.77815E+01  1.78634E+01  1.91676E+01  2.16332E+01  2.47296E+01
   2.62087E+01  2.52934E+01  2.95763E+01  4.29374E+01  5.75670E+01  6.82824E+01  7.66465E+01  7.87949E+01  7.57913E+01  7.69197E+01
   8.02388E+01  8.05368E+01  7.82837E+01  7.38315E+01  6.76249E+01  5.86633E+01  4.97032E+01  3.97139E+01  2.58393E+01  1.64107E+01
   1.83402E+01  2.27421E+01  1.87933E+01  1.07274E+01  7.93353E+00  6.68824E+00  5.67516E+00  4.92467E+00  4.32036E+00  3.65917E+00
   2.99510E+00  2.30877E+00  1.64375E+00  1.08706E+00  6.54249E-01  2.56170E-01 -1.39306E-01 -4.95468E-01 -8.03408E-01 -1.08514E+00
  -1.36239E+00 -1.62391E+00 -1.84305E+00 -2.02407E+00 -2.19399E+00 -2.33450E+00 -2.43040E+00 -2.49748E+00 -2.53738E+00 -2.52847E+00
  -2.46055E+00 -2.33548E+00 -2.14131E+00 -1.85855E+00 -1.47352E+00 -9.75394E-01 -3.43823E-01  4.37575E-01  1.38830E+00  2.52834E+00
   3.87663E+00  5.45207E+00  7.28102E+00  9.40392E+00  1.19125E+01  1.49832E+01  1.78562E+01  2.03963E+01  2.55218E+01  3.27764E+01
   3.74637E+01  3.80434E+01  3.67219E+01  3.34978E+01  2.99040E+01  2.66546E+01  2.24403E+01  1.93459E+01  1.91933E+01  1.91170E+01
   1.96143E+01  1.94391E+01  1.69140E+01  1.43896E+01  1.39110E+01  1.68493E+01  2.32276E+01  2.71772E+01  2.65837E+01  2.42718E+01
   2.43269E+01  2.44488E+01  2.16903E+01  1.62655E+01  1.37130E+01  1.54542E+01  1.73565E+01  1.56370E+01  1.41751E+01  1.36283E+01
   1.35013E+01  1.35986E+01  1.38233E+01  1.41117E+01  1.44166E+01  1.46994E+01  1.49292E+01  1.50815E+01  1.51388E+01  1.50888E+01
   1.49248E+01  1.46440E+01  1.42489E+01  1.37458E+01  1.31449E+01  1.24590E+01  1.17027E+01  1.08915E+01  1.00425E+01  9.17241E+00
   8.29854E+00  7.43646E+00  6.60106E+00  5.80549E+00  5.06239E+00  4.38266E+00  3.77630E+00  3.25125E+00  2.81481E+00  2.47296E+00
   2.23163E+00  2.09546E+00  2.06870E+00  2.15407E+00  2.35407E+00  2.66986E+00  3.10206E+00  3.64904E+00  4.30752E+00  5.07128E+00
   5.93219E+00  6.87880E+00  7.89717E+00  8.96932E+00  1.00745E+01  1.11889E+01  1.22868E+01  1.33409E+01  1.43236E+01  1.52069E+01
   1.59648E+01  1.65735E+01  1.70139E+01  1.72706E+01  1.73344E+01  1.72008E+01  1.68719E+01  1.63552E+01  1.56643E+01  1.48167E+01
   1.38337E+01  1.27386E+01  1.15571E+01  1.03144E+01  9.03617E+00  7.74543E+00  6.46346E+00  5.20815E+00  3.99513E+00  2.83633E+00
   1.74116E+00  7.15205E-01 -2.38099E-01 -1.11811E+00 -1.92526E+00 -2.66202E+00 -3.33151E+00 -3.93841E+00 -4.48726E+00 -4.98327E+00
  -5.43087E+00 -5.83499E+00 -6.19991E+00 -6.53032E+00 -6.82988E+00 -7.10228E+00 -7.35018E+00 -7.57658E+00 -7.78377E+00 -7.97438E+00
  -8.15002E+00 -8.31249E+00 -8.46277E+00 -8.60247E+00 -8.73253E+00 -8.85437E+00 -8.96843E+00 -9.07561E+00 -9.17616E+00 -9.27106E+00
  -9.36068E+00 -9.44582E+00 -9.52646E+00 -9.60309E+00 -9.67573E+00 -9.74515E+00 -9.81140E+00 -9.87500E+00 -9.93567E+00 -9.99384E+00
  -1.00494E+01 -1.01031E+01 -1.01547E+01 -1.02046E+01 -1.02525E+01 -1.02987E+01 -1.03432E+01 -1.03866E+01 -1.04285E+01 -1.04692E+01
  -1.05084E+01 -1.05465E+01 -1.05835E+01 -1.06197E+01 -1.06549E+01 -1.06893E+01 -1.07224E+01 -1.07549E+01 -1.07866E+01 -1.08178E+01
  -1.08482E+01 -1.08780E+01 -1.09068E+01 -1.09353E+01 -1.09633E+01 -1.09910E+01 -1.10179E+01 -1.10444E+01 -1.10703E+01 -1.10960E+01
  -1.11213E+01 -1.11465E+01 -1.11710E+01 -1.11953E+01 -1.12191E+01 -1.12430E+01 -1.12666E+01 -1.12900E+01
 NY background values follow
     2.591E+01    2.580E+01    2.568E+01    2.556E+01    2.544E+01    2.532E+01    2.520E+01    2.508E+01    2.496E+01    2.484E+01
     2.473E+01    2.461E+01    2.449E+01    2.437E+01    2.425E+01    2.413E+01    2.401E+01    2.389E+01    2.377E+01    2.365E+01
     2.354E+01    2.342E+01    2.330E+01    2.318E+01    2.306E+01    2.294E+01    2.282E+01    2.270E+01    2.258E+01    2.247E+01
     2.235E+01    2.223E+01    2.211E+01    2.199E+01    2.187E+01    2.175E+01    2.163E+01    2.151E+01    2.139E+01    2.128E+01
     2.116E+01    2.104E+01    2.092E+01    2.080E+01    2.068E+01    2.056E+01    2.044E+01    2.032E+01    2.021E+01    2.009E+01
     1.997E+01    1.985E+01    1.973E+01    1.961E+01    1.949E+01    1.937E+01    1.926E+01    1.914E+01    1.902E+01    1.890E+01
     1.878E+01    1.866E+01    1.854E+01    1.842E+01    1.831E+01    1.819E+01    1.807E+01    1.795E+01    1.783E+01    1.771E+01
     1.759E+01    1.748E+01    1.736E+01    1.724E+01    1.712E+01    1.700E+01    1.688E+01    1.676E+01    1.665E+01    1.653E+01
     1.641E+01    1.629E+01    1.617E+01    1.605E+01    1.594E+01    1.582E+01    1.570E+01    1.558E+01    1.546E+01    1.534E+01
     1.523E+01    1.511E+01    1.499E+01    1.487E+01    1.475E+01    1.464E+01    1.452E+01    1.440E+01    1.428E+01    1.416E+01
     1.405E+01    1.393E+01    1.381E+01    1.369E+01    1.357E+01    1.346E+01    1.334E+01    1.322E+01    1.310E+01    1.299E+01
     1.287E+01    1.275E+01    1.263E+01    1.251E+01    1.240E+01    1.228E+01    1.216E+01    1.204E+01    1.193E+01    1.181E+01
     1.169E+01    1.158E+01    1.146E+01    1.134E+01    1.122E+01    1.111E+01    1.099E+01    1.087E+01    1.075E+01    1.064E+01
     1.052E+01    1.040E+01    1.029E+01    1.017E+01    1.005E+01    9.936E+00    9.819E+00    9.702E+00    9.585E+00    9.468E+00
     9.352E+00    9.235E+00    9.119E+00    9.002E+00    8.885E+00    8.769E+00    8.653E+00    8.536E+00    8.420E+00    8.304E+00
     8.188E+00    8.072E+00    7.956E+00    7.840E+00    7.724E+00    7.608E+00    7.493E+00    7.377E+00    7.262E+00    7.146E+00
     7.031E+00    6.916E+00    6.801E+00    6.686E+00    6.571E+00    6.456E+00    6.342E+00    6.227E+00    6.113E+00    5.998E+00
     5.884E+00    5.770E+00    5.656E+00    5.543E+00    5.429E+00    5.315E+00    5.202E+00    5.089E+00    4.976E+00    4.863E+00
     4.750E+00    4.637E+00    4.525E+00    4.412E+00    4.300E+00    4.188E+00    4.076E+00    3.965E+00    3.853E+00    3.742E+00
     3.630E+00    3.519E+00    3.409E+00    3.298E+00    3.187E+00    3.077E+00    2.967E+00    2.857E+00    2.747E+00    2.638E+00
     2.528E+00    2.419E+00    2.310E+00    2.201E+00    2.093E+00    1.985E+00    1.876E+00    1.768E+00    1.661E+00    1.553E+00
     1.446E+00    1.339E+00    1.232E+00    1.125E+00    1.019E+00    9.127E-01    8.067E-01    7.010E-01    5.955E-01    4.902E-01
     3.852E-01    2.804E-01    1.758E-01    7.153E-02   -3.252E-02   -1.363E-01   -2.399E-01   -3.432E-01   -4.462E-01   -5.490E-01
    -6.515E-01   -7.537E-01   -8.556E-01   -9.573E-01   -1.059E+00   -1.160E+00   -1.260E+00   -1.361E+00   -1.461E+00   -1.561E+00
    -1.660E+00   -1.759E+00   -1.858E+00   -1.956E+00   -2.054E+00   -2.152E+00   -2.250E+00   -2.346E+00   -2.443E+00   -2.539E+00
    -2.635E+00   -2.730E+00   -2.825E+00   -2.920E+00   -3.014E+00   -3.108E+00   -3.201E+00   -3.294E+00   -3.387E+00   -3.479E+00
    -3.570E+00   -3.661E+00   -3.752E+00   -3.842E+00   -3.932E+00   -4.021E+00   -4.110E+00   -4.198E+00   -4.286E+00   -4.373E+00
    -4.459E+00   -4.546E+00   -4.631E+00   -4.716E+00   -4.801E+00   -4.885E+00   -4.969E+00   -5.052E+00   -5.134E+00   -5.216E+00
    -5.297E+00   -5.378E+00   -5.459E+00   -5.538E+00   -5.618E+00   -5.696E+00   -5.774E+00   -5.852E+00   -5.929E+00   -6.006E+00
    -6.081E+00   -6.157E+00   -6.232E+00   -6.306E+00   -6.379E+00   -6.453E+00   -6.525E+00   -6.597E+00   -6.668E+00   -6.739E+00
    -6.809E+00   -6.879E+00   -6.948E+00   -7.017E+00   -7.085E+00   -7.152E+00   -7.219E+00   -7.285E+00   -7.350E+00   -7.415E+00
    -7.480E+00   -7.543E+00   -7.607E+00   -7.669E+00   -7.731E+00   -7.792E+00   -7.853E+00   -7.913E+00   -7.973E+00   -8.032E+00
    -8.090E+00   -8.148E+00   -8.205E+00   -8.262E+00   -8.318E+00   -8.373E+00   -8.428E+00   -8.482E+00   -8.536E+00   -8.589E+00
    -8.642E+00   -8.694E+00   -8.745E+00   -8.796E+00   -8.847E+00   -8.897E+00   -8.946E+00   -8.995E+00   -9.043E+00   -9.091E+00
    -9.139E+00   -9.185E+00   -9.232E+00   -9.278E+00   -9.323E+00   -9.368E+00   -9.412E+00   -9.456E+00   -9.500E+00   -9.543E+00
    -9.585E+00   -9.627E+00   -9.669E+00   -9.710E+00   -9.751E+00   -9.791E+00   -9.831E+00   -9.870E+00   -9.909E+00   -9.948E+00
    -9.986E+00   -1.002E+01   -1.006E+01   -1.010E+01   -1.013E+01   -1.017E+01   -1.021E+01   -1.024E+01   -1.028E+01   -1.031E+01
    -1.034E+01   -1.038E+01   -1.041E+01   -1.044E+01   -1.048E+01   -1.051E+01   -1.054E+01   -1.057E+01   -1.060E+01   -1.063E+01
    -1.067E+01   -1.070E+01   -1.072E+01   -1.075E+01   -1.078E+01   -1.081E+01   -1.084E+01   -1.087E+01   -1.090E+01   -1.092E+01
    -1.095E+01   -1.098E+01   -1.100E+01   -1.103E+01   -1.105E+01   -1.108E+01   -1.110E+01   -1.113E+01   -1.115E+01   -1.118E+01
    -1.120E+01   -1.122E+01   -1.125E+01   -1.127E+01   -1.129E+01   -1.131E+01   -1.134E+01   -1.136E+01   -1.138E+01   -1.140E+01
    -1.142E+01   -1.144E+01   -1.146E+01   -1.148E+01   -1.150E+01   -1.152E+01   -1.154E+01   -1.156E+01   -1.158E+01   -1.160E+01
    -1.161E+01   -1.163E+01   -1.165E+01   -1.167E+01   -1.168E+01   -1.170E+01   -1.172E+01   -1.173E+01   -1.175E+01   -1.177E+01
    -1.178E+01   -1.180E+01   -1.181E+01   -1.183E+01   -1.184E+01   -1.186E+01   -1.187E+01   -1.189E+01   -1.190E+01   -1.191E+01
    -1.193E+01   -1.194E+01   -1.195E+01   -1.197E+01   -1.198E+01   -1.199E+01   -1.201E+01   -1.202E+01   -1.203E+01   -1.204E+01
    -1.205E+01   -1.207E+01   -1.208E+01   -1.209E+01   -1.210E+01   -1.211E+01   -1.212E+01   -1.213E+01   -1.215E+01   -1.216E+01
    -1.217E+01   -1.218E+01   -1.219E+01   -1.220E+01   -1.221E+01   -1.222E+01   -1.223E+01   -1.224E+01   -1.225E+01   -1.226E+01
    -1.227E+01   -1.228E+01   -1.229E+01   -1.230E+01   -1.231E+01   -1.231E+01   -1.232E+01   -1.233E+01   -1.234E+01   -1.235E+01
    -1.236E+01   -1.237E+01   -1.238E+01   -1.239E+01   -1.240E+01   -1.240E+01   -1.241E+01   -1.242E+01   -1.243E+01   -1.244E+01
    -1.245E+01   -1.246E+01   -1.247E+01   -1.248E+01   -1.248E+01   -1.249E+01   -1.250E+01   -1.251E+01
 Ala      Conc. = 2.86E+03
