 LCModel (Version 6.3-1L) Copyright: S.W. Provencher.          Ref.: Magn. Reson. Med. 30:672-679 (1993).                
 Slice#3 Row#8 Col#11  PD_24_press_2_raw_act
 36 lines in following concentration table = NCONC+1
    Conc.  %SD /Cr+PCr  Metabolite                                         
  178.146  56%   0.222 Ala                                                 
    0.000 999%   0.000 Asp                                                 
    0.000 999%   0.000 Cr                                                  
  804.181   7%   1.000 PCr                                                 
    0.000 999%   0.000 GABA                                                
   27.784 390% 3.5E-02 Glc                                                 
  305.660  66%   0.380 Gln                                                 
  887.372  25%   1.103 Glu                                                 
    0.000 999%   0.000 GPC                                                 
  204.176  10%   0.254 PCh                                                 
  185.937  38%   0.231 GSH                                                 
  543.088  43%   0.675 Ins                                                 
  203.581  53%   0.253 Lac                                                 
 1.72E+03   7%   2.134 NAA                                                 
  127.999 105%   0.159 NAAG                                                
   33.950  69% 4.2E-02 Scyllo                                              
  129.116 124%   0.161 Tau                                                 
  568.159  17%   0.707 -CrCH2                                              
  204.176  10%   0.254 GPC+PCh                                             
 1.84E+03   5%   2.293 NAA+NAAG                                            
  804.181   7%   1.000 Cr+PCr                                              
 1.19E+03  25%   1.484 Glu+Gln                                             
 2.16E+03   9%   2.685 Lip13a                                              
    0.000 999%   0.000 Lip13b                                              
    0.000 999%   0.000 Lip09                                               
 1.94E+03  13%   2.415 MM09                                                
 1.60E+03  20%   1.984+Lip20                                               
 3.84E+03  12%   4.777 MM20                                                
 1.02E+03  17%   1.271 MM12                                                
    0.000 999%   0.000 MM14                                                
  703.358  22%   0.875 MM17                                                
 2.16E+03   9%   2.685 Lip13a+Lip13b                                       
 3.18E+03   7%   3.956 MM14+Lip13a+Lip13b+MM12                             
 1.94E+03  13%   2.415 MM09+Lip09                                          
 5.44E+03   8%   6.760 MM20+Lip20                                          
   6 lines in following misc. output table
  FWHM = 0.038 ppm    S/N =  11                                            
  Data shift = 0.015 ppm                                                   
  Ph:  56 deg      23.0 deg/ppm                                            
  alphaB,S = 4.9E-01,   8.6E+01                                            
   14 spline knots.   Ns = 6(1)                                            
  ( 9) 2 infls.   ( 6) 1 extrs.                                            
  498 points on ppm-axis = NY
      4.000000     3.992357     3.984714     3.977070     3.969427     3.961784     3.954141     3.946497     3.938854     3.931211
      3.923568     3.915925     3.908281     3.900638     3.892995     3.885352     3.877708     3.870065     3.862422     3.854779
      3.847136     3.839492     3.831849     3.824206     3.816563     3.808919     3.801276     3.793633     3.785990     3.778347
      3.770703     3.763060     3.755417     3.747774     3.740130     3.732487     3.724844     3.717201     3.709558     3.701914
      3.694271     3.686628     3.678985     3.671341     3.663698     3.656055     3.648412     3.640769     3.633125     3.625482
      3.617839     3.610196     3.602552     3.594909     3.587266     3.579623     3.571980     3.564336     3.556693     3.549050
      3.541407     3.533763     3.526120     3.518477     3.510834     3.503191     3.495547     3.487904     3.480261     3.472618
      3.464974     3.457331     3.449688     3.442045     3.434402     3.426758     3.419115     3.411472     3.403829     3.396185
      3.388542     3.380899     3.373256     3.365613     3.357969     3.350326     3.342683     3.335040     3.327396     3.319753
      3.312110     3.304467     3.296824     3.289180     3.281537     3.273894     3.266251     3.258607     3.250964     3.243321
      3.235678     3.228034     3.220391     3.212748     3.205105     3.197462     3.189818     3.182175     3.174532     3.166889
      3.159245     3.151602     3.143959     3.136316     3.128673     3.121029     3.113386     3.105743     3.098100     3.090456
      3.082813     3.075170     3.067527     3.059884     3.052240     3.044597     3.036954     3.029311     3.021667     3.014024
      3.006381     2.998738     2.991095     2.983451     2.975808     2.968165     2.960522     2.952878     2.945235     2.937592
      2.929949     2.922306     2.914662     2.907019     2.899376     2.891733     2.884089     2.876446     2.868803     2.861160
      2.853517     2.845873     2.838230     2.830587     2.822944     2.815300     2.807657     2.800014     2.792371     2.784728
      2.777084     2.769441     2.761798     2.754155     2.746511     2.738868     2.731225     2.723582     2.715939     2.708295
      2.700652     2.693009     2.685366     2.677722     2.670079     2.662436     2.654793     2.647150     2.639506     2.631863
      2.624220     2.616577     2.608933     2.601290     2.593647     2.586004     2.578361     2.570717     2.563074     2.555431
      2.547788     2.540144     2.532501     2.524858     2.517215     2.509572     2.501928     2.494285     2.486642     2.478999
      2.471355     2.463712     2.456069     2.448426     2.440783     2.433139     2.425496     2.417853     2.410210     2.402566
      2.394923     2.387280     2.379637     2.371994     2.364350     2.356707     2.349064     2.341421     2.333777     2.326134
      2.318491     2.310848     2.303205     2.295561     2.287918     2.280275     2.272632     2.264988     2.257345     2.249702
      2.242059     2.234416     2.226772     2.219129     2.211486     2.203843     2.196199     2.188556     2.180913     2.173270
      2.165627     2.157983     2.150340     2.142697     2.135054     2.127410     2.119767     2.112124     2.104481     2.096838
      2.089194     2.081551     2.073908     2.066265     2.058621     2.050978     2.043335     2.035692     2.028049     2.020405
      2.012762     2.005119     1.997476     1.989833     1.982190     1.974546     1.966903     1.959260     1.951617     1.943974
      1.936331     1.928688     1.921045     1.913402     1.905759     1.898115     1.890472     1.882829     1.875186     1.867543
      1.859900     1.852257     1.844614     1.836971     1.829327     1.821684     1.814041     1.806398     1.798755     1.791112
      1.783469     1.775826     1.768183     1.760540     1.752896     1.745253     1.737610     1.729967     1.722324     1.714681
      1.707038     1.699395     1.691752     1.684108     1.676465     1.668822     1.661179     1.653536     1.645893     1.638250
      1.630607     1.622964     1.615321     1.607677     1.600034     1.592391     1.584748     1.577105     1.569462     1.561819
      1.554176     1.546533     1.538890     1.531246     1.523603     1.515960     1.508317     1.500674     1.493031     1.485388
      1.477745     1.470102     1.462458     1.454815     1.447172     1.439529     1.431886     1.424243     1.416600     1.408957
      1.401314     1.393671     1.386027     1.378384     1.370741     1.363098     1.355455     1.347812     1.340169     1.332526
      1.324883     1.317240     1.309596     1.301953     1.294310     1.286667     1.279024     1.271381     1.263738     1.256095
      1.248452     1.240808     1.233165     1.225522     1.217879     1.210236     1.202593     1.194950     1.187307     1.179664
      1.172021     1.164377     1.156734     1.149091     1.141448     1.133805     1.126162     1.118519     1.110876     1.103233
      1.095590     1.087946     1.080303     1.072660     1.065017     1.057374     1.049731     1.042088     1.034445     1.026802
      1.019158     1.011515     1.003872     0.996229     0.988586     0.980943     0.973300     0.965657     0.958014     0.950371
      0.942727     0.935084     0.927441     0.919798     0.912155     0.904512     0.896869     0.889226     0.881583     0.873940
      0.866296     0.858653     0.851010     0.843367     0.835724     0.828081     0.820438     0.812795     0.805152     0.797508
      0.789865     0.782222     0.774579     0.766936     0.759293     0.751650     0.744007     0.736364     0.728721     0.721077
      0.713434     0.705791     0.698148     0.690505     0.682862     0.675219     0.667576     0.659933     0.652290     0.644646
      0.637003     0.629360     0.621717     0.614074     0.606431     0.598788     0.591145     0.583502     0.575858     0.568215
      0.560572     0.552929     0.545286     0.537643     0.530000     0.522357     0.514714     0.507071     0.499427     0.491784
      0.484141     0.476498     0.468855     0.461212     0.453569     0.445925     0.438282     0.430639     0.422996     0.415353
      0.407710     0.400067     0.392424     0.384780     0.377137     0.369494     0.361851     0.354208     0.346565     0.338922
      0.331278     0.323635     0.315992     0.308349     0.300706     0.293063     0.285420     0.277777     0.270133     0.262490
      0.254847     0.247204     0.239561     0.231918     0.224275     0.216631     0.208988     0.201345
 NY phased data points follow
  -1.17047E+00 -4.21816E-01  1.90839E+00 -6.23094E-01 -1.42968E-01 -3.45449E-02 -5.91070E+00 -5.35664E+00  4.27324E-01  6.03106E+00
   7.35961E-01  2.51281E+00  5.25151E+00  3.12518E+00 -1.45639E+00 -2.66579E+00 -6.19098E+00 -9.90862E-01 -4.50281E+00 -8.34134E-01
  -4.70247E+00 -1.20979E+00  2.62731E+00 -3.38053E+00 -7.36390E-01  8.66777E-01 -4.81238E+00 -4.18982E+00 -1.44846E+00  1.04148E+00
  -1.28786E+00  4.91505E+00 -2.76441E+00  3.77588E+00 -9.42195E-01  1.63494E+00  4.88731E-01 -1.00257E+00 -9.27313E-01 -3.77330E+00
   3.19558E+00 -5.90558E-01 -4.17764E-01 -2.55429E-01 -2.76821E+00 -5.80057E-01 -7.33695E-01  4.25453E+00  5.27531E+00  4.80729E+00
   1.17019E+00  2.02517E+00 -7.93006E-02  1.52925E+00  5.15515E-01  3.28566E+00  1.92825E+00  5.16756E+00 -6.77347E-02  5.83698E+00
   1.76905E+00  5.95031E+00 -8.88146E-01  1.08326E+00 -5.46894E-01 -4.65429E-02 -5.12558E-01 -3.75293E+00 -1.35685E+00  2.21095E+00
   1.01929E+00 -1.25386E+00 -2.60566E-01  2.30922E+00 -2.11103E+00  3.76901E-02 -3.27240E-01 -2.28824E+00 -1.46562E+00 -3.72835E+00
  -4.27722E+00 -2.21414E+00 -2.45301E+00  1.35261E+00  6.97565E-01  1.62294E-01 -1.84381E+00  1.25418E+00 -8.08393E-01  1.39330E+00
  -6.83049E-01 -1.43050E+00  1.69246E+00 -2.13154E+00 -3.09750E-03  1.27542E+00 -2.69178E-01 -1.48630E+00  1.58738E+00  1.55876E+00
   2.30947E-01  7.51707E+00  1.23650E+01  2.02893E+01  2.28078E+01  2.23310E+01  1.48287E+01  1.38018E+01  7.33878E+00  1.02165E+01
   9.86139E+00  3.07708E+00  1.62658E-01  1.63525E+00 -7.74931E-01  1.47934E+00 -2.13298E-01  4.67555E+00 -1.03826E+00 -1.28938E+00
  -1.59516E-01 -2.11211E+00 -5.39318E+00 -2.05345E-01  5.39980E+00  1.29872E+01  2.55098E+01  2.90946E+01  3.01966E+01  3.26936E+01
   2.43378E+01  2.43299E+01  2.02514E+01  1.71966E+01  1.13773E+01  1.04632E+01  9.20725E+00  9.82138E+00  8.24601E+00  5.82187E+00
   9.23710E+00  8.33235E+00  9.83774E+00  5.50446E+00  6.13834E+00  4.21114E+00  6.14533E+00  8.35833E+00  1.25435E+00  3.17871E+00
   1.23452E+00  5.57204E+00  1.96820E+00  4.31914E+00  6.67950E-01  4.82505E+00  7.45221E-01  4.97190E-01  2.01517E+00  1.45326E-01
   6.09606E+00  1.09601E+00  3.13841E+00  3.45325E+00  2.61994E+00  6.20440E-01  3.73801E+00  4.56365E+00  7.92734E-01  1.08739E+00
  -6.36746E+00 -2.34196E+00 -4.69008E+00 -7.01315E+00 -6.23775E+00 -8.48828E+00 -1.05543E+01 -6.20904E+00 -7.53662E+00 -7.73793E+00
  -5.20832E+00 -9.66412E+00 -9.16076E+00 -8.36082E+00 -5.60496E+00 -8.06738E+00 -8.55620E+00 -7.42554E+00 -6.74761E+00 -1.32294E+00
  -6.28233E+00 -3.10155E+00 -8.53216E-02 -2.23888E+00  4.41495E+00  3.83027E+00 -7.22561E+00 -7.80113E+00 -1.04655E+01 -8.60063E+00
  -6.67412E+00 -3.98923E+00 -4.28007E+00  3.23533E+00  4.24852E+00 -6.07289E-01 -1.99275E+00 -2.03007E+00 -1.93314E+00 -3.89408E+00
  -1.38638E+00 -2.27498E-02  1.14342E+00  3.49539E+00  8.67504E+00  1.24492E+01  1.50488E+01  9.55835E+00  1.15846E+01  4.71179E+00
   1.28099E+00 -8.06150E-01 -1.41907E+00  1.40760E-02  2.03859E+00  3.92278E+00  8.73247E+00  7.41340E+00  5.63303E+00  6.63178E+00
   6.86705E+00  7.26664E+00  5.53955E+00  6.87225E+00  8.27135E+00  1.09860E+01  5.57068E+00  9.79934E+00  5.50871E+00  9.86738E+00
   6.35248E+00  8.16181E+00 -5.26310E-01  2.83291E+00  4.14063E+00  6.96020E+00  9.57445E+00  1.28825E+01  1.05707E+01  1.08464E+01
   1.05318E+01  1.29623E+01  1.59918E+01  1.42911E+01  1.92905E+01  2.42540E+01  3.26320E+01  4.28088E+01  5.89094E+01  6.76169E+01
   8.11270E+01  8.05679E+01  6.47327E+01  4.78894E+01  3.45287E+01  2.40017E+01  1.58737E+01  1.06063E+01  7.46243E+00  3.11101E-02
   3.81977E+00  2.96522E+00 -7.17440E-01  3.28685E+00 -1.85159E+00  6.92308E-02 -2.83138E+00 -5.60242E+00 -5.40912E+00 -4.48568E+00
  -6.65495E+00 -8.17354E+00 -6.88480E+00 -6.12357E+00 -4.23101E+00 -9.31097E+00 -1.12828E+01 -8.51763E+00 -6.56540E+00 -3.73936E+00
  -4.96992E+00 -5.57378E+00 -5.63998E+00  7.19740E-01 -2.61017E+00 -6.86633E+00 -5.78665E+00 -8.02903E-01 -3.18239E+00 -5.20739E+00
  -3.44217E+00 -1.66805E+00 -3.40618E+00 -1.55933E+00 -5.42048E+00 -4.79137E+00 -1.96040E+00  7.97877E-01 -2.01411E+00 -6.77154E+00
  -2.19834E+00 -3.13742E+00 -4.59032E+00 -4.74781E+00 -3.18336E+00 -6.76246E+00 -9.04318E+00 -1.19104E+01 -6.92459E+00 -8.42076E+00
  -1.31245E+01 -1.38832E+01 -1.65864E+01 -1.60253E+01 -1.76878E+01 -1.64810E+01 -2.28670E+01 -2.10266E+01 -1.85955E+01 -1.72994E+01
  -1.72455E+01 -2.29649E+01 -1.53064E+01 -1.64532E+01 -6.99537E+00 -7.49874E+00 -6.92833E+00 -1.98310E+00 -7.94296E+00 -1.08703E+00
   3.24508E+00  6.54456E+00  6.15484E+00  1.08022E+01  1.22091E+01  1.45055E+01  1.50778E+01  9.94235E+00  9.43501E+00  9.11431E+00
   1.07345E+01  7.55516E+00  1.09167E+01  8.51168E+00  1.10765E+01  1.09630E+01  1.19325E+01  6.50110E+00  7.52320E+00  5.24791E+00
   6.82138E+00  5.59411E+00  5.74127E+00  9.19953E+00  1.00217E+01  3.69078E+00  1.02013E+01  6.98430E+00  4.05903E+00  8.06871E+00
   7.10222E+00  5.56749E+00  4.84629E+00  5.05605E+00  4.95044E+00  4.75522E+00  1.12853E+00  1.38280E+00  1.89202E+00  5.50990E+00
   4.00454E+00  1.77475E+00 -2.94060E+00  9.27119E-01  3.74318E-01  2.75929E+00  2.83891E+00  8.94341E-01  1.60623E+00  1.81273E+00
   1.43870E+00  4.22640E+00  3.42089E+00 -9.60532E-01  1.53888E+00  3.89953E+00 -3.97016E-01  5.93461E+00  6.82864E+00  1.09922E+00
   6.17591E+00  4.44660E+00  4.66853E+00  8.85291E+00  5.10356E+00  7.60830E+00  4.73007E+00  2.86073E+00  5.38450E-01 -1.84544E+00
   9.10402E-01 -8.56902E-01  9.02382E-01  3.37789E+00  4.01864E+00  1.76685E+00  1.81065E+00  1.92227E-01 -7.38305E-02  6.56379E-01
  -3.27172E-01 -2.78119E-01 -2.31568E+00 -1.78509E+00 -1.02036E+00 -4.19917E+00  3.22971E+00  1.56561E-01 -9.74468E-01  1.22361E+00
   7.67353E-01 -4.85346E-01 -1.89238E+00 -1.07027E+00  1.50813E+00  4.87637E+00  2.87206E-01  4.10314E-01  3.20137E+00 -3.06205E+00
   1.08164E+00  4.15809E+00  1.83313E+00 -7.03489E-01  1.39394E+00 -3.39971E+00 -8.52059E-01 -1.08327E+00  5.70538E-01  3.39256E+00
   4.82630E+00  2.72813E+00  2.36044E+00 -1.97581E+00  3.73285E+00  1.51420E+00  1.26183E+00  3.76588E-01  4.86316E-01  3.27055E+00
   3.90698E+00  3.45085E-01 -1.70725E+00  3.89779E+00  2.80629E-01  1.34804E+00  4.33477E-01  6.49498E-01 -5.81565E-01 -7.49473E-01
   2.05029E+00  3.66485E+00  7.00744E+00  4.60705E+00  3.09741E+00  1.76102E+00  4.24502E+00  2.29325E+00  1.64381E+00 -1.76345E+00
   6.92226E-01 -4.21434E+00 -2.81739E-01 -1.77899E+00  2.35148E+00  2.48412E+00  3.95958E+00  1.18287E+00  1.17897E+00  5.42389E+00
   3.07896E+00  2.82936E+00 -7.49120E-02  2.82407E-01 -8.99387E-01  3.40918E+00 -1.45499E+00  3.92406E+00
 NY points of the fit to the data follow
  -1.57982E+00 -1.89913E+00 -2.11956E+00 -2.29050E+00 -2.54774E+00 -2.85579E+00 -2.81525E+00 -2.10396E+00 -6.36135E-01  1.27272E+00
   3.10311E+00  4.20775E+00  4.16960E+00  3.18690E+00  1.92445E+00  8.42423E-01  2.62480E-02 -7.88249E-01 -1.29092E+00 -1.25175E+00
  -9.91917E-01 -6.49028E-01 -3.46500E-01 -2.48146E-01 -5.06390E-01 -1.01499E+00 -1.44658E+00 -1.40322E+00 -6.15126E-01  9.19047E-01
   2.84901E+00  4.54676E+00  5.45015E+00  5.39078E+00  4.49052E+00  3.05159E+00  1.37587E+00 -1.25163E-01 -1.06452E+00 -1.43515E+00
  -1.47126E+00 -1.34267E+00 -1.12030E+00 -7.00947E-01  3.68179E-02  1.10832E+00  2.27886E+00  3.14457E+00  3.38114E+00  2.88504E+00
   1.85972E+00  7.09861E-01 -2.18447E-01 -8.29140E-01 -1.20875E+00 -1.35155E+00 -1.18191E+00 -7.46163E-01 -1.89567E-01  3.37769E-01
   6.91771E-01  7.80811E-01  5.97776E-01  2.37405E-01 -1.40028E-01 -4.11022E-01 -5.58807E-01 -5.78729E-01 -4.75062E-01 -2.92265E-01
  -5.75304E-02  2.05998E-01  4.71496E-01  6.87867E-01  7.93698E-01  7.58012E-01  5.71190E-01  2.73501E-01 -6.68592E-02 -3.61270E-01
  -5.15103E-01 -4.70154E-01 -2.16972E-01  1.92165E-01  6.17220E-01  8.65767E-01  8.11952E-01  4.42918E-01 -1.29512E-01 -6.87258E-01
  -1.05272E+00 -1.21645E+00 -1.28286E+00 -1.32491E+00 -1.28315E+00 -1.15563E+00 -1.03356E+00 -9.64030E-01 -7.85607E-01  3.94321E-01
   3.38711E+00  8.20520E+00  1.38969E+01  1.88849E+01  2.16123E+01  2.11989E+01  1.81166E+01  1.39566E+01  1.01042E+01  6.99256E+00
   4.39186E+00  2.30596E+00  1.29682E+00  9.67953E-01  8.26127E-01  7.50695E-01  7.13454E-01  6.94391E-01  6.86655E-01  6.98223E-01
   7.52432E-01  8.85064E-01  1.35957E+00  3.33187E+00  7.76669E+00  1.45478E+01  2.23151E+01  2.89484E+01  3.24398E+01  3.17524E+01
   2.76185E+01  2.21210E+01  1.70143E+01  1.27482E+01  8.94022E+00  5.66070E+00  3.79648E+00  3.00628E+00  2.75500E+00  2.86139E+00
   3.15000E+00  3.46749E+00  3.71685E+00  3.82133E+00  3.77945E+00  3.66020E+00  3.51448E+00  3.36986E+00  3.24422E+00  3.12607E+00
   3.01956E+00  2.90586E+00  2.78700E+00  2.68543E+00  2.62867E+00  2.61395E+00  2.54217E+00  2.30245E+00  1.84506E+00  1.25234E+00
   7.48092E-01  5.17387E-01  5.95529E-01  8.18207E-01  9.11977E-01  6.73759E-01  9.78710E-02 -6.19842E-01 -1.28568E+00 -1.87135E+00
  -2.39057E+00 -2.94688E+00 -3.59038E+00 -4.22291E+00 -4.76895E+00 -5.09988E+00 -5.17961E+00 -5.08928E+00 -4.99162E+00 -5.02396E+00
  -5.18366E+00 -5.35342E+00 -5.46602E+00 -5.55373E+00 -5.69035E+00 -5.74950E+00 -5.47353E+00 -4.73432E+00 -3.61089E+00 -2.43609E+00
  -1.50513E+00 -9.59342E-01 -7.55340E-01 -8.39437E-01 -1.18743E+00 -1.75478E+00 -2.34782E+00 -2.80783E+00 -3.00377E+00 -2.76452E+00
  -2.03463E+00 -9.75678E-01  8.57322E-02  8.47342E-01  1.09022E+00  6.34698E-01 -5.58371E-01 -2.19582E+00 -3.89687E+00 -5.28098E+00
  -6.01534E+00 -5.71029E+00 -4.24005E+00 -1.93600E+00  6.30439E-01  2.77399E+00  3.91780E+00  3.69488E+00  2.11476E+00 -1.73717E-01
  -2.40351E+00 -4.03096E+00 -4.59639E+00 -3.89762E+00 -2.02880E+00  3.61061E-01  2.53876E+00  4.12419E+00  5.07726E+00  5.50152E+00
   5.47650E+00  5.16672E+00  4.91347E+00  4.98299E+00  5.38904E+00  6.03389E+00  6.76471E+00  7.42827E+00  7.83473E+00  7.85052E+00
   7.55402E+00  7.25654E+00  7.24921E+00  7.66849E+00  8.49093E+00  9.59094E+00  1.07208E+01  1.16434E+01  1.22962E+01  1.27862E+01
   1.32637E+01  1.39558E+01  1.51077E+01  1.66809E+01  1.86226E+01  2.26663E+01  3.10299E+01  4.38435E+01  5.87518E+01  7.16414E+01
   7.82375E+01  7.57683E+01  6.50353E+01  5.05532E+01  3.70530E+01  2.62279E+01  1.73032E+01  9.82304E+00  5.36952E+00  3.40691E+00
   2.11406E+00  1.11615E+00  3.42870E-01 -2.90238E-01 -8.70302E-01 -1.43545E+00 -2.01653E+00 -2.60629E+00 -3.17543E+00 -3.69944E+00
  -4.16995E+00 -4.57153E+00 -4.88985E+00 -5.13152E+00 -5.31662E+00 -5.46031E+00 -5.56255E+00 -5.61427E+00 -5.61016E+00 -5.54745E+00
  -5.42081E+00 -5.23037E+00 -4.98412E+00 -4.69720E+00 -4.38588E+00 -4.06526E+00 -3.74901E+00 -3.44902E+00 -3.17687E+00 -2.94388E+00
  -2.75927E+00 -2.63380E+00 -2.57884E+00 -2.60238E+00 -2.70777E+00 -2.89312E+00 -3.15292E+00 -3.47862E+00 -3.85761E+00 -4.27521E+00
  -4.71680E+00 -5.16740E+00 -5.61316E+00 -6.04131E+00 -6.44062E+00 -6.80141E+00 -7.11597E+00 -7.37776E+00 -7.58067E+00 -7.71660E+00
  -7.77114E+00 -7.70085E+00 -7.44738E+00 -7.08505E+00 -6.79590E+00 -6.78587E+00 -7.18148E+00 -7.96651E+00 -8.98088E+00 -9.95281E+00
  -1.05465E+01 -1.05515E+01 -9.92840E+00 -8.74582E+00 -7.12597E+00 -5.30379E+00 -3.66652E+00 -2.36369E+00 -1.28860E+00 -2.48738E-01
   8.80822E-01  2.12651E+00  3.55806E+00  5.27361E+00  7.08278E+00  8.65734E+00  9.72335E+00  1.01563E+01  1.00111E+01  9.51874E+00
   9.08408E+00  9.03343E+00  9.44546E+00  1.02100E+01  1.11461E+01  1.20452E+01  1.25379E+01  1.23857E+01  1.17166E+01  1.07842E+01
   9.77181E+00  8.72937E+00  7.67583E+00  6.75169E+00  5.98983E+00  5.33531E+00  4.76053E+00  4.24828E+00  3.78410E+00  3.35574E+00
   2.95310E+00  2.56909E+00  2.19959E+00  1.84391E+00  1.50422E+00  1.18560E+00  8.94895E-01  6.40299E-01  4.30056E-01  2.72094E-01
   1.73072E-01  1.38260E-01  1.70791E-01  2.71731E-01  4.39675E-01  6.71206E-01  9.60788E-01  1.30133E+00  1.68406E+00  2.09911E+00
   2.53551E+00  2.98189E+00  3.42653E+00  3.85797E+00  4.26492E+00  4.63692E+00  4.96429E+00  5.23885E+00  5.45382E+00  5.60428E+00
   5.68695E+00  5.70057E+00  5.64568E+00  5.52485E+00  5.34220E+00  5.10346E+00  4.81534E+00  4.48559E+00  4.12239E+00  3.73440E+00
   3.33004E+00  2.91749E+00  2.50415E+00  2.09684E+00  1.70134E+00  1.32268E+00  9.64720E-01  6.30425E-01  3.21678E-01  3.97180E-02
  -2.15047E-01 -4.42654E-01 -6.43825E-01 -8.19565E-01 -9.71306E-01 -1.10047E+00 -1.20871E+00 -1.29756E+00 -1.36877E+00 -1.42390E+00
  -1.46456E+00 -1.49208E+00 -1.50781E+00 -1.51286E+00 -1.50846E+00 -1.49555E+00 -1.47511E+00 -1.44783E+00 -1.41444E+00 -1.37554E+00
  -1.33179E+00 -1.28366E+00 -1.23164E+00 -1.17601E+00 -1.11720E+00 -1.05548E+00 -9.91238E-01 -9.24678E-01 -8.56058E-01 -7.85478E-01
  -7.13201E-01 -6.39365E-01 -5.64222E-01 -4.87817E-01 -4.10289E-01 -3.31645E-01 -2.52068E-01 -1.71613E-01 -9.04348E-02 -8.49784E-03
   7.41080E-02  1.57399E-01  2.41223E-01  3.25570E-01  4.10344E-01  4.95616E-01  5.81309E-01  6.67439E-01  7.53871E-01  8.40634E-01
   9.27665E-01  1.01505E+00  1.10272E+00  1.19067E+00  1.27881E+00  1.36719E+00  1.45576E+00  1.54461E+00  1.63365E+00  1.72290E+00
   1.81227E+00  1.90183E+00  1.99156E+00  2.08153E+00  2.17164E+00  2.26192E+00  2.35231E+00  2.44291E+00  2.53368E+00  2.62468E+00
   2.71581E+00  2.80712E+00  2.89857E+00  2.99027E+00  3.08218E+00  3.17436E+00  3.26671E+00  3.35931E+00
 NY background values follow
    -1.888E+00   -1.874E+00   -1.860E+00   -1.846E+00   -1.831E+00   -1.817E+00   -1.802E+00   -1.787E+00   -1.773E+00   -1.758E+00
    -1.743E+00   -1.728E+00   -1.713E+00   -1.699E+00   -1.684E+00   -1.669E+00   -1.654E+00   -1.639E+00   -1.624E+00   -1.609E+00
    -1.594E+00   -1.579E+00   -1.564E+00   -1.549E+00   -1.534E+00   -1.520E+00   -1.505E+00   -1.490E+00   -1.475E+00   -1.461E+00
    -1.446E+00   -1.432E+00   -1.417E+00   -1.403E+00   -1.388E+00   -1.374E+00   -1.360E+00   -1.346E+00   -1.332E+00   -1.318E+00
    -1.304E+00   -1.291E+00   -1.277E+00   -1.264E+00   -1.250E+00   -1.237E+00   -1.224E+00   -1.211E+00   -1.199E+00   -1.186E+00
    -1.174E+00   -1.162E+00   -1.150E+00   -1.138E+00   -1.126E+00   -1.114E+00   -1.103E+00   -1.092E+00   -1.081E+00   -1.070E+00
    -1.060E+00   -1.050E+00   -1.040E+00   -1.030E+00   -1.021E+00   -1.011E+00   -1.002E+00   -9.935E-01   -9.851E-01   -9.769E-01
    -9.690E-01   -9.614E-01   -9.540E-01   -9.470E-01   -9.403E-01   -9.339E-01   -9.278E-01   -9.221E-01   -9.166E-01   -9.115E-01
    -9.068E-01   -9.024E-01   -8.983E-01   -8.947E-01   -8.913E-01   -8.884E-01   -8.858E-01   -8.837E-01   -8.819E-01   -8.805E-01
    -8.795E-01   -8.789E-01   -8.788E-01   -8.790E-01   -8.797E-01   -8.809E-01   -8.825E-01   -8.845E-01   -8.870E-01   -8.900E-01
    -8.934E-01   -8.974E-01   -9.018E-01   -9.067E-01   -9.121E-01   -9.181E-01   -9.246E-01   -9.316E-01   -9.391E-01   -9.472E-01
    -9.558E-01   -9.650E-01   -9.748E-01   -9.851E-01   -9.961E-01   -1.008E+00   -1.020E+00   -1.032E+00   -1.046E+00   -1.060E+00
    -1.074E+00   -1.089E+00   -1.105E+00   -1.122E+00   -1.139E+00   -1.157E+00   -1.175E+00   -1.195E+00   -1.214E+00   -1.235E+00
    -1.256E+00   -1.278E+00   -1.301E+00   -1.324E+00   -1.349E+00   -1.374E+00   -1.399E+00   -1.426E+00   -1.453E+00   -1.481E+00
    -1.509E+00   -1.539E+00   -1.569E+00   -1.599E+00   -1.631E+00   -1.663E+00   -1.696E+00   -1.729E+00   -1.764E+00   -1.798E+00
    -1.834E+00   -1.870E+00   -1.907E+00   -1.944E+00   -1.982E+00   -2.021E+00   -2.060E+00   -2.100E+00   -2.140E+00   -2.181E+00
    -2.223E+00   -2.265E+00   -2.308E+00   -2.351E+00   -2.395E+00   -2.439E+00   -2.484E+00   -2.529E+00   -2.575E+00   -2.622E+00
    -2.669E+00   -2.716E+00   -2.764E+00   -2.812E+00   -2.861E+00   -2.911E+00   -2.960E+00   -3.011E+00   -3.061E+00   -3.112E+00
    -3.164E+00   -3.216E+00   -3.268E+00   -3.321E+00   -3.374E+00   -3.427E+00   -3.481E+00   -3.536E+00   -3.590E+00   -3.646E+00
    -3.701E+00   -3.757E+00   -3.813E+00   -3.870E+00   -3.927E+00   -3.984E+00   -4.042E+00   -4.100E+00   -4.158E+00   -4.217E+00
    -4.276E+00   -4.336E+00   -4.396E+00   -4.456E+00   -4.516E+00   -4.577E+00   -4.638E+00   -4.700E+00   -4.762E+00   -4.824E+00
    -4.886E+00   -4.949E+00   -5.012E+00   -5.075E+00   -5.139E+00   -5.203E+00   -5.267E+00   -5.332E+00   -5.397E+00   -5.462E+00
    -5.527E+00   -5.593E+00   -5.659E+00   -5.725E+00   -5.792E+00   -5.859E+00   -5.926E+00   -5.993E+00   -6.061E+00   -6.128E+00
    -6.196E+00   -6.264E+00   -6.333E+00   -6.401E+00   -6.470E+00   -6.538E+00   -6.607E+00   -6.675E+00   -6.744E+00   -6.812E+00
    -6.881E+00   -6.949E+00   -7.017E+00   -7.086E+00   -7.154E+00   -7.221E+00   -7.289E+00   -7.357E+00   -7.424E+00   -7.491E+00
    -7.557E+00   -7.623E+00   -7.689E+00   -7.755E+00   -7.820E+00   -7.885E+00   -7.949E+00   -8.013E+00   -8.076E+00   -8.139E+00
    -8.201E+00   -8.263E+00   -8.324E+00   -8.384E+00   -8.444E+00   -8.503E+00   -8.562E+00   -8.620E+00   -8.677E+00   -8.733E+00
    -8.789E+00   -8.843E+00   -8.897E+00   -8.950E+00   -9.002E+00   -9.054E+00   -9.104E+00   -9.153E+00   -9.202E+00   -9.249E+00
    -9.296E+00   -9.342E+00   -9.386E+00   -9.430E+00   -9.472E+00   -9.513E+00   -9.554E+00   -9.593E+00   -9.631E+00   -9.668E+00
    -9.704E+00   -9.738E+00   -9.772E+00   -9.804E+00   -9.835E+00   -9.864E+00   -9.893E+00   -9.920E+00   -9.946E+00   -9.970E+00
    -9.994E+00   -1.002E+01   -1.004E+01   -1.005E+01   -1.007E+01   -1.009E+01   -1.010E+01   -1.012E+01   -1.013E+01   -1.014E+01
    -1.015E+01   -1.015E+01   -1.016E+01   -1.016E+01   -1.017E+01   -1.017E+01   -1.017E+01   -1.016E+01   -1.016E+01   -1.015E+01
    -1.015E+01   -1.014E+01   -1.013E+01   -1.012E+01   -1.010E+01   -1.009E+01   -1.007E+01   -1.005E+01   -1.003E+01   -1.001E+01
    -9.989E+00   -9.964E+00   -9.939E+00   -9.912E+00   -9.883E+00   -9.853E+00   -9.822E+00   -9.789E+00   -9.755E+00   -9.720E+00
    -9.683E+00   -9.645E+00   -9.606E+00   -9.565E+00   -9.523E+00   -9.480E+00   -9.435E+00   -9.389E+00   -9.342E+00   -9.294E+00
    -9.245E+00   -9.194E+00   -9.142E+00   -9.089E+00   -9.035E+00   -8.980E+00   -8.924E+00   -8.866E+00   -8.808E+00   -8.748E+00
    -8.687E+00   -8.625E+00   -8.563E+00   -8.499E+00   -8.434E+00   -8.368E+00   -8.301E+00   -8.234E+00   -8.165E+00   -8.095E+00
    -8.025E+00   -7.953E+00   -7.881E+00   -7.808E+00   -7.734E+00   -7.659E+00   -7.583E+00   -7.506E+00   -7.429E+00   -7.351E+00
    -7.272E+00   -7.192E+00   -7.111E+00   -7.030E+00   -6.948E+00   -6.866E+00   -6.782E+00   -6.699E+00   -6.614E+00   -6.529E+00
    -6.443E+00   -6.356E+00   -6.269E+00   -6.182E+00   -6.093E+00   -6.005E+00   -5.915E+00   -5.826E+00   -5.735E+00   -5.644E+00
    -5.553E+00   -5.461E+00   -5.369E+00   -5.277E+00   -5.184E+00   -5.090E+00   -4.996E+00   -4.902E+00   -4.808E+00   -4.713E+00
    -4.617E+00   -4.522E+00   -4.426E+00   -4.330E+00   -4.233E+00   -4.137E+00   -4.040E+00   -3.943E+00   -3.845E+00   -3.748E+00
    -3.650E+00   -3.552E+00   -3.453E+00   -3.355E+00   -3.256E+00   -3.158E+00   -3.059E+00   -2.960E+00   -2.861E+00   -2.762E+00
    -2.663E+00   -2.563E+00   -2.464E+00   -2.365E+00   -2.265E+00   -2.166E+00   -2.066E+00   -1.967E+00   -1.868E+00   -1.768E+00
    -1.669E+00   -1.570E+00   -1.470E+00   -1.371E+00   -1.272E+00   -1.173E+00   -1.075E+00   -9.761E-01   -8.776E-01   -7.793E-01
    -6.811E-01   -5.832E-01   -4.854E-01   -3.878E-01   -2.905E-01   -1.933E-01   -9.634E-02    4.419E-04    9.704E-02    1.935E-01
     2.897E-01    3.858E-01    4.817E-01    5.774E-01    6.730E-01    7.684E-01    8.637E-01    9.589E-01    1.054E+00    1.149E+00
     1.243E+00    1.338E+00    1.433E+00    1.527E+00    1.621E+00    1.715E+00    1.809E+00    1.903E+00    1.997E+00    2.091E+00
     2.185E+00    2.278E+00    2.372E+00    2.465E+00    2.559E+00    2.652E+00    2.745E+00    2.839E+00    2.932E+00    3.025E+00
     3.118E+00    3.211E+00    3.304E+00    3.397E+00    3.490E+00    3.583E+00    3.676E+00    3.769E+00
 Ala      Conc. = 1.78E+02
