 LCModel (Version 6.3-1L) Copyright: S.W. Provencher.          Ref.: Magn. Reson. Med. 30:672-679 (1993).                
 Slice#3 Row#12 Col#12  PD_24_press_2_raw_act
 36 lines in following concentration table = NCONC+1
    Conc.  %SD /Cr+PCr  Metabolite                                         
    1.921 145%   0.377 Ala                                                 
    0.845 192%   0.166 Asp                                                 
    4.307  74%   0.845 Cr                                                  
    0.792 418%   0.155 PCr                                                 
    0.698 138%   0.137 GABA                                                
    0.630 155%   0.124 Glc                                                 
    4.905 113%   0.962 Gln                                                 
    5.262 115%   1.032 Glu                                                 
    2.054  35%   0.403 GPC                                                 
    0.000 999%   0.000 PCh                                                 
    2.717  87%   0.533 GSH                                                 
    0.000 999%   0.000 Ins                                                 
    0.250 999% 4.9E-02 Lac                                                 
   13.882  17%   2.722 NAA                                                 
    0.914 257%   0.179 NAAG                                                
    0.218 143% 4.3E-02 Scyllo                                              
    1.004 161%   0.197 Tau                                                 
    0.643 208%   0.126 -CrCH2                                              
    2.054  35%   0.403 GPC+PCh                                             
   14.796  23%   2.902 NAA+NAAG                                            
    5.099  38%   1.000 Cr+PCr                                              
   10.167  71%   1.994 Glu+Gln                                             
    0.000 999%   0.000 Lip13a                                              
   14.465 327%   2.837 Lip13b                                              
    3.582 678%   0.703 Lip09                                               
  153.505  26%  30.103 MM09                                                
    2.260 606%   0.443 Lip20                                               
  242.434  24%  47.543 MM20                                                
   42.795  60%   8.392 MM12                                                
  542.931  10% 106.473+MM14                                                
  252.161  17%  49.451 MM17                                                
   14.465 626%   2.837 Lip13a+Lip13b                                       
  600.190  13% 117.702 MM14+Lip13a+Lip13b+MM12                             
  157.087  20%  30.806 MM09+Lip09                                          
  244.693  22%  47.986 MM20+Lip20                                          
   6 lines in following misc. output table
  FWHM = 0.038 ppm    S/N =   2                                            
  Data shift =-0.038 ppm                                                   
  Ph: 106 deg     -17.8 deg/ppm                                            
  alphaB,S = 2.0E+01,   3.4E+00                                            
   14 spline knots.   Ns = 6(1)                                            
   2 inflections.     2 extrema                                            
  498 points on ppm-axis = NY
      4.000000     3.992357     3.984714     3.977070     3.969427     3.961784     3.954141     3.946497     3.938854     3.931211
      3.923568     3.915925     3.908281     3.900638     3.892995     3.885352     3.877708     3.870065     3.862422     3.854779
      3.847136     3.839492     3.831849     3.824206     3.816563     3.808919     3.801276     3.793633     3.785990     3.778347
      3.770703     3.763060     3.755417     3.747774     3.740130     3.732487     3.724844     3.717201     3.709558     3.701914
      3.694271     3.686628     3.678985     3.671341     3.663698     3.656055     3.648412     3.640769     3.633125     3.625482
      3.617839     3.610196     3.602552     3.594909     3.587266     3.579623     3.571980     3.564336     3.556693     3.549050
      3.541407     3.533763     3.526120     3.518477     3.510834     3.503191     3.495547     3.487904     3.480261     3.472618
      3.464974     3.457331     3.449688     3.442045     3.434402     3.426758     3.419115     3.411472     3.403829     3.396185
      3.388542     3.380899     3.373256     3.365613     3.357969     3.350326     3.342683     3.335040     3.327396     3.319753
      3.312110     3.304467     3.296824     3.289180     3.281537     3.273894     3.266251     3.258607     3.250964     3.243321
      3.235678     3.228034     3.220391     3.212748     3.205105     3.197462     3.189818     3.182175     3.174532     3.166889
      3.159245     3.151602     3.143959     3.136316     3.128673     3.121029     3.113386     3.105743     3.098100     3.090456
      3.082813     3.075170     3.067527     3.059884     3.052240     3.044597     3.036954     3.029311     3.021667     3.014024
      3.006381     2.998738     2.991095     2.983451     2.975808     2.968165     2.960522     2.952878     2.945235     2.937592
      2.929949     2.922306     2.914662     2.907019     2.899376     2.891733     2.884089     2.876446     2.868803     2.861160
      2.853517     2.845873     2.838230     2.830587     2.822944     2.815300     2.807657     2.800014     2.792371     2.784728
      2.777084     2.769441     2.761798     2.754155     2.746511     2.738868     2.731225     2.723582     2.715939     2.708295
      2.700652     2.693009     2.685366     2.677722     2.670079     2.662436     2.654793     2.647150     2.639506     2.631863
      2.624220     2.616577     2.608933     2.601290     2.593647     2.586004     2.578361     2.570717     2.563074     2.555431
      2.547788     2.540144     2.532501     2.524858     2.517215     2.509572     2.501928     2.494285     2.486642     2.478999
      2.471355     2.463712     2.456069     2.448426     2.440783     2.433139     2.425496     2.417853     2.410210     2.402566
      2.394923     2.387280     2.379637     2.371994     2.364350     2.356707     2.349064     2.341421     2.333777     2.326134
      2.318491     2.310848     2.303205     2.295561     2.287918     2.280275     2.272632     2.264988     2.257345     2.249702
      2.242059     2.234416     2.226772     2.219129     2.211486     2.203843     2.196199     2.188556     2.180913     2.173270
      2.165627     2.157983     2.150340     2.142697     2.135054     2.127410     2.119767     2.112124     2.104481     2.096838
      2.089194     2.081551     2.073908     2.066265     2.058621     2.050978     2.043335     2.035692     2.028049     2.020405
      2.012762     2.005119     1.997476     1.989833     1.982190     1.974546     1.966903     1.959260     1.951617     1.943974
      1.936331     1.928688     1.921045     1.913402     1.905759     1.898115     1.890472     1.882829     1.875186     1.867543
      1.859900     1.852257     1.844614     1.836971     1.829327     1.821684     1.814041     1.806398     1.798755     1.791112
      1.783469     1.775826     1.768183     1.760540     1.752896     1.745253     1.737610     1.729967     1.722324     1.714681
      1.707038     1.699395     1.691752     1.684108     1.676465     1.668822     1.661179     1.653536     1.645893     1.638250
      1.630607     1.622964     1.615321     1.607677     1.600034     1.592391     1.584748     1.577105     1.569462     1.561819
      1.554176     1.546533     1.538890     1.531246     1.523603     1.515960     1.508317     1.500674     1.493031     1.485388
      1.477745     1.470102     1.462458     1.454815     1.447172     1.439529     1.431886     1.424243     1.416600     1.408957
      1.401314     1.393671     1.386027     1.378384     1.370741     1.363098     1.355455     1.347812     1.340169     1.332526
      1.324883     1.317240     1.309596     1.301953     1.294310     1.286667     1.279024     1.271381     1.263738     1.256095
      1.248452     1.240808     1.233165     1.225522     1.217879     1.210236     1.202593     1.194950     1.187307     1.179664
      1.172021     1.164377     1.156734     1.149091     1.141448     1.133805     1.126162     1.118519     1.110876     1.103233
      1.095590     1.087946     1.080303     1.072660     1.065017     1.057374     1.049731     1.042088     1.034445     1.026802
      1.019158     1.011515     1.003872     0.996229     0.988586     0.980943     0.973300     0.965657     0.958014     0.950371
      0.942727     0.935084     0.927441     0.919798     0.912155     0.904512     0.896869     0.889226     0.881583     0.873940
      0.866296     0.858653     0.851010     0.843367     0.835724     0.828081     0.820438     0.812795     0.805152     0.797508
      0.789865     0.782222     0.774579     0.766936     0.759293     0.751650     0.744007     0.736364     0.728721     0.721077
      0.713434     0.705791     0.698148     0.690505     0.682862     0.675219     0.667576     0.659933     0.652290     0.644646
      0.637003     0.629360     0.621717     0.614074     0.606431     0.598788     0.591145     0.583502     0.575858     0.568215
      0.560572     0.552929     0.545286     0.537643     0.530000     0.522357     0.514714     0.507071     0.499427     0.491784
      0.484141     0.476498     0.468855     0.461212     0.453569     0.445925     0.438282     0.430639     0.422996     0.415353
      0.407710     0.400067     0.392424     0.384780     0.377137     0.369494     0.361851     0.354208     0.346565     0.338922
      0.331278     0.323635     0.315992     0.308349     0.300706     0.293063     0.285420     0.277777     0.270133     0.262490
      0.254847     0.247204     0.239561     0.231918     0.224275     0.216631     0.208988     0.201345
 NY phased data points follow
   3.20565E-01  7.87328E-01 -4.12109E-01 -9.01699E-01 -1.19574E+00  3.37896E-01 -1.05306E+00  1.05725E+00 -7.04813E-01 -1.44965E+00
  -3.84162E-01  1.83162E-01  4.56197E-01  3.90228E-01  1.88037E-01 -2.86477E-01 -4.43907E-01  5.76485E-01  5.89463E-01 -1.21877E+00
   4.01380E-01 -3.42294E-01  1.05360E+00  4.32529E-01  9.88251E-01  1.58464E+00  6.63685E-01  2.40753E-01 -1.66446E+00 -7.98196E-01
   3.81882E-02  7.69395E-01  4.33540E-01  4.32632E-01  4.00151E-01  5.20363E-01  1.13695E+00 -8.48997E-02  2.64122E-01  7.94512E-01
   2.02406E-01  3.97489E-01  1.83231E+00  1.00520E+00 -2.92976E-01  1.17932E+00  1.07650E+00  9.40349E-01  1.39757E+00  1.34550E+00
  -5.21288E-01  4.45010E-01  1.30398E+00  3.83670E-02 -5.27301E-01  1.18838E+00  1.11645E+00  1.36809E+00 -4.08519E-01 -6.09072E-01
  -2.11621E-01 -6.32493E-01  1.12670E+00  3.38094E-01 -6.61903E-01 -1.76278E-01  3.09492E-01  2.54940E+00 -9.79471E-01  1.82846E-01
   1.02804E-01  7.50453E-01  7.72477E-02  2.43189E-01  1.38075E-01  1.00135E+00  4.06306E-01 -5.47437E-01 -9.65334E-01 -8.63149E-01
  -2.16805E-01 -3.27061E-02  1.11910E+00 -9.05271E-01 -2.49490E-01  1.28622E+00  8.56305E-01  1.02075E+00  6.30112E-01  2.05965E-01
   2.51836E-01  7.94479E-01 -1.02632E+00  3.02299E-01 -3.19147E-01 -2.97724E-01  2.42002E-01  2.24917E-02 -2.43730E-01  5.11530E-01
   4.09452E-01 -2.18180E-01  8.26674E-01  9.36663E-01 -9.38277E-01  2.44236E+00  1.49846E+00  2.30336E+00  2.54025E+00  1.23253E+00
   1.29361E-02  8.41198E-01 -1.39872E-01  1.17413E+00  2.19571E+00  1.90569E+00  1.19645E+00  1.89794E+00  7.77092E-01  6.62462E-01
   1.16525E+00  9.53585E-01  7.86516E-01 -6.31940E-01  5.29942E-01  4.70737E-01 -3.87855E-01  1.44183E-01 -7.33878E-02  9.54662E-01
   3.92187E-01  1.93983E+00  2.17263E+00  3.09998E+00  1.94541E+00  1.93899E+00 -4.90911E-01  8.08666E-01  8.44984E-01  7.07493E-01
   2.12363E+00  8.34359E-01  9.40180E-01  1.95508E+00  8.94129E-02  2.10462E+00  1.36948E+00  4.73796E-01 -6.00428E-01  1.34850E+00
   6.63689E-01 -2.08522E-01  1.03963E+00  6.56000E-01  1.04076E+00  1.60184E+00  9.11635E-01  1.76802E+00  1.67875E+00  9.80625E-01
   1.38306E-01  8.25054E-01  4.86426E-01  2.47159E+00  6.38684E-01  1.95184E+00  2.34042E-01  1.21069E+00  1.51275E+00  2.04053E+00
   7.49655E-01  1.33572E+00  1.21550E+00  9.54188E-01  1.47500E+00  1.77139E+00  1.78826E+00  1.15041E+00  1.29009E+00  3.37232E-01
  -3.48510E-01  9.43088E-01  1.97504E-01  8.07775E-01 -8.85383E-01  2.24851E+00  9.81032E-01 -6.12241E-01  1.32725E+00  1.07495E+00
   1.14687E+00  2.85649E-01  2.82235E-01  7.55651E-01  5.56743E-01  1.62181E+00  2.09530E+00  1.88501E+00  4.39514E-01  1.39377E+00
   3.31983E-01  1.03060E+00  7.26163E-01  5.74895E-01  1.44096E+00  5.95381E-01  2.14741E+00  5.37951E-01  1.77868E+00  2.93227E-01
   1.73531E+00  1.26945E+00  1.57958E+00  1.42536E+00  1.33194E+00  2.10724E-01  1.55037E+00  7.57847E-01  9.04675E-01  2.51612E+00
   1.92966E+00  2.47918E+00  2.16359E+00  3.83485E-01  9.70564E-01  4.51514E-01  1.94821E+00  2.81297E+00  1.75801E+00  2.69811E-01
   2.54668E-01  2.41275E+00  3.03399E+00  2.74799E+00  1.30318E-01  2.20855E+00  6.22179E-01  5.13690E-01  4.08963E-01  4.32364E-01
   1.55976E+00  1.55311E+00  2.65635E+00  1.39023E+00  7.42311E-01  1.32892E+00  5.78510E-01  1.19659E+00  1.07881E+00 -1.91129E-01
   1.91791E+00  1.26993E+00  1.16974E+00  2.37680E-01 -3.68376E-01 -2.65483E-01 -1.72162E+00  5.85671E-01 -2.41952E-01 -4.82899E-01
  -4.52048E-01  1.56044E+00  8.51173E-01  4.70382E+00  2.01334E+00  2.11040E+00  4.21167E+00  3.16764E+00  3.55337E+00  1.47721E+00
   1.08644E+00  1.82939E+00  2.56908E+00  2.03195E+00  2.46530E+00  2.86414E+00  2.22258E+00  1.56440E+00  7.04195E-01  1.09256E+00
   1.28263E+00  1.98029E+00  8.54731E-01  1.32440E+00  3.62059E-01  1.49112E+00  8.81058E-01  5.17437E-01  9.86858E-01  7.94171E-01
   8.62674E-01  1.90562E+00  1.86701E+00  7.62697E-02  1.71018E+00  2.17788E+00  1.37852E-01  1.33851E+00  2.09656E+00  1.77452E+00
   2.63425E+00  9.61665E-01  1.67176E+00  3.41495E+00  1.61728E+00  1.11075E+00  1.99023E+00  3.14145E+00  3.11502E+00  4.30438E+00
   3.03720E+00  4.40984E+00  2.92789E+00  2.93900E+00  2.89384E+00  3.32393E+00  4.86350E+00  3.99210E+00  3.76359E+00  4.05896E+00
   3.94419E+00  4.29592E+00  4.38949E+00  3.73196E+00  3.75907E+00  5.77253E+00  5.00736E+00  4.73336E+00  5.21588E+00  5.26156E+00
   5.14878E+00  4.95318E+00  4.00246E+00  5.46187E+00  4.57955E+00  4.60030E+00  3.49193E+00  3.78330E+00  4.45774E+00  2.84670E+00
   3.26155E+00  4.51765E+00  2.09239E+00  2.91260E+00  2.37102E+00  1.94324E+00  2.79554E+00  1.81672E+00  1.79545E+00  1.81973E+00
   1.77234E+00  1.72826E+00  1.31725E+00  1.96308E+00  1.43358E+00  1.46372E+00  1.16164E+00  8.32165E-02  2.71475E+00  1.37296E+00
   8.80054E-01  1.63471E+00 -3.21618E-02  1.08879E+00  1.91910E+00 -1.53014E-01  1.02264E+00  1.90507E-01  3.06971E-01  7.22710E-01
   1.45145E+00  4.28084E-01  1.33144E+00  1.99560E+00  2.17949E+00 -1.68818E-01  3.16720E-01  2.06316E+00  2.76157E-02 -4.28188E-01
   7.54037E-01  2.91649E+00  1.32876E+00 -5.86073E-01  6.92757E-01  2.33494E+00  9.75113E-01  1.53515E-01  3.53887E-01  1.15456E+00
   2.66580E-01  1.66679E+00  1.94948E+00  1.54842E+00  2.26747E+00  1.95731E+00 -2.83015E-01  1.24222E+00  1.47027E+00  1.37433E+00
   1.42002E+00  2.72541E+00  5.17955E-01  1.70415E+00  7.78932E-01  1.60156E+00  1.34263E+00  2.26031E+00 -2.72597E-01  1.48140E+00
   1.06423E+00  1.55449E+00  2.65717E+00  2.11078E-02  1.49186E+00  1.85879E+00  1.62243E+00  9.61411E-01  1.35002E+00  2.97969E-01
   2.00285E-01  2.45366E+00  1.68985E+00  1.59334E+00  1.34059E+00 -4.88989E-01  1.57723E+00  1.38442E+00  2.85755E+00  3.97048E-01
   1.77726E+00  4.47243E-01  1.02941E+00  1.77294E+00  1.39434E+00  8.68125E-01  5.81205E-01  1.03990E+00  8.68031E-01  1.42823E+00
   5.33866E-01  1.50754E+00  1.25096E+00  6.24219E-01  1.95320E+00 -3.80488E-03  4.41986E-01  6.54480E-01  2.37107E+00  1.09224E+00
   1.33199E+00  3.87365E-01  1.81021E-01  1.19156E+00 -3.69525E-01  1.41927E+00 -4.48999E-01  5.95818E-01  4.74628E-01  1.41598E+00
   4.62081E-01  7.29109E-02 -6.61642E-02  2.74812E-01  4.28063E-01  1.16509E-01  6.80918E-01  5.48999E-01 -3.98235E-01  5.69223E-01
   6.88239E-01  7.42304E-01  1.86354E-01 -1.11120E-01  1.58668E-02  4.95432E-01  4.39192E-01 -3.16580E-01 -4.84091E-01  6.90918E-01
   4.48949E-01 -8.32040E-01  2.24413E-01  9.84383E-01 -1.56186E-01 -5.00709E-01  5.10377E-01 -1.46572E+00  5.19375E-01  5.61878E-01
   2.46845E-01  3.92216E-01  1.11081E+00 -2.95006E-01  5.74996E-01  1.23650E+00  7.42465E-01  7.57919E-01
 NY points of the fit to the data follow
   4.89162E-01  4.77727E-01  4.66731E-01  4.56678E-01  4.44616E-01  3.98102E-01  2.84904E-01  1.90249E-01  1.62861E-01  1.77821E-01
   2.26990E-01  3.34686E-01  5.06795E-01  7.14412E-01  9.09266E-01  1.04427E+00  1.10863E+00  1.06391E+00  8.66906E-01  6.36039E-01
   5.53391E-01  5.50117E-01  5.68786E-01  5.82842E-01  5.51989E-01  4.90966E-01  4.29880E-01  3.63643E-01  2.92518E-01  2.53038E-01
   2.85873E-01  3.94571E-01  5.58218E-01  7.47662E-01  9.23867E-01  1.04122E+00  1.01652E+00  8.48645E-01  6.82542E-01  5.64059E-01
   4.71890E-01  4.31110E-01  4.49816E-01  5.05192E-01  5.57618E-01  5.88627E-01  5.89822E-01  5.83334E-01  5.81300E-01  5.66359E-01
   5.52278E-01  5.57968E-01  5.66935E-01  5.70414E-01  5.83979E-01  6.00246E-01  6.01047E-01  5.88996E-01  5.79160E-01  5.72004E-01
   5.65588E-01  5.57643E-01  5.50884E-01  5.47381E-01  5.47991E-01  5.52294E-01  5.56598E-01  5.59652E-01  5.62476E-01  5.61233E-01
   5.53022E-01  5.44457E-01  5.38407E-01  5.34800E-01  5.37854E-01  5.48574E-01  5.61608E-01  5.77838E-01  5.90768E-01  5.92881E-01
   5.78261E-01  5.50579E-01  5.20476E-01  5.02010E-01  5.02818E-01  5.18210E-01  5.45506E-01  5.81803E-01  6.18847E-01  6.46243E-01
   6.63135E-01  6.68255E-01  6.49074E-01  6.05699E-01  5.69241E-01  5.36166E-01  4.31846E-01  1.74486E-01 -7.05664E-02 -1.78291E-01
  -1.77529E-01 -8.61560E-02  1.34771E-01  4.94289E-01  9.36024E-01  1.35777E+00  1.66040E+00  1.82714E+00  1.77785E+00  1.40783E+00
   9.31926E-01  7.39087E-01  7.01049E-01  6.91942E-01  6.91694E-01  6.94310E-01  6.99686E-01  7.06310E-01  7.11486E-01  7.08843E-01
   6.80482E-01  5.58406E-01  3.35988E-01  1.64946E-01  9.89375E-02  1.05319E-01  1.97558E-01  4.09438E-01  7.23470E-01  1.09649E+00
   1.44746E+00  1.69638E+00  1.81413E+00  1.71671E+00  1.37288E+00  1.04380E+00  9.22270E-01  8.56136E-01  7.89475E-01  7.18548E-01
   6.47625E-01  6.07341E-01  6.23347E-01  6.69944E-01  7.22589E-01  7.66088E-01  7.83872E-01  7.76781E-01  7.57666E-01  7.33670E-01
   7.19206E-01  7.06834E-01  6.92726E-01  6.77809E-01  6.67417E-01  6.67862E-01  6.75717E-01  6.82203E-01  6.83386E-01  6.74567E-01
   6.60689E-01  6.49264E-01  6.34353E-01  6.12984E-01  5.97303E-01  5.95222E-01  6.06502E-01  6.36021E-01  6.76643E-01  7.02594E-01
   7.07529E-01  6.96465E-01  6.65380E-01  6.41876E-01  6.33409E-01  6.29424E-01  6.24704E-01  6.09506E-01  5.85903E-01  5.69268E-01
   5.69295E-01  5.83809E-01  6.07171E-01  6.21694E-01  6.04540E-01  5.50523E-01  4.94001E-01  4.58711E-01  4.57041E-01  4.70318E-01
   4.91462E-01  5.36810E-01  6.18887E-01  7.21802E-01  8.05393E-01  8.28614E-01  7.88274E-01  7.14090E-01  6.17659E-01  5.24053E-01
   4.66283E-01  4.61810E-01  5.02941E-01  5.90582E-01  7.36935E-01  9.05205E-01  1.02142E+00  1.07855E+00  1.07996E+00  1.00735E+00
   8.57048E-01  6.72453E-01  5.19929E-01  4.37634E-01  4.29919E-01  4.98189E-01  6.62859E-01  8.78152E-01  1.02332E+00  1.08774E+00
   1.11533E+00  1.07927E+00  9.65475E-01  8.22447E-01  7.30870E-01  7.10245E-01  7.44904E-01  8.17088E-01  9.17710E-01  1.03662E+00
   1.12968E+00  1.15115E+00  1.11756E+00  1.07870E+00  1.05294E+00  1.04247E+00  1.05333E+00  1.11428E+00  1.21932E+00  1.32654E+00
   1.40219E+00  1.45614E+00  1.50151E+00  1.52271E+00  1.48824E+00  1.42989E+00  1.39691E+00  1.38110E+00  1.37355E+00  1.38937E+00
   1.40710E+00  1.39341E+00  1.36669E+00  1.30513E+00  1.03470E+00  4.65632E-01  1.63101E-02 -1.31935E-01 -9.45628E-02  1.21602E-01
   6.26878E-01  1.41310E+00  2.32468E+00  3.14696E+00  3.73094E+00  4.01142E+00  3.74361E+00  2.76862E+00  1.73876E+00  1.35865E+00
   1.23469E+00  1.15859E+00  1.10567E+00  1.06685E+00  1.03456E+00  1.01350E+00  1.00310E+00  9.98416E-01  9.94723E-01  9.89519E-01
   9.78535E-01  9.62619E-01  9.46670E-01  9.33094E-01  9.23972E-01  9.20805E-01  9.23380E-01  9.32071E-01  9.47307E-01  9.67613E-01
   9.93259E-01  1.02526E+00  1.06376E+00  1.10949E+00  1.16420E+00  1.22824E+00  1.30125E+00  1.38347E+00  1.47459E+00  1.57354E+00
   1.68010E+00  1.79383E+00  1.91313E+00  2.03633E+00  2.16168E+00  2.28753E+00  2.41201E+00  2.53309E+00  2.64951E+00  2.76051E+00
   2.86573E+00  2.96549E+00  3.06060E+00  3.15222E+00  3.24189E+00  3.33125E+00  3.42189E+00  3.51513E+00  3.61160E+00  3.71060E+00
   3.80827E+00  3.89890E+00  4.00358E+00  4.13820E+00  4.28622E+00  4.43376E+00  4.57945E+00  4.71691E+00  4.82920E+00  4.87883E+00
   4.83865E+00  4.73105E+00  4.57354E+00  4.36560E+00  4.14521E+00  3.97652E+00  3.84480E+00  3.71644E+00  3.58610E+00  3.44900E+00
   3.30441E+00  3.12821E+00  2.89323E+00  2.64283E+00  2.42691E+00  2.23833E+00  2.07332E+00  1.93144E+00  1.81079E+00  1.70582E+00
   1.61303E+00  1.53326E+00  1.46540E+00  1.40547E+00  1.35410E+00  1.31661E+00  1.28945E+00  1.26462E+00  1.23955E+00  1.21371E+00
   1.18720E+00  1.15717E+00  1.12194E+00  1.08915E+00  1.06339E+00  1.04322E+00  1.02761E+00  1.01572E+00  1.00674E+00  9.99946E-01
   9.94747E-01  9.90718E-01  9.87613E-01  9.85352E-01  9.83968E-01  9.83578E-01  9.84346E-01  9.86490E-01  9.90252E-01  9.95904E-01
   1.00371E+00  1.01392E+00  1.02679E+00  1.04257E+00  1.06149E+00  1.08375E+00  1.10952E+00  1.13890E+00  1.17193E+00  1.20857E+00
   1.24871E+00  1.29208E+00  1.33833E+00  1.38691E+00  1.43719E+00  1.48838E+00  1.53959E+00  1.58979E+00  1.63789E+00  1.68276E+00
   1.72328E+00  1.75838E+00  1.78710E+00  1.80859E+00  1.82222E+00  1.82754E+00  1.82438E+00  1.81281E+00  1.79314E+00  1.76589E+00
   1.73180E+00  1.69175E+00  1.64678E+00  1.59797E+00  1.54644E+00  1.49325E+00  1.43943E+00  1.38592E+00  1.33352E+00  1.28294E+00
   1.23469E+00  1.18917E+00  1.14666E+00  1.10731E+00  1.07117E+00  1.03821E+00  1.00832E+00  9.81339E-01  9.57082E-01  9.35350E-01
   9.15923E-01  8.98582E-01  8.83104E-01  8.69289E-01  8.56952E-01  8.45932E-01  8.36074E-01  8.27236E-01  8.19288E-01  8.12128E-01
   8.05665E-01  7.99825E-01  7.94531E-01  7.89718E-01  7.85326E-01  7.81316E-01  7.77649E-01  7.74297E-01  7.71218E-01  7.68384E-01
   7.65767E-01  7.63354E-01  7.61130E-01  7.59079E-01  7.57177E-01  7.55411E-01  7.53768E-01  7.52249E-01  7.50842E-01  7.49539E-01
   7.48323E-01  7.47188E-01  7.46130E-01  7.45153E-01  7.44248E-01  7.43406E-01  7.42617E-01  7.41881E-01  7.41199E-01  7.40573E-01
   7.39993E-01  7.39454E-01  7.38947E-01  7.38479E-01  7.38049E-01  7.37659E-01  7.37299E-01  7.36965E-01  7.36654E-01  7.36373E-01
   7.36121E-01  7.35898E-01  7.35693E-01  7.35506E-01  7.35335E-01  7.35189E-01  7.35066E-01  7.34962E-01  7.34868E-01  7.34788E-01
   7.34721E-01  7.34676E-01  7.34647E-01  7.34630E-01  7.34619E-01  7.34617E-01  7.34629E-01  7.34658E-01
 NY background values follow
     5.072E-01    5.077E-01    5.081E-01    5.086E-01    5.090E-01    5.095E-01    5.099E-01    5.104E-01    5.108E-01    5.113E-01
     5.117E-01    5.122E-01    5.126E-01    5.131E-01    5.135E-01    5.140E-01    5.144E-01    5.149E-01    5.153E-01    5.158E-01
     5.162E-01    5.167E-01    5.171E-01    5.176E-01    5.180E-01    5.185E-01    5.189E-01    5.194E-01    5.198E-01    5.203E-01
     5.207E-01    5.212E-01    5.216E-01    5.221E-01    5.225E-01    5.230E-01    5.234E-01    5.239E-01    5.243E-01    5.248E-01
     5.252E-01    5.257E-01    5.261E-01    5.266E-01    5.270E-01    5.275E-01    5.279E-01    5.284E-01    5.288E-01    5.293E-01
     5.297E-01    5.302E-01    5.306E-01    5.311E-01    5.315E-01    5.320E-01    5.324E-01    5.329E-01    5.333E-01    5.338E-01
     5.342E-01    5.347E-01    5.351E-01    5.356E-01    5.360E-01    5.365E-01    5.369E-01    5.374E-01    5.378E-01    5.383E-01
     5.387E-01    5.391E-01    5.396E-01    5.400E-01    5.405E-01    5.409E-01    5.414E-01    5.418E-01    5.423E-01    5.427E-01
     5.432E-01    5.436E-01    5.441E-01    5.445E-01    5.450E-01    5.454E-01    5.459E-01    5.463E-01    5.468E-01    5.472E-01
     5.477E-01    5.481E-01    5.486E-01    5.490E-01    5.494E-01    5.499E-01    5.503E-01    5.508E-01    5.512E-01    5.517E-01
     5.521E-01    5.526E-01    5.530E-01    5.535E-01    5.539E-01    5.544E-01    5.548E-01    5.552E-01    5.557E-01    5.561E-01
     5.566E-01    5.570E-01    5.575E-01    5.579E-01    5.584E-01    5.588E-01    5.592E-01    5.597E-01    5.601E-01    5.606E-01
     5.610E-01    5.615E-01    5.619E-01    5.624E-01    5.628E-01    5.632E-01    5.637E-01    5.641E-01    5.646E-01    5.650E-01
     5.654E-01    5.659E-01    5.663E-01    5.668E-01    5.672E-01    5.677E-01    5.681E-01    5.685E-01    5.690E-01    5.694E-01
     5.699E-01    5.703E-01    5.707E-01    5.712E-01    5.716E-01    5.721E-01    5.725E-01    5.729E-01    5.734E-01    5.738E-01
     5.743E-01    5.747E-01    5.751E-01    5.756E-01    5.760E-01    5.764E-01    5.769E-01    5.773E-01    5.778E-01    5.782E-01
     5.786E-01    5.791E-01    5.795E-01    5.799E-01    5.804E-01    5.808E-01    5.812E-01    5.817E-01    5.821E-01    5.826E-01
     5.830E-01    5.834E-01    5.839E-01    5.843E-01    5.847E-01    5.852E-01    5.856E-01    5.860E-01    5.865E-01    5.869E-01
     5.873E-01    5.878E-01    5.882E-01    5.886E-01    5.890E-01    5.895E-01    5.899E-01    5.903E-01    5.908E-01    5.912E-01
     5.916E-01    5.921E-01    5.925E-01    5.929E-01    5.934E-01    5.938E-01    5.942E-01    5.946E-01    5.951E-01    5.955E-01
     5.959E-01    5.964E-01    5.968E-01    5.972E-01    5.976E-01    5.981E-01    5.985E-01    5.989E-01    5.993E-01    5.998E-01
     6.002E-01    6.006E-01    6.010E-01    6.015E-01    6.019E-01    6.023E-01    6.027E-01    6.032E-01    6.036E-01    6.040E-01
     6.044E-01    6.049E-01    6.053E-01    6.057E-01    6.061E-01    6.065E-01    6.070E-01    6.074E-01    6.078E-01    6.082E-01
     6.087E-01    6.091E-01    6.095E-01    6.099E-01    6.103E-01    6.108E-01    6.112E-01    6.116E-01    6.120E-01    6.124E-01
     6.129E-01    6.133E-01    6.137E-01    6.141E-01    6.145E-01    6.149E-01    6.154E-01    6.158E-01    6.162E-01    6.166E-01
     6.170E-01    6.174E-01    6.179E-01    6.183E-01    6.187E-01    6.191E-01    6.195E-01    6.199E-01    6.204E-01    6.208E-01
     6.212E-01    6.216E-01    6.220E-01    6.224E-01    6.228E-01    6.232E-01    6.237E-01    6.241E-01    6.245E-01    6.249E-01
     6.253E-01    6.257E-01    6.261E-01    6.265E-01    6.270E-01    6.274E-01    6.278E-01    6.282E-01    6.286E-01    6.290E-01
     6.294E-01    6.298E-01    6.302E-01    6.307E-01    6.311E-01    6.315E-01    6.319E-01    6.323E-01    6.327E-01    6.331E-01
     6.335E-01    6.339E-01    6.343E-01    6.347E-01    6.351E-01    6.356E-01    6.360E-01    6.364E-01    6.368E-01    6.372E-01
     6.376E-01    6.380E-01    6.384E-01    6.388E-01    6.392E-01    6.396E-01    6.400E-01    6.404E-01    6.408E-01    6.412E-01
     6.416E-01    6.420E-01    6.424E-01    6.428E-01    6.433E-01    6.437E-01    6.441E-01    6.445E-01    6.449E-01    6.453E-01
     6.457E-01    6.461E-01    6.465E-01    6.469E-01    6.473E-01    6.477E-01    6.481E-01    6.485E-01    6.489E-01    6.493E-01
     6.497E-01    6.501E-01    6.505E-01    6.509E-01    6.513E-01    6.517E-01    6.521E-01    6.525E-01    6.529E-01    6.533E-01
     6.537E-01    6.541E-01    6.545E-01    6.549E-01    6.553E-01    6.557E-01    6.561E-01    6.565E-01    6.569E-01    6.573E-01
     6.577E-01    6.581E-01    6.585E-01    6.589E-01    6.593E-01    6.597E-01    6.600E-01    6.604E-01    6.608E-01    6.612E-01
     6.616E-01    6.620E-01    6.624E-01    6.628E-01    6.632E-01    6.636E-01    6.640E-01    6.644E-01    6.648E-01    6.652E-01
     6.656E-01    6.660E-01    6.664E-01    6.668E-01    6.672E-01    6.676E-01    6.680E-01    6.684E-01    6.687E-01    6.691E-01
     6.695E-01    6.699E-01    6.703E-01    6.707E-01    6.711E-01    6.715E-01    6.719E-01    6.723E-01    6.727E-01    6.731E-01
     6.735E-01    6.739E-01    6.743E-01    6.746E-01    6.750E-01    6.754E-01    6.758E-01    6.762E-01    6.766E-01    6.770E-01
     6.774E-01    6.778E-01    6.782E-01    6.786E-01    6.790E-01    6.794E-01    6.797E-01    6.801E-01    6.805E-01    6.809E-01
     6.813E-01    6.817E-01    6.821E-01    6.825E-01    6.829E-01    6.833E-01    6.837E-01    6.841E-01    6.844E-01    6.848E-01
     6.852E-01    6.856E-01    6.860E-01    6.864E-01    6.868E-01    6.872E-01    6.876E-01    6.880E-01    6.884E-01    6.887E-01
     6.891E-01    6.895E-01    6.899E-01    6.903E-01    6.907E-01    6.911E-01    6.915E-01    6.919E-01    6.923E-01    6.926E-01
     6.930E-01    6.934E-01    6.938E-01    6.942E-01    6.946E-01    6.950E-01    6.954E-01    6.958E-01    6.962E-01    6.965E-01
     6.969E-01    6.973E-01    6.977E-01    6.981E-01    6.985E-01    6.989E-01    6.993E-01    6.997E-01    7.000E-01    7.004E-01
     7.008E-01    7.012E-01    7.016E-01    7.020E-01    7.024E-01    7.028E-01    7.032E-01    7.036E-01    7.039E-01    7.043E-01
     7.047E-01    7.051E-01    7.055E-01    7.059E-01    7.063E-01    7.067E-01    7.071E-01    7.074E-01    7.078E-01    7.082E-01
     7.086E-01    7.090E-01    7.094E-01    7.098E-01    7.102E-01    7.106E-01    7.109E-01    7.113E-01    7.117E-01    7.121E-01
     7.125E-01    7.129E-01    7.133E-01    7.137E-01    7.141E-01    7.145E-01    7.148E-01    7.152E-01
 Ala      Conc. = 1.92E+00
