 LCModel (Version 6.3-1L) Copyright: S.W. Provencher.          Ref.: Magn. Reson. Med. 30:672-679 (1993).                
 Slice#1 Row#9 Col#7  PD_24_press_2_raw_act
 36 lines in following concentration table = NCONC+1
    Conc.  %SD /Cr+PCr  Metabolite                                         
  216.096  80%   0.107 Ala                                                 
    0.000 999%   0.000 Asp                                                 
 1.08E+03  27%   0.538 Cr                                                  
  931.295  32%   0.462 PCr                                                 
    0.000 999%   0.000 GABA                                                
  166.785 124% 8.3E-02 Glc                                                 
 1.35E+03  26%   0.668 Gln                                                 
 1.63E+03  23%   0.810 Glu                                                 
  523.186   6%   0.260 GPC                                                 
    0.000 999%   0.000 PCh                                                 
  517.018  21%   0.257 GSH                                                 
 2.53E+03  14%   1.256 Ins                                                 
    1.342 999% 6.7E-04 Lac                                                 
 3.40E+03   3%   1.690 NAA                                                 
    0.000 999%   0.000 NAAG                                                
  202.679  19%   0.101 Scyllo                                              
  288.207  95%   0.143 Tau                                                 
  216.570  69%   0.107 -CrCH2                                              
  523.186   6%   0.260 GPC+PCh                                             
 3.40E+03   3%   1.690 NAA+NAAG                                            
 2.01E+03   4%   1.000 Cr+PCr                                              
 2.98E+03  18%   1.477 Glu+Gln                                             
 2.52E+03  32%   1.249 Lip13a                                              
    0.000 999%   0.000 Lip13b                                              
  463.033 101%   0.230 Lip09                                               
 2.62E+03  19%   1.298 MM09                                                
  328.077  97%   0.163 Lip20                                               
 4.06E+03  14%   2.017 MM20                                                
  896.767  42%   0.445 MM12                                                
  924.437  56%   0.459 MM14                                                
 4.31E+03   5%   2.141 MM17                                                
 2.52E+03  32%   1.249 Lip13a+Lip13b                                       
 4.34E+03  11%   2.153 MM14+Lip13a+Lip13b+MM12                             
 3.08E+03   9%   1.528 MM09+Lip09                                          
 4.39E+03  12%   2.180 MM20+Lip20                                          
   6 lines in following misc. output table
  FWHM = 0.054 ppm    S/N =  12                                            
  Data shift = 0.008 ppm                                                   
  Ph: -15 deg       0.9 deg/ppm                                            
  alphaB,S = 1.1E+01,   5.6E+01                                            
   14 spline knots.   Ns = 7(1)                                            
  ( 7) 5 infls.   ( 3) 1 extrs.                                            
  498 points on ppm-axis = NY
      4.000000     3.992357     3.984714     3.977070     3.969427     3.961784     3.954141     3.946497     3.938854     3.931211
      3.923568     3.915925     3.908281     3.900638     3.892995     3.885352     3.877708     3.870065     3.862422     3.854779
      3.847136     3.839492     3.831849     3.824206     3.816563     3.808919     3.801276     3.793633     3.785990     3.778347
      3.770703     3.763060     3.755417     3.747774     3.740130     3.732487     3.724844     3.717201     3.709558     3.701914
      3.694271     3.686628     3.678985     3.671341     3.663698     3.656055     3.648412     3.640769     3.633125     3.625482
      3.617839     3.610196     3.602552     3.594909     3.587266     3.579623     3.571980     3.564336     3.556693     3.549050
      3.541407     3.533763     3.526120     3.518477     3.510834     3.503191     3.495547     3.487904     3.480261     3.472618
      3.464974     3.457331     3.449688     3.442045     3.434402     3.426758     3.419115     3.411472     3.403829     3.396185
      3.388542     3.380899     3.373256     3.365613     3.357969     3.350326     3.342683     3.335040     3.327396     3.319753
      3.312110     3.304467     3.296824     3.289180     3.281537     3.273894     3.266251     3.258607     3.250964     3.243321
      3.235678     3.228034     3.220391     3.212748     3.205105     3.197462     3.189818     3.182175     3.174532     3.166889
      3.159245     3.151602     3.143959     3.136316     3.128673     3.121029     3.113386     3.105743     3.098100     3.090456
      3.082813     3.075170     3.067527     3.059884     3.052240     3.044597     3.036954     3.029311     3.021667     3.014024
      3.006381     2.998738     2.991095     2.983451     2.975808     2.968165     2.960522     2.952878     2.945235     2.937592
      2.929949     2.922306     2.914662     2.907019     2.899376     2.891733     2.884089     2.876446     2.868803     2.861160
      2.853517     2.845873     2.838230     2.830587     2.822944     2.815300     2.807657     2.800014     2.792371     2.784728
      2.777084     2.769441     2.761798     2.754155     2.746511     2.738868     2.731225     2.723582     2.715939     2.708295
      2.700652     2.693009     2.685366     2.677722     2.670079     2.662436     2.654793     2.647150     2.639506     2.631863
      2.624220     2.616577     2.608933     2.601290     2.593647     2.586004     2.578361     2.570717     2.563074     2.555431
      2.547788     2.540144     2.532501     2.524858     2.517215     2.509572     2.501928     2.494285     2.486642     2.478999
      2.471355     2.463712     2.456069     2.448426     2.440783     2.433139     2.425496     2.417853     2.410210     2.402566
      2.394923     2.387280     2.379637     2.371994     2.364350     2.356707     2.349064     2.341421     2.333777     2.326134
      2.318491     2.310848     2.303205     2.295561     2.287918     2.280275     2.272632     2.264988     2.257345     2.249702
      2.242059     2.234416     2.226772     2.219129     2.211486     2.203843     2.196199     2.188556     2.180913     2.173270
      2.165627     2.157983     2.150340     2.142697     2.135054     2.127410     2.119767     2.112124     2.104481     2.096838
      2.089194     2.081551     2.073908     2.066265     2.058621     2.050978     2.043335     2.035692     2.028049     2.020405
      2.012762     2.005119     1.997476     1.989833     1.982190     1.974546     1.966903     1.959260     1.951617     1.943974
      1.936331     1.928688     1.921045     1.913402     1.905759     1.898115     1.890472     1.882829     1.875186     1.867543
      1.859900     1.852257     1.844614     1.836971     1.829327     1.821684     1.814041     1.806398     1.798755     1.791112
      1.783469     1.775826     1.768183     1.760540     1.752896     1.745253     1.737610     1.729967     1.722324     1.714681
      1.707038     1.699395     1.691752     1.684108     1.676465     1.668822     1.661179     1.653536     1.645893     1.638250
      1.630607     1.622964     1.615321     1.607677     1.600034     1.592391     1.584748     1.577105     1.569462     1.561819
      1.554176     1.546533     1.538890     1.531246     1.523603     1.515960     1.508317     1.500674     1.493031     1.485388
      1.477745     1.470102     1.462458     1.454815     1.447172     1.439529     1.431886     1.424243     1.416600     1.408957
      1.401314     1.393671     1.386027     1.378384     1.370741     1.363098     1.355455     1.347812     1.340169     1.332526
      1.324883     1.317240     1.309596     1.301953     1.294310     1.286667     1.279024     1.271381     1.263738     1.256095
      1.248452     1.240808     1.233165     1.225522     1.217879     1.210236     1.202593     1.194950     1.187307     1.179664
      1.172021     1.164377     1.156734     1.149091     1.141448     1.133805     1.126162     1.118519     1.110876     1.103233
      1.095590     1.087946     1.080303     1.072660     1.065017     1.057374     1.049731     1.042088     1.034445     1.026802
      1.019158     1.011515     1.003872     0.996229     0.988586     0.980943     0.973300     0.965657     0.958014     0.950371
      0.942727     0.935084     0.927441     0.919798     0.912155     0.904512     0.896869     0.889226     0.881583     0.873940
      0.866296     0.858653     0.851010     0.843367     0.835724     0.828081     0.820438     0.812795     0.805152     0.797508
      0.789865     0.782222     0.774579     0.766936     0.759293     0.751650     0.744007     0.736364     0.728721     0.721077
      0.713434     0.705791     0.698148     0.690505     0.682862     0.675219     0.667576     0.659933     0.652290     0.644646
      0.637003     0.629360     0.621717     0.614074     0.606431     0.598788     0.591145     0.583502     0.575858     0.568215
      0.560572     0.552929     0.545286     0.537643     0.530000     0.522357     0.514714     0.507071     0.499427     0.491784
      0.484141     0.476498     0.468855     0.461212     0.453569     0.445925     0.438282     0.430639     0.422996     0.415353
      0.407710     0.400067     0.392424     0.384780     0.377137     0.369494     0.361851     0.354208     0.346565     0.338922
      0.331278     0.323635     0.315992     0.308349     0.300706     0.293063     0.285420     0.277777     0.270133     0.262490
      0.254847     0.247204     0.239561     0.231918     0.224275     0.216631     0.208988     0.201345
 NY phased data points follow
  -7.04783E+00  3.94367E-01 -4.38829E+00  5.32731E+00  8.82967E-02  1.36139E+01  7.09500E+00  2.06192E+01  2.22437E+01  2.43535E+01
   2.11926E+01  3.79880E+01  2.70178E+01  2.71418E+01  1.75678E+01  2.63772E+01  7.73777E+00  1.03154E+01  3.82839E+00  1.70798E+00
  -3.11293E-01  2.15488E+00  3.70653E+00 -2.10031E+00  3.24397E-01 -2.88383E-01  4.56642E+00  9.12599E+00 -6.61755E-01  8.77961E+00
   3.73479E+00  8.89853E+00  3.10604E+00  6.15606E+00  5.85942E+00  7.21003E+00  6.33561E+00  1.10071E+01  1.00279E+01  7.69981E+00
   5.50397E+00  6.84720E+00  3.74608E-01  1.14121E+01  1.24030E+01  1.13398E+01  9.30641E+00  1.64852E+01  1.07290E+01  7.62399E+00
   1.86200E+00  6.84689E+00  8.26996E-01  1.40674E+00 -3.44543E+00  1.01016E+01  6.22248E-01  6.72260E+00 -1.65544E+00  7.59639E+00
   1.08621E+00  1.62948E-01  2.66677E+00 -2.95321E+00 -5.45608E+00  7.06992E-01 -4.13358E+00  1.50958E+00 -5.78636E+00  1.00201E+00
  -1.33611E+00 -1.80523E+00 -5.85389E-01 -1.17135E+00 -5.37399E+00  3.70632E+00 -2.85739E+00  3.32312E+00  1.59172E+00  2.67539E+00
  -3.47165E+00 -4.20497E+00 -2.84432E+00  1.28149E+00  2.77128E+00  4.67191E+00  1.57413E+00  5.27388E+00 -2.13879E+00  6.31945E+00
   2.05919E+00 -2.00459E+00  1.10430E+00  2.54654E+00  5.50967E+00  5.38949E+00  2.44890E+00  7.00030E+00  7.57998E+00  1.01570E+01
   1.54158E+01  2.58551E+01  3.39596E+01  4.15258E+01  3.95200E+01  3.46107E+01  2.19448E+01  2.56015E+01  1.33030E+01  9.62752E+00
   1.37256E+00 -1.89097E-01 -1.64661E+00 -1.39120E+00 -2.52133E+00  3.56521E+00 -6.69739E-01  3.17452E+00  1.06187E+00 -7.02683E+00
   1.24923E+00  6.47128E+00  7.78034E+00  1.62616E+01  2.56984E+01  3.89838E+01  5.34612E+01  6.05605E+01  6.37608E+01  5.80033E+01
   4.00837E+01  3.31580E+01  2.53550E+01  1.60790E+01  1.26152E+01  1.03928E+01  3.51010E+00  5.83639E+00  5.10214E+00  3.58371E+00
   6.50992E+00  7.97751E+00 -4.52375E+00  3.19159E+00 -4.51109E-01 -7.10394E+00 -4.45369E+00 -5.64311E+00 -3.16725E+00 -3.58994E+00
  -5.29527E-01 -2.49327E+00 -5.34847E+00 -1.62595E+00 -6.60982E+00  1.99902E+00 -4.86972E+00 -5.79569E+00 -4.31480E+00 -1.82819E+00
   8.07434E-01 -3.78510E+00 -7.27320E+00 -5.71631E+00 -9.53161E-01 -9.52891E+00 -9.78509E+00 -5.11632E+00 -1.56514E+01 -1.33500E+01
  -2.00353E+01 -1.88828E+01 -1.37090E+01 -2.10362E+01 -2.03184E+01 -2.43530E+01 -2.29653E+01 -2.10152E+01 -2.05325E+01 -1.33976E+01
  -2.02777E+01 -2.06266E+01 -1.68074E+01 -1.48512E+01 -1.26607E+01 -9.85107E+00 -2.22400E+01 -1.30539E+01 -1.54561E+01 -1.11275E+01
  -6.81479E+00 -1.06408E+01 -7.69391E+00 -1.15508E+01 -1.04488E+01 -9.94232E+00 -1.36831E+01 -1.19663E+01 -1.49552E+01 -1.31270E+01
  -9.32629E+00 -1.11981E+01 -6.80673E+00  1.39584E+00 -3.11529E+00  2.85263E+00 -2.96201E+00 -2.73153E+00 -2.86593E+00 -7.54579E+00
  -5.01385E+00 -2.76391E+00 -2.31216E+00  6.06321E+00  9.11378E+00  1.35672E+01  1.09412E+01  1.18051E+01  1.37356E+01  5.92571E+00
  -1.54831E+00  1.06468E+00 -7.31167E+00 -7.72661E-01  2.97663E+00  4.91317E+00  6.06404E+00 -1.86659E+00  5.15176E+00  8.80103E+00
   9.32419E+00  8.84347E+00  9.48176E+00  9.73526E+00  1.94194E+00  5.90716E+00  6.82219E+00  7.35759E+00  1.76900E+00  2.83655E+00
   5.79398E+00  2.85280E+00  6.24922E+00  2.56734E+00  2.31422E+00  3.91268E+00  8.12381E+00  1.03715E+01  1.12335E+01  8.08936E+00
   8.18790E+00  1.80236E+01  1.71081E+01  2.45165E+01  2.85243E+01  4.13815E+01  4.93527E+01  6.35292E+01  8.70600E+01  1.02813E+02
   1.20734E+02  1.14418E+02  1.06881E+02  8.52155E+01  6.63997E+01  5.14918E+01  3.46475E+01  2.15568E+01  1.46299E+01  1.83716E+01
   5.22589E+00  7.86996E+00  3.72166E+00  3.58914E+00  8.41206E-01 -1.97920E+00  4.59198E-01  1.65547E+00 -5.24713E+00  1.92974E+00
  -1.27687E+00  6.77373E-02 -7.05145E+00 -3.11402E+00 -3.28538E+00 -7.26063E+00 -1.00717E+01  4.24036E+00 -9.41810E-01  4.12451E+00
   1.94027E+00  7.02560E+00 -1.31865E-02 -2.54906E+00 -9.64233E-01  8.05140E-01 -1.89572E-02  1.56476E+00 -4.81455E-01  6.28055E+00
   3.17970E+00  3.80719E+00  8.77306E+00  1.87175E+01  1.19204E+01  1.29348E+01  1.60888E+01  2.43599E+01  2.23456E+01  2.71630E+01
   3.16885E+01  3.14628E+01  3.41703E+01  3.71668E+01  3.88221E+01  3.25831E+01  3.57902E+01  3.45930E+01  3.92013E+01  3.73461E+01
   3.08733E+01  2.79528E+01  2.82264E+01  2.81856E+01  2.01713E+01  2.21410E+01  1.74678E+01  1.78269E+01  9.36270E+00  1.33378E+01
   8.34189E+00  5.84114E+00  5.43884E+00  8.08483E+00  1.37019E+01  1.00781E+00  6.83102E+00  2.42845E+00  7.50468E+00  6.36685E+00
   7.86156E+00  9.93950E+00  7.86854E+00  9.62066E+00  1.01455E+01  7.55922E+00  1.57740E+01  7.64721E+00  1.35546E+01  1.42654E+01
   1.22915E+01  1.06669E+01  9.76682E+00  1.01259E+01  1.52223E+01  1.66977E+01  1.73775E+01  7.90837E+00  1.22280E+01  8.28122E+00
   1.52522E+01  1.35362E+01  1.36042E+01  1.26484E+01  1.20968E+01  2.04105E+01  1.41524E+01  8.80571E+00  6.80468E+00  8.94619E+00
   8.04087E+00  1.33038E+01  7.18273E+00  4.64520E+00  9.19005E-01  5.58546E+00  3.95536E+00  1.05075E+01  4.92642E+00  5.22723E+00
   7.69140E+00  6.25181E+00  1.12391E+01  6.69103E+00  1.13214E+01  8.22714E+00  1.36283E+01 -1.62989E-02  1.41968E+01  8.85475E+00
   1.35066E+01  1.40332E+01  9.00387E+00  6.18116E+00  7.83999E+00  1.34378E+01  1.53619E+01  1.55187E+01  1.19619E+01  1.44801E+01
   1.38037E+01  1.65766E+01  1.93779E+01  2.55603E+01  2.46561E+01  2.03582E+01  2.15671E+01  2.40451E+01  2.08564E+01  1.73988E+01
   1.84384E+01  2.26181E+01  2.11055E+01  1.58526E+01  1.05016E+01  1.83338E+01  1.53810E+01  1.26864E+01  1.23759E+01  9.39654E+00
   2.38319E+00  1.19959E+01  5.78114E+00  4.44475E+00  3.30025E+00  3.98507E+00  5.19465E+00  5.02745E+00  5.37700E+00  1.57435E-01
   2.03303E+00 -1.08698E+00  6.73728E+00  3.08535E+00 -2.50714E+00  2.21344E+00  1.75049E+00 -2.19475E-03 -5.41824E+00 -6.64830E-01
  -4.69740E+00 -4.33616E+00 -4.64845E+00  5.21228E-01  1.31363E+00 -9.85260E-01 -8.41000E+00 -4.81946E+00  1.03861E+00  1.88457E+00
  -6.53342E-02  4.38276E+00 -2.35515E-01  5.19116E+00  1.68087E+00  2.76692E+00 -1.62178E+00 -1.10446E-01 -7.43372E-01 -5.59370E+00
  -1.11573E+00  2.62455E+00 -5.31609E+00 -2.31265E+00 -3.90524E+00  1.84583E+00  5.92265E-01  2.57679E+00 -2.20872E+00  4.20083E+00
  -2.00240E+00  2.97188E+00 -5.40893E+00 -2.91637E+00 -1.23515E+00  2.57504E+00 -4.55318E+00 -8.36619E-01 -1.55136E-02  2.36713E+00
  -2.06559E-01  1.78675E-02  4.88401E-01  2.97235E+00  2.60810E-01  6.25729E+00 -2.27142E+00 -1.74743E+00 -1.87008E+00  1.44490E+00
   1.46797E+00  4.86271E+00  5.84486E+00  1.38428E+00 -3.08851E+00 -2.53398E+00  2.91167E+00  6.49162E+00
 NY points of the fit to the data follow
  -1.57341E+00 -2.04855E+00 -1.29986E+00  6.10276E-02  2.05536E+00  5.75961E+00  1.03298E+01  1.53014E+01  2.06801E+01  2.58988E+01
   2.99785E+01  3.18398E+01  3.07919E+01  2.71575E+01  2.19499E+01  1.65237E+01  1.17610E+01  7.61057E+00  4.56724E+00  2.36066E+00
   3.76332E-01 -6.48560E-01 -7.34413E-01 -2.52877E-01  3.15971E-02  3.76821E-01  1.20300E+00  2.79511E+00  5.18852E+00  7.86019E+00
   1.01151E+01  1.13061E+01  1.11657E+01  9.99681E+00  8.07495E+00  5.55749E+00  3.01444E+00  5.39305E-01 -1.45960E+00 -1.87687E+00
  -8.97107E-01  7.56928E-01  2.56103E+00  4.84627E+00  7.96550E+00  1.13629E+01  1.39874E+01  1.45995E+01  1.27667E+01  9.36456E+00
   5.57927E+00  2.41070E+00  3.51960E-01 -8.11032E-01 -1.47134E+00 -1.71854E+00 -1.14085E+00  1.54918E-01  1.52042E+00  2.47056E+00
   2.70459E+00  2.06450E+00  8.74295E-01 -4.52577E-01 -1.34926E+00 -1.59235E+00 -1.44146E+00 -1.10081E+00 -4.86324E-01  3.00854E-01
   1.09438E+00  1.68130E+00  1.95904E+00  1.96158E+00  1.74715E+00  1.40830E+00  9.50921E-01  3.17604E-01 -3.33528E-01 -7.83811E-01
  -5.64087E-01 -2.89814E-01 -5.28088E-03  5.26250E-01  1.40656E+00  2.46823E+00  3.14964E+00  2.91590E+00  1.86358E+00  5.22814E-01
  -6.82354E-01 -1.46826E+00 -1.94221E+00 -2.31823E+00 -2.70535E+00 -2.59391E+00  1.65342E-01  3.97174E+00  7.34241E+00  1.17175E+01
   1.84701E+01  2.73388E+01  3.59716E+01  4.09021E+01  4.01605E+01  3.46460E+01  2.69302E+01  1.95174E+01  1.32846E+01  8.20098E+00
   3.92118E+00 -2.08629E-01 -2.69537E+00 -3.39226E+00 -3.59920E+00 -3.65177E+00 -3.63065E+00 -3.49234E+00 -3.13911E+00 -2.02651E+00
   1.58071E+00  7.33128E+00  1.28557E+01  1.90549E+01  2.78421E+01  3.94706E+01  5.15590E+01  5.97841E+01  6.08048E+01  5.48700E+01
   4.50469E+01  3.48098E+01  2.58078E+01  1.79875E+01  1.10900E+01  4.52918E+00 -4.06894E-01 -2.29220E+00 -2.58390E+00 -2.27903E+00
  -1.80830E+00 -1.47936E+00 -1.35433E+00 -1.41016E+00 -1.66070E+00 -2.00295E+00 -2.37138E+00 -2.78784E+00 -3.18751E+00 -3.57211E+00
  -3.89614E+00 -4.13950E+00 -4.32232E+00 -4.49592E+00 -4.79201E+00 -5.05454E+00 -5.23185E+00 -5.40612E+00 -5.64564E+00 -6.17862E+00
  -6.81494E+00 -7.13759E+00 -6.96849E+00 -6.50081E+00 -6.16144E+00 -6.27846E+00 -6.83644E+00 -7.62743E+00 -8.40957E+00 -9.10316E+00
  -9.77326E+00 -1.02873E+01 -1.08278E+01 -1.15279E+01 -1.22296E+01 -1.26374E+01 -1.25400E+01 -1.20856E+01 -1.16679E+01 -1.15681E+01
  -1.18207E+01 -1.19241E+01 -1.16430E+01 -1.11809E+01 -1.06859E+01 -1.02114E+01 -9.52713E+00 -8.25529E+00 -6.43600E+00 -4.51709E+00
  -3.13082E+00 -2.63183E+00 -2.76859E+00 -3.30110E+00 -3.93942E+00 -4.45451E+00 -4.80471E+00 -4.70884E+00 -3.96674E+00 -2.61587E+00
  -8.53498E-01  1.00903E+00  2.49978E+00  2.93195E+00  2.50126E+00  1.13205E+00 -1.42264E+00 -4.72020E+00 -7.85377E+00 -9.88425E+00
  -1.03594E+01 -9.47623E+00 -7.32609E+00 -4.16056E+00 -6.25962E-01  2.35655E+00  3.87870E+00  3.80337E+00  2.59390E+00  1.79273E-01
  -2.65274E+00 -4.95583E+00 -6.26903E+00 -6.13196E+00 -4.74834E+00 -2.52310E+00  1.87436E-02  2.11607E+00  3.43332E+00  3.96376E+00
   4.26368E+00  4.49113E+00  4.49684E+00  4.48599E+00  4.81513E+00  5.39956E+00  6.06479E+00  6.92261E+00  7.80461E+00  8.32851E+00
   8.17348E+00  7.46050E+00  6.60384E+00  6.13155E+00  6.30372E+00  6.85628E+00  7.73965E+00  8.80362E+00  9.83993E+00  1.07843E+01
   1.17970E+01  1.30620E+01  1.53277E+01  2.25670E+01  3.26220E+01  4.09762E+01  5.05982E+01  6.52161E+01  8.49683E+01  1.04941E+02
   1.17256E+02  1.16566E+02  1.04030E+02  8.55597E+01  6.73822E+01  5.17844E+01  3.88007E+01  2.79346E+01  1.72675E+01  9.83592E+00
   7.14784E+00  5.80570E+00  4.90971E+00  4.28898E+00  3.84476E+00  3.41716E+00  2.97987E+00  2.52597E+00  2.05608E+00  1.58015E+00
   1.12365E+00  6.92561E-01  2.96534E-01 -4.14375E-02 -3.20854E-01 -5.58571E-01 -7.59843E-01 -9.24143E-01 -1.04524E+00 -1.11543E+00
  -1.13628E+00 -1.09470E+00 -9.72606E-01 -7.52657E-01 -4.15747E-01  5.77706E-02  6.91226E-01  1.50848E+00  2.53085E+00  3.77915E+00
   5.26908E+00  7.00758E+00  8.99409E+00  1.12162E+01  1.36485E+01  1.62505E+01  1.89684E+01  2.17360E+01  2.44773E+01  2.71091E+01
   2.95451E+01  3.17001E+01  3.34963E+01  3.48691E+01  3.57707E+01  3.61740E+01  3.60752E+01  3.54943E+01  3.44791E+01  3.31129E+01
   3.15159E+01  2.96416E+01  2.74785E+01  2.52387E+01  2.30309E+01  2.08097E+01  1.84358E+01  1.58054E+01  1.31155E+01  1.07121E+01
   8.69233E+00  7.15832E+00  6.18245E+00  5.81683E+00  6.03374E+00  6.62374E+00  7.37332E+00  8.03771E+00  8.43227E+00  8.65794E+00
   8.83607E+00  9.01396E+00  9.22003E+00  9.39670E+00  9.55275E+00  9.82541E+00  1.01754E+01  1.05617E+01  1.09651E+01  1.13721E+01
   1.17710E+01  1.21514E+01  1.25035E+01  1.28181E+01  1.30863E+01  1.32986E+01  1.34475E+01  1.35268E+01  1.35331E+01  1.34659E+01
   1.33266E+01  1.31175E+01  1.28428E+01  1.25071E+01  1.21183E+01  1.16848E+01  1.12152E+01  1.07180E+01  1.02026E+01  9.67820E+00
   9.15455E+00  8.64042E+00  8.14430E+00  7.67363E+00  7.23581E+00  6.83746E+00  6.48515E+00  6.18435E+00  5.94034E+00  5.75763E+00
   5.64115E+00  5.59536E+00  5.62493E+00  5.73370E+00  5.92557E+00  6.20376E+00  6.57154E+00  7.03101E+00  7.58338E+00  8.22775E+00
   8.96165E+00  9.78008E+00  1.06760E+01  1.16388E+01  1.26553E+01  1.37083E+01  1.47783E+01  1.58430E+01  1.68785E+01  1.78593E+01
   1.87597E+01  1.95543E+01  2.02204E+01  2.07378E+01  2.10907E+01  2.12677E+01  2.12627E+01  2.10750E+01  2.07103E+01  2.01789E+01
   1.94964E+01  1.86816E+01  1.77564E+01  1.67442E+01  1.56697E+01  1.45567E+01  1.34282E+01  1.23044E+01  1.12034E+01  1.01400E+01
   9.12657E+00  8.17174E+00  7.28157E+00  6.45899E+00  5.70512E+00  5.01898E+00  4.39854E+00  3.84016E+00  3.33974E+00  2.89233E+00
   2.49334E+00  2.13795E+00  1.82186E+00  1.54048E+00  1.28988E+00  1.06612E+00  8.66250E-01  6.87305E-01  5.26983E-01  3.82749E-01
   2.52730E-01  1.35036E-01  2.85316E-02 -6.81336E-02 -1.55883E-01 -2.36003E-01 -3.09212E-01 -3.76364E-01 -4.37754E-01 -4.94069E-01
  -5.45678E-01 -5.93334E-01 -6.37236E-01 -6.77803E-01 -7.15014E-01 -7.49332E-01 -7.80922E-01 -8.10286E-01 -8.37381E-01 -8.62445E-01
  -8.85367E-01 -9.06546E-01 -9.26040E-01 -9.44201E-01 -9.60844E-01 -9.76141E-01 -9.89982E-01 -1.00275E+00 -1.01443E+00 -1.02526E+00
  -1.03499E+00 -1.04379E+00 -1.05157E+00 -1.05869E+00 -1.06506E+00 -1.07085E+00 -1.07577E+00 -1.08003E+00 -1.08358E+00 -1.08674E+00
  -1.08936E+00 -1.09153E+00 -1.09301E+00 -1.09404E+00 -1.09458E+00 -1.09489E+00 -1.09476E+00 -1.09427E+00 -1.09322E+00 -1.09189E+00
  -1.09022E+00 -1.08843E+00 -1.08623E+00 -1.08374E+00 -1.08081E+00 -1.07772E+00 -1.07440E+00 -1.07098E+00
 NY background values follow
    -8.373E+00   -8.362E+00   -8.350E+00   -8.339E+00   -8.328E+00   -8.316E+00   -8.305E+00   -8.294E+00   -8.282E+00   -8.271E+00
    -8.260E+00   -8.248E+00   -8.237E+00   -8.226E+00   -8.214E+00   -8.203E+00   -8.192E+00   -8.180E+00   -8.169E+00   -8.158E+00
    -8.146E+00   -8.135E+00   -8.124E+00   -8.112E+00   -8.101E+00   -8.090E+00   -8.078E+00   -8.067E+00   -8.056E+00   -8.044E+00
    -8.033E+00   -8.021E+00   -8.010E+00   -7.999E+00   -7.987E+00   -7.976E+00   -7.965E+00   -7.953E+00   -7.942E+00   -7.931E+00
    -7.919E+00   -7.908E+00   -7.897E+00   -7.885E+00   -7.874E+00   -7.863E+00   -7.851E+00   -7.840E+00   -7.829E+00   -7.817E+00
    -7.806E+00   -7.794E+00   -7.783E+00   -7.772E+00   -7.760E+00   -7.749E+00   -7.738E+00   -7.726E+00   -7.715E+00   -7.704E+00
    -7.692E+00   -7.681E+00   -7.670E+00   -7.658E+00   -7.647E+00   -7.635E+00   -7.624E+00   -7.613E+00   -7.601E+00   -7.590E+00
    -7.579E+00   -7.567E+00   -7.556E+00   -7.544E+00   -7.533E+00   -7.522E+00   -7.510E+00   -7.499E+00   -7.487E+00   -7.476E+00
    -7.465E+00   -7.453E+00   -7.442E+00   -7.430E+00   -7.419E+00   -7.408E+00   -7.396E+00   -7.385E+00   -7.373E+00   -7.362E+00
    -7.350E+00   -7.339E+00   -7.327E+00   -7.316E+00   -7.305E+00   -7.293E+00   -7.282E+00   -7.270E+00   -7.259E+00   -7.247E+00
    -7.236E+00   -7.224E+00   -7.213E+00   -7.201E+00   -7.190E+00   -7.178E+00   -7.167E+00   -7.155E+00   -7.144E+00   -7.132E+00
    -7.121E+00   -7.109E+00   -7.098E+00   -7.086E+00   -7.075E+00   -7.063E+00   -7.052E+00   -7.040E+00   -7.029E+00   -7.017E+00
    -7.005E+00   -6.994E+00   -6.982E+00   -6.971E+00   -6.959E+00   -6.947E+00   -6.936E+00   -6.924E+00   -6.913E+00   -6.901E+00
    -6.889E+00   -6.878E+00   -6.866E+00   -6.854E+00   -6.843E+00   -6.831E+00   -6.819E+00   -6.808E+00   -6.796E+00   -6.784E+00
    -6.773E+00   -6.761E+00   -6.749E+00   -6.737E+00   -6.726E+00   -6.714E+00   -6.702E+00   -6.690E+00   -6.679E+00   -6.667E+00
    -6.655E+00   -6.643E+00   -6.632E+00   -6.620E+00   -6.608E+00   -6.596E+00   -6.584E+00   -6.572E+00   -6.560E+00   -6.549E+00
    -6.537E+00   -6.525E+00   -6.513E+00   -6.501E+00   -6.489E+00   -6.477E+00   -6.465E+00   -6.453E+00   -6.441E+00   -6.429E+00
    -6.417E+00   -6.405E+00   -6.393E+00   -6.381E+00   -6.369E+00   -6.357E+00   -6.345E+00   -6.333E+00   -6.320E+00   -6.308E+00
    -6.296E+00   -6.284E+00   -6.272E+00   -6.260E+00   -6.247E+00   -6.235E+00   -6.223E+00   -6.211E+00   -6.198E+00   -6.186E+00
    -6.174E+00   -6.162E+00   -6.149E+00   -6.137E+00   -6.125E+00   -6.112E+00   -6.100E+00   -6.087E+00   -6.075E+00   -6.063E+00
    -6.050E+00   -6.038E+00   -6.025E+00   -6.013E+00   -6.000E+00   -5.988E+00   -5.975E+00   -5.963E+00   -5.950E+00   -5.938E+00
    -5.925E+00   -5.912E+00   -5.900E+00   -5.887E+00   -5.875E+00   -5.862E+00   -5.849E+00   -5.837E+00   -5.824E+00   -5.811E+00
    -5.799E+00   -5.786E+00   -5.773E+00   -5.761E+00   -5.748E+00   -5.735E+00   -5.722E+00   -5.710E+00   -5.697E+00   -5.684E+00
    -5.671E+00   -5.658E+00   -5.646E+00   -5.633E+00   -5.620E+00   -5.607E+00   -5.594E+00   -5.581E+00   -5.568E+00   -5.556E+00
    -5.543E+00   -5.530E+00   -5.517E+00   -5.504E+00   -5.491E+00   -5.478E+00   -5.465E+00   -5.452E+00   -5.439E+00   -5.426E+00
    -5.413E+00   -5.400E+00   -5.387E+00   -5.374E+00   -5.361E+00   -5.348E+00   -5.334E+00   -5.321E+00   -5.308E+00   -5.295E+00
    -5.282E+00   -5.269E+00   -5.256E+00   -5.242E+00   -5.229E+00   -5.216E+00   -5.203E+00   -5.190E+00   -5.176E+00   -5.163E+00
    -5.150E+00   -5.137E+00   -5.123E+00   -5.110E+00   -5.097E+00   -5.083E+00   -5.070E+00   -5.057E+00   -5.043E+00   -5.030E+00
    -5.017E+00   -5.003E+00   -4.990E+00   -4.976E+00   -4.963E+00   -4.950E+00   -4.936E+00   -4.923E+00   -4.909E+00   -4.896E+00
    -4.882E+00   -4.869E+00   -4.855E+00   -4.842E+00   -4.828E+00   -4.815E+00   -4.801E+00   -4.788E+00   -4.774E+00   -4.761E+00
    -4.747E+00   -4.733E+00   -4.720E+00   -4.706E+00   -4.693E+00   -4.679E+00   -4.665E+00   -4.652E+00   -4.638E+00   -4.624E+00
    -4.611E+00   -4.597E+00   -4.583E+00   -4.569E+00   -4.556E+00   -4.542E+00   -4.528E+00   -4.515E+00   -4.501E+00   -4.487E+00
    -4.473E+00   -4.459E+00   -4.446E+00   -4.432E+00   -4.418E+00   -4.404E+00   -4.390E+00   -4.377E+00   -4.363E+00   -4.349E+00
    -4.335E+00   -4.321E+00   -4.307E+00   -4.293E+00   -4.280E+00   -4.266E+00   -4.252E+00   -4.238E+00   -4.224E+00   -4.210E+00
    -4.196E+00   -4.182E+00   -4.168E+00   -4.154E+00   -4.140E+00   -4.126E+00   -4.112E+00   -4.098E+00   -4.084E+00   -4.070E+00
    -4.056E+00   -4.042E+00   -4.028E+00   -4.014E+00   -4.000E+00   -3.986E+00   -3.972E+00   -3.958E+00   -3.944E+00   -3.930E+00
    -3.916E+00   -3.902E+00   -3.888E+00   -3.873E+00   -3.859E+00   -3.845E+00   -3.831E+00   -3.817E+00   -3.803E+00   -3.789E+00
    -3.775E+00   -3.760E+00   -3.746E+00   -3.732E+00   -3.718E+00   -3.704E+00   -3.690E+00   -3.675E+00   -3.661E+00   -3.647E+00
    -3.633E+00   -3.619E+00   -3.604E+00   -3.590E+00   -3.576E+00   -3.562E+00   -3.547E+00   -3.533E+00   -3.519E+00   -3.505E+00
    -3.490E+00   -3.476E+00   -3.462E+00   -3.448E+00   -3.433E+00   -3.419E+00   -3.405E+00   -3.390E+00   -3.376E+00   -3.362E+00
    -3.347E+00   -3.333E+00   -3.319E+00   -3.304E+00   -3.290E+00   -3.276E+00   -3.261E+00   -3.247E+00   -3.233E+00   -3.218E+00
    -3.204E+00   -3.190E+00   -3.175E+00   -3.161E+00   -3.146E+00   -3.132E+00   -3.118E+00   -3.103E+00   -3.089E+00   -3.075E+00
    -3.060E+00   -3.046E+00   -3.031E+00   -3.017E+00   -3.002E+00   -2.988E+00   -2.974E+00   -2.959E+00   -2.945E+00   -2.930E+00
    -2.916E+00   -2.901E+00   -2.887E+00   -2.872E+00   -2.858E+00   -2.844E+00   -2.829E+00   -2.815E+00   -2.800E+00   -2.786E+00
    -2.771E+00   -2.757E+00   -2.742E+00   -2.728E+00   -2.713E+00   -2.699E+00   -2.684E+00   -2.670E+00   -2.655E+00   -2.641E+00
    -2.626E+00   -2.612E+00   -2.597E+00   -2.583E+00   -2.568E+00   -2.554E+00   -2.539E+00   -2.525E+00   -2.510E+00   -2.496E+00
    -2.481E+00   -2.467E+00   -2.452E+00   -2.438E+00   -2.423E+00   -2.408E+00   -2.394E+00   -2.379E+00   -2.365E+00   -2.350E+00
    -2.336E+00   -2.321E+00   -2.307E+00   -2.292E+00   -2.278E+00   -2.263E+00   -2.249E+00   -2.234E+00   -2.219E+00   -2.205E+00
    -2.190E+00   -2.176E+00   -2.161E+00   -2.147E+00   -2.132E+00   -2.118E+00   -2.103E+00   -2.088E+00   -2.074E+00   -2.059E+00
    -2.045E+00   -2.030E+00   -2.016E+00   -2.001E+00   -1.987E+00   -1.972E+00   -1.958E+00   -1.943E+00
 Ala      Conc. = 2.16E+02
