 LCModel (Version 6.3-1L) Copyright: S.W. Provencher.          Ref.: Magn. Reson. Med. 30:672-679 (1993).                
 Slice#2 Row#3 Col#10  PD_24_press_2_raw_act
 36 lines in following concentration table = NCONC+1
    Conc.  %SD /Cr+PCr  Metabolite                                         
    0.000 999%   0.000 Ala                                                 
    9.125 999% 8.4E-03 Asp                                                 
  235.963 220%   0.218 Cr                                                  
  845.735  61%   0.782 PCr                                                 
   85.864 126% 7.9E-02 GABA                                                
   21.213 505% 2.0E-02 Glc                                                 
    0.000 999%   0.000 Gln                                                 
    0.000 999%   0.000 Glu                                                 
    0.000 999%   0.000 GPC                                                 
  460.685  10%   0.426 PCh                                                 
    0.000 999%   0.000 GSH                                                 
 1.27E+03  42%   1.171 Ins                                                 
    0.000 999%   0.000 Lac                                                 
    0.000 999%   0.000 NAA                                                 
  695.596  22%   0.643 NAAG                                                
   23.513 136% 2.2E-02 Scyllo                                              
  145.333 118%   0.134 Tau                                                 
 1.25E+03  14%   1.160+-CrCH2                                              
  460.685  10%   0.426 GPC+PCh                                             
  695.596  22%   0.643 NAA+NAAG                                            
 1.08E+03  11%   1.000 Cr+PCr                                              
    0.000 999%   0.000 Glu+Gln                                             
    0.000 999%   0.000 Lip13a                                              
 1.02E+03  49%   0.939 Lip13b                                              
    0.000 999%   0.000 Lip09                                               
 2.61E+03  12%   2.410 MM09                                                
  238.554  91%   0.221 Lip20                                               
 5.24E+03  11%   4.842 MM20                                                
  894.867  28%   0.827 MM12                                                
 2.72E+03  12%   2.513 MM14                                                
    0.000 999%   0.000 MM17                                                
 1.02E+03  49%   0.939 Lip13a+Lip13b                                       
 4.63E+03  10%   4.280 MM14+Lip13a+Lip13b+MM12                             
 2.61E+03  12%   2.410 MM09+Lip09                                          
 5.48E+03  11%   5.063 MM20+Lip20                                          
   6 lines in following misc. output table
  FWHM = 0.084 ppm    S/N =   3                                            
  Data shift = 0.031 ppm                                                   
  Ph:  50 deg      40.6 deg/ppm                                            
  alphaB,S = 8.1E-01,   5.0E+01                                            
   14 spline knots.   Ns = 8(1)                                            
  (14) 5 infls.   (15) 3 extrs.                                            
  498 points on ppm-axis = NY
      4.000000     3.992357     3.984714     3.977070     3.969427     3.961784     3.954141     3.946497     3.938854     3.931211
      3.923568     3.915925     3.908281     3.900638     3.892995     3.885352     3.877708     3.870065     3.862422     3.854779
      3.847136     3.839492     3.831849     3.824206     3.816563     3.808919     3.801276     3.793633     3.785990     3.778347
      3.770703     3.763060     3.755417     3.747774     3.740130     3.732487     3.724844     3.717201     3.709558     3.701914
      3.694271     3.686628     3.678985     3.671341     3.663698     3.656055     3.648412     3.640769     3.633125     3.625482
      3.617839     3.610196     3.602552     3.594909     3.587266     3.579623     3.571980     3.564336     3.556693     3.549050
      3.541407     3.533763     3.526120     3.518477     3.510834     3.503191     3.495547     3.487904     3.480261     3.472618
      3.464974     3.457331     3.449688     3.442045     3.434402     3.426758     3.419115     3.411472     3.403829     3.396185
      3.388542     3.380899     3.373256     3.365613     3.357969     3.350326     3.342683     3.335040     3.327396     3.319753
      3.312110     3.304467     3.296824     3.289180     3.281537     3.273894     3.266251     3.258607     3.250964     3.243321
      3.235678     3.228034     3.220391     3.212748     3.205105     3.197462     3.189818     3.182175     3.174532     3.166889
      3.159245     3.151602     3.143959     3.136316     3.128673     3.121029     3.113386     3.105743     3.098100     3.090456
      3.082813     3.075170     3.067527     3.059884     3.052240     3.044597     3.036954     3.029311     3.021667     3.014024
      3.006381     2.998738     2.991095     2.983451     2.975808     2.968165     2.960522     2.952878     2.945235     2.937592
      2.929949     2.922306     2.914662     2.907019     2.899376     2.891733     2.884089     2.876446     2.868803     2.861160
      2.853517     2.845873     2.838230     2.830587     2.822944     2.815300     2.807657     2.800014     2.792371     2.784728
      2.777084     2.769441     2.761798     2.754155     2.746511     2.738868     2.731225     2.723582     2.715939     2.708295
      2.700652     2.693009     2.685366     2.677722     2.670079     2.662436     2.654793     2.647150     2.639506     2.631863
      2.624220     2.616577     2.608933     2.601290     2.593647     2.586004     2.578361     2.570717     2.563074     2.555431
      2.547788     2.540144     2.532501     2.524858     2.517215     2.509572     2.501928     2.494285     2.486642     2.478999
      2.471355     2.463712     2.456069     2.448426     2.440783     2.433139     2.425496     2.417853     2.410210     2.402566
      2.394923     2.387280     2.379637     2.371994     2.364350     2.356707     2.349064     2.341421     2.333777     2.326134
      2.318491     2.310848     2.303205     2.295561     2.287918     2.280275     2.272632     2.264988     2.257345     2.249702
      2.242059     2.234416     2.226772     2.219129     2.211486     2.203843     2.196199     2.188556     2.180913     2.173270
      2.165627     2.157983     2.150340     2.142697     2.135054     2.127410     2.119767     2.112124     2.104481     2.096838
      2.089194     2.081551     2.073908     2.066265     2.058621     2.050978     2.043335     2.035692     2.028049     2.020405
      2.012762     2.005119     1.997476     1.989833     1.982190     1.974546     1.966903     1.959260     1.951617     1.943974
      1.936331     1.928688     1.921045     1.913402     1.905759     1.898115     1.890472     1.882829     1.875186     1.867543
      1.859900     1.852257     1.844614     1.836971     1.829327     1.821684     1.814041     1.806398     1.798755     1.791112
      1.783469     1.775826     1.768183     1.760540     1.752896     1.745253     1.737610     1.729967     1.722324     1.714681
      1.707038     1.699395     1.691752     1.684108     1.676465     1.668822     1.661179     1.653536     1.645893     1.638250
      1.630607     1.622964     1.615321     1.607677     1.600034     1.592391     1.584748     1.577105     1.569462     1.561819
      1.554176     1.546533     1.538890     1.531246     1.523603     1.515960     1.508317     1.500674     1.493031     1.485388
      1.477745     1.470102     1.462458     1.454815     1.447172     1.439529     1.431886     1.424243     1.416600     1.408957
      1.401314     1.393671     1.386027     1.378384     1.370741     1.363098     1.355455     1.347812     1.340169     1.332526
      1.324883     1.317240     1.309596     1.301953     1.294310     1.286667     1.279024     1.271381     1.263738     1.256095
      1.248452     1.240808     1.233165     1.225522     1.217879     1.210236     1.202593     1.194950     1.187307     1.179664
      1.172021     1.164377     1.156734     1.149091     1.141448     1.133805     1.126162     1.118519     1.110876     1.103233
      1.095590     1.087946     1.080303     1.072660     1.065017     1.057374     1.049731     1.042088     1.034445     1.026802
      1.019158     1.011515     1.003872     0.996229     0.988586     0.980943     0.973300     0.965657     0.958014     0.950371
      0.942727     0.935084     0.927441     0.919798     0.912155     0.904512     0.896869     0.889226     0.881583     0.873940
      0.866296     0.858653     0.851010     0.843367     0.835724     0.828081     0.820438     0.812795     0.805152     0.797508
      0.789865     0.782222     0.774579     0.766936     0.759293     0.751650     0.744007     0.736364     0.728721     0.721077
      0.713434     0.705791     0.698148     0.690505     0.682862     0.675219     0.667576     0.659933     0.652290     0.644646
      0.637003     0.629360     0.621717     0.614074     0.606431     0.598788     0.591145     0.583502     0.575858     0.568215
      0.560572     0.552929     0.545286     0.537643     0.530000     0.522357     0.514714     0.507071     0.499427     0.491784
      0.484141     0.476498     0.468855     0.461212     0.453569     0.445925     0.438282     0.430639     0.422996     0.415353
      0.407710     0.400067     0.392424     0.384780     0.377137     0.369494     0.361851     0.354208     0.346565     0.338922
      0.331278     0.323635     0.315992     0.308349     0.300706     0.293063     0.285420     0.277777     0.270133     0.262490
      0.254847     0.247204     0.239561     0.231918     0.224275     0.216631     0.208988     0.201345
 NY phased data points follow
  -8.47369E+00 -1.72719E+01 -2.42815E+01 -1.70059E+01 -1.24964E+01 -1.96748E+01 -2.10885E+01 -9.85753E+00 -1.53921E+01 -1.35189E-01
  -7.53953E+00  3.39178E+00 -1.01251E+01 -6.16299E+00 -1.43265E+01 -1.61493E+01 -1.63645E+01 -8.74560E+00 -5.32606E+00 -1.06588E+01
  -7.78834E+00 -9.97254E-01 -4.97223E+00 -4.89994E+00 -8.01050E+00 -3.34057E+00 -4.59558E+00 -1.48790E+01 -8.95840E+00 -5.51646E+00
  -3.41826E+00 -8.86268E+00 -5.85907E+00 -8.09701E+00 -1.36782E+01  2.74236E-01 -7.83998E+00 -1.99299E+00  2.48848E+00 -2.43651E+00
   1.66651E+00  1.74566E+00  4.83403E-01  1.24467E+00 -5.02713E+00 -2.47777E+00  6.96228E+00  1.27942E+01  7.02973E+00  3.70110E+00
   8.85449E+00  9.94529E+00 -3.91521E+00  1.19308E+01 -8.45048E+00 -3.90622E+00  7.73024E-01  3.91902E+00  1.86148E-01 -6.15973E+00
  -8.31602E-01 -1.99044E+00 -5.76745E+00  6.64504E+00 -3.22107E+00  5.31097E+00 -7.32022E+00 -2.42370E+00 -6.64046E+00 -7.48882E+00
  -8.43928E+00 -1.19740E+00 -1.31707E+01 -1.97147E+00 -8.68718E+00 -2.23635E+00 -1.02307E+01 -5.97765E+00 -5.77645E+00 -4.69950E+00
  -6.58116E+00 -2.92256E+00 -6.30943E+00 -7.58653E+00 -3.47733E+00 -1.07266E+01 -3.34674E+00 -1.77915E+00 -8.43408E+00  7.97649E-01
   2.17564E+00  1.24540E+00  7.06675E+00  1.16701E+01  1.07886E+01  2.03618E+01  4.76572E+00  1.73183E+01  6.29112E+00  8.37413E+00
   2.05843E+01  3.01368E+01  2.96656E+01  2.60033E+01  3.11511E+01  2.99828E+01  1.37725E+01  1.08816E+01  6.58449E+00  1.34559E+01
   3.96372E+00  4.96718E+00  6.18871E-01  9.97971E+00 -5.90165E+00  6.19930E-01  1.17585E+01  1.02355E+01  8.58882E+00  1.10689E+01
   1.64155E+01  1.17598E+01  1.53750E+01  1.82660E+01  2.34785E+01  2.73554E+01  2.60458E+01  2.40502E+01  2.98248E+01  2.07332E+01
   1.49985E+01  8.76201E+00  6.21059E+00  6.62732E+00  6.31239E+00  3.62599E+00  1.06358E+01 -1.14964E+00  2.02012E+00  5.69213E-01
   6.68684E+00  7.25459E+00 -1.50217E+00  2.31340E+00  2.40198E+00 -2.75824E+00 -5.08211E+00  7.47825E+00  1.59834E+00 -4.22635E+00
   3.56055E+00  8.77833E-01 -6.20309E+00 -9.30714E-03 -1.01158E+00 -3.14742E+00 -3.84492E+00  5.27495E-01 -4.87928E+00  1.21538E+00
  -4.35968E+00 -5.40754E+00 -9.79834E+00  1.68441E+00 -8.50837E+00 -7.77041E+00 -1.03669E+01 -1.13893E+01 -5.35712E+00 -5.67611E+00
  -1.44165E+01 -5.08681E+00 -1.27438E+01 -2.50736E+00 -1.12092E+01 -6.28248E+00 -2.83809E+00 -3.60110E+00 -1.63116E+00 -9.19985E+00
  -3.63681E+00 -1.45605E+01 -1.92474E+00 -1.07870E+01 -1.08242E+01 -8.35665E+00 -1.27676E+01 -1.01667E+01 -2.63757E+00 -1.23073E+01
  -8.90931E+00 -8.09146E+00  3.19566E+00  9.87785E+00  4.50312E+00 -5.02748E+00 -1.29601E+00 -6.06659E-01 -6.60719E+00 -5.29905E+00
   4.93869E+00 -1.06531E+01 -7.51930E+00  5.57553E+00 -4.06088E-02 -2.39518E+00 -1.05151E+01 -9.67402E+00 -6.04674E+00 -6.88980E+00
  -7.41241E+00  6.50050E-01 -9.39103E+00 -7.51772E+00 -2.27994E+00  6.13421E+00  5.97142E+00  3.53784E+00 -4.08512E+00 -7.21059E+00
  -3.56901E-01 -6.54806E+00 -5.47739E+00  6.75567E+00  1.86835E-03  3.11807E+00 -1.69234E+00  2.66259E+00 -3.20037E-01  1.43259E+01
  -3.10298E+00  1.72534E+00  8.91793E+00  3.45416E+00  1.84854E-01  9.19348E-01  3.02047E+00  2.63372E+00 -1.84128E+00  9.89719E+00
   1.06598E+01  1.79502E+01  1.38640E+01  1.43189E+01  1.83672E+01  9.09950E+00  3.24357E+01  1.79945E+01  2.97440E+01  3.00088E+01
   3.70731E+01  3.20366E+01  1.97471E+01  3.11021E+01  1.85011E+01  1.04299E+01  3.56785E+01  3.87696E+01  3.00215E+01  2.67394E+01
   2.22820E+01  1.86040E+01  1.27409E+01 -3.10456E+00 -6.95140E+00 -6.76559E+00  1.50076E+00 -7.86541E-01 -6.37203E+00 -4.45901E+00
  -2.64667E+00 -2.80023E+00 -1.93180E+00 -1.74382E+00 -2.94147E+00 -6.40840E+00  5.51732E+00 -6.97854E+00 -7.82884E+00 -8.26043E-01
  -1.01622E+01 -5.33057E+00 -8.91484E+00 -1.02697E+01 -1.34035E+01  4.31161E-01 -2.57346E+00 -5.88436E+00 -1.00478E+01 -7.09913E+00
  -8.67642E+00  6.46103E-02 -4.37561E+00 -1.16164E+01 -4.08615E+00 -1.46005E+01 -1.05028E+01 -1.26041E+01 -7.94557E+00 -1.94030E+01
  -4.94484E+00 -7.92910E+00 -9.13029E+00 -1.02118E+01 -1.51002E+01 -1.15356E+01 -1.65398E+01 -8.71503E+00 -1.76065E+01 -1.54149E+01
  -2.10051E+01 -2.49297E+01 -2.00762E+01 -1.58785E+01 -1.61163E+01 -2.14511E+01 -1.57060E+01 -1.17898E+01 -9.76833E+00 -1.68453E+01
  -2.94871E+00 -1.14703E+01 -2.12553E+00 -8.46786E+00  1.57152E+00  5.20373E+00  4.58476E+00  6.68617E+00  1.41084E+01  1.33286E+01
   6.31088E+00  7.60562E+00  1.77256E+01  8.65388E+00  1.90017E+01  1.52111E+01  1.66025E+01  1.99124E+01  1.47674E+01  1.52992E+01
   5.06801E+00  2.15837E+01  1.63997E+01  7.54526E+00  1.05930E+01  1.07154E+01  9.83068E+00  9.63418E+00  9.69250E+00  8.65645E+00
   8.85266E+00  1.37377E+01  9.27890E+00  1.25014E+01  7.02885E+00  1.07960E+01  9.42361E+00  4.55255E+00  3.71295E+00  8.50006E+00
   1.11811E+01  1.32038E+00  1.33260E+01  1.02981E+00 -2.78988E+00  3.17191E+00  1.15178E+01  1.02670E+01  5.58072E+00  5.18342E+00
  -2.88840E+00  1.07227E+01 -9.11016E+00  5.96232E+00 -3.44773E+00  1.67367E+01 -6.18961E+00 -4.01465E+00  1.13984E+01 -1.78110E+00
   5.65652E+00  6.36639E+00 -4.49275E+00  9.82028E+00  7.00834E+00 -3.09347E+00  1.67523E+01  5.77365E+00  1.11640E+01  1.51431E+01
   2.24627E+01  4.70242E+00  1.41542E+01  1.46747E+01  7.93809E+00  1.74643E+01  6.20940E+00  1.21453E+01  1.15404E+01  3.63425E+00
   3.72471E+00  2.64290E+00  2.34852E+00  7.19163E+00  5.32273E+00  7.22893E-01  3.15240E+00 -5.87510E+00 -2.42686E+00 -1.84000E+00
  -6.69922E+00  6.41302E+00 -3.85415E+00 -7.56614E+00 -4.20412E+00 -3.93564E+00 -1.24657E+01  2.76136E+00 -8.32194E+00 -6.79497E+00
  -3.07640E+00 -4.84314E+00  1.96489E+00  4.69461E-02  3.22603E+00 -1.02220E+01 -1.08964E+00 -3.76533E+00 -1.83355E+00 -8.93723E-02
   3.24043E-01 -2.87955E+00 -6.21580E+00  1.49354E+00 -1.04983E+01 -4.43809E+00 -1.73897E+01 -4.18272E-01 -1.43128E+01 -1.62602E+00
  -6.32504E-01 -3.90821E+00 -5.20363E+00  6.43888E-01  2.09004E-01 -1.60897E-02 -4.76424E+00 -2.83260E+00  1.03230E+00 -4.72907E+00
   1.88162E+00 -3.78826E+00 -7.15978E+00  3.74005E+00 -4.15861E+00 -6.95151E+00  4.54025E+00 -4.89258E+00 -2.50252E+00  3.59489E+00
  -9.70411E+00 -3.49656E+00 -1.00280E+01 -4.80735E+00 -1.23847E+00 -4.65501E-01 -9.45933E-01 -8.79681E+00 -1.27522E+00 -4.91989E+00
  -6.44570E+00 -2.96403E+00 -6.83690E+00 -9.96166E+00 -3.69639E+00 -1.14126E+01 -2.83100E+00 -1.10184E-01 -7.91380E+00 -7.99042E+00
  -1.03654E+01 -1.37276E+01 -9.03152E+00 -7.44988E+00 -3.27487E+00 -7.24178E+00 -8.23227E+00 -8.13798E+00 -4.62490E+00  6.66385E-01
  -7.59062E-01 -2.54166E+00  1.20545E+00 -7.52376E+00  1.60404E+00 -7.22343E+00 -8.91570E+00 -5.92747E+00
 NY points of the fit to the data follow
  -6.73264E+00 -8.74971E+00 -9.15344E+00 -8.37110E+00 -7.87219E+00 -8.54228E+00 -9.65623E+00 -1.04060E+01 -1.04421E+01 -9.74956E+00
  -8.31301E+00 -6.53042E+00 -5.15846E+00 -4.64519E+00 -4.74046E+00 -4.86651E+00 -4.80625E+00 -4.72345E+00 -4.92612E+00 -5.24886E+00
  -5.42884E+00 -5.45853E+00 -5.37920E+00 -5.29723E+00 -5.18999E+00 -5.08347E+00 -4.94403E+00 -4.79038E+00 -4.58355E+00 -4.30828E+00
  -3.97110E+00 -3.82761E+00 -3.86636E+00 -3.89515E+00 -3.85344E+00 -3.77106E+00 -3.68780E+00 -3.65302E+00 -3.42925E+00 -2.67297E+00
  -1.65878E+00 -1.18795E+00 -1.51062E+00 -1.97454E+00 -1.77580E+00 -9.15955E-01  1.11099E-01  8.46435E-01  1.06443E+00  5.31030E-01
  -6.63823E-01 -1.86782E+00 -2.54437E+00 -2.73340E+00 -2.79791E+00 -3.03572E+00 -3.25170E+00 -3.16119E+00 -2.72031E+00 -2.11421E+00
  -1.62657E+00 -1.40390E+00 -1.53967E+00 -1.91145E+00 -2.19498E+00 -2.34491E+00 -2.39904E+00 -2.34243E+00 -2.13531E+00 -1.87744E+00
  -1.66991E+00 -1.53842E+00 -1.44077E+00 -1.38850E+00 -1.40353E+00 -1.51876E+00 -1.70965E+00 -1.92531E+00 -2.12190E+00 -2.44088E+00
  -2.93388E+00 -3.40805E+00 -3.61957E+00 -3.60325E+00 -3.53958E+00 -3.57939E+00 -3.71989E+00 -3.92393E+00 -4.03835E+00 -4.01259E+00
  -3.78386E+00 -3.27852E+00 -2.52036E+00 -1.30827E+00  1.94066E+00  8.82971E+00  1.43805E+01  1.59264E+01  1.54848E+01  1.63867E+01
   1.97761E+01  2.40803E+01  2.76695E+01  2.95450E+01  2.85974E+01  2.43088E+01  1.80329E+01  1.21202E+01  7.78925E+00  4.65088E+00
   1.82414E+00 -7.28307E-01 -2.41749E+00 -2.76350E+00 -2.49922E+00 -2.07640E+00 -1.48644E+00 -4.26779E-01  2.63012E+00  8.41739E+00
   1.26696E+01  1.37852E+01  1.36999E+01  1.49886E+01  1.81624E+01  2.18009E+01  2.46597E+01  2.59609E+01  2.48355E+01  2.09931E+01
   1.56833E+01  1.08103E+01  7.20167E+00  4.41886E+00  1.80539E+00 -5.66943E-01 -2.16791E+00 -2.73844E+00 -2.94232E+00 -3.09551E+00
  -3.23719E+00 -3.38073E+00 -3.53090E+00 -3.69425E+00 -3.86384E+00 -4.04644E+00 -4.27768E+00 -4.54910E+00 -4.76729E+00 -4.90901E+00
  -4.99471E+00 -5.07036E+00 -5.23159E+00 -5.46819E+00 -5.69111E+00 -5.83468E+00 -5.88439E+00 -5.88841E+00 -5.90113E+00 -5.96840E+00
  -6.10956E+00 -6.32380E+00 -6.58026E+00 -6.74467E+00 -6.75613E+00 -6.72895E+00 -6.76415E+00 -6.91260E+00 -7.09235E+00 -7.15086E+00
  -7.07979E+00 -6.94680E+00 -6.82045E+00 -6.75987E+00 -6.80616E+00 -6.93381E+00 -6.94975E+00 -6.81441E+00 -6.62636E+00 -6.49972E+00
  -6.44800E+00 -6.39348E+00 -6.26778E+00 -6.05122E+00 -5.72714E+00 -5.40844E+00 -5.22660E+00 -5.16706E+00 -5.14422E+00 -5.10228E+00
  -5.05036E+00 -5.00168E+00 -4.93906E+00 -4.94705E+00 -5.04477E+00 -5.18060E+00 -5.25606E+00 -5.22815E+00 -5.12737E+00 -5.00806E+00
  -4.91863E+00 -4.91262E+00 -4.91441E+00 -4.87515E+00 -4.80259E+00 -4.73318E+00 -4.68573E+00 -4.64892E+00 -4.59581E+00 -4.50033E+00
  -4.32349E+00 -4.05491E+00 -3.72162E+00 -3.37655E+00 -3.03858E+00 -2.68493E+00 -2.29139E+00 -1.88428E+00 -1.49757E+00 -1.13624E+00
  -7.90042E-01 -4.29639E-01 -5.74878E-02  2.70460E-01  6.04805E-01  9.71369E-01  1.34712E+00  1.74318E+00  2.13723E+00  2.47931E+00
   2.78795E+00  3.18779E+00  3.76314E+00  4.48037E+00  5.21185E+00  5.95998E+00  6.81142E+00  7.71936E+00  8.59609E+00  9.43858E+00
   1.03011E+01  1.11967E+01  1.21354E+01  1.31219E+01  1.41917E+01  1.53369E+01  1.65403E+01  1.83551E+01  2.20383E+01  2.54636E+01
   2.67322E+01  2.65200E+01  2.65842E+01  2.78008E+01  2.95428E+01  3.08897E+01  3.13182E+01  3.02758E+01  2.73929E+01  2.31810E+01
   1.88779E+01  1.53115E+01  1.24420E+01  9.83495E+00  7.39914E+00  5.36283E+00  4.03479E+00  3.10411E+00  2.27011E+00  1.45405E+00
   6.75128E-01 -2.13403E-02 -6.23421E-01 -1.18614E+00 -1.75676E+00 -2.32938E+00 -2.88520E+00 -3.43857E+00 -3.96911E+00 -4.45297E+00
  -4.87169E+00 -5.22846E+00 -5.54114E+00 -5.81852E+00 -6.02824E+00 -6.18473E+00 -6.32941E+00 -6.48779E+00 -6.64395E+00 -6.77587E+00
  -6.87922E+00 -6.97196E+00 -7.03916E+00 -7.07220E+00 -7.08762E+00 -7.11341E+00 -7.15270E+00 -7.19656E+00 -7.23347E+00 -7.26304E+00
  -7.28132E+00 -7.28393E+00 -7.26376E+00 -7.22948E+00 -7.18754E+00 -7.14057E+00 -7.08390E+00 -7.01679E+00 -6.93671E+00 -6.84469E+00
  -6.73339E+00 -6.59799E+00 -6.43104E+00 -6.22748E+00 -5.97862E+00 -5.67820E+00 -5.31611E+00 -4.88506E+00 -4.37498E+00 -3.77980E+00
  -3.09152E+00 -2.30682E+00 -1.42159E+00 -4.37849E-01  6.41603E-01  1.80685E+00  3.04663E+00  4.34220E+00  5.67350E+00  7.01351E+00
   8.33502E+00  9.60570E+00  1.07954E+01  1.18717E+01  1.28074E+01  1.35760E+01  1.41596E+01  1.45441E+01  1.47262E+01  1.47085E+01
   1.45055E+01  1.41379E+01  1.36374E+01  1.30399E+01  1.23891E+01  1.17282E+01  1.11020E+01  1.05470E+01  1.00935E+01  9.75559E+00
   9.53430E+00  9.41095E+00  9.35390E+00  9.31691E+00  9.25073E+00  9.10502E+00  8.84133E+00  8.43380E+00  7.87819E+00  7.18698E+00
   6.39195E+00  5.53354E+00  4.65958E+00  3.81346E+00  3.03432E+00  2.34858E+00  1.77435E+00  1.31695E+00  9.76388E-01  7.44856E-01
   6.14663E-01  5.75282E-01  6.19987E-01  7.41428E-01  9.36871E-01  1.20278E+00  1.53939E+00  1.94487E+00  2.41965E+00  2.96063E+00
   3.56561E+00  4.22779E+00  4.94052E+00  5.69204E+00  6.47047E+00  7.25897E+00  8.04099E+00  8.79594E+00  9.50473E+00  1.01457E+01
   1.07002E+01  1.11489E+01  1.14772E+01  1.16715E+01  1.17243E+01  1.16304E+01  1.13913E+01  1.10106E+01  1.04988E+01  9.86754E+00
   9.13410E+00  8.31562E+00  7.43293E+00  6.50501E+00  5.55281E+00  4.59386E+00  3.64625E+00  2.72352E+00  1.83900E+00  1.00109E+00
   2.17898E-01 -5.07193E-01 -1.17076E+00 -1.77358E+00 -2.31577E+00 -2.80091E+00 -3.23119E+00 -3.61164E+00 -3.94542E+00 -4.23804E+00
  -4.49273E+00 -4.71475E+00 -4.90685E+00 -5.07368E+00 -5.21739E+00 -5.34196E+00 -5.44886E+00 -5.54138E+00 -5.62035E+00 -5.68851E+00
  -5.74627E+00 -5.79594E+00 -5.83753E+00 -5.87300E+00 -5.90206E+00 -5.92646E+00 -5.94575E+00 -5.96150E+00 -5.97310E+00 -5.98195E+00
  -5.98733E+00 -5.99061E+00 -5.99102E+00 -5.98983E+00 -5.98618E+00 -5.98127E+00 -5.97423E+00 -5.96626E+00 -5.95648E+00 -5.94599E+00
  -5.93388E+00 -5.92124E+00 -5.90716E+00 -5.89275E+00 -5.87706E+00 -5.86113E+00 -5.84402E+00 -5.82677E+00 -5.80845E+00 -5.79010E+00
  -5.77078E+00 -5.75146E+00 -5.73121E+00 -5.71103E+00 -5.69001E+00 -5.66913E+00 -5.64745E+00 -5.62591E+00 -5.60360E+00 -5.58149E+00
  -5.55867E+00 -5.53609E+00 -5.51280E+00 -5.48975E+00 -5.46603E+00 -5.44259E+00 -5.41852E+00 -5.39474E+00 -5.37032E+00 -5.34619E+00
  -5.32146E+00 -5.29706E+00 -5.27207E+00 -5.24740E+00 -5.22213E+00 -5.19718E+00 -5.17168E+00 -5.14651E+00 -5.12079E+00 -5.09538E+00
  -5.06940E+00 -5.04376E+00 -5.01757E+00 -4.99172E+00 -4.96529E+00 -4.93916E+00 -4.91246E+00 -4.88607E+00
 NY background values follow
    -7.815E+00   -7.799E+00   -7.784E+00   -7.768E+00   -7.752E+00   -7.736E+00   -7.720E+00   -7.704E+00   -7.688E+00   -7.672E+00
    -7.657E+00   -7.641E+00   -7.625E+00   -7.609E+00   -7.593E+00   -7.577E+00   -7.562E+00   -7.546E+00   -7.530E+00   -7.515E+00
    -7.499E+00   -7.483E+00   -7.468E+00   -7.452E+00   -7.437E+00   -7.421E+00   -7.406E+00   -7.391E+00   -7.376E+00   -7.360E+00
    -7.345E+00   -7.330E+00   -7.315E+00   -7.300E+00   -7.285E+00   -7.271E+00   -7.256E+00   -7.241E+00   -7.227E+00   -7.212E+00
    -7.198E+00   -7.184E+00   -7.170E+00   -7.156E+00   -7.142E+00   -7.128E+00   -7.114E+00   -7.100E+00   -7.087E+00   -7.073E+00
    -7.060E+00   -7.047E+00   -7.034E+00   -7.021E+00   -7.008E+00   -6.995E+00   -6.983E+00   -6.971E+00   -6.958E+00   -6.946E+00
    -6.934E+00   -6.922E+00   -6.911E+00   -6.899E+00   -6.888E+00   -6.876E+00   -6.865E+00   -6.854E+00   -6.843E+00   -6.833E+00
    -6.822E+00   -6.812E+00   -6.802E+00   -6.792E+00   -6.782E+00   -6.773E+00   -6.763E+00   -6.754E+00   -6.745E+00   -6.736E+00
    -6.727E+00   -6.719E+00   -6.711E+00   -6.703E+00   -6.695E+00   -6.687E+00   -6.679E+00   -6.672E+00   -6.665E+00   -6.658E+00
    -6.652E+00   -6.645E+00   -6.639E+00   -6.633E+00   -6.627E+00   -6.622E+00   -6.616E+00   -6.611E+00   -6.606E+00   -6.602E+00
    -6.597E+00   -6.593E+00   -6.589E+00   -6.585E+00   -6.582E+00   -6.579E+00   -6.576E+00   -6.573E+00   -6.571E+00   -6.568E+00
    -6.566E+00   -6.564E+00   -6.563E+00   -6.562E+00   -6.561E+00   -6.560E+00   -6.559E+00   -6.559E+00   -6.559E+00   -6.559E+00
    -6.560E+00   -6.561E+00   -6.562E+00   -6.563E+00   -6.565E+00   -6.567E+00   -6.569E+00   -6.571E+00   -6.574E+00   -6.577E+00
    -6.580E+00   -6.584E+00   -6.588E+00   -6.592E+00   -6.596E+00   -6.601E+00   -6.606E+00   -6.611E+00   -6.617E+00   -6.622E+00
    -6.628E+00   -6.635E+00   -6.641E+00   -6.648E+00   -6.655E+00   -6.663E+00   -6.671E+00   -6.679E+00   -6.687E+00   -6.695E+00
    -6.704E+00   -6.713E+00   -6.722E+00   -6.731E+00   -6.741E+00   -6.751E+00   -6.761E+00   -6.771E+00   -6.781E+00   -6.792E+00
    -6.803E+00   -6.814E+00   -6.825E+00   -6.837E+00   -6.849E+00   -6.861E+00   -6.873E+00   -6.885E+00   -6.897E+00   -6.910E+00
    -6.923E+00   -6.935E+00   -6.949E+00   -6.962E+00   -6.975E+00   -6.989E+00   -7.003E+00   -7.016E+00   -7.030E+00   -7.045E+00
    -7.059E+00   -7.073E+00   -7.088E+00   -7.102E+00   -7.117E+00   -7.132E+00   -7.147E+00   -7.162E+00   -7.177E+00   -7.193E+00
    -7.208E+00   -7.224E+00   -7.239E+00   -7.255E+00   -7.271E+00   -7.286E+00   -7.302E+00   -7.318E+00   -7.334E+00   -7.350E+00
    -7.367E+00   -7.383E+00   -7.399E+00   -7.415E+00   -7.432E+00   -7.448E+00   -7.464E+00   -7.481E+00   -7.497E+00   -7.514E+00
    -7.530E+00   -7.546E+00   -7.563E+00   -7.579E+00   -7.596E+00   -7.612E+00   -7.629E+00   -7.645E+00   -7.662E+00   -7.678E+00
    -7.694E+00   -7.711E+00   -7.727E+00   -7.743E+00   -7.759E+00   -7.776E+00   -7.792E+00   -7.808E+00   -7.824E+00   -7.840E+00
    -7.855E+00   -7.871E+00   -7.887E+00   -7.902E+00   -7.918E+00   -7.933E+00   -7.949E+00   -7.964E+00   -7.979E+00   -7.994E+00
    -8.009E+00   -8.024E+00   -8.038E+00   -8.053E+00   -8.067E+00   -8.081E+00   -8.096E+00   -8.109E+00   -8.123E+00   -8.137E+00
    -8.150E+00   -8.164E+00   -8.177E+00   -8.190E+00   -8.203E+00   -8.215E+00   -8.228E+00   -8.240E+00   -8.252E+00   -8.264E+00
    -8.275E+00   -8.287E+00   -8.298E+00   -8.309E+00   -8.320E+00   -8.330E+00   -8.340E+00   -8.350E+00   -8.360E+00   -8.370E+00
    -8.379E+00   -8.388E+00   -8.397E+00   -8.406E+00   -8.414E+00   -8.422E+00   -8.429E+00   -8.437E+00   -8.444E+00   -8.451E+00
    -8.458E+00   -8.464E+00   -8.470E+00   -8.476E+00   -8.481E+00   -8.487E+00   -8.492E+00   -8.496E+00   -8.501E+00   -8.505E+00
    -8.509E+00   -8.512E+00   -8.515E+00   -8.518E+00   -8.521E+00   -8.523E+00   -8.525E+00   -8.527E+00   -8.528E+00   -8.529E+00
    -8.530E+00   -8.530E+00   -8.531E+00   -8.530E+00   -8.530E+00   -8.529E+00   -8.528E+00   -8.526E+00   -8.525E+00   -8.523E+00
    -8.520E+00   -8.517E+00   -8.514E+00   -8.511E+00   -8.507E+00   -8.503E+00   -8.498E+00   -8.494E+00   -8.488E+00   -8.483E+00
    -8.477E+00   -8.471E+00   -8.465E+00   -8.458E+00   -8.451E+00   -8.443E+00   -8.436E+00   -8.428E+00   -8.419E+00   -8.411E+00
    -8.402E+00   -8.392E+00   -8.383E+00   -8.373E+00   -8.363E+00   -8.353E+00   -8.342E+00   -8.331E+00   -8.320E+00   -8.308E+00
    -8.296E+00   -8.284E+00   -8.272E+00   -8.259E+00   -8.247E+00   -8.234E+00   -8.220E+00   -8.207E+00   -8.193E+00   -8.179E+00
    -8.165E+00   -8.150E+00   -8.135E+00   -8.120E+00   -8.105E+00   -8.090E+00   -8.074E+00   -8.058E+00   -8.042E+00   -8.026E+00
    -8.010E+00   -7.993E+00   -7.976E+00   -7.959E+00   -7.942E+00   -7.925E+00   -7.907E+00   -7.889E+00   -7.871E+00   -7.853E+00
    -7.835E+00   -7.816E+00   -7.798E+00   -7.779E+00   -7.760E+00   -7.740E+00   -7.721E+00   -7.702E+00   -7.682E+00   -7.662E+00
    -7.642E+00   -7.622E+00   -7.601E+00   -7.581E+00   -7.560E+00   -7.539E+00   -7.518E+00   -7.497E+00   -7.476E+00   -7.455E+00
    -7.433E+00   -7.411E+00   -7.390E+00   -7.368E+00   -7.346E+00   -7.323E+00   -7.301E+00   -7.279E+00   -7.256E+00   -7.233E+00
    -7.210E+00   -7.187E+00   -7.164E+00   -7.141E+00   -7.118E+00   -7.094E+00   -7.071E+00   -7.047E+00   -7.023E+00   -6.999E+00
    -6.975E+00   -6.951E+00   -6.927E+00   -6.903E+00   -6.879E+00   -6.854E+00   -6.830E+00   -6.805E+00   -6.780E+00   -6.755E+00
    -6.731E+00   -6.706E+00   -6.681E+00   -6.656E+00   -6.630E+00   -6.605E+00   -6.580E+00   -6.555E+00   -6.529E+00   -6.504E+00
    -6.478E+00   -6.453E+00   -6.427E+00   -6.401E+00   -6.376E+00   -6.350E+00   -6.324E+00   -6.299E+00   -6.273E+00   -6.247E+00
    -6.221E+00   -6.195E+00   -6.169E+00   -6.143E+00   -6.117E+00   -6.091E+00   -6.065E+00   -6.039E+00   -6.013E+00   -5.987E+00
    -5.962E+00   -5.936E+00   -5.910E+00   -5.884E+00   -5.858E+00   -5.832E+00   -5.806E+00   -5.780E+00   -5.754E+00   -5.728E+00
    -5.702E+00   -5.676E+00   -5.650E+00   -5.624E+00   -5.598E+00   -5.572E+00   -5.546E+00   -5.521E+00   -5.495E+00   -5.469E+00
    -5.443E+00   -5.417E+00   -5.391E+00   -5.365E+00   -5.339E+00   -5.313E+00   -5.287E+00   -5.262E+00   -5.236E+00   -5.210E+00
    -5.184E+00   -5.158E+00   -5.132E+00   -5.106E+00   -5.080E+00   -5.055E+00   -5.029E+00   -5.003E+00   -4.977E+00   -4.951E+00
    -4.925E+00   -4.899E+00   -4.873E+00   -4.847E+00   -4.821E+00   -4.796E+00   -4.770E+00   -4.744E+00
 Asp      Conc. = 9.12E+00
