 LCModel (Version 6.3-1L) Copyright: S.W. Provencher.          Ref.: Magn. Reson. Med. 30:672-679 (1993).                
 Slice#1 Row#8 Col#10  PD_24_press_2_raw_act
 36 lines in following concentration table = NCONC+1
    Conc.  %SD /Cr+PCr  Metabolite                                         
  498.276  40%   0.332 Ala                                                 
    0.000 999%   0.000 Asp                                                 
  527.636  60%   0.352 Cr                                                  
  972.518  33%   0.648 PCr                                                 
    0.000 999%   0.000 GABA                                                
   88.670 219% 5.9E-02 Glc                                                 
 1.35E+03  28%   0.897 Gln                                                 
 1.84E+03  23%   1.223 Glu                                                 
  504.365   6%   0.336 GPC                                                 
    0.000 999%   0.000 PCh                                                 
  517.012  20%   0.345 GSH                                                 
 1.98E+03  16%   1.320 Ins                                                 
  136.253 151% 9.1E-02 Lac                                                 
 3.26E+03   3%   2.176 NAA                                                 
    0.000 999%   0.000 NAAG                                                
  237.578  14%   0.158 Scyllo                                              
  489.723  51%   0.326 Tau                                                 
  674.684  20%   0.450 -CrCH2                                              
  504.365   6%   0.336 GPC+PCh                                             
 3.26E+03   3%   2.176 NAA+NAAG                                            
 1.50E+03   5%   1.000 Cr+PCr                                              
 3.18E+03  21%   2.121 Glu+Gln                                             
 1.29E+03  52%   0.857 Lip13a                                              
    0.000 999%   0.000 Lip13b                                              
   61.350 458% 4.1E-02 Lip09                                               
 2.02E+03  16%   1.344 MM09                                                
  203.736  89%   0.136 Lip20                                               
 3.87E+03  11%   2.580 MM20                                                
  797.696  30%   0.532 MM12                                                
 3.84E+03  15%   2.562 MM14                                                
 1.84E+03  11%   1.228 MM17                                                
 1.29E+03  52%   0.857 Lip13a+Lip13b                                       
 5.93E+03   7%   3.951 MM14+Lip13a+Lip13b+MM12                             
 2.08E+03  10%   1.385 MM09+Lip09                                          
 4.07E+03  10%   2.716 MM20+Lip20                                          
   6 lines in following misc. output table
  FWHM = 0.069 ppm    S/N =  13                                            
  Data shift =-0.015 ppm                                                   
  Ph: -30 deg      -8.2 deg/ppm                                            
  alphaB,S = 2.1E+01,   7.6E+01                                            
   14 spline knots.   Ns = 9(1)                                            
  ( 7) 3 infls.   ( 1) 1 extrs.                                            
  498 points on ppm-axis = NY
      4.000000     3.992357     3.984714     3.977070     3.969427     3.961784     3.954141     3.946497     3.938854     3.931211
      3.923568     3.915925     3.908281     3.900638     3.892995     3.885352     3.877708     3.870065     3.862422     3.854779
      3.847136     3.839492     3.831849     3.824206     3.816563     3.808919     3.801276     3.793633     3.785990     3.778347
      3.770703     3.763060     3.755417     3.747774     3.740130     3.732487     3.724844     3.717201     3.709558     3.701914
      3.694271     3.686628     3.678985     3.671341     3.663698     3.656055     3.648412     3.640769     3.633125     3.625482
      3.617839     3.610196     3.602552     3.594909     3.587266     3.579623     3.571980     3.564336     3.556693     3.549050
      3.541407     3.533763     3.526120     3.518477     3.510834     3.503191     3.495547     3.487904     3.480261     3.472618
      3.464974     3.457331     3.449688     3.442045     3.434402     3.426758     3.419115     3.411472     3.403829     3.396185
      3.388542     3.380899     3.373256     3.365613     3.357969     3.350326     3.342683     3.335040     3.327396     3.319753
      3.312110     3.304467     3.296824     3.289180     3.281537     3.273894     3.266251     3.258607     3.250964     3.243321
      3.235678     3.228034     3.220391     3.212748     3.205105     3.197462     3.189818     3.182175     3.174532     3.166889
      3.159245     3.151602     3.143959     3.136316     3.128673     3.121029     3.113386     3.105743     3.098100     3.090456
      3.082813     3.075170     3.067527     3.059884     3.052240     3.044597     3.036954     3.029311     3.021667     3.014024
      3.006381     2.998738     2.991095     2.983451     2.975808     2.968165     2.960522     2.952878     2.945235     2.937592
      2.929949     2.922306     2.914662     2.907019     2.899376     2.891733     2.884089     2.876446     2.868803     2.861160
      2.853517     2.845873     2.838230     2.830587     2.822944     2.815300     2.807657     2.800014     2.792371     2.784728
      2.777084     2.769441     2.761798     2.754155     2.746511     2.738868     2.731225     2.723582     2.715939     2.708295
      2.700652     2.693009     2.685366     2.677722     2.670079     2.662436     2.654793     2.647150     2.639506     2.631863
      2.624220     2.616577     2.608933     2.601290     2.593647     2.586004     2.578361     2.570717     2.563074     2.555431
      2.547788     2.540144     2.532501     2.524858     2.517215     2.509572     2.501928     2.494285     2.486642     2.478999
      2.471355     2.463712     2.456069     2.448426     2.440783     2.433139     2.425496     2.417853     2.410210     2.402566
      2.394923     2.387280     2.379637     2.371994     2.364350     2.356707     2.349064     2.341421     2.333777     2.326134
      2.318491     2.310848     2.303205     2.295561     2.287918     2.280275     2.272632     2.264988     2.257345     2.249702
      2.242059     2.234416     2.226772     2.219129     2.211486     2.203843     2.196199     2.188556     2.180913     2.173270
      2.165627     2.157983     2.150340     2.142697     2.135054     2.127410     2.119767     2.112124     2.104481     2.096838
      2.089194     2.081551     2.073908     2.066265     2.058621     2.050978     2.043335     2.035692     2.028049     2.020405
      2.012762     2.005119     1.997476     1.989833     1.982190     1.974546     1.966903     1.959260     1.951617     1.943974
      1.936331     1.928688     1.921045     1.913402     1.905759     1.898115     1.890472     1.882829     1.875186     1.867543
      1.859900     1.852257     1.844614     1.836971     1.829327     1.821684     1.814041     1.806398     1.798755     1.791112
      1.783469     1.775826     1.768183     1.760540     1.752896     1.745253     1.737610     1.729967     1.722324     1.714681
      1.707038     1.699395     1.691752     1.684108     1.676465     1.668822     1.661179     1.653536     1.645893     1.638250
      1.630607     1.622964     1.615321     1.607677     1.600034     1.592391     1.584748     1.577105     1.569462     1.561819
      1.554176     1.546533     1.538890     1.531246     1.523603     1.515960     1.508317     1.500674     1.493031     1.485388
      1.477745     1.470102     1.462458     1.454815     1.447172     1.439529     1.431886     1.424243     1.416600     1.408957
      1.401314     1.393671     1.386027     1.378384     1.370741     1.363098     1.355455     1.347812     1.340169     1.332526
      1.324883     1.317240     1.309596     1.301953     1.294310     1.286667     1.279024     1.271381     1.263738     1.256095
      1.248452     1.240808     1.233165     1.225522     1.217879     1.210236     1.202593     1.194950     1.187307     1.179664
      1.172021     1.164377     1.156734     1.149091     1.141448     1.133805     1.126162     1.118519     1.110876     1.103233
      1.095590     1.087946     1.080303     1.072660     1.065017     1.057374     1.049731     1.042088     1.034445     1.026802
      1.019158     1.011515     1.003872     0.996229     0.988586     0.980943     0.973300     0.965657     0.958014     0.950371
      0.942727     0.935084     0.927441     0.919798     0.912155     0.904512     0.896869     0.889226     0.881583     0.873940
      0.866296     0.858653     0.851010     0.843367     0.835724     0.828081     0.820438     0.812795     0.805152     0.797508
      0.789865     0.782222     0.774579     0.766936     0.759293     0.751650     0.744007     0.736364     0.728721     0.721077
      0.713434     0.705791     0.698148     0.690505     0.682862     0.675219     0.667576     0.659933     0.652290     0.644646
      0.637003     0.629360     0.621717     0.614074     0.606431     0.598788     0.591145     0.583502     0.575858     0.568215
      0.560572     0.552929     0.545286     0.537643     0.530000     0.522357     0.514714     0.507071     0.499427     0.491784
      0.484141     0.476498     0.468855     0.461212     0.453569     0.445925     0.438282     0.430639     0.422996     0.415353
      0.407710     0.400067     0.392424     0.384780     0.377137     0.369494     0.361851     0.354208     0.346565     0.338922
      0.331278     0.323635     0.315992     0.308349     0.300706     0.293063     0.285420     0.277777     0.270133     0.262490
      0.254847     0.247204     0.239561     0.231918     0.224275     0.216631     0.208988     0.201345
 NY phased data points follow
   8.88747E+00  1.29431E+01  1.04717E+01  1.27643E+01  1.00099E+01  1.79110E+01  1.91118E+01  1.51063E+01  1.65068E+01  1.87888E+01
   1.44458E+01  1.89647E+01  1.79932E+01  2.17860E+01  1.96886E+01  1.66884E+01  1.63692E+01  1.61765E+01  8.75042E+00  1.12413E+01
   1.23948E+01  9.49376E+00  3.24569E+00  7.66370E+00  1.60758E+01  1.26114E+01  1.35908E+01  1.40021E+01  1.31462E+01  1.41129E+01
   1.15677E+01  1.80987E+01  1.50143E+01  1.22581E+01  1.64395E+01  1.28894E+01  1.21528E+01  1.65961E+01  1.41276E+01  1.12735E+01
   9.17541E+00  1.38775E+01  1.18001E+01  1.42864E+01  1.50861E+01  1.61587E+01  1.65237E+01  1.55534E+01  1.41973E+01  1.65811E+01
   1.72756E+01  1.55885E+01  1.82454E+01  1.82097E+01  1.09320E+01  1.49337E+01  1.52771E+01  1.42046E+01  8.33844E+00  9.92096E+00
   6.14545E+00  1.11433E+01  6.27841E+00  1.09061E+01  7.06225E+00  5.25477E+00  5.45279E+00  6.80809E+00  6.56516E+00  1.22237E+01
   8.34425E+00  8.52122E+00  7.79954E+00  5.47242E+00  1.03961E+01  7.47159E+00  7.25990E+00  9.25637E+00  9.10577E+00  8.95497E+00
   6.07804E+00  1.30151E+01  1.20904E+01  1.04702E+01  9.93222E+00  1.62986E+01  1.11689E+01  1.40109E+01  1.71453E+01  1.36988E+01
   1.15407E+01  1.16763E+01  1.41313E+01  7.80850E+00  1.69740E+01  1.50037E+01  1.29280E+01  2.28954E+01  1.90334E+01  2.38662E+01
   2.29937E+01  3.38033E+01  3.82548E+01  3.95483E+01  3.89771E+01  3.58524E+01  3.47760E+01  3.14595E+01  2.58229E+01  2.46418E+01
   1.45790E+01  1.28800E+01  1.05492E+01  1.05820E+01  1.06516E+01  1.00692E+01  9.65961E+00  8.65294E+00  1.19576E+01  1.35375E+01
   1.31101E+01  1.65073E+01  2.34207E+01  2.62970E+01  3.02406E+01  3.72544E+01  4.13296E+01  4.27461E+01  4.53738E+01  4.37406E+01
   4.25900E+01  3.25802E+01  2.68648E+01  2.29221E+01  1.27085E+01  1.20599E+01  6.59239E+00  1.12696E+01  1.19736E+01  1.08898E+01
   6.38220E+00  9.28893E+00  3.69984E+00  8.61188E+00  2.54433E+00  6.02870E+00  6.67039E+00  3.71504E+00  2.51810E+00  4.10607E+00
   9.27848E+00  7.43244E+00  5.43404E+00  4.74249E+00  5.07740E+00  5.84538E+00  7.69335E+00  6.00893E+00  6.88961E+00  3.68841E+00
   4.99215E+00  6.49180E+00  1.91452E+00  1.56252E+00  3.38874E+00  1.29160E+00 -1.01981E+00 -5.51051E+00 -9.71750E-01 -7.62363E+00
  -3.62942E+00 -9.18311E+00 -7.91066E+00 -1.27418E+01 -1.25679E+01 -1.21084E+01 -9.69737E+00 -1.09301E+01 -1.04747E+01 -9.12643E+00
  -1.06253E+01 -6.70889E+00 -5.65960E+00 -3.41622E+00 -4.22363E+00 -1.71772E+00  1.44982E+00 -1.39019E+00 -5.24042E+00  1.71558E+00
   2.68067E+00 -2.08304E+00 -1.76666E+00  2.66279E+00 -2.02951E+00 -5.63856E+00 -5.75511E+00 -6.42786E+00 -2.53353E+00 -4.45432E+00
   1.95787E+00 -5.62369E+00 -9.55791E-01  4.28766E+00  6.36288E+00  9.54591E+00  4.51751E+00  1.88043E+00  3.12774E+00  3.17403E+00
   3.06907E+00  7.14308E+00  9.27231E+00  1.15977E+01  1.61736E+01  1.56949E+01  1.29806E+01  1.18763E+01  7.85225E+00  9.41067E+00
   8.19184E+00  4.87320E+00  2.25056E+00  4.30481E+00  6.64585E+00  7.42754E+00  9.02916E+00  6.21685E+00  9.76967E+00  1.11409E+01
   1.32989E+01  1.60673E+01  1.05880E+01  1.63473E+01  1.13319E+01  1.46211E+01  1.07646E+01  8.97143E+00  1.58157E+01  1.38177E+01
   7.57950E+00  9.78919E+00  1.41535E+01  1.46688E+01  1.38955E+01  9.54194E+00  1.37127E+01  1.08680E+01  1.62513E+01  1.76334E+01
   2.05143E+01  3.03362E+01  3.01220E+01  3.43942E+01  4.15424E+01  5.33633E+01  6.64662E+01  7.68876E+01  8.97252E+01  9.69263E+01
   1.02022E+02  9.50781E+01  9.80841E+01  8.02114E+01  6.69909E+01  5.45003E+01  3.28224E+01  2.30342E+01  1.07711E+01  1.52193E+01
   1.32461E+01  1.65299E+01  1.65930E+01  1.04194E+01  9.05322E+00  9.54530E+00  8.82635E+00  6.97200E+00  1.01609E+01  8.31761E+00
   2.00031E+00  3.61465E+00  6.65073E+00  4.20750E+00  2.20299E-01  3.21154E+00  1.71521E+00  1.48665E+00  6.38333E+00 -7.41884E-01
   5.89167E-01  4.29542E+00  1.02017E+00  3.20838E+00  2.17967E+00  5.23457E+00  5.45147E+00  7.55905E+00  1.26474E+01  9.31550E+00
   1.40945E+01  8.23149E+00  1.20601E+01  1.00964E+01  8.50956E+00  1.49617E+01  1.69326E+01  2.05129E+01  1.97375E+01  1.84287E+01
   2.00123E+01  1.98345E+01  2.22753E+01  2.23825E+01  1.91430E+01  2.11544E+01  2.14553E+01  2.48061E+01  2.16932E+01  2.01739E+01
   2.32304E+01  1.91434E+01  2.45842E+01  2.18962E+01  2.32872E+01  2.14676E+01  1.99539E+01  1.76917E+01  2.31567E+01  2.29424E+01
   2.09732E+01  2.13382E+01  2.50049E+01  2.37545E+01  2.56760E+01  2.42964E+01  2.64380E+01  2.82074E+01  3.61253E+01  2.76454E+01
   2.85508E+01  2.83592E+01  2.51941E+01  2.94353E+01  2.78545E+01  2.30841E+01  2.64650E+01  2.08410E+01  2.02985E+01  1.86536E+01
   1.90513E+01  1.61375E+01  1.58639E+01  1.55602E+01  1.21804E+01  1.11843E+01  1.07935E+01  1.22859E+01  1.17203E+01  1.12127E+01
   1.36692E+01  8.71478E+00  1.36497E+01  1.47106E+01  5.62376E+00  1.17494E+01  1.21836E+01  1.40960E+01  9.54874E+00  8.14151E+00
   1.60140E+01  1.03740E+01  1.37078E+01  1.08218E+01  7.54179E+00  9.01512E+00  7.57224E+00  5.47814E+00  7.87451E+00  5.80883E+00
   4.30258E+00  6.07702E+00  6.68720E+00  3.65356E+00  8.96435E+00  2.99211E+00  6.82924E+00  1.85480E+00  3.28910E+00  8.60866E+00
   2.65162E+00  4.05657E+00  8.39360E+00  9.51360E+00  1.24578E+01  1.11719E+01  1.53696E+01  1.13849E+01  1.13609E+01  1.45046E+01
   1.46789E+01  1.34455E+01  1.80672E+01  1.75913E+01  1.43784E+01  1.94733E+01  1.43392E+01  1.55055E+01  2.26785E+01  1.61276E+01
   9.77539E+00  1.30202E+01  1.63324E+01  1.00839E+01  9.28331E+00  9.08759E+00  1.11604E+01  3.05778E+00  1.05296E+01  7.11828E+00
   6.08679E+00  5.11004E+00  4.25572E+00  3.45604E+00  4.03991E+00  2.86739E+00  2.15528E+00  3.80401E+00  8.76043E-01 -2.39267E+00
   1.21022E-01 -1.18538E+00  1.82459E+00 -5.71272E-01 -1.86189E+00  4.58732E-01  2.14461E+00 -2.27985E+00 -8.88722E-02 -2.41976E-01
  -6.88276E-01  3.81387E-01 -9.96195E-01 -1.41409E+00  9.72507E-01  1.25405E+00 -2.48240E+00 -9.00008E-01  1.70900E+00 -8.98866E-01
  -8.69953E-02  1.17309E+00  1.85438E+00 -2.51592E+00 -7.07493E-01 -5.10750E+00 -1.19197E+00 -4.53140E-01  2.48212E+00 -3.15581E+00
  -1.99798E+00 -1.38760E+00  3.28381E+00 -4.08906E+00 -6.21313E-01 -4.55096E+00 -4.44461E+00  1.43661E+00  2.21661E+00 -6.46458E-01
  -4.29742E-01 -1.37003E+00  7.06097E-02 -3.04416E+00 -1.94588E+00 -2.02982E+00 -1.59735E+00 -2.53264E+00  5.78129E-02  3.36169E+00
  -1.74461E+00  1.06560E+00 -5.20254E+00  7.02690E-01 -2.17380E+00  8.73379E-01 -2.61775E-01  3.51609E+00  5.22054E+00  2.65057E+00
   1.25732E+00  6.49991E+00 -1.20887E+00  1.19177E+00 -1.84270E+00  1.21033E+00  1.85157E+00  1.39470E+00
 NY points of the fit to the data follow
   9.92613E+00  9.33315E+00  9.40828E+00  1.01976E+01  1.11916E+01  1.25262E+01  1.42259E+01  1.60421E+01  1.77649E+01  1.92405E+01
   2.03302E+01  2.07346E+01  2.03889E+01  1.95791E+01  1.82227E+01  1.64479E+01  1.48542E+01  1.33543E+01  1.17291E+01  1.03070E+01
   9.95321E+00  1.02216E+01  1.01128E+01  1.02233E+01  1.06229E+01  1.12033E+01  1.19629E+01  1.29441E+01  1.41716E+01  1.54692E+01
   1.66993E+01  1.76786E+01  1.80676E+01  1.77785E+01  1.69892E+01  1.54311E+01  1.33075E+01  1.13662E+01  1.02689E+01  9.85752E+00
   9.72530E+00  1.01609E+01  1.10801E+01  1.23932E+01  1.38686E+01  1.53362E+01  1.66019E+01  1.74216E+01  1.76487E+01  1.71512E+01
   1.60650E+01  1.46504E+01  1.29344E+01  1.10485E+01  9.28280E+00  8.14547E+00  7.88909E+00  8.23658E+00  8.76170E+00  9.26308E+00
   9.69910E+00  9.93953E+00  9.86887E+00  9.65484E+00  9.35833E+00  8.90443E+00  8.49436E+00  8.31976E+00  8.35881E+00  8.61372E+00
   9.03310E+00  9.49333E+00  9.83500E+00  1.00880E+01  1.02045E+01  1.00567E+01  9.73265E+00  9.49321E+00  9.66271E+00  9.65450E+00
   9.48856E+00  9.74682E+00  1.03660E+01  1.12777E+01  1.24265E+01  1.34584E+01  1.40214E+01  1.40762E+01  1.37136E+01  1.29328E+01
   1.17655E+01  1.03361E+01  8.89754E+00  7.94039E+00  8.98909E+00  1.12873E+01  1.32589E+01  1.56602E+01  1.91733E+01  2.36718E+01
   2.86957E+01  3.36932E+01  3.76311E+01  3.98311E+01  4.03549E+01  3.92440E+01  3.61588E+01  3.14428E+01  2.58621E+01  1.95943E+01
   1.39052E+01  1.03392E+01  8.75251E+00  7.43751E+00  6.23763E+00  5.82634E+00  5.83591E+00  6.72721E+00  9.24285E+00  1.18307E+01
   1.40906E+01  1.72728E+01  2.16445E+01  2.68440E+01  3.25476E+01  3.79608E+01  4.19501E+01  4.40475E+01  4.43433E+01  4.27287E+01
   3.89848E+01  3.36561E+01  2.73786E+01  2.05877E+01  1.47778E+01  1.12713E+01  9.45739E+00  7.81596E+00  6.69761E+00  6.32104E+00
   6.30179E+00  6.49142E+00  6.72050E+00  6.80197E+00  6.68718E+00  6.41503E+00  6.01511E+00  5.56596E+00  5.14801E+00  4.78421E+00
   4.51091E+00  4.17849E+00  3.75998E+00  3.47867E+00  3.26461E+00  3.08689E+00  2.90652E+00  2.54198E+00  2.15568E+00  1.84939E+00
   1.63961E+00  1.49702E+00  1.36833E+00  1.22447E+00  1.05666E+00  8.19523E-01  4.95368E-01  1.75591E-03 -5.33840E-01 -1.15289E+00
  -1.90226E+00 -2.63219E+00 -3.27018E+00 -3.60402E+00 -3.81735E+00 -4.00557E+00 -4.08688E+00 -4.18351E+00 -4.27296E+00 -4.05796E+00
  -3.73181E+00 -3.39829E+00 -3.02437E+00 -2.67339E+00 -2.31811E+00 -1.76028E+00 -7.52750E-01  4.18865E-01  1.45669E+00  2.27440E+00
   3.07839E+00  3.74836E+00  4.14648E+00  4.25818E+00  4.10969E+00  3.80839E+00  3.67513E+00  3.93784E+00  4.43994E+00  5.25737E+00
   6.16640E+00  6.82279E+00  7.47492E+00  7.73247E+00  7.20015E+00  6.10647E+00  4.55010E+00  2.92481E+00  1.26989E+00 -5.68745E-02
  -4.85271E-01  2.10920E-02  1.37475E+00  3.22669E+00  5.18358E+00  7.04240E+00  8.38159E+00  8.56476E+00  7.66175E+00  6.10017E+00
   4.43349E+00  2.79438E+00  1.61854E+00  1.47000E+00  2.38925E+00  4.05225E+00  5.77645E+00  7.48533E+00  9.26255E+00  1.06017E+01
   1.11334E+01  1.11456E+01  1.11791E+01  1.12028E+01  1.11785E+01  1.14643E+01  1.20287E+01  1.25542E+01  1.29626E+01  1.32146E+01
   1.31419E+01  1.29668E+01  1.28713E+01  1.27255E+01  1.26297E+01  1.28829E+01  1.35758E+01  1.43792E+01  1.53997E+01  1.67855E+01
   1.99192E+01  2.74246E+01  3.32920E+01  3.80824E+01  4.53463E+01  5.50089E+01  6.60157E+01  7.77633E+01  8.86045E+01  9.58718E+01
   9.86164E+01  9.75107E+01  9.23345E+01  8.20367E+01  6.88828E+01  5.41035E+01  3.83335E+01  2.57752E+01  1.93351E+01  1.65224E+01
   1.27037E+01  1.03826E+01  9.50572E+00  8.93662E+00  8.45071E+00  8.04590E+00  7.69671E+00  7.32909E+00  6.95170E+00  6.55309E+00
   6.13715E+00  5.73933E+00  5.39563E+00  5.09974E+00  4.84417E+00  4.63350E+00  4.47303E+00  4.35948E+00  4.28593E+00  4.25086E+00
   4.26837E+00  4.35121E+00  4.50426E+00  4.73760E+00  5.06361E+00  5.48953E+00  6.02145E+00  6.66408E+00  7.42221E+00  8.29249E+00
   9.26732E+00  1.03342E+01  1.14765E+01  1.26695E+01  1.38864E+01  1.50948E+01  1.62614E+01  1.73520E+01  1.83368E+01  1.91891E+01
   1.98907E+01  2.04307E+01  2.08097E+01  2.10373E+01  2.11377E+01  2.11463E+01  2.11174E+01  2.11417E+01  2.13260E+01  2.13847E+01
   2.13183E+01  2.14522E+01  2.17333E+01  2.20066E+01  2.21807E+01  2.21481E+01  2.20643E+01  2.19995E+01  2.17246E+01  2.13935E+01
   2.11821E+01  2.12752E+01  2.18080E+01  2.27945E+01  2.42613E+01  2.60320E+01  2.77114E+01  2.89688E+01  2.98206E+01  3.01764E+01
   2.99256E+01  2.91299E+01  2.78843E+01  2.65070E+01  2.52482E+01  2.39483E+01  2.25470E+01  2.11901E+01  1.98265E+01  1.85112E+01
   1.72933E+01  1.62219E+01  1.53577E+01  1.47070E+01  1.42709E+01  1.40243E+01  1.38736E+01  1.37033E+01  1.34734E+01  1.32025E+01
   1.28588E+01  1.24162E+01  1.19038E+01  1.14115E+01  1.09886E+01  1.05722E+01  1.01449E+01  9.73816E+00  9.34214E+00  8.95119E+00
   8.56615E+00  8.18857E+00  7.82235E+00  7.47071E+00  7.13872E+00  6.83046E+00  6.55143E+00  6.30566E+00  6.09827E+00  5.93295E+00
   5.81471E+00  5.74721E+00  5.73521E+00  5.78186E+00  5.89130E+00  6.06610E+00  6.30979E+00  6.62393E+00  7.01033E+00  7.46815E+00
   7.99625E+00  8.59035E+00  9.24540E+00  9.95251E+00  1.07013E+01  1.14776E+01  1.22657E+01  1.30468E+01  1.38017E+01  1.45089E+01
   1.51479E+01  1.56975E+01  1.61399E+01  1.64587E+01  1.66423E+01  1.66819E+01  1.65746E+01  1.63213E+01  1.59289E+01  1.54074E+01
   1.47719E+01  1.40393E+01  1.32294E+01  1.23624E+01  1.14594E+01  1.05400E+01  9.62282E+00  8.72351E+00  7.85614E+00  7.03096E+00
   6.25667E+00  5.53804E+00  4.87854E+00  4.27820E+00  3.73663E+00  3.25089E+00  2.81831E+00  2.43429E+00  2.09496E+00  1.79515E+00
   1.53105E+00  1.29792E+00  1.09248E+00  9.10555E-01  7.49467E-01  6.05759E-01  4.77626E-01  3.62431E-01  2.58973E-01  1.65044E-01
   7.98441E-02  1.66021E-03 -6.97955E-02 -1.35860E-01 -1.96646E-01 -2.53406E-01 -3.06099E-01 -3.55705E-01 -4.01931E-01 -4.45654E-01
  -4.86616E-01 -5.25711E-01 -5.62578E-01 -5.97924E-01 -6.31266E-01 -6.63331E-01 -6.93740E-01 -7.23236E-01 -7.51323E-01 -7.78594E-01
  -8.04522E-01 -8.29793E-01 -8.53969E-01 -8.77703E-01 -9.00430E-01 -9.22700E-01 -9.43984E-01 -9.64956E-01 -9.85142E-01 -1.00513E+00
  -1.02432E+00 -1.04325E+00 -1.06143E+00 -1.07949E+00 -1.09694E+00 -1.11430E+00 -1.13098E+00 -1.14753E+00 -1.16346E+00 -1.17940E+00
  -1.19482E+00 -1.21020E+00 -1.22496E+00 -1.23968E+00 -1.25388E+00 -1.26814E+00 -1.28189E+00 -1.29562E+00 -1.30876E+00 -1.32189E+00
  -1.33454E+00 -1.34725E+00 -1.35941E+00 -1.37150E+00 -1.38299E+00 -1.39445E+00 -1.40537E+00 -1.41624E+00
 NY background values follow
     3.276E+00    3.267E+00    3.257E+00    3.247E+00    3.238E+00    3.228E+00    3.219E+00    3.209E+00    3.200E+00    3.190E+00
     3.181E+00    3.171E+00    3.162E+00    3.152E+00    3.143E+00    3.133E+00    3.123E+00    3.114E+00    3.104E+00    3.095E+00
     3.085E+00    3.076E+00    3.066E+00    3.057E+00    3.047E+00    3.037E+00    3.028E+00    3.018E+00    3.009E+00    2.999E+00
     2.990E+00    2.980E+00    2.971E+00    2.961E+00    2.951E+00    2.942E+00    2.932E+00    2.923E+00    2.913E+00    2.904E+00
     2.894E+00    2.885E+00    2.875E+00    2.865E+00    2.856E+00    2.846E+00    2.837E+00    2.827E+00    2.818E+00    2.808E+00
     2.798E+00    2.789E+00    2.779E+00    2.770E+00    2.760E+00    2.751E+00    2.741E+00    2.731E+00    2.722E+00    2.712E+00
     2.703E+00    2.693E+00    2.684E+00    2.674E+00    2.664E+00    2.655E+00    2.645E+00    2.636E+00    2.626E+00    2.617E+00
     2.607E+00    2.597E+00    2.588E+00    2.578E+00    2.569E+00    2.559E+00    2.550E+00    2.540E+00    2.530E+00    2.521E+00
     2.511E+00    2.502E+00    2.492E+00    2.483E+00    2.473E+00    2.463E+00    2.454E+00    2.444E+00    2.435E+00    2.425E+00
     2.415E+00    2.406E+00    2.396E+00    2.387E+00    2.377E+00    2.368E+00    2.358E+00    2.348E+00    2.339E+00    2.329E+00
     2.320E+00    2.310E+00    2.301E+00    2.291E+00    2.281E+00    2.272E+00    2.262E+00    2.253E+00    2.243E+00    2.233E+00
     2.224E+00    2.214E+00    2.205E+00    2.195E+00    2.186E+00    2.176E+00    2.166E+00    2.157E+00    2.147E+00    2.138E+00
     2.128E+00    2.119E+00    2.109E+00    2.099E+00    2.090E+00    2.080E+00    2.071E+00    2.061E+00    2.052E+00    2.042E+00
     2.032E+00    2.023E+00    2.013E+00    2.004E+00    1.994E+00    1.985E+00    1.975E+00    1.965E+00    1.956E+00    1.946E+00
     1.937E+00    1.927E+00    1.918E+00    1.908E+00    1.898E+00    1.889E+00    1.879E+00    1.870E+00    1.860E+00    1.851E+00
     1.841E+00    1.832E+00    1.822E+00    1.812E+00    1.803E+00    1.793E+00    1.784E+00    1.774E+00    1.765E+00    1.755E+00
     1.746E+00    1.736E+00    1.727E+00    1.717E+00    1.708E+00    1.698E+00    1.688E+00    1.679E+00    1.669E+00    1.660E+00
     1.650E+00    1.641E+00    1.631E+00    1.622E+00    1.612E+00    1.603E+00    1.593E+00    1.584E+00    1.574E+00    1.565E+00
     1.555E+00    1.546E+00    1.536E+00    1.527E+00    1.517E+00    1.508E+00    1.498E+00    1.489E+00    1.479E+00    1.470E+00
     1.460E+00    1.451E+00    1.441E+00    1.432E+00    1.422E+00    1.413E+00    1.403E+00    1.394E+00    1.384E+00    1.375E+00
     1.365E+00    1.356E+00    1.347E+00    1.337E+00    1.328E+00    1.318E+00    1.309E+00    1.299E+00    1.290E+00    1.280E+00
     1.271E+00    1.261E+00    1.252E+00    1.243E+00    1.233E+00    1.224E+00    1.214E+00    1.205E+00    1.195E+00    1.186E+00
     1.177E+00    1.167E+00    1.158E+00    1.148E+00    1.139E+00    1.129E+00    1.120E+00    1.111E+00    1.101E+00    1.092E+00
     1.082E+00    1.073E+00    1.063E+00    1.054E+00    1.045E+00    1.035E+00    1.026E+00    1.016E+00    1.007E+00    9.977E-01
     9.883E-01    9.789E-01    9.695E-01    9.601E-01    9.507E-01    9.413E-01    9.319E-01    9.225E-01    9.131E-01    9.038E-01
     8.944E-01    8.850E-01    8.756E-01    8.662E-01    8.569E-01    8.475E-01    8.381E-01    8.288E-01    8.194E-01    8.100E-01
     8.007E-01    7.913E-01    7.819E-01    7.726E-01    7.632E-01    7.539E-01    7.445E-01    7.352E-01    7.258E-01    7.165E-01
     7.071E-01    6.978E-01    6.884E-01    6.791E-01    6.697E-01    6.604E-01    6.511E-01    6.417E-01    6.324E-01    6.231E-01
     6.137E-01    6.044E-01    5.951E-01    5.857E-01    5.764E-01    5.671E-01    5.578E-01    5.485E-01    5.391E-01    5.298E-01
     5.205E-01    5.112E-01    5.019E-01    4.926E-01    4.833E-01    4.740E-01    4.647E-01    4.554E-01    4.461E-01    4.368E-01
     4.275E-01    4.182E-01    4.089E-01    3.996E-01    3.903E-01    3.810E-01    3.717E-01    3.624E-01    3.531E-01    3.438E-01
     3.346E-01    3.253E-01    3.160E-01    3.067E-01    2.974E-01    2.882E-01    2.789E-01    2.696E-01    2.604E-01    2.511E-01
     2.418E-01    2.326E-01    2.233E-01    2.140E-01    2.048E-01    1.955E-01    1.862E-01    1.770E-01    1.677E-01    1.585E-01
     1.492E-01    1.400E-01    1.307E-01    1.215E-01    1.122E-01    1.030E-01    9.373E-02    8.449E-02    7.525E-02    6.601E-02
     5.677E-02    4.753E-02    3.829E-02    2.906E-02    1.983E-02    1.059E-02    1.361E-03   -7.868E-03   -1.710E-02   -2.632E-02
    -3.555E-02   -4.477E-02   -5.400E-02   -6.322E-02   -7.244E-02   -8.166E-02   -9.088E-02   -1.001E-01   -1.093E-01   -1.185E-01
    -1.277E-01   -1.369E-01   -1.462E-01   -1.554E-01   -1.646E-01   -1.738E-01   -1.830E-01   -1.922E-01   -2.014E-01   -2.106E-01
    -2.198E-01   -2.290E-01   -2.382E-01   -2.474E-01   -2.566E-01   -2.658E-01   -2.750E-01   -2.842E-01   -2.934E-01   -3.025E-01
    -3.117E-01   -3.209E-01   -3.301E-01   -3.393E-01   -3.485E-01   -3.576E-01   -3.668E-01   -3.760E-01   -3.852E-01   -3.944E-01
    -4.035E-01   -4.127E-01   -4.219E-01   -4.311E-01   -4.402E-01   -4.494E-01   -4.586E-01   -4.677E-01   -4.769E-01   -4.861E-01
    -4.952E-01   -5.044E-01   -5.135E-01   -5.227E-01   -5.319E-01   -5.410E-01   -5.502E-01   -5.593E-01   -5.685E-01   -5.776E-01
    -5.868E-01   -5.959E-01   -6.051E-01   -6.142E-01   -6.234E-01   -6.325E-01   -6.416E-01   -6.508E-01   -6.599E-01   -6.691E-01
    -6.782E-01   -6.873E-01   -6.965E-01   -7.056E-01   -7.147E-01   -7.239E-01   -7.330E-01   -7.421E-01   -7.513E-01   -7.604E-01
    -7.695E-01   -7.786E-01   -7.878E-01   -7.969E-01   -8.060E-01   -8.151E-01   -8.243E-01   -8.334E-01   -8.425E-01   -8.516E-01
    -8.607E-01   -8.698E-01   -8.790E-01   -8.881E-01   -8.972E-01   -9.063E-01   -9.154E-01   -9.245E-01   -9.336E-01   -9.427E-01
    -9.518E-01   -9.609E-01   -9.700E-01   -9.791E-01   -9.882E-01   -9.974E-01   -1.006E+00   -1.016E+00   -1.025E+00   -1.034E+00
    -1.043E+00   -1.052E+00   -1.061E+00   -1.070E+00   -1.079E+00   -1.088E+00   -1.097E+00   -1.107E+00   -1.116E+00   -1.125E+00
    -1.134E+00   -1.143E+00   -1.152E+00   -1.161E+00   -1.170E+00   -1.179E+00   -1.188E+00   -1.197E+00   -1.206E+00   -1.216E+00
    -1.225E+00   -1.234E+00   -1.243E+00   -1.252E+00   -1.261E+00   -1.270E+00   -1.279E+00   -1.288E+00   -1.297E+00   -1.306E+00
    -1.315E+00   -1.325E+00   -1.334E+00   -1.343E+00   -1.352E+00   -1.361E+00   -1.370E+00   -1.379E+00
 Ala      Conc. = 4.98E+02
