 LCModel (Version 6.3-1L) Copyright: S.W. Provencher.          Ref.: Magn. Reson. Med. 30:672-679 (1993).                
 Slice#1 Row#2 Col#7  PD_24_press_2_raw_act
 36 lines in following concentration table = NCONC+1
    Conc.  %SD /Cr+PCr  Metabolite                                         
    0.000 999%   0.000 Ala                                                 
   99.408  98%   0.177 Asp                                                 
  562.419  42%   1.000 Cr                                                  
    0.000 999%   0.000 PCr                                                 
   63.073  93%   0.112 GABA                                                
   61.629  96%   0.110 Glc                                                 
    0.000 999%   0.000 Gln                                                 
 9.12E+03  29%  16.213 Glu                                                 
    0.000 999%   0.000 GPC                                                 
   91.448 101%   0.163 PCh                                                 
    0.000 999%   0.000 GSH                                                 
  715.137 126%   1.272 Ins                                                 
 4.57E+03  27%   8.121 Lac                                                 
 1.25E+03  24%   2.217 NAA                                                 
    0.000 999%   0.000 NAAG                                                
   24.522  79% 4.4E-02 Scyllo                                              
  112.172  86%   0.199 Tau                                                 
    0.000 999%   0.000 -CrCH2                                              
   91.448 101%   0.163 GPC+PCh                                             
 1.25E+03  24%   2.217 NAA+NAAG                                            
  562.419  42%   1.000 Cr+PCr                                              
 9.12E+03  29%  16.213 Glu+Gln                                             
    0.000 999%   0.000 Lip13a                                              
    0.000 999%   0.000 Lip13b                                              
 6.49E-03 999% 1.2E-05 Lip09                                               
  234.229 144%   0.416 MM09                                                
 4.23E-03 999% 7.5E-06 Lip20                                               
  424.818 137%   0.755 MM20                                                
   49.248 278% 8.8E-02 MM12                                                
  221.479 204%   0.394 MM14                                                
    4.485 999% 8.0E-03 MM17                                                
    0.000 999%   0.000 Lip13a+Lip13b                                       
  270.727 193%   0.481 MM14+Lip13a+Lip13b+MM12                             
  234.236 144%   0.416 MM09+Lip09                                          
  424.822 137%   0.755 MM20+Lip20                                          
   6 lines in following misc. output table
  FWHM = 0.168 ppm    S/N =   1                                            
  Data shift = 0.176 ppm                                                   
  Ph: 116 deg      30.0 deg/ppm                                            
  alphaB,S = 8.5E+01,   4.1E+02                                            
    6 spline knots.   Ns = 9(2)                                            
   2 inflections.     1 extrema                                            
  498 points on ppm-axis = NY
      4.000000     3.992357     3.984714     3.977070     3.969427     3.961784     3.954141     3.946497     3.938854     3.931211
      3.923568     3.915925     3.908281     3.900638     3.892995     3.885352     3.877708     3.870065     3.862422     3.854779
      3.847136     3.839492     3.831849     3.824206     3.816563     3.808919     3.801276     3.793633     3.785990     3.778347
      3.770703     3.763060     3.755417     3.747774     3.740130     3.732487     3.724844     3.717201     3.709558     3.701914
      3.694271     3.686628     3.678985     3.671341     3.663698     3.656055     3.648412     3.640769     3.633125     3.625482
      3.617839     3.610196     3.602552     3.594909     3.587266     3.579623     3.571980     3.564336     3.556693     3.549050
      3.541407     3.533763     3.526120     3.518477     3.510834     3.503191     3.495547     3.487904     3.480261     3.472618
      3.464974     3.457331     3.449688     3.442045     3.434402     3.426758     3.419115     3.411472     3.403829     3.396185
      3.388542     3.380899     3.373256     3.365613     3.357969     3.350326     3.342683     3.335040     3.327396     3.319753
      3.312110     3.304467     3.296824     3.289180     3.281537     3.273894     3.266251     3.258607     3.250964     3.243321
      3.235678     3.228034     3.220391     3.212748     3.205105     3.197462     3.189818     3.182175     3.174532     3.166889
      3.159245     3.151602     3.143959     3.136316     3.128673     3.121029     3.113386     3.105743     3.098100     3.090456
      3.082813     3.075170     3.067527     3.059884     3.052240     3.044597     3.036954     3.029311     3.021667     3.014024
      3.006381     2.998738     2.991095     2.983451     2.975808     2.968165     2.960522     2.952878     2.945235     2.937592
      2.929949     2.922306     2.914662     2.907019     2.899376     2.891733     2.884089     2.876446     2.868803     2.861160
      2.853517     2.845873     2.838230     2.830587     2.822944     2.815300     2.807657     2.800014     2.792371     2.784728
      2.777084     2.769441     2.761798     2.754155     2.746511     2.738868     2.731225     2.723582     2.715939     2.708295
      2.700652     2.693009     2.685366     2.677722     2.670079     2.662436     2.654793     2.647150     2.639506     2.631863
      2.624220     2.616577     2.608933     2.601290     2.593647     2.586004     2.578361     2.570717     2.563074     2.555431
      2.547788     2.540144     2.532501     2.524858     2.517215     2.509572     2.501928     2.494285     2.486642     2.478999
      2.471355     2.463712     2.456069     2.448426     2.440783     2.433139     2.425496     2.417853     2.410210     2.402566
      2.394923     2.387280     2.379637     2.371994     2.364350     2.356707     2.349064     2.341421     2.333777     2.326134
      2.318491     2.310848     2.303205     2.295561     2.287918     2.280275     2.272632     2.264988     2.257345     2.249702
      2.242059     2.234416     2.226772     2.219129     2.211486     2.203843     2.196199     2.188556     2.180913     2.173270
      2.165627     2.157983     2.150340     2.142697     2.135054     2.127410     2.119767     2.112124     2.104481     2.096838
      2.089194     2.081551     2.073908     2.066265     2.058621     2.050978     2.043335     2.035692     2.028049     2.020405
      2.012762     2.005119     1.997476     1.989833     1.982190     1.974546     1.966903     1.959260     1.951617     1.943974
      1.936331     1.928688     1.921045     1.913402     1.905759     1.898115     1.890472     1.882829     1.875186     1.867543
      1.859900     1.852257     1.844614     1.836971     1.829327     1.821684     1.814041     1.806398     1.798755     1.791112
      1.783469     1.775826     1.768183     1.760540     1.752896     1.745253     1.737610     1.729967     1.722324     1.714681
      1.707038     1.699395     1.691752     1.684108     1.676465     1.668822     1.661179     1.653536     1.645893     1.638250
      1.630607     1.622964     1.615321     1.607677     1.600034     1.592391     1.584748     1.577105     1.569462     1.561819
      1.554176     1.546533     1.538890     1.531246     1.523603     1.515960     1.508317     1.500674     1.493031     1.485388
      1.477745     1.470102     1.462458     1.454815     1.447172     1.439529     1.431886     1.424243     1.416600     1.408957
      1.401314     1.393671     1.386027     1.378384     1.370741     1.363098     1.355455     1.347812     1.340169     1.332526
      1.324883     1.317240     1.309596     1.301953     1.294310     1.286667     1.279024     1.271381     1.263738     1.256095
      1.248452     1.240808     1.233165     1.225522     1.217879     1.210236     1.202593     1.194950     1.187307     1.179664
      1.172021     1.164377     1.156734     1.149091     1.141448     1.133805     1.126162     1.118519     1.110876     1.103233
      1.095590     1.087946     1.080303     1.072660     1.065017     1.057374     1.049731     1.042088     1.034445     1.026802
      1.019158     1.011515     1.003872     0.996229     0.988586     0.980943     0.973300     0.965657     0.958014     0.950371
      0.942727     0.935084     0.927441     0.919798     0.912155     0.904512     0.896869     0.889226     0.881583     0.873940
      0.866296     0.858653     0.851010     0.843367     0.835724     0.828081     0.820438     0.812795     0.805152     0.797508
      0.789865     0.782222     0.774579     0.766936     0.759293     0.751650     0.744007     0.736364     0.728721     0.721077
      0.713434     0.705791     0.698148     0.690505     0.682862     0.675219     0.667576     0.659933     0.652290     0.644646
      0.637003     0.629360     0.621717     0.614074     0.606431     0.598788     0.591145     0.583502     0.575858     0.568215
      0.560572     0.552929     0.545286     0.537643     0.530000     0.522357     0.514714     0.507071     0.499427     0.491784
      0.484141     0.476498     0.468855     0.461212     0.453569     0.445925     0.438282     0.430639     0.422996     0.415353
      0.407710     0.400067     0.392424     0.384780     0.377137     0.369494     0.361851     0.354208     0.346565     0.338922
      0.331278     0.323635     0.315992     0.308349     0.300706     0.293063     0.285420     0.277777     0.270133     0.262490
      0.254847     0.247204     0.239561     0.231918     0.224275     0.216631     0.208988     0.201345
 NY phased data points follow
   1.83212E+01  6.35844E+00  1.44980E+01  1.57818E+01  8.30747E+00 -1.18528E+01  3.05178E+00 -7.54784E+00 -6.40242E+00  1.83152E+01
  -3.10070E+00  9.01427E+00  2.23931E+00  3.11386E+00  4.96198E+00 -4.43393E+00  2.05652E+01 -8.69472E-01  2.05013E+00 -7.77722E+00
   1.61843E+01  1.00223E-01  8.74883E+00  7.34962E+00  1.15514E+01 -7.97957E+00 -2.61092E+00 -6.34333E+00 -6.06726E+00  5.16545E+00
   2.54840E+00 -2.31538E+00  6.85190E+00 -1.81165E+01 -2.86688E+00 -3.45232E+00 -5.29383E+00 -1.38667E+01 -2.73905E+00 -4.25039E+00
  -6.19385E+00  5.65377E+00  1.16878E+01  1.51371E+01 -1.41352E+01  5.03253E+00  1.40885E+01 -3.10379E+00  1.21994E+01 -4.48071E+00
   5.23570E+00  6.41318E+00 -4.62979E+00  3.54449E+00 -4.89524E+00  2.80365E+00 -2.22769E-01  1.89581E+00  5.01839E+00 -1.93098E+01
   2.51787E+00 -2.11631E+01  6.08125E+00 -8.65331E+00  1.24141E+01 -9.44299E+00 -2.13357E+01 -2.71164E-01  9.23819E+00  9.02178E+00
   2.97177E+00  1.05668E+01  2.43409E+00  2.45368E+00 -6.88264E+00  3.86665E+00  6.07256E+00 -1.35291E+01  4.30229E+00  1.12729E+01
  -1.70943E+01 -3.25968E+00 -5.59855E+00 -1.53849E+01  1.09018E+01 -4.06150E+00  1.76831E+01  1.01409E+01 -6.56470E+00  1.73943E+01
  -1.36947E+00 -1.50367E+01  1.55906E+01  1.07073E+01  3.03390E+00 -5.10107E+00  6.84916E+00 -3.29785E+01 -1.71650E+00 -9.28385E+00
  -8.42906E+00  2.26064E+00 -1.37304E+00 -1.56019E+00 -6.47412E+00 -5.43925E+00 -1.19701E+01 -1.63400E+01  1.85500E+01 -1.65000E+00
   9.29907E+00  1.29160E+01  5.08630E+00 -9.23572E+00  1.23699E+01  1.22446E+00  5.47915E+00 -1.13861E+01  6.86447E-01 -4.34156E+00
   1.90611E+01 -5.42162E+00 -5.79860E+00  1.94365E+01  4.31586E+00 -1.43534E+01 -8.25221E+00 -7.29618E+00  7.51560E+00  2.21812E+00
   7.00916E+00 -5.82954E+00  8.12047E+00  3.51898E-02  1.64553E+01 -1.45238E+01  2.87500E+00 -2.03389E+01 -1.40197E+00 -1.99204E+01
   2.26728E+01 -1.63774E+00 -1.87711E-01  3.15650E+00  6.39296E+00 -4.88516E+00 -2.11095E+01 -2.92316E+00 -7.68098E+00  2.33948E+00
   1.49971E+01 -7.62914E+00 -9.06877E+00 -1.10293E+01 -1.03164E+01  2.06273E+00 -1.21967E+00 -1.13711E+01 -1.01762E+00 -5.96311E+00
  -4.92980E+00 -5.94893E+00 -1.77698E+00 -8.39791E+00  1.53944E+00  3.56695E+00 -8.88943E+00 -2.28547E-01  1.61604E+00  6.82409E+00
  -4.29087E+00 -1.25498E+01 -1.74152E+00  2.77587E+00 -4.43336E+00 -7.16185E+00  1.28703E+01 -1.63562E+01 -4.72495E+00 -1.86782E+01
   1.31065E+00 -9.53761E+00  1.23333E+01 -2.27574E+01  9.70066E+00 -8.41990E-01 -1.00925E+01 -1.04824E+01 -1.93602E+01  1.21525E+00
  -1.54047E+01  8.29197E+00  6.62464E+00  8.27747E+00 -2.32252E+00 -1.21218E+01 -5.11481E+00 -1.08188E+01 -1.74168E-01  2.63092E+01
   1.68960E+01 -1.32031E+00  5.31177E+00 -1.53721E+01 -2.55893E+00  1.05661E+01 -3.93738E+00 -9.36979E+00  1.74726E+01  3.02419E+00
  -4.56989E+00 -7.11896E-01 -5.95886E+00 -1.08315E+01 -1.15507E+00 -5.59499E+00  1.39224E+00 -2.70776E+01 -1.56712E+01 -2.56282E+01
   3.04391E+00  5.16514E+00 -7.29367E+00 -1.76301E+00 -5.49849E+00 -1.79513E+01 -8.56438E+00  2.16458E+00  1.05955E+00 -2.24683E+00
  -8.11791E+00  5.78509E+00 -1.06773E+01 -8.38536E+00 -8.73179E+00  8.00706E+00  4.33046E-01  1.24057E+01  1.80491E+01 -6.06588E+00
   8.39044E+00  4.66023E+00  1.65900E+01  1.79557E+01 -1.63829E+00  2.09167E+00  4.29700E+00  3.85419E+00  6.85390E+00  9.42949E+00
   1.95464E+01  2.00564E+01  1.13534E+01  1.38809E+01  2.51852E+01  3.14780E+00  2.86329E+00  4.42438E+00  2.19827E+00 -7.08299E+00
   1.61045E+01  2.38912E+01  3.93720E+01  8.85191E+00  3.47994E+01  1.35230E+01  9.30984E+00  2.97689E+01  2.84583E+01  3.89881E+00
   2.44063E+01  6.47308E+00  9.96175E+00  3.47367E+00  2.15224E+01  1.53431E+01  1.82884E+01 -5.07101E+00  1.41925E+01 -6.21476E+00
   1.71196E+01  1.97617E+01  2.01572E+01  2.60233E+01 -1.12625E+01  6.87232E+00  1.98227E+01 -2.02802E+01  6.82338E+00 -6.51137E+00
   8.43022E-01 -7.65216E+00 -1.21565E+01  3.55445E+00  2.45085E+01 -4.12358E+00  9.80627E+00  5.29737E+00  6.12824E+00 -1.50775E+01
   1.53271E-01 -1.11987E+01  4.97582E-02 -5.15043E-01  6.12781E+00  6.91192E+00  1.09809E+01 -4.11669E+00 -1.58018E+01 -1.47631E+00
  -4.85951E+00 -1.25560E+01 -9.56672E-01  5.06345E+00 -1.77398E+00 -6.56916E+00 -3.98182E+00  6.79693E+00 -9.90239E+00  3.68433E+00
   6.12345E+00 -7.66505E+00 -1.66069E-01 -2.16640E+01  1.26749E+01 -1.59220E+01  7.25123E+00 -3.75715E+00  5.00929E+00 -6.12450E+00
   1.34659E+01  2.58531E+01  3.34338E+01 -3.86170E+00  1.70894E+01  1.19137E+01  1.75832E+01 -1.20002E+00  6.45144E+00  1.84743E+01
   1.68308E+01  6.53079E+00 -6.11338E+00  2.40341E+01  1.80665E+01  1.49422E+01  1.97645E+01  1.96957E+01  5.71976E+00  2.78192E+01
   9.49799E+00 -2.95046E+00  1.73634E+00 -9.00564E+00 -1.12472E+00 -2.40419E+00  7.26687E-01 -7.47818E+00  8.07235E+00 -1.26269E+01
   8.70482E+00 -1.80873E+01  1.25265E+00  2.03269E+01  2.70122E+01  5.89665E+00  7.18186E+00 -2.36403E+00  7.29492E+00  9.93257E+00
  -1.93297E+01 -4.08493E+00  9.75898E+00 -8.93532E-01  6.60548E-01  9.91837E+00  1.65385E+01  5.25925E+00 -1.70674E+01 -1.97183E+01
  -2.89295E-01 -1.38873E+01 -1.08829E+01 -1.92321E+01 -8.94609E+00 -9.33778E+00  9.53547E+00 -7.86659E+00  2.08392E+01 -1.29490E+01
  -4.74709E+00  3.47145E+00 -1.24824E+01  4.97556E+00 -5.83874E+00 -1.01140E+01 -1.84331E+01 -7.07515E+00 -8.93273E+00  2.58312E-01
  -7.23495E+00  1.36056E+01  9.99090E-01  7.99740E+00  2.88579E+00  1.18445E+01 -3.54176E+00  1.58124E+01 -1.30082E+01  9.35718E+00
  -2.94817E+00  8.91309E+00  5.87176E+00 -7.33376E+00  4.11701E+00 -1.01440E+01  7.93556E+00  6.84111E+00  6.11670E+00  9.08834E-01
   7.76294E+00  6.25743E+00  1.24218E+01  2.58435E+00  1.57627E+01  1.12358E+00  1.63789E+01 -6.67479E+00 -1.12191E+01  2.42672E+00
   1.17769E+01 -1.63754E+01 -4.46378E-01 -7.44647E+00 -1.81807E+01  2.55414E+00 -5.71636E+00 -3.67352E-01 -6.30013E+00  5.95625E+00
  -1.39251E+00  1.48622E+00  2.38810E+01 -1.27473E+00 -1.74056E+01 -5.29954E+00 -6.28923E+00  1.45515E+01 -3.46007E+00 -1.25469E+01
   1.32518E+01 -1.51284E+01 -9.19345E+00  4.66613E+00 -1.72597E+01 -7.15745E+00 -5.49654E+00 -1.30934E+01  1.12175E+01  2.67991E+00
   4.92251E+00 -1.49755E+01 -6.34760E+00 -9.18840E+00  1.28566E+00  4.17510E+00  1.40031E+01 -1.28710E+01 -5.28865E+00  7.78356E+00
   4.99186E+00  1.04881E+01  2.03497E+00  1.96635E+00  3.05129E+00 -3.46096E+00 -3.17615E+00 -2.15724E+00  5.17452E+00 -5.07761E+00
  -1.37916E+01  1.22785E+01  7.92229E+00 -7.14464E+00  3.10809E+00  3.52222E+00 -6.69136E+00  7.92970E+00 -1.40953E+01 -7.09760E+00
  -2.82521E-01  5.88891E+00 -1.38123E+01  1.32932E+00  3.77308E+00 -1.23994E+00 -5.01711E+00  2.84447E+00
 NY points of the fit to the data follow
   8.91633E-01  1.34004E+00  1.67260E+00  1.92365E+00  2.43224E+00  2.49446E+00  3.10103E+00  2.91293E+00  3.73227E+00  3.12250E+00
   4.03992E+00  3.06597E+00  4.10230E+00  3.09222E+00  4.51127E+00  3.50597E+00  5.25535E+00  4.00597E+00  5.88569E+00  4.17257E+00
   5.93966E+00  3.94178E+00  5.75325E+00  3.56413E+00  5.44616E+00  3.11717E+00  5.06804E+00  2.67076E+00  4.71537E+00  2.35281E+00
   4.51301E+00  2.22757E+00  4.46495E+00  2.26262E+00  4.52634E+00  2.30556E+00  4.42663E+00  2.26614E+00  4.18423E+00  2.15348E+00
   3.80714E+00  1.97617E+00  3.33187E+00  1.75439E+00  2.80974E+00  1.53148E+00  2.31175E+00  1.29320E+00  1.79966E+00  8.52307E-01
   1.03751E+00  3.36224E-01  3.93974E-01  7.51253E-03  1.10842E-01 -9.55112E-02 -6.93649E-02 -3.85708E-01 -5.27666E-01 -8.95689E-01
  -1.11839E+00 -1.35585E+00 -1.46985E+00 -1.63468E+00 -1.69150E+00 -1.81439E+00 -1.82957E+00 -1.90877E+00 -1.87073E+00 -1.92109E+00
  -1.85793E+00 -1.94532E+00 -1.90386E+00 -2.03508E+00 -1.99939E+00 -2.16200E+00 -2.12171E+00 -2.30752E+00 -2.25125E+00 -2.45285E+00
  -2.38010E+00 -2.58307E+00 -2.49547E+00 -2.70096E+00 -2.59255E+00 -2.72057E+00 -2.53646E+00 -2.62920E+00 -2.36741E+00 -2.46179E+00
  -2.12805E+00 -2.24506E+00 -1.84599E+00 -2.00703E+00 -1.54926E+00 -1.76351E+00 -1.26739E+00 -1.53117E+00 -1.00849E+00 -1.32593E+00
  -7.93357E-01 -1.16435E+00 -6.35049E-01 -1.05836E+00 -5.42933E-01 -1.01890E+00 -5.28722E-01 -1.04333E+00 -5.53372E-01 -9.38498E-01
  -3.17840E-01 -6.75747E-01  7.69102E-02 -3.36148E-01  5.23331E-01  2.75353E-02  9.78016E-01  3.83027E-01  1.41018E+00  7.18679E-01
   1.80829E+00  1.03034E+00  2.17601E+00  1.33088E+00  2.54135E+00  1.63486E+00  2.89588E+00  1.81960E+00  3.04906E+00  1.80522E+00
   2.94785E+00  1.56176E+00  2.56172E+00  1.08337E+00  1.89593E+00  3.87117E-01  9.79189E-01 -4.84579E-01 -1.23387E-01 -1.44692E+00
  -1.29116E+00 -2.40008E+00 -2.41389E+00 -3.27166E+00 -3.38824E+00 -3.98218E+00 -4.12451E+00 -4.43385E+00 -4.52978E+00 -4.57136E+00
  -4.56698E+00 -4.59357E+00 -4.59577E+00 -4.62138E+00 -4.63832E+00 -4.66615E+00 -4.70055E+00 -4.73514E+00 -4.79646E+00 -4.82620E+00
  -4.89968E+00 -4.91802E+00 -5.00306E+00 -5.02208E+00 -5.10776E+00 -5.12320E+00 -5.19611E+00 -5.20708E+00 -5.27077E+00 -5.28629E+00
  -5.31708E+00 -5.32788E+00 -5.31250E+00 -5.31682E+00 -5.24876E+00 -5.24850E+00 -5.11773E+00 -5.11039E+00 -4.90275E+00 -4.87890E+00
  -4.60379E+00 -4.56579E+00 -4.23821E+00 -4.18385E+00 -3.79444E+00 -3.67620E+00 -3.20505E+00 -2.98667E+00 -2.49474E+00 -2.30179E+00
  -1.74978E+00 -1.82562E+00 -1.24171E+00 -1.65077E+00 -9.80456E-01 -1.58188E+00 -5.56299E-01 -8.69758E-01  7.20708E-01  2.84441E-01
   2.32614E+00  1.32871E+00  3.54706E+00  1.43348E+00  3.42277E+00  3.21751E-01  2.45455E+00 -1.35217E+00  1.15970E+00 -3.05923E+00
  -9.52034E-02 -4.47240E+00 -1.13862E+00 -5.59521E+00 -2.01182E+00 -6.44753E+00 -2.75619E+00 -7.05267E+00 -3.39242E+00 -7.43121E+00
  -3.91817E+00 -7.61297E+00 -4.43263E+00 -7.62488E+00 -4.93613E+00 -7.40075E+00 -5.10367E+00 -6.63428E+00 -4.74909E+00 -5.34610E+00
  -3.79578E+00 -3.62080E+00 -2.55952E+00 -1.71405E+00 -1.05950E+00  4.50314E-01  8.05492E-01  2.75350E+00  2.67381E+00  4.20839E+00
   3.49394E+00  4.80710E+00  4.05464E+00  5.25983E+00  4.60243E+00  6.12002E+00  6.03112E+00  7.68852E+00  8.05666E+00  9.65231E+00
   1.03312E+01  1.16305E+01  1.24956E+01  1.33124E+01  1.43457E+01  1.47271E+01  1.59238E+01  1.58941E+01  1.71805E+01  1.67401E+01
   1.79752E+01  1.71248E+01  1.80812E+01  1.68979E+01  1.75089E+01  1.60798E+01  1.64113E+01  1.47978E+01  1.47422E+01  1.29605E+01
   1.25271E+01  1.06137E+01  9.86587E+00  8.02261E+00  7.20996E+00  5.66489E+00  4.89414E+00  3.69542E+00  3.02172E+00  2.20136E+00
   1.75207E+00  1.43881E+00  1.43364E+00  1.38609E+00  1.32011E+00  1.36431E+00  1.25017E+00  1.25451E+00  1.13122E+00  1.11670E+00
   9.79487E-01  9.40682E-01  8.08364E-01  7.60059E-01  6.64765E-01  6.54788E-01  6.10646E-01  6.17182E-01  6.03059E-01  6.17713E-01
   6.19560E-01  6.36881E-01  6.41880E-01  6.68212E-01  6.86548E-01  7.24525E-01  7.56921E-01  8.07329E-01  8.54262E-01  9.17467E-01
   9.78092E-01  1.05627E+00  1.13422E+00  1.22895E+00  1.32764E+00  1.44370E+00  1.56792E+00  1.71079E+00  1.86695E+00  2.04446E+00
   2.24199E+00  2.46617E+00  2.72015E+00  3.01146E+00  3.34993E+00  3.75021E+00  4.23693E+00  4.85672E+00  5.72086E+00  7.02240E+00
   7.95596E+00  9.02658E+00  9.81400E+00  1.01252E+01  1.06842E+01  9.93065E+00  1.01966E+01  9.10684E+00  9.69955E+00  8.36335E+00
   9.46314E+00  7.80543E+00  9.41220E+00  7.40353E+00  9.46871E+00  7.01807E+00  9.43432E+00  6.48893E+00  9.14558E+00  5.72350E+00
   8.54730E+00  4.79241E+00  7.75838E+00  3.88065E+00  6.95910E+00  3.17190E+00  6.32387E+00  2.82760E+00  5.99221E+00  2.99312E+00
   6.04642E+00  3.63204E+00  6.42589E+00  4.57165E+00  6.92966E+00  5.49593E+00  7.29565E+00  6.26610E+00  7.43852E+00  6.64998E+00
   6.91139E+00  5.56030E+00  5.18783E+00  3.69961E+00  2.97161E+00  1.72656E+00  9.82186E-01  5.32047E-01  2.19756E-01 -9.84853E-03
  -1.83061E-01 -3.14622E-01 -4.13697E-01 -4.86253E-01 -5.36500E-01 -5.67440E-01 -5.81364E-01 -5.79968E-01 -5.64671E-01 -5.36719E-01
  -4.97402E-01 -4.48071E-01 -3.90204E-01 -3.25407E-01 -2.55483E-01 -1.82461E-01 -1.08595E-01 -3.62922E-02  3.19772E-02  9.37686E-02
   1.46729E-01  1.88674E-01  2.17704E-01  2.32315E-01  2.31506E-01  2.14813E-01  1.82317E-01  1.34621E-01  7.28383E-02 -1.45883E-03
  -8.63119E-02 -1.79507E-01 -2.78702E-01 -3.81545E-01 -4.85756E-01 -5.89204E-01 -6.89988E-01 -7.86510E-01 -8.77509E-01 -9.62071E-01
  -1.03958E+00 -1.10971E+00 -1.17237E+00 -1.22772E+00 -1.27607E+00 -1.31790E+00 -1.35368E+00 -1.38401E+00 -1.40941E+00 -1.43049E+00
  -1.44775E+00 -1.46175E+00 -1.47287E+00 -1.48158E+00 -1.48813E+00 -1.49294E+00 -1.49619E+00 -1.49818E+00 -1.49901E+00 -1.49892E+00
  -1.49796E+00 -1.49634E+00 -1.49406E+00 -1.49130E+00 -1.48802E+00 -1.48436E+00 -1.48029E+00 -1.47594E+00 -1.47127E+00 -1.46637E+00
  -1.46120E+00 -1.45582E+00 -1.45024E+00 -1.44450E+00 -1.43859E+00 -1.43253E+00 -1.42630E+00 -1.41995E+00 -1.41347E+00 -1.40689E+00
  -1.40018E+00 -1.39337E+00 -1.38643E+00 -1.37940E+00 -1.37226E+00 -1.36504E+00 -1.35771E+00 -1.35029E+00 -1.34274E+00 -1.33512E+00
  -1.32739E+00 -1.31958E+00 -1.31163E+00 -1.30359E+00 -1.29542E+00 -1.28715E+00 -1.27875E+00 -1.27024E+00 -1.26156E+00 -1.25274E+00
  -1.24376E+00 -1.23464E+00 -1.22533E+00 -1.21583E+00 -1.20610E+00 -1.19616E+00 -1.18596E+00 -1.17550E+00 -1.16473E+00 -1.15361E+00
  -1.14210E+00 -1.13016E+00 -1.11773E+00 -1.10473E+00 -1.09106E+00 -1.07659E+00 -1.06118E+00 -1.04461E+00
 NY background values follow
    -4.417E+00   -4.410E+00   -4.403E+00   -4.396E+00   -4.389E+00   -4.382E+00   -4.376E+00   -4.369E+00   -4.362E+00   -4.355E+00
    -4.348E+00   -4.341E+00   -4.334E+00   -4.327E+00   -4.321E+00   -4.314E+00   -4.307E+00   -4.300E+00   -4.293E+00   -4.286E+00
    -4.279E+00   -4.272E+00   -4.266E+00   -4.259E+00   -4.252E+00   -4.245E+00   -4.238E+00   -4.231E+00   -4.224E+00   -4.217E+00
    -4.211E+00   -4.204E+00   -4.197E+00   -4.190E+00   -4.183E+00   -4.176E+00   -4.169E+00   -4.162E+00   -4.156E+00   -4.149E+00
    -4.142E+00   -4.135E+00   -4.128E+00   -4.121E+00   -4.114E+00   -4.107E+00   -4.101E+00   -4.094E+00   -4.087E+00   -4.080E+00
    -4.073E+00   -4.066E+00   -4.059E+00   -4.052E+00   -4.046E+00   -4.039E+00   -4.032E+00   -4.025E+00   -4.018E+00   -4.011E+00
    -4.004E+00   -3.997E+00   -3.991E+00   -3.984E+00   -3.977E+00   -3.970E+00   -3.963E+00   -3.956E+00   -3.949E+00   -3.943E+00
    -3.936E+00   -3.929E+00   -3.922E+00   -3.915E+00   -3.908E+00   -3.901E+00   -3.894E+00   -3.888E+00   -3.881E+00   -3.874E+00
    -3.867E+00   -3.860E+00   -3.853E+00   -3.846E+00   -3.840E+00   -3.833E+00   -3.826E+00   -3.819E+00   -3.812E+00   -3.805E+00
    -3.798E+00   -3.791E+00   -3.785E+00   -3.778E+00   -3.771E+00   -3.764E+00   -3.757E+00   -3.750E+00   -3.743E+00   -3.737E+00
    -3.730E+00   -3.723E+00   -3.716E+00   -3.709E+00   -3.702E+00   -3.695E+00   -3.689E+00   -3.682E+00   -3.675E+00   -3.668E+00
    -3.661E+00   -3.654E+00   -3.647E+00   -3.641E+00   -3.634E+00   -3.627E+00   -3.620E+00   -3.613E+00   -3.606E+00   -3.599E+00
    -3.592E+00   -3.586E+00   -3.579E+00   -3.572E+00   -3.565E+00   -3.558E+00   -3.551E+00   -3.545E+00   -3.538E+00   -3.531E+00
    -3.524E+00   -3.517E+00   -3.510E+00   -3.503E+00   -3.497E+00   -3.490E+00   -3.483E+00   -3.476E+00   -3.469E+00   -3.462E+00
    -3.455E+00   -3.449E+00   -3.442E+00   -3.435E+00   -3.428E+00   -3.421E+00   -3.414E+00   -3.407E+00   -3.401E+00   -3.394E+00
    -3.387E+00   -3.380E+00   -3.373E+00   -3.366E+00   -3.360E+00   -3.353E+00   -3.346E+00   -3.339E+00   -3.332E+00   -3.325E+00
    -3.318E+00   -3.312E+00   -3.305E+00   -3.298E+00   -3.291E+00   -3.284E+00   -3.277E+00   -3.271E+00   -3.264E+00   -3.257E+00
    -3.250E+00   -3.243E+00   -3.236E+00   -3.229E+00   -3.223E+00   -3.216E+00   -3.209E+00   -3.202E+00   -3.195E+00   -3.188E+00
    -3.182E+00   -3.175E+00   -3.168E+00   -3.161E+00   -3.154E+00   -3.147E+00   -3.141E+00   -3.134E+00   -3.127E+00   -3.120E+00
    -3.113E+00   -3.106E+00   -3.100E+00   -3.093E+00   -3.086E+00   -3.079E+00   -3.072E+00   -3.065E+00   -3.059E+00   -3.052E+00
    -3.045E+00   -3.038E+00   -3.031E+00   -3.024E+00   -3.018E+00   -3.011E+00   -3.004E+00   -2.997E+00   -2.990E+00   -2.983E+00
    -2.977E+00   -2.970E+00   -2.963E+00   -2.956E+00   -2.949E+00   -2.942E+00   -2.936E+00   -2.929E+00   -2.922E+00   -2.915E+00
    -2.908E+00   -2.902E+00   -2.895E+00   -2.888E+00   -2.881E+00   -2.874E+00   -2.867E+00   -2.861E+00   -2.854E+00   -2.847E+00
    -2.840E+00   -2.833E+00   -2.826E+00   -2.820E+00   -2.813E+00   -2.806E+00   -2.799E+00   -2.792E+00   -2.786E+00   -2.779E+00
    -2.772E+00   -2.765E+00   -2.758E+00   -2.751E+00   -2.745E+00   -2.738E+00   -2.731E+00   -2.724E+00   -2.717E+00   -2.711E+00
    -2.704E+00   -2.697E+00   -2.690E+00   -2.683E+00   -2.676E+00   -2.670E+00   -2.663E+00   -2.656E+00   -2.649E+00   -2.642E+00
    -2.636E+00   -2.629E+00   -2.622E+00   -2.615E+00   -2.608E+00   -2.601E+00   -2.595E+00   -2.588E+00   -2.581E+00   -2.574E+00
    -2.567E+00   -2.561E+00   -2.554E+00   -2.547E+00   -2.540E+00   -2.533E+00   -2.526E+00   -2.520E+00   -2.513E+00   -2.506E+00
    -2.499E+00   -2.492E+00   -2.486E+00   -2.479E+00   -2.472E+00   -2.465E+00   -2.458E+00   -2.452E+00   -2.445E+00   -2.438E+00
    -2.431E+00   -2.424E+00   -2.417E+00   -2.411E+00   -2.404E+00   -2.397E+00   -2.390E+00   -2.383E+00   -2.377E+00   -2.370E+00
    -2.363E+00   -2.356E+00   -2.349E+00   -2.343E+00   -2.336E+00   -2.329E+00   -2.322E+00   -2.315E+00   -2.309E+00   -2.302E+00
    -2.295E+00   -2.288E+00   -2.281E+00   -2.275E+00   -2.268E+00   -2.261E+00   -2.254E+00   -2.247E+00   -2.240E+00   -2.234E+00
    -2.227E+00   -2.220E+00   -2.213E+00   -2.206E+00   -2.200E+00   -2.193E+00   -2.186E+00   -2.179E+00   -2.172E+00   -2.166E+00
    -2.159E+00   -2.152E+00   -2.145E+00   -2.138E+00   -2.132E+00   -2.125E+00   -2.118E+00   -2.111E+00   -2.104E+00   -2.098E+00
    -2.091E+00   -2.084E+00   -2.077E+00   -2.070E+00   -2.064E+00   -2.057E+00   -2.050E+00   -2.043E+00   -2.036E+00   -2.030E+00
    -2.023E+00   -2.016E+00   -2.009E+00   -2.002E+00   -1.996E+00   -1.989E+00   -1.982E+00   -1.975E+00   -1.968E+00   -1.962E+00
    -1.955E+00   -1.948E+00   -1.941E+00   -1.934E+00   -1.928E+00   -1.921E+00   -1.914E+00   -1.907E+00   -1.900E+00   -1.894E+00
    -1.887E+00   -1.880E+00   -1.873E+00   -1.866E+00   -1.860E+00   -1.853E+00   -1.846E+00   -1.839E+00   -1.832E+00   -1.826E+00
    -1.819E+00   -1.812E+00   -1.805E+00   -1.798E+00   -1.792E+00   -1.785E+00   -1.778E+00   -1.771E+00   -1.764E+00   -1.758E+00
    -1.751E+00   -1.744E+00   -1.737E+00   -1.730E+00   -1.724E+00   -1.717E+00   -1.710E+00   -1.703E+00   -1.696E+00   -1.690E+00
    -1.683E+00   -1.676E+00   -1.669E+00   -1.662E+00   -1.656E+00   -1.649E+00   -1.642E+00   -1.635E+00   -1.628E+00   -1.622E+00
    -1.615E+00   -1.608E+00   -1.601E+00   -1.594E+00   -1.588E+00   -1.581E+00   -1.574E+00   -1.567E+00   -1.560E+00   -1.554E+00
    -1.547E+00   -1.540E+00   -1.533E+00   -1.526E+00   -1.520E+00   -1.513E+00   -1.506E+00   -1.499E+00   -1.493E+00   -1.486E+00
    -1.479E+00   -1.472E+00   -1.465E+00   -1.459E+00   -1.452E+00   -1.445E+00   -1.438E+00   -1.431E+00   -1.425E+00   -1.418E+00
    -1.411E+00   -1.404E+00   -1.397E+00   -1.391E+00   -1.384E+00   -1.377E+00   -1.370E+00   -1.363E+00   -1.357E+00   -1.350E+00
    -1.343E+00   -1.336E+00   -1.330E+00   -1.323E+00   -1.316E+00   -1.309E+00   -1.302E+00   -1.296E+00   -1.289E+00   -1.282E+00
    -1.275E+00   -1.268E+00   -1.262E+00   -1.255E+00   -1.248E+00   -1.241E+00   -1.235E+00   -1.228E+00   -1.221E+00   -1.214E+00
    -1.207E+00   -1.201E+00   -1.194E+00   -1.187E+00   -1.180E+00   -1.173E+00   -1.167E+00   -1.160E+00   -1.153E+00   -1.146E+00
    -1.140E+00   -1.133E+00   -1.126E+00   -1.119E+00   -1.112E+00   -1.106E+00   -1.099E+00   -1.092E+00   -1.085E+00   -1.078E+00
    -1.072E+00   -1.065E+00   -1.058E+00   -1.051E+00   -1.045E+00   -1.038E+00   -1.031E+00   -1.024E+00
 Asp      Conc. = 9.94E+01
