 LCModel (Version 6.3-1L) Copyright: S.W. Provencher.          Ref.: Magn. Reson. Med. 30:672-679 (1993).                
 Slice#3 Row#11 Col#9  PD_24_press_2_raw_act
 36 lines in following concentration table = NCONC+1
    Conc.  %SD /Cr+PCr  Metabolite                                         
   86.299  53%   7.002 Ala                                                 
    5.991  99%   0.486 Asp                                                 
   12.324 141%   1.000 Cr                                                  
    0.000 999%   0.000 PCr                                                 
    3.821  93%   0.310 GABA                                                
    3.815  93%   0.310 Glc                                                 
    0.000 999%   0.000 Gln                                                 
    0.000 999%   0.000 Glu                                                 
    0.000 999%   0.000 GPC                                                 
   20.306  38%   1.648 PCh                                                 
    0.000 999%   0.000 GSH                                                 
  170.536  56%  13.837 Ins                                                 
    0.000 999%   0.000 Lac                                                 
   52.837  42%   4.287 NAA                                                 
    0.000 999%   0.000 NAAG                                                
    1.393  85%   0.113 Scyllo                                              
    7.021  84%   0.570 Tau                                                 
   28.066  51%   2.277 -CrCH2                                              
   20.306  38%   1.648 GPC+PCh                                             
   52.837  42%   4.287 NAA+NAAG                                            
   12.324 141%   1.000 Cr+PCr                                              
    0.000 999%   0.000 Glu+Gln                                             
    0.000 999%   0.000 Lip13a                                              
    0.000 999%   0.000 Lip13b                                              
    0.000 999%   0.000 Lip09                                               
  114.238  52%   9.269 MM09                                                
   39.336 136%   3.192 Lip20                                               
  269.097  48%  21.834 MM20                                                
    0.000 999%   0.000 MM12                                                
    0.000 999%   0.000 MM14                                                
  788.109   8%  63.947 MM17                                                
    0.000 999%   0.000 Lip13a+Lip13b                                       
    0.000 999%   0.000 MM14+Lip13a+Lip13b+MM12                             
  114.238  52%   9.269 MM09+Lip09                                          
  308.433  41%  25.026 MM20+Lip20                                          
   6 lines in following misc. output table
  FWHM = 0.069 ppm    S/N =   1                                            
  Data shift = 0.031 ppm                                                   
  Ph: -52 deg      -9.5 deg/ppm                                            
  alphaB,S = 7.0E-01,   1.2E+01                                            
   14 spline knots.   Ns = 8(1)                                            
   2 inflections.     1 extrema                                            
  498 points on ppm-axis = NY
      4.000000     3.992357     3.984714     3.977070     3.969427     3.961784     3.954141     3.946497     3.938854     3.931211
      3.923568     3.915925     3.908281     3.900638     3.892995     3.885352     3.877708     3.870065     3.862422     3.854779
      3.847136     3.839492     3.831849     3.824206     3.816563     3.808919     3.801276     3.793633     3.785990     3.778347
      3.770703     3.763060     3.755417     3.747774     3.740130     3.732487     3.724844     3.717201     3.709558     3.701914
      3.694271     3.686628     3.678985     3.671341     3.663698     3.656055     3.648412     3.640769     3.633125     3.625482
      3.617839     3.610196     3.602552     3.594909     3.587266     3.579623     3.571980     3.564336     3.556693     3.549050
      3.541407     3.533763     3.526120     3.518477     3.510834     3.503191     3.495547     3.487904     3.480261     3.472618
      3.464974     3.457331     3.449688     3.442045     3.434402     3.426758     3.419115     3.411472     3.403829     3.396185
      3.388542     3.380899     3.373256     3.365613     3.357969     3.350326     3.342683     3.335040     3.327396     3.319753
      3.312110     3.304467     3.296824     3.289180     3.281537     3.273894     3.266251     3.258607     3.250964     3.243321
      3.235678     3.228034     3.220391     3.212748     3.205105     3.197462     3.189818     3.182175     3.174532     3.166889
      3.159245     3.151602     3.143959     3.136316     3.128673     3.121029     3.113386     3.105743     3.098100     3.090456
      3.082813     3.075170     3.067527     3.059884     3.052240     3.044597     3.036954     3.029311     3.021667     3.014024
      3.006381     2.998738     2.991095     2.983451     2.975808     2.968165     2.960522     2.952878     2.945235     2.937592
      2.929949     2.922306     2.914662     2.907019     2.899376     2.891733     2.884089     2.876446     2.868803     2.861160
      2.853517     2.845873     2.838230     2.830587     2.822944     2.815300     2.807657     2.800014     2.792371     2.784728
      2.777084     2.769441     2.761798     2.754155     2.746511     2.738868     2.731225     2.723582     2.715939     2.708295
      2.700652     2.693009     2.685366     2.677722     2.670079     2.662436     2.654793     2.647150     2.639506     2.631863
      2.624220     2.616577     2.608933     2.601290     2.593647     2.586004     2.578361     2.570717     2.563074     2.555431
      2.547788     2.540144     2.532501     2.524858     2.517215     2.509572     2.501928     2.494285     2.486642     2.478999
      2.471355     2.463712     2.456069     2.448426     2.440783     2.433139     2.425496     2.417853     2.410210     2.402566
      2.394923     2.387280     2.379637     2.371994     2.364350     2.356707     2.349064     2.341421     2.333777     2.326134
      2.318491     2.310848     2.303205     2.295561     2.287918     2.280275     2.272632     2.264988     2.257345     2.249702
      2.242059     2.234416     2.226772     2.219129     2.211486     2.203843     2.196199     2.188556     2.180913     2.173270
      2.165627     2.157983     2.150340     2.142697     2.135054     2.127410     2.119767     2.112124     2.104481     2.096838
      2.089194     2.081551     2.073908     2.066265     2.058621     2.050978     2.043335     2.035692     2.028049     2.020405
      2.012762     2.005119     1.997476     1.989833     1.982190     1.974546     1.966903     1.959260     1.951617     1.943974
      1.936331     1.928688     1.921045     1.913402     1.905759     1.898115     1.890472     1.882829     1.875186     1.867543
      1.859900     1.852257     1.844614     1.836971     1.829327     1.821684     1.814041     1.806398     1.798755     1.791112
      1.783469     1.775826     1.768183     1.760540     1.752896     1.745253     1.737610     1.729967     1.722324     1.714681
      1.707038     1.699395     1.691752     1.684108     1.676465     1.668822     1.661179     1.653536     1.645893     1.638250
      1.630607     1.622964     1.615321     1.607677     1.600034     1.592391     1.584748     1.577105     1.569462     1.561819
      1.554176     1.546533     1.538890     1.531246     1.523603     1.515960     1.508317     1.500674     1.493031     1.485388
      1.477745     1.470102     1.462458     1.454815     1.447172     1.439529     1.431886     1.424243     1.416600     1.408957
      1.401314     1.393671     1.386027     1.378384     1.370741     1.363098     1.355455     1.347812     1.340169     1.332526
      1.324883     1.317240     1.309596     1.301953     1.294310     1.286667     1.279024     1.271381     1.263738     1.256095
      1.248452     1.240808     1.233165     1.225522     1.217879     1.210236     1.202593     1.194950     1.187307     1.179664
      1.172021     1.164377     1.156734     1.149091     1.141448     1.133805     1.126162     1.118519     1.110876     1.103233
      1.095590     1.087946     1.080303     1.072660     1.065017     1.057374     1.049731     1.042088     1.034445     1.026802
      1.019158     1.011515     1.003872     0.996229     0.988586     0.980943     0.973300     0.965657     0.958014     0.950371
      0.942727     0.935084     0.927441     0.919798     0.912155     0.904512     0.896869     0.889226     0.881583     0.873940
      0.866296     0.858653     0.851010     0.843367     0.835724     0.828081     0.820438     0.812795     0.805152     0.797508
      0.789865     0.782222     0.774579     0.766936     0.759293     0.751650     0.744007     0.736364     0.728721     0.721077
      0.713434     0.705791     0.698148     0.690505     0.682862     0.675219     0.667576     0.659933     0.652290     0.644646
      0.637003     0.629360     0.621717     0.614074     0.606431     0.598788     0.591145     0.583502     0.575858     0.568215
      0.560572     0.552929     0.545286     0.537643     0.530000     0.522357     0.514714     0.507071     0.499427     0.491784
      0.484141     0.476498     0.468855     0.461212     0.453569     0.445925     0.438282     0.430639     0.422996     0.415353
      0.407710     0.400067     0.392424     0.384780     0.377137     0.369494     0.361851     0.354208     0.346565     0.338922
      0.331278     0.323635     0.315992     0.308349     0.300706     0.293063     0.285420     0.277777     0.270133     0.262490
      0.254847     0.247204     0.239561     0.231918     0.224275     0.216631     0.208988     0.201345
 NY phased data points follow
  -2.70313E+01 -2.43103E+01 -2.73516E+01 -2.41729E+01 -2.55960E+01 -2.25517E+01 -2.80439E+01 -2.43604E+01 -2.39440E+01 -1.84905E+01
  -2.55078E+01 -2.07163E+01 -2.37339E+01 -2.07034E+01 -2.05505E+01 -2.15490E+01 -1.90012E+01 -2.20283E+01 -2.02895E+01 -1.72032E+01
  -2.10879E+01 -1.96160E+01 -1.78023E+01 -1.92201E+01 -1.77669E+01 -2.02379E+01 -1.98526E+01 -1.95655E+01 -1.75655E+01 -1.96060E+01
  -1.93453E+01 -1.39069E+01 -1.79993E+01 -1.63739E+01 -1.64587E+01 -1.75787E+01 -1.83005E+01 -1.99189E+01 -1.42562E+01 -1.37342E+01
  -1.68016E+01 -1.52025E+01 -1.74649E+01 -1.60844E+01 -1.48386E+01 -1.36634E+01 -1.53382E+01 -1.48064E+01 -1.56501E+01 -1.56427E+01
  -1.73457E+01 -1.48055E+01 -1.46628E+01 -1.10531E+01 -1.32283E+01 -1.39959E+01 -1.19852E+01 -1.34371E+01 -1.30963E+01 -1.29689E+01
  -1.52248E+01 -1.28665E+01 -1.14281E+01 -1.05995E+01 -1.41735E+01 -1.01716E+01 -1.28849E+01 -1.43873E+01 -1.40116E+01 -1.50161E+01
  -1.29885E+01 -1.10400E+01 -1.29987E+01 -1.13941E+01 -1.19633E+01 -1.20564E+01 -1.14078E+01 -1.22689E+01 -1.30218E+01 -1.17220E+01
  -1.26924E+01 -1.22776E+01 -1.33388E+01 -1.24453E+01 -1.28786E+01 -9.85921E+00 -1.19659E+01 -1.20571E+01 -1.16592E+01 -1.22774E+01
  -1.22384E+01 -1.15963E+01 -1.21262E+01 -1.08862E+01 -1.14834E+01 -1.17751E+01 -1.28237E+01 -1.29212E+01 -1.30081E+01 -1.14108E+01
  -1.09350E+01 -9.47230E+00 -1.06783E+01 -9.57253E+00 -1.04664E+01 -8.18779E+00 -1.07909E+01 -7.46420E+00 -7.46548E+00 -9.73820E+00
  -1.26484E+01 -1.11054E+01 -1.17432E+01 -1.14187E+01 -1.01679E+01 -1.24245E+01 -1.02634E+01 -1.11680E+01 -1.22405E+01 -1.08826E+01
  -1.21550E+01 -1.07389E+01 -9.93032E+00 -1.03898E+01 -5.82950E+00 -7.69219E+00 -9.28230E+00 -8.15117E+00 -7.09729E+00 -8.11513E+00
  -7.81839E+00 -7.02864E+00 -8.24147E+00 -8.05542E+00 -8.19879E+00 -9.44427E+00 -7.78955E+00 -7.53827E+00 -9.23530E+00 -8.10517E+00
  -7.24793E+00 -5.48241E+00 -8.42607E+00 -8.30917E+00 -6.13531E+00 -8.54242E+00 -8.77626E+00 -7.73550E+00 -7.33330E+00 -9.78487E+00
  -7.34044E+00 -8.24385E+00 -6.27005E+00 -7.98133E+00 -7.47131E+00 -6.91066E+00 -6.80945E+00 -7.95336E+00 -7.35880E+00 -8.48069E+00
  -7.65215E+00 -4.24710E+00 -6.19567E+00 -6.19537E+00 -7.82449E+00 -6.87561E+00 -7.70616E+00 -6.62882E+00 -7.64332E+00 -5.65734E+00
  -6.51230E+00 -5.54913E+00 -6.53055E+00 -8.37221E+00 -5.49546E+00 -8.92869E+00 -4.33662E+00 -6.01467E+00 -9.11183E+00 -4.66719E+00
  -5.04738E+00 -7.66872E+00 -5.43970E+00 -7.76602E+00 -6.62292E+00 -6.08882E+00 -8.24029E+00 -6.13300E+00 -6.97904E+00 -3.64404E+00
  -6.86112E+00 -7.00782E+00 -6.21632E+00 -4.27089E+00 -4.92281E+00 -5.50251E+00 -5.55198E+00 -5.74293E+00 -5.20175E+00 -5.02063E+00
  -7.02658E+00 -5.04331E+00 -6.25408E+00 -5.09970E+00 -2.00880E+00 -5.89614E+00 -4.36369E+00 -4.39302E+00 -5.18670E+00 -4.50023E+00
  -5.69899E+00 -5.26810E+00 -5.79241E+00 -5.02340E+00 -7.15800E+00 -5.26697E+00 -5.73633E+00 -6.54577E+00 -3.90782E+00 -7.65186E+00
  -5.75739E+00 -2.43585E+00 -4.13930E+00 -5.86799E+00 -4.09622E+00 -3.85180E+00 -3.19687E+00 -5.24815E+00 -4.66815E+00 -3.00820E+00
  -4.40080E+00 -2.51955E+00 -6.30216E+00 -3.77766E+00 -4.89710E+00 -5.59305E+00 -4.67742E+00 -3.92542E+00 -4.52332E+00 -5.73424E+00
  -5.45120E+00 -3.96343E+00 -4.48741E+00 -6.09334E+00 -5.33936E+00 -6.79074E+00 -4.71193E+00 -2.56010E+00 -3.76437E+00 -5.99713E+00
  -6.96916E+00 -6.38849E+00 -6.69462E+00 -6.14502E+00 -3.85021E+00 -4.35296E+00 -2.46910E+00 -3.81366E+00  1.11073E-01 -2.20386E+00
  -4.15212E+00 -4.81909E+00 -4.85651E+00 -1.82791E+00 -3.65881E+00 -4.27771E+00 -7.45767E+00 -4.73685E+00 -7.09121E+00 -4.25654E+00
  -4.73821E+00 -1.68312E+00 -2.59968E+00 -4.45044E+00 -3.52305E+00 -3.50016E+00 -4.66126E+00 -3.00411E+00 -4.47310E+00 -2.63215E+00
  -2.36879E+00 -1.18378E+00 -4.16255E+00 -5.37701E+00 -3.27770E+00 -2.89248E+00 -2.30406E+00 -5.32157E+00 -4.00135E+00 -5.73290E+00
  -4.20546E+00 -1.36932E+00 -2.05792E+00 -3.81967E+00 -9.31497E-01 -1.29235E+00 -2.28867E+00 -1.77509E+00 -3.36870E+00 -9.70003E-01
  -2.74154E+00  2.25534E+00 -3.81971E+00 -6.60241E-02 -4.45959E+00 -2.63318E-01  2.83662E-01 -2.19510E+00 -2.41818E+00 -9.98243E-02
  -1.29388E+00 -1.79630E+00 -2.11306E+00 -2.20890E+00 -2.24018E+00 -3.44022E+00 -3.33357E+00 -3.54238E+00 -5.42952E+00 -7.05732E+00
  -8.28000E+00 -7.58254E+00 -7.42598E+00 -5.95319E+00 -1.00365E+01 -1.10091E+01 -1.19182E+01 -1.19439E+01 -1.26209E+01 -9.15309E+00
  -9.31189E+00 -8.66522E+00 -1.15046E+01 -1.23706E+01 -1.25053E+01 -1.00068E+01 -8.87201E+00 -5.97858E+00 -8.36220E+00 -6.43964E+00
  -7.91756E+00 -6.24325E+00 -6.96194E+00 -7.32161E+00 -5.96931E+00 -8.91486E+00 -7.22486E+00 -6.55704E+00 -6.42649E+00 -7.16920E+00
  -7.80399E+00 -4.36988E+00 -3.30942E+00 -5.93840E+00 -3.14953E+00 -3.66664E+00 -2.63557E+00 -3.16718E+00 -3.94825E+00 -3.05098E+00
  -2.87191E+00 -3.98010E+00 -5.62548E+00 -3.81094E+00 -1.71790E+00 -4.10320E+00 -4.20871E+00 -4.82366E+00 -2.76596E+00 -4.03012E+00
  -4.65067E+00 -4.64078E+00 -3.38527E+00 -2.13840E+00 -5.05376E+00 -4.78729E+00 -4.63140E+00 -3.08335E+00 -4.88929E+00 -4.01450E+00
  -5.65743E+00 -5.23742E+00 -1.93746E+00 -3.93275E+00 -5.88369E+00 -2.90865E+00 -4.42117E+00 -4.83123E+00 -4.29370E+00 -6.08537E+00
  -3.92995E+00 -4.12013E+00 -3.16726E+00 -1.90037E+00 -5.75163E+00 -1.90046E+00 -4.34163E+00 -4.87519E+00 -2.60277E+00 -4.08035E+00
  -4.83843E+00 -2.31377E+00 -1.60982E+00 -1.32128E+00 -2.39221E+00 -3.32754E+00 -1.73816E+00 -3.98782E+00 -5.57700E+00 -3.25529E+00
  -3.54070E+00 -2.39415E+00 -3.71371E+00 -6.08874E+00 -1.33047E+00 -4.64660E+00 -3.34107E+00 -4.75688E+00 -4.98093E+00 -4.11681E+00
  -2.97143E+00 -3.25710E+00 -1.68822E+00 -3.16930E+00 -4.94351E+00 -2.07266E-02 -3.40396E+00 -3.72569E+00 -4.44477E+00 -2.43106E+00
  -2.67043E+00 -3.69861E+00 -2.77306E+00 -3.60501E+00 -4.56894E+00  5.34469E-01 -2.61327E+00 -4.01735E+00 -4.42219E+00 -4.85409E+00
  -2.26580E+00 -1.65111E+00 -4.43953E+00 -4.16416E+00 -3.43144E+00 -2.89631E+00 -3.08414E+00 -4.47224E+00 -3.06979E+00 -4.55783E+00
  -4.76811E+00 -2.42446E+00 -4.52652E+00 -4.53023E+00 -3.04269E-01 -3.99331E+00 -4.95121E+00 -3.65890E+00 -4.90735E+00 -3.66080E+00
  -4.23653E+00 -3.88048E+00 -2.51653E+00 -4.55617E+00 -4.40614E+00 -3.64294E+00 -2.91465E+00 -2.35477E+00 -4.17255E+00 -3.80836E+00
  -2.03301E+00 -4.91298E+00 -1.67556E+00 -3.55667E+00 -3.96012E+00 -4.24006E+00 -3.80922E+00 -4.24407E+00 -3.33955E+00 -3.02743E+00
  -2.49279E+00 -3.74333E+00 -3.79540E+00 -3.43320E+00 -2.75941E+00 -3.35723E+00 -2.01528E+00 -3.15465E+00 -4.52265E+00 -2.26938E+00
  -4.19100E+00 -1.55496E+00 -2.94656E+00 -6.98584E-01 -2.38969E+00 -1.39341E+00 -2.71859E+00 -4.86074E+00
 NY points of the fit to the data follow
  -2.14103E+01 -2.13376E+01 -2.13574E+01 -2.15634E+01 -2.17918E+01 -2.18925E+01 -2.18050E+01 -2.15094E+01 -2.11253E+01 -2.08355E+01
  -2.07410E+01 -2.08123E+01 -2.08805E+01 -2.07544E+01 -2.03815E+01 -1.99194E+01 -1.96060E+01 -1.95369E+01 -1.95084E+01 -1.93533E+01
  -1.91362E+01 -1.89646E+01 -1.88747E+01 -1.88164E+01 -1.87497E+01 -1.86930E+01 -1.86423E+01 -1.85579E+01 -1.84415E+01 -1.83312E+01
  -1.82237E+01 -1.80469E+01 -1.77730E+01 -1.74708E+01 -1.72482E+01 -1.71388E+01 -1.70676E+01 -1.69849E+01 -1.69315E+01 -1.69965E+01
  -1.70974E+01 -1.69882E+01 -1.65777E+01 -1.60318E+01 -1.55545E+01 -1.53006E+01 -1.53182E+01 -1.54895E+01 -1.55900E+01 -1.54115E+01
  -1.49936E+01 -1.46734E+01 -1.47618E+01 -1.52386E+01 -1.57502E+01 -1.58613E+01 -1.54830E+01 -1.49517E+01 -1.46084E+01 -1.45059E+01
  -1.45108E+01 -1.44902E+01 -1.43599E+01 -1.41547E+01 -1.39911E+01 -1.39352E+01 -1.39826E+01 -1.40343E+01 -1.39804E+01 -1.38175E+01
  -1.36017E+01 -1.33952E+01 -1.32352E+01 -1.31174E+01 -1.30309E+01 -1.29561E+01 -1.28962E+01 -1.28700E+01 -1.28537E+01 -1.27927E+01
  -1.26749E+01 -1.25714E+01 -1.25636E+01 -1.26379E+01 -1.27310E+01 -1.27707E+01 -1.27140E+01 -1.25669E+01 -1.23993E+01 -1.22628E+01
  -1.21732E+01 -1.21104E+01 -1.20187E+01 -1.18693E+01 -1.17172E+01 -1.17332E+01 -1.18992E+01 -1.17388E+01 -1.11173E+01 -1.02321E+01
  -9.43274E+00 -9.08688E+00 -9.29213E+00 -9.74487E+00 -9.99343E+00 -9.79138E+00 -9.26310E+00 -8.80526E+00 -8.86957E+00 -9.56534E+00
  -1.04813E+01 -1.10384E+01 -1.09900E+01 -1.06697E+01 -1.04829E+01 -1.03566E+01 -1.02458E+01 -1.01484E+01 -1.00775E+01 -1.00470E+01
  -9.98021E+00 -9.81368E+00 -9.57048E+00 -9.31021E+00 -9.11137E+00 -9.02839E+00 -9.03940E+00 -9.06047E+00 -9.01676E+00 -8.89286E+00
  -8.74607E+00 -8.67602E+00 -8.74213E+00 -8.89493E+00 -9.01451E+00 -9.01408E+00 -8.91951E+00 -8.83387E+00 -8.77295E+00 -8.71018E+00
  -8.64278E+00 -8.57457E+00 -8.50993E+00 -8.45218E+00 -8.40199E+00 -8.35644E+00 -8.31046E+00 -8.25788E+00 -8.19989E+00 -8.14302E+00
  -8.09262E+00 -8.04733E+00 -7.99887E+00 -7.94313E+00 -7.89231E+00 -7.85545E+00 -7.83298E+00 -7.81344E+00 -7.77323E+00 -7.70779E+00
  -7.63082E+00 -7.56261E+00 -7.51926E+00 -7.49940E+00 -7.48331E+00 -7.44647E+00 -7.38001E+00 -7.29811E+00 -7.22745E+00 -7.19649E+00
  -7.20234E+00 -7.20652E+00 -7.18279E+00 -7.12315E+00 -7.05084E+00 -6.99289E+00 -6.95471E+00 -6.93073E+00 -6.90138E+00 -6.85016E+00
  -6.78608E+00 -6.72120E+00 -6.66729E+00 -6.63056E+00 -6.59803E+00 -6.54661E+00 -6.46990E+00 -6.39381E+00 -6.34662E+00 -6.32295E+00
  -6.28807E+00 -6.21871E+00 -6.13034E+00 -6.05699E+00 -6.02565E+00 -6.03518E+00 -6.04831E+00 -6.02302E+00 -5.96265E+00 -5.88895E+00
  -5.82650E+00 -5.79401E+00 -5.78750E+00 -5.78137E+00 -5.75050E+00 -5.69004E+00 -5.62897E+00 -5.59036E+00 -5.57513E+00 -5.57446E+00
  -5.56717E+00 -5.53441E+00 -5.47844E+00 -5.42236E+00 -5.38226E+00 -5.35156E+00 -5.31592E+00 -5.26025E+00 -5.18259E+00 -5.09919E+00
  -5.03124E+00 -4.98734E+00 -4.95670E+00 -4.92519E+00 -4.89528E+00 -4.86557E+00 -4.83164E+00 -4.79242E+00 -4.75067E+00 -4.70995E+00
  -4.67186E+00 -4.63463E+00 -4.59544E+00 -4.55220E+00 -4.50301E+00 -4.44684E+00 -4.38756E+00 -4.33324E+00 -4.28955E+00 -4.25462E+00
  -4.22185E+00 -4.18790E+00 -4.15517E+00 -4.12584E+00 -4.10075E+00 -4.08054E+00 -4.06619E+00 -4.05870E+00 -4.05988E+00 -4.07348E+00
  -4.11088E+00 -4.21422E+00 -4.43718E+00 -4.47262E+00 -4.08539E+00 -3.42242E+00 -2.76500E+00 -2.43101E+00 -2.60165E+00 -3.12035E+00
  -3.59720E+00 -3.73193E+00 -3.52204E+00 -3.25221E+00 -3.32825E+00 -3.95491E+00 -4.87905E+00 -5.57734E+00 -5.70928E+00 -5.42722E+00
  -5.19691E+00 -5.09774E+00 -5.02109E+00 -4.95199E+00 -4.88700E+00 -4.82306E+00 -4.75875E+00 -4.69449E+00 -4.63006E+00 -4.56302E+00
  -4.49193E+00 -4.41655E+00 -4.33532E+00 -4.24600E+00 -4.14687E+00 -4.03647E+00 -3.91396E+00 -3.77776E+00 -3.62580E+00 -3.45698E+00
  -3.27089E+00 -3.06621E+00 -2.84150E+00 -2.59545E+00 -2.32841E+00 -2.04267E+00 -1.74189E+00 -1.43062E+00 -1.11551E+00 -8.05169E-01
  -5.10031E-01 -2.41604E-01 -1.26190E-02  1.64360E-01  2.77315E-01  3.15540E-01  2.70312E-01  1.35983E-01 -8.97243E-02 -4.05013E-01
  -8.04178E-01 -1.27747E+00 -1.81186E+00 -2.39151E+00 -2.99905E+00 -3.61652E+00 -4.22721E+00 -4.81759E+00 -5.37505E+00 -5.79202E+00
  -5.86856E+00 -5.79223E+00 -5.84463E+00 -6.18182E+00 -6.81529E+00 -7.54469E+00 -8.11774E+00 -8.49584E+00 -8.56135E+00 -8.33852E+00
  -8.04099E+00 -7.82684E+00 -7.69884E+00 -7.54150E+00 -7.25026E+00 -6.83312E+00 -6.40762E+00 -5.96502E+00 -5.36764E+00 -4.88378E+00
  -4.85690E+00 -5.29554E+00 -5.85692E+00 -6.14105E+00 -6.08257E+00 -5.97927E+00 -5.91098E+00 -5.84891E+00 -5.78904E+00 -5.73110E+00
  -5.67510E+00 -5.62087E+00 -5.56833E+00 -5.51733E+00 -5.46782E+00 -5.41965E+00 -5.37276E+00 -5.32694E+00 -5.28213E+00 -5.23817E+00
  -5.19506E+00 -5.15266E+00 -5.11094E+00 -5.06974E+00 -5.02903E+00 -4.98868E+00 -4.94872E+00 -4.90899E+00 -4.86950E+00 -4.83009E+00
  -4.79075E+00 -4.75135E+00 -4.71189E+00 -4.67225E+00 -4.63239E+00 -4.59216E+00 -4.55155E+00 -4.51043E+00 -4.46881E+00 -4.42656E+00
  -4.38368E+00 -4.34005E+00 -4.29574E+00 -4.25073E+00 -4.20514E+00 -4.15903E+00 -4.11262E+00 -4.06609E+00 -4.01984E+00 -3.97423E+00
  -3.92983E+00 -3.88714E+00 -3.84688E+00 -3.80970E+00 -3.77643E+00 -3.74779E+00 -3.72455E+00 -3.70733E+00 -3.69673E+00 -3.69311E+00
  -3.69677E+00 -3.70767E+00 -3.72563E+00 -3.75012E+00 -3.78050E+00 -3.81580E+00 -3.85502E+00 -3.89685E+00 -3.94006E+00 -3.98327E+00
  -4.02524E+00 -4.06475E+00 -4.10082E+00 -4.13252E+00 -4.15922E+00 -4.18043E+00 -4.19595E+00 -4.20570E+00 -4.20988E+00 -4.20869E+00
  -4.20258E+00 -4.19197E+00 -4.17746E+00 -4.15955E+00 -4.13882E+00 -4.11573E+00 -4.09081E+00 -4.06443E+00 -4.03703E+00 -4.00888E+00
  -3.98029E+00 -3.95141E+00 -3.92247E+00 -3.89354E+00 -3.86478E+00 -3.83622E+00 -3.80795E+00 -3.77992E+00 -3.75223E+00 -3.72482E+00
  -3.69777E+00 -3.67099E+00 -3.64454E+00 -3.61833E+00 -3.59243E+00 -3.56677E+00 -3.54138E+00 -3.51620E+00 -3.49126E+00 -3.46649E+00
  -3.44195E+00 -3.41756E+00 -3.39338E+00 -3.36933E+00 -3.34545E+00 -3.32168E+00 -3.29807E+00 -3.27457E+00 -3.25121E+00 -3.22793E+00
  -3.20477E+00 -3.18168E+00 -3.15872E+00 -3.13581E+00 -3.11301E+00 -3.09025E+00 -3.06758E+00 -3.04495E+00 -3.02241E+00 -2.99991E+00
  -2.97747E+00 -2.95505E+00 -2.93270E+00 -2.91037E+00 -2.88811E+00 -2.86585E+00 -2.84365E+00 -2.82143E+00 -2.79928E+00 -2.77712E+00
  -2.75501E+00 -2.73289E+00 -2.71079E+00 -2.68869E+00 -2.66661E+00 -2.64453E+00 -2.62247E+00 -2.60038E+00 -2.57831E+00 -2.55621E+00
  -2.53413E+00 -2.51202E+00 -2.48991E+00 -2.46776E+00 -2.44561E+00 -2.42341E+00 -2.40122E+00 -2.37898E+00
 NY background values follow
    -2.209E+01   -2.197E+01   -2.185E+01   -2.172E+01   -2.160E+01   -2.148E+01   -2.135E+01   -2.123E+01   -2.111E+01   -2.099E+01
    -2.086E+01   -2.074E+01   -2.062E+01   -2.050E+01   -2.038E+01   -2.026E+01   -2.013E+01   -2.001E+01   -1.989E+01   -1.977E+01
    -1.965E+01   -1.953E+01   -1.941E+01   -1.929E+01   -1.917E+01   -1.905E+01   -1.894E+01   -1.882E+01   -1.870E+01   -1.858E+01
    -1.847E+01   -1.835E+01   -1.823E+01   -1.812E+01   -1.800E+01   -1.789E+01   -1.777E+01   -1.766E+01   -1.754E+01   -1.743E+01
    -1.732E+01   -1.721E+01   -1.709E+01   -1.698E+01   -1.687E+01   -1.676E+01   -1.665E+01   -1.654E+01   -1.643E+01   -1.632E+01
    -1.622E+01   -1.611E+01   -1.600E+01   -1.590E+01   -1.579E+01   -1.568E+01   -1.558E+01   -1.548E+01   -1.537E+01   -1.527E+01
    -1.517E+01   -1.506E+01   -1.496E+01   -1.486E+01   -1.476E+01   -1.466E+01   -1.456E+01   -1.446E+01   -1.437E+01   -1.427E+01
    -1.417E+01   -1.408E+01   -1.398E+01   -1.388E+01   -1.379E+01   -1.370E+01   -1.360E+01   -1.351E+01   -1.342E+01   -1.333E+01
    -1.323E+01   -1.314E+01   -1.305E+01   -1.297E+01   -1.288E+01   -1.279E+01   -1.270E+01   -1.261E+01   -1.253E+01   -1.244E+01
    -1.236E+01   -1.227E+01   -1.219E+01   -1.211E+01   -1.202E+01   -1.194E+01   -1.186E+01   -1.178E+01   -1.170E+01   -1.162E+01
    -1.154E+01   -1.146E+01   -1.139E+01   -1.131E+01   -1.123E+01   -1.116E+01   -1.108E+01   -1.101E+01   -1.093E+01   -1.086E+01
    -1.079E+01   -1.071E+01   -1.064E+01   -1.057E+01   -1.050E+01   -1.043E+01   -1.036E+01   -1.029E+01   -1.023E+01   -1.016E+01
    -1.009E+01   -1.003E+01   -9.961E+00   -9.896E+00   -9.832E+00   -9.769E+00   -9.706E+00   -9.643E+00   -9.581E+00   -9.520E+00
    -9.459E+00   -9.399E+00   -9.340E+00   -9.281E+00   -9.223E+00   -9.165E+00   -9.108E+00   -9.052E+00   -8.996E+00   -8.940E+00
    -8.886E+00   -8.832E+00   -8.778E+00   -8.725E+00   -8.673E+00   -8.621E+00   -8.570E+00   -8.519E+00   -8.469E+00   -8.419E+00
    -8.370E+00   -8.322E+00   -8.274E+00   -8.226E+00   -8.180E+00   -8.133E+00   -8.088E+00   -8.043E+00   -7.998E+00   -7.954E+00
    -7.910E+00   -7.867E+00   -7.825E+00   -7.783E+00   -7.741E+00   -7.700E+00   -7.660E+00   -7.620E+00   -7.581E+00   -7.542E+00
    -7.503E+00   -7.465E+00   -7.428E+00   -7.391E+00   -7.355E+00   -7.319E+00   -7.283E+00   -7.248E+00   -7.214E+00   -7.180E+00
    -7.147E+00   -7.114E+00   -7.081E+00   -7.049E+00   -7.017E+00   -6.986E+00   -6.956E+00   -6.925E+00   -6.895E+00   -6.866E+00
    -6.837E+00   -6.809E+00   -6.780E+00   -6.753E+00   -6.725E+00   -6.698E+00   -6.672E+00   -6.646E+00   -6.620E+00   -6.595E+00
    -6.570E+00   -6.545E+00   -6.520E+00   -6.497E+00   -6.473E+00   -6.450E+00   -6.427E+00   -6.404E+00   -6.382E+00   -6.360E+00
    -6.338E+00   -6.317E+00   -6.295E+00   -6.275E+00   -6.254E+00   -6.234E+00   -6.214E+00   -6.194E+00   -6.175E+00   -6.156E+00
    -6.137E+00   -6.118E+00   -6.100E+00   -6.082E+00   -6.064E+00   -6.046E+00   -6.029E+00   -6.012E+00   -5.995E+00   -5.978E+00
    -5.961E+00   -5.945E+00   -5.929E+00   -5.913E+00   -5.897E+00   -5.881E+00   -5.866E+00   -5.851E+00   -5.836E+00   -5.821E+00
    -5.806E+00   -5.791E+00   -5.777E+00   -5.763E+00   -5.749E+00   -5.735E+00   -5.721E+00   -5.707E+00   -5.694E+00   -5.680E+00
    -5.667E+00   -5.654E+00   -5.641E+00   -5.628E+00   -5.615E+00   -5.602E+00   -5.590E+00   -5.577E+00   -5.565E+00   -5.553E+00
    -5.541E+00   -5.528E+00   -5.516E+00   -5.504E+00   -5.493E+00   -5.481E+00   -5.469E+00   -5.457E+00   -5.446E+00   -5.434E+00
    -5.423E+00   -5.411E+00   -5.400E+00   -5.389E+00   -5.377E+00   -5.366E+00   -5.355E+00   -5.344E+00   -5.333E+00   -5.322E+00
    -5.310E+00   -5.299E+00   -5.288E+00   -5.277E+00   -5.266E+00   -5.255E+00   -5.244E+00   -5.233E+00   -5.222E+00   -5.211E+00
    -5.200E+00   -5.189E+00   -5.178E+00   -5.167E+00   -5.155E+00   -5.144E+00   -5.133E+00   -5.122E+00   -5.111E+00   -5.099E+00
    -5.088E+00   -5.076E+00   -5.065E+00   -5.054E+00   -5.042E+00   -5.030E+00   -5.019E+00   -5.007E+00   -4.995E+00   -4.983E+00
    -4.971E+00   -4.959E+00   -4.947E+00   -4.935E+00   -4.923E+00   -4.911E+00   -4.898E+00   -4.886E+00   -4.873E+00   -4.861E+00
    -4.848E+00   -4.835E+00   -4.823E+00   -4.810E+00   -4.797E+00   -4.783E+00   -4.770E+00   -4.757E+00   -4.744E+00   -4.730E+00
    -4.717E+00   -4.703E+00   -4.690E+00   -4.676E+00   -4.662E+00   -4.649E+00   -4.635E+00   -4.621E+00   -4.607E+00   -4.593E+00
    -4.579E+00   -4.565E+00   -4.551E+00   -4.536E+00   -4.522E+00   -4.508E+00   -4.493E+00   -4.479E+00   -4.464E+00   -4.450E+00
    -4.435E+00   -4.420E+00   -4.406E+00   -4.391E+00   -4.376E+00   -4.361E+00   -4.346E+00   -4.331E+00   -4.316E+00   -4.301E+00
    -4.286E+00   -4.271E+00   -4.256E+00   -4.241E+00   -4.226E+00   -4.210E+00   -4.195E+00   -4.180E+00   -4.164E+00   -4.149E+00
    -4.134E+00   -4.118E+00   -4.103E+00   -4.087E+00   -4.072E+00   -4.056E+00   -4.040E+00   -4.025E+00   -4.009E+00   -3.994E+00
    -3.978E+00   -3.962E+00   -3.946E+00   -3.931E+00   -3.915E+00   -3.899E+00   -3.883E+00   -3.867E+00   -3.851E+00   -3.836E+00
    -3.820E+00   -3.804E+00   -3.788E+00   -3.772E+00   -3.756E+00   -3.740E+00   -3.724E+00   -3.708E+00   -3.692E+00   -3.676E+00
    -3.660E+00   -3.643E+00   -3.627E+00   -3.611E+00   -3.595E+00   -3.579E+00   -3.563E+00   -3.547E+00   -3.531E+00   -3.514E+00
    -3.498E+00   -3.482E+00   -3.466E+00   -3.450E+00   -3.433E+00   -3.417E+00   -3.401E+00   -3.385E+00   -3.368E+00   -3.352E+00
    -3.336E+00   -3.319E+00   -3.303E+00   -3.286E+00   -3.270E+00   -3.254E+00   -3.237E+00   -3.221E+00   -3.204E+00   -3.188E+00
    -3.171E+00   -3.155E+00   -3.138E+00   -3.121E+00   -3.105E+00   -3.088E+00   -3.071E+00   -3.055E+00   -3.038E+00   -3.021E+00
    -3.004E+00   -2.988E+00   -2.971E+00   -2.954E+00   -2.937E+00   -2.920E+00   -2.903E+00   -2.886E+00   -2.869E+00   -2.852E+00
    -2.835E+00   -2.818E+00   -2.801E+00   -2.783E+00   -2.766E+00   -2.749E+00   -2.732E+00   -2.714E+00   -2.697E+00   -2.680E+00
    -2.662E+00   -2.645E+00   -2.627E+00   -2.610E+00   -2.592E+00   -2.575E+00   -2.557E+00   -2.540E+00   -2.522E+00   -2.504E+00
    -2.487E+00   -2.469E+00   -2.451E+00   -2.433E+00   -2.415E+00   -2.397E+00   -2.379E+00   -2.361E+00   -2.343E+00   -2.325E+00
    -2.307E+00   -2.289E+00   -2.271E+00   -2.252E+00   -2.234E+00   -2.216E+00   -2.198E+00   -2.179E+00   -2.161E+00   -2.142E+00
    -2.124E+00   -2.105E+00   -2.087E+00   -2.068E+00   -2.049E+00   -2.031E+00   -2.012E+00   -1.993E+00
 Ala      Conc. = 8.63E+01
