 LCModel (Version 6.3-1L) Copyright: S.W. Provencher.          Ref.: Magn. Reson. Med. 30:672-679 (1993).                
 Slice#1 Row#9 Col#3  PD_24_press_2_raw_act
 36 lines in following concentration table = NCONC+1
    Conc.  %SD /Cr+PCr  Metabolite                                         
  725.593  27%   0.417 Ala                                                 
   63.501 505% 3.7E-02 Asp                                                 
 1.63E+03  18%   0.935 Cr                                                  
  112.848 261% 6.5E-02 PCr                                                 
    0.000 999%   0.000 GABA                                                
    0.000 999%   0.000 Glc                                                 
  547.209  78%   0.315 Gln                                                 
 1.79E+03  27%   1.032 Glu                                                 
  516.495   6%   0.297 GPC                                                 
    0.000 999%   0.000 PCh                                                 
  501.450  21%   0.288 GSH                                                 
 1.10E+03  35%   0.632 Ins                                                 
   35.353 655% 2.0E-02 Lac                                                 
 2.11E+03  15%   1.213 NAA                                                 
 1.48E+03  21%   0.850 NAAG                                                
   41.367  88% 2.4E-02 Scyllo                                              
    0.000 999%   0.000 Tau                                                 
  418.746  36%   0.241 -CrCH2                                              
  516.495   6%   0.297 GPC+PCh                                             
 3.59E+03   4%   2.063 NAA+NAAG                                            
 1.74E+03   5%   1.000 Cr+PCr                                              
 2.34E+03  33%   1.347 Glu+Gln                                             
 6.32E+03  18%   3.635 Lip13a                                              
    0.000 999%   0.000 Lip13b                                              
   82.853 685% 4.8E-02 Lip09                                               
 3.73E+03  17%   2.147 MM09                                                
 2.12E+03  22%   1.219 Lip20                                               
 6.92E+03  10%   3.978 MM20                                                
 1.25E+03  31%   0.719 MM12                                                
 4.11E+03   9%   2.364 MM14                                                
    0.000 999%   0.000 MM17                                                
 6.32E+03  18%   3.635 Lip13a+Lip13b                                       
 1.17E+04   6%   6.718 MM14+Lip13a+Lip13b+MM12                             
 3.82E+03  10%   2.195 MM09+Lip09                                          
 9.04E+03   6%   5.197 MM20+Lip20                                          
   6 lines in following misc. output table
  FWHM = 0.076 ppm    S/N =  15                                            
  Data shift =-0.023 ppm                                                   
  Ph:  27 deg      16.2 deg/ppm                                            
  alphaB,S = 7.1E-01,   1.4E+02                                            
   14 spline knots.   Ns =10(1)                                            
  (14) 3 infls.   (11) 1 extrs.                                            
  498 points on ppm-axis = NY
      4.000000     3.992357     3.984714     3.977070     3.969427     3.961784     3.954141     3.946497     3.938854     3.931211
      3.923568     3.915925     3.908281     3.900638     3.892995     3.885352     3.877708     3.870065     3.862422     3.854779
      3.847136     3.839492     3.831849     3.824206     3.816563     3.808919     3.801276     3.793633     3.785990     3.778347
      3.770703     3.763060     3.755417     3.747774     3.740130     3.732487     3.724844     3.717201     3.709558     3.701914
      3.694271     3.686628     3.678985     3.671341     3.663698     3.656055     3.648412     3.640769     3.633125     3.625482
      3.617839     3.610196     3.602552     3.594909     3.587266     3.579623     3.571980     3.564336     3.556693     3.549050
      3.541407     3.533763     3.526120     3.518477     3.510834     3.503191     3.495547     3.487904     3.480261     3.472618
      3.464974     3.457331     3.449688     3.442045     3.434402     3.426758     3.419115     3.411472     3.403829     3.396185
      3.388542     3.380899     3.373256     3.365613     3.357969     3.350326     3.342683     3.335040     3.327396     3.319753
      3.312110     3.304467     3.296824     3.289180     3.281537     3.273894     3.266251     3.258607     3.250964     3.243321
      3.235678     3.228034     3.220391     3.212748     3.205105     3.197462     3.189818     3.182175     3.174532     3.166889
      3.159245     3.151602     3.143959     3.136316     3.128673     3.121029     3.113386     3.105743     3.098100     3.090456
      3.082813     3.075170     3.067527     3.059884     3.052240     3.044597     3.036954     3.029311     3.021667     3.014024
      3.006381     2.998738     2.991095     2.983451     2.975808     2.968165     2.960522     2.952878     2.945235     2.937592
      2.929949     2.922306     2.914662     2.907019     2.899376     2.891733     2.884089     2.876446     2.868803     2.861160
      2.853517     2.845873     2.838230     2.830587     2.822944     2.815300     2.807657     2.800014     2.792371     2.784728
      2.777084     2.769441     2.761798     2.754155     2.746511     2.738868     2.731225     2.723582     2.715939     2.708295
      2.700652     2.693009     2.685366     2.677722     2.670079     2.662436     2.654793     2.647150     2.639506     2.631863
      2.624220     2.616577     2.608933     2.601290     2.593647     2.586004     2.578361     2.570717     2.563074     2.555431
      2.547788     2.540144     2.532501     2.524858     2.517215     2.509572     2.501928     2.494285     2.486642     2.478999
      2.471355     2.463712     2.456069     2.448426     2.440783     2.433139     2.425496     2.417853     2.410210     2.402566
      2.394923     2.387280     2.379637     2.371994     2.364350     2.356707     2.349064     2.341421     2.333777     2.326134
      2.318491     2.310848     2.303205     2.295561     2.287918     2.280275     2.272632     2.264988     2.257345     2.249702
      2.242059     2.234416     2.226772     2.219129     2.211486     2.203843     2.196199     2.188556     2.180913     2.173270
      2.165627     2.157983     2.150340     2.142697     2.135054     2.127410     2.119767     2.112124     2.104481     2.096838
      2.089194     2.081551     2.073908     2.066265     2.058621     2.050978     2.043335     2.035692     2.028049     2.020405
      2.012762     2.005119     1.997476     1.989833     1.982190     1.974546     1.966903     1.959260     1.951617     1.943974
      1.936331     1.928688     1.921045     1.913402     1.905759     1.898115     1.890472     1.882829     1.875186     1.867543
      1.859900     1.852257     1.844614     1.836971     1.829327     1.821684     1.814041     1.806398     1.798755     1.791112
      1.783469     1.775826     1.768183     1.760540     1.752896     1.745253     1.737610     1.729967     1.722324     1.714681
      1.707038     1.699395     1.691752     1.684108     1.676465     1.668822     1.661179     1.653536     1.645893     1.638250
      1.630607     1.622964     1.615321     1.607677     1.600034     1.592391     1.584748     1.577105     1.569462     1.561819
      1.554176     1.546533     1.538890     1.531246     1.523603     1.515960     1.508317     1.500674     1.493031     1.485388
      1.477745     1.470102     1.462458     1.454815     1.447172     1.439529     1.431886     1.424243     1.416600     1.408957
      1.401314     1.393671     1.386027     1.378384     1.370741     1.363098     1.355455     1.347812     1.340169     1.332526
      1.324883     1.317240     1.309596     1.301953     1.294310     1.286667     1.279024     1.271381     1.263738     1.256095
      1.248452     1.240808     1.233165     1.225522     1.217879     1.210236     1.202593     1.194950     1.187307     1.179664
      1.172021     1.164377     1.156734     1.149091     1.141448     1.133805     1.126162     1.118519     1.110876     1.103233
      1.095590     1.087946     1.080303     1.072660     1.065017     1.057374     1.049731     1.042088     1.034445     1.026802
      1.019158     1.011515     1.003872     0.996229     0.988586     0.980943     0.973300     0.965657     0.958014     0.950371
      0.942727     0.935084     0.927441     0.919798     0.912155     0.904512     0.896869     0.889226     0.881583     0.873940
      0.866296     0.858653     0.851010     0.843367     0.835724     0.828081     0.820438     0.812795     0.805152     0.797508
      0.789865     0.782222     0.774579     0.766936     0.759293     0.751650     0.744007     0.736364     0.728721     0.721077
      0.713434     0.705791     0.698148     0.690505     0.682862     0.675219     0.667576     0.659933     0.652290     0.644646
      0.637003     0.629360     0.621717     0.614074     0.606431     0.598788     0.591145     0.583502     0.575858     0.568215
      0.560572     0.552929     0.545286     0.537643     0.530000     0.522357     0.514714     0.507071     0.499427     0.491784
      0.484141     0.476498     0.468855     0.461212     0.453569     0.445925     0.438282     0.430639     0.422996     0.415353
      0.407710     0.400067     0.392424     0.384780     0.377137     0.369494     0.361851     0.354208     0.346565     0.338922
      0.331278     0.323635     0.315992     0.308349     0.300706     0.293063     0.285420     0.277777     0.270133     0.262490
      0.254847     0.247204     0.239561     0.231918     0.224275     0.216631     0.208988     0.201345
 NY phased data points follow
   1.06703E+01  1.08971E+01  1.50506E+01  1.29250E+01  1.69833E+01  6.92474E+00  1.35008E+01  1.66042E+01  1.64718E+01  2.20320E+01
   2.73975E+01  2.90979E+01  3.01314E+01  3.01879E+01  3.81656E+01  3.94949E+01  3.52892E+01  3.26078E+01  3.18722E+01  2.59294E+01
   2.72894E+01  2.42119E+01  1.71024E+01  1.74018E+01  2.01262E+01  1.67053E+01  2.12986E+01  1.95634E+01  1.87447E+01  1.26088E+01
   1.68880E+01  1.92008E+01  1.36090E+01  1.80824E+01  1.97432E+01  1.63188E+01  1.82234E+01  1.76348E+01  1.73939E+01  1.57505E+01
   1.39785E+01  1.36269E+01  1.33845E+01  1.45563E+01  1.86833E+01  1.75989E+01  1.71581E+01  1.76373E+01  1.91491E+01  1.52299E+01
   1.26797E+01  1.73503E+01  1.78858E+01  1.48260E+01  1.76450E+01  1.46255E+01  1.27720E+01  1.43107E+01  1.29642E+01  1.13861E+01
   1.30555E+01  6.35420E+00  4.82143E+00  8.56323E+00  9.90024E+00  3.51288E+00  7.31248E+00  5.14774E+00  3.09879E+00  2.52609E+00
  -1.17369E+00  2.86782E+00 -1.77596E-01  2.98912E+00  4.00378E+00  2.83182E+00 -5.83647E-02  1.79127E+00 -4.79099E-01 -6.25518E+00
   5.14478E-01 -1.90161E+00 -3.12626E+00 -2.11272E+00  2.44130E-01  3.86236E+00 -1.20331E+00  2.34952E+00 -1.18241E+00 -2.32178E+00
  -3.97020E+00  2.58328E-02  7.74164E-01 -2.15957E+00  3.27893E-01  1.41004E+00  2.53813E+00  2.79661E+00  4.28090E-01  4.72671E+00
   1.17538E+01  1.70367E+01  1.84664E+01  1.41326E+01  2.54722E+01  3.17060E+01  3.74834E+01  3.52747E+01  3.38493E+01  2.70461E+01
   2.07219E+01  1.39458E+01  1.17725E+01  5.74989E+00  6.70762E+00  7.01273E+00  6.11821E+00  8.76517E+00 -5.51016E-01  1.97887E+00
   4.58048E+00 -5.22997E-01  2.02447E+00  1.52230E+01  1.57281E+01  2.07774E+01  2.34525E+01  2.95141E+01  3.67424E+01  4.15373E+01
   4.09767E+01  4.37861E+01  3.82615E+01  3.70254E+01  2.75259E+01  2.23592E+01  1.42434E+01  9.03611E+00  1.19872E+01  9.23743E+00
   5.91177E+00 -2.17371E-01  3.81686E+00  6.61053E-01 -2.14668E+00 -2.06179E+00  2.36438E+00 -3.29051E+00 -3.93488E+00 -4.36256E+00
  -1.43121E+00 -5.04330E+00 -2.50482E+00  2.68478E-01 -2.62509E+00 -9.87047E+00 -2.18351E+00 -2.75237E+00 -1.01097E+01 -6.69318E+00
  -4.43387E+00 -7.95018E+00 -8.43060E+00 -1.35267E+01 -5.50834E+00 -1.19189E+01 -7.64972E+00 -1.42238E+01 -1.84289E+01 -1.28196E+01
  -1.78908E+01 -1.88993E+01 -1.85585E+01 -2.13186E+01 -2.25483E+01 -2.42094E+01 -2.11293E+01 -2.73831E+01 -2.40934E+01 -2.80732E+01
  -2.53903E+01 -2.52958E+01 -1.94052E+01 -2.12272E+01 -1.60455E+01 -1.73509E+01 -1.75569E+01 -1.94593E+01 -1.67886E+01 -1.68529E+01
  -1.51147E+01 -1.94738E+01 -1.97803E+01 -2.47093E+01 -2.16176E+01 -2.08611E+01 -1.78441E+01 -2.05469E+01 -1.54239E+01 -1.68818E+01
  -1.73292E+01 -1.81282E+01 -1.63494E+01 -1.27146E+01 -1.14334E+01 -1.40245E+01 -1.27821E+01 -1.31326E+01 -7.12392E+00 -1.12738E+01
  -1.19694E+01 -1.30877E+01 -4.86271E+00 -7.28367E+00 -8.27385E+00 -3.54463E+00 -1.05772E+01 -7.05441E+00 -2.93704E+00 -4.64047E+00
  -1.01251E+01 -1.15591E+01 -1.00973E+01 -1.01915E+01 -1.18935E+01 -9.86074E+00 -1.10748E+01 -8.56342E+00 -3.61545E+00 -3.46121E+00
  -3.54140E+00  4.84083E+00 -8.32395E-01 -2.61827E+00 -2.22400E+00 -2.75076E+00 -2.62946E+00 -2.17948E-01 -2.10548E+00 -4.06454E+00
  -1.40253E+00  7.70083E-01 -2.00030E+00  1.57488E+00 -1.69565E+00  3.95210E+00  2.16999E+00  7.52097E+00  8.40291E+00  1.61421E+01
   1.74808E+01  1.87132E+01  2.17326E+01  3.22494E+01  4.31145E+01  5.31834E+01  6.08422E+01  7.55995E+01  7.97022E+01  8.54915E+01
   8.73820E+01  8.21808E+01  7.65127E+01  6.61910E+01  5.75240E+01  4.50953E+01  3.60569E+01  1.66890E+01  3.73965E+00 -4.80178E+00
  -3.44421E+00 -7.21505E+00 -1.17617E+01 -1.06206E+01 -1.02543E+01 -1.31838E+01 -1.18315E+01 -1.79106E+01 -1.78236E+01 -2.04989E+01
  -1.82056E+01 -1.91945E+01 -1.76661E+01 -1.97690E+01 -2.01364E+01 -2.68402E+01 -2.00458E+01 -2.15715E+01 -2.10528E+01 -2.69798E+01
  -2.40414E+01 -2.44843E+01 -2.34146E+01 -2.44871E+01 -2.92874E+01 -2.78211E+01 -2.51331E+01 -3.00066E+01 -2.82123E+01 -2.61197E+01
  -2.40814E+01 -2.81338E+01 -3.06598E+01 -2.83243E+01 -2.94478E+01 -2.72116E+01 -2.10313E+01 -2.85767E+01 -2.86873E+01 -2.56426E+01
  -3.15239E+01 -2.81747E+01 -2.57401E+01 -2.72099E+01 -2.82473E+01 -2.53195E+01 -2.06029E+01 -1.73466E+01 -1.82348E+01 -1.38422E+01
  -1.19397E+01 -1.02512E+01 -9.90155E+00  8.59909E-01 -6.10150E+00 -2.06780E+00 -3.01114E+00  5.20496E+00 -5.01329E-01  7.28659E+00
   3.12038E-01  4.78976E-01  1.06814E+01  4.96189E+00  8.70048E+00  1.21533E+01  1.22354E+01  1.09740E+01  1.44511E+01  1.65835E+01
   1.75209E+01  1.90206E+01  1.67782E+01  1.60525E+01  1.73013E+01  2.01660E+01  1.77247E+01  1.71370E+01  1.44402E+01  1.47634E+01
   1.48990E+01  1.25145E+01  1.13865E+01  1.05058E+01  6.40171E+00  1.03344E+01  6.32650E+00  1.34560E+01  4.98148E+00  6.83275E+00
   4.25643E+00  6.25139E+00  9.56218E+00  3.84090E+00  6.13807E+00  6.04851E+00 -2.18484E+00  5.77616E+00 -3.77466E+00 -2.27953E+00
  -2.15079E+00 -5.31193E+00 -6.94136E+00 -2.88589E+00 -3.06348E+00 -5.88631E+00 -8.09540E+00 -6.29673E+00 -8.18339E+00 -8.22988E+00
  -6.32453E+00 -5.65470E+00 -4.46827E+00 -9.37742E+00 -5.88165E+00 -4.15812E+00 -6.59360E+00 -2.70904E+00 -4.25564E+00 -3.81876E+00
   6.78904E-01 -5.96911E+00 -4.77023E-01  1.96379E+00 -1.32004E+00  3.60348E+00  2.60454E+00  8.96557E-01  1.77999E+00 -1.09028E+00
  -9.37715E-01  1.78447E+00  6.52426E+00  4.88733E+00  1.64596E+00 -2.65116E-01 -1.35237E+00 -4.76923E+00 -5.26611E+00 -3.79118E+00
  -4.15467E+00 -7.01695E+00 -1.00319E+01 -1.09020E+01 -1.63258E+01 -1.34304E+01 -1.52586E+01 -1.38524E+01 -1.19392E+01 -1.72864E+01
  -1.59518E+01 -1.69887E+01 -2.04428E+01 -1.85036E+01 -1.95705E+01 -1.69576E+01 -1.44454E+01 -1.64734E+01 -1.51447E+01 -2.21196E+01
  -1.74213E+01 -1.76852E+01 -1.78401E+01 -2.02934E+01 -1.54697E+01 -2.00107E+01 -1.93253E+01 -2.09582E+01 -1.70679E+01 -1.49430E+01
  -1.57429E+01 -1.33250E+01 -1.57654E+01 -1.58536E+01 -1.56437E+01 -1.52750E+01 -1.59919E+01 -2.13077E+01 -1.74760E+01 -1.55339E+01
  -1.89099E+01 -1.37494E+01 -1.77346E+01 -1.66266E+01 -1.77411E+01 -1.51583E+01 -1.44328E+01 -1.69939E+01 -1.48475E+01 -1.31936E+01
  -1.32893E+01 -1.68707E+01 -1.61740E+01 -1.66553E+01 -1.59518E+01 -1.80661E+01 -1.44899E+01 -1.19356E+01 -1.27914E+01 -1.20685E+01
  -1.78822E+01 -2.15694E+01 -1.88940E+01 -1.53881E+01 -1.84139E+01 -2.04563E+01 -1.48286E+01 -1.51606E+01 -1.74382E+01 -1.28898E+01
  -1.64386E+01 -1.46510E+01 -1.46495E+01 -1.60558E+01 -1.14193E+01 -1.68011E+01 -1.56355E+01 -1.39695E+01 -1.09130E+01 -1.32247E+01
  -1.42480E+01 -1.24077E+01 -1.22077E+01 -1.13339E+01 -1.17667E+01 -1.28124E+01 -1.45843E+01 -1.69991E+01
 NY points of the fit to the data follow
   1.57141E+01  1.48652E+01  1.41474E+01  1.34769E+01  1.28996E+01  1.28717E+01  1.37818E+01  1.57302E+01  1.84520E+01  2.14422E+01
   2.43708E+01  2.73396E+01  3.05588E+01  3.37920E+01  3.64030E+01  3.77766E+01  3.75494E+01  3.56300E+01  3.23786E+01  2.86510E+01
   2.53648E+01  2.27372E+01  2.05098E+01  1.83704E+01  1.69526E+01  1.66286E+01  1.68003E+01  1.71247E+01  1.74899E+01  1.79770E+01
   1.86292E+01  1.93068E+01  1.98545E+01  2.02102E+01  2.02802E+01  1.98509E+01  1.87897E+01  1.73490E+01  1.59141E+01  1.46114E+01
   1.34371E+01  1.26407E+01  1.25872E+01  1.29920E+01  1.35364E+01  1.40419E+01  1.45412E+01  1.50258E+01  1.53966E+01  1.55390E+01
   1.52600E+01  1.44887E+01  1.34163E+01  1.22164E+01  1.10256E+01  1.00409E+01  9.40525E+00  8.99931E+00  8.58762E+00  8.23596E+00
   8.06553E+00  7.95265E+00  7.73147E+00  7.38591E+00  6.93481E+00  6.40799E+00  5.86142E+00  5.37042E+00  5.01880E+00  4.80568E+00
   4.66932E+00  4.59315E+00  4.54479E+00  4.47865E+00  4.36197E+00  4.16493E+00  3.89403E+00  3.55887E+00  3.17408E+00  2.79920E+00
   2.47699E+00  2.20569E+00  1.92117E+00  1.58782E+00  1.22783E+00  8.56438E-01  4.95653E-01  1.33854E-01 -2.55311E-01 -6.72303E-01
  -1.09511E+00 -1.49826E+00 -1.85286E+00 -2.08575E+00 -2.02439E+00 -1.73172E+00 -1.22652E+00 -4.36160E-02  2.35992E+00  6.02764E+00
   1.04746E+01  1.50660E+01  1.94017E+01  2.36200E+01  2.78776E+01  3.16779E+01  3.40851E+01  3.43632E+01  3.22844E+01  2.80518E+01
   2.23675E+01  1.63676E+01  1.12154E+01  7.42173E+00  4.43271E+00  1.59424E+00 -2.20499E-01 -8.14446E-01 -8.09100E-01 -4.58847E-01
   2.90878E-01  2.00478E+00  5.18829E+00  9.78664E+00  1.52485E+01  2.08503E+01  2.61609E+01  3.12972E+01  3.63016E+01  4.05140E+01
   4.28845E+01  4.26706E+01  3.97089E+01  3.43714E+01  2.75522E+01  2.05158E+01  1.44601E+01  9.83300E+00  6.04637E+00  2.61347E+00
   4.99583E-01 -2.23030E-01 -4.20563E-01 -4.60961E-01 -5.45919E-01 -7.22577E-01 -9.79935E-01 -1.36140E+00 -1.84845E+00 -2.39247E+00
  -2.98056E+00 -3.56776E+00 -4.11255E+00 -4.60278E+00 -5.07536E+00 -5.59264E+00 -6.15770E+00 -6.70968E+00 -7.17881E+00 -7.57348E+00
  -7.98678E+00 -8.50071E+00 -9.14889E+00 -9.91358E+00 -1.07188E+01 -1.14767E+01 -1.21753E+01 -1.28502E+01 -1.35419E+01 -1.43588E+01
  -1.53065E+01 -1.62039E+01 -1.69266E+01 -1.75025E+01 -1.79781E+01 -1.84798E+01 -1.90439E+01 -1.95731E+01 -2.00144E+01 -2.03248E+01
  -2.04890E+01 -2.05167E+01 -2.04617E+01 -2.03209E+01 -2.00041E+01 -1.94420E+01 -1.86019E+01 -1.75823E+01 -1.66015E+01 -1.56999E+01
  -1.48859E+01 -1.42098E+01 -1.37242E+01 -1.35164E+01 -1.36041E+01 -1.39651E+01 -1.44196E+01 -1.48126E+01 -1.50377E+01 -1.50439E+01
  -1.47625E+01 -1.42486E+01 -1.36807E+01 -1.32618E+01 -1.30914E+01 -1.32446E+01 -1.37778E+01 -1.46065E+01 -1.54965E+01 -1.62442E+01
  -1.67494E+01 -1.68528E+01 -1.64805E+01 -1.56883E+01 -1.45699E+01 -1.32597E+01 -1.20520E+01 -1.12557E+01 -1.10327E+01 -1.13783E+01
  -1.20742E+01 -1.29971E+01 -1.39998E+01 -1.46047E+01 -1.44380E+01 -1.35333E+01 -1.20791E+01 -1.02577E+01 -8.11587E+00 -6.07744E+00
  -4.46854E+00 -3.34781E+00 -2.55635E+00 -1.91873E+00 -1.43768E+00 -1.09521E+00 -7.37114E-01 -3.04482E-01  1.39448E-01  5.62884E-01
   9.31605E-01  1.29598E+00  1.73020E+00  2.21915E+00  2.84618E+00  3.78979E+00  5.22983E+00  7.05733E+00  9.18663E+00  1.21160E+01
   1.63956E+01  2.17011E+01  2.77203E+01  3.48062E+01  4.32158E+01  5.27882E+01  6.29163E+01  7.21315E+01  7.89393E+01  8.29849E+01
   8.43702E+01  8.26090E+01  7.72226E+01  6.85576E+01  5.76078E+01  4.53042E+01  3.22081E+01  1.93994E+01  9.41585E+00  2.69707E+00
  -2.70328E+00 -7.73499E+00 -1.08847E+01 -1.25113E+01 -1.37342E+01 -1.47831E+01 -1.57133E+01 -1.66196E+01 -1.75275E+01 -1.84022E+01
  -1.92302E+01 -1.99854E+01 -2.06365E+01 -2.11807E+01 -2.16406E+01 -2.20467E+01 -2.24151E+01 -2.27445E+01 -2.30389E+01 -2.33334E+01
  -2.36282E+01 -2.38944E+01 -2.41152E+01 -2.42934E+01 -2.44410E+01 -2.45619E+01 -2.46532E+01 -2.47399E+01 -2.48320E+01 -2.49322E+01
  -2.50288E+01 -2.51001E+01 -2.51364E+01 -2.51441E+01 -2.51081E+01 -2.50227E+01 -2.48947E+01 -2.47300E+01 -2.45281E+01 -2.42777E+01
  -2.39648E+01 -2.35850E+01 -2.31248E+01 -2.25627E+01 -2.18806E+01 -2.10565E+01 -2.00641E+01 -1.88667E+01 -1.74540E+01 -1.58322E+01
  -1.39208E+01 -1.16951E+01 -9.28110E+00 -6.88201E+00 -4.66778E+00 -2.69627E+00 -8.98554E-01  6.97149E-01  1.97251E+00  2.90431E+00
   3.62652E+00  4.33004E+00  5.16263E+00  6.21489E+00  7.60065E+00  9.46929E+00  1.17881E+01  1.42080E+01  1.63242E+01  1.80492E+01
   1.92927E+01  1.96911E+01  1.92995E+01  1.83936E+01  1.73203E+01  1.62930E+01  1.52273E+01  1.40780E+01  1.31608E+01  1.24598E+01
   1.18930E+01  1.14261E+01  1.10347E+01  1.06977E+01  1.03983E+01  1.01180E+01  9.82445E+00  9.47448E+00  9.03380E+00  8.49051E+00
   7.82875E+00  7.03464E+00  6.12064E+00  5.11098E+00  4.03123E+00  2.89761E+00  1.72070E+00  5.30861E-01 -6.45102E-01 -1.79176E+00
  -2.89181E+00 -3.92771E+00 -4.88329E+00 -5.74388E+00 -6.49683E+00 -7.13137E+00 -7.63900E+00 -8.01321E+00 -8.24970E+00 -8.34607E+00
  -8.30212E+00 -8.11970E+00 -7.80313E+00 -7.35902E+00 -6.79667E+00 -6.12783E+00 -5.36710E+00 -4.53171E+00 -3.64167E+00 -2.71922E+00
  -1.78873E+00 -8.75748E-01 -6.73994E-03  7.92066E-01  1.49525E+00  2.07955E+00  2.52448E+00  2.81352E+00  2.93448E+00  2.88030E+00
   2.64908E+00  2.24444E+00  1.67505E+00  9.54341E-01  9.95545E-02 -8.68876E-01 -1.92853E+00 -3.05568E+00 -4.22660E+00 -5.41819E+00
  -6.60911E+00 -7.78010E+00 -8.91461E+00 -9.99886E+00 -1.10222E+01 -1.19767E+01 -1.28574E+01 -1.36619E+01 -1.43896E+01 -1.50420E+01
  -1.56217E+01 -1.61326E+01 -1.65792E+01 -1.69664E+01 -1.72993E+01 -1.75829E+01 -1.78222E+01 -1.80220E+01 -1.81865E+01 -1.83199E+01
  -1.84256E+01 -1.85070E+01 -1.85670E+01 -1.86081E+01 -1.86326E+01 -1.86424E+01 -1.86393E+01 -1.86247E+01 -1.86001E+01 -1.85664E+01
  -1.85249E+01 -1.84762E+01 -1.84213E+01 -1.83606E+01 -1.82949E+01 -1.82246E+01 -1.81503E+01 -1.80723E+01 -1.79910E+01 -1.79067E+01
  -1.78197E+01 -1.77304E+01 -1.76388E+01 -1.75453E+01 -1.74500E+01 -1.73529E+01 -1.72545E+01 -1.71546E+01 -1.70535E+01 -1.69512E+01
  -1.68477E+01 -1.67433E+01 -1.66380E+01 -1.65318E+01 -1.64249E+01 -1.63171E+01 -1.62087E+01 -1.60996E+01 -1.59900E+01 -1.58798E+01
  -1.57690E+01 -1.56577E+01 -1.55459E+01 -1.54337E+01 -1.53211E+01 -1.52080E+01 -1.50946E+01 -1.49807E+01 -1.48664E+01 -1.47518E+01
  -1.46369E+01 -1.45216E+01 -1.44060E+01 -1.42900E+01 -1.41737E+01 -1.40570E+01 -1.39400E+01 -1.38226E+01 -1.37049E+01 -1.35868E+01
  -1.34684E+01 -1.33496E+01 -1.32303E+01 -1.31106E+01 -1.29905E+01 -1.28698E+01 -1.27487E+01 -1.26270E+01
 NY background values follow
     1.468E+01    1.453E+01    1.438E+01    1.423E+01    1.408E+01    1.393E+01    1.377E+01    1.362E+01    1.347E+01    1.332E+01
     1.317E+01    1.302E+01    1.286E+01    1.271E+01    1.256E+01    1.241E+01    1.225E+01    1.210E+01    1.195E+01    1.179E+01
     1.164E+01    1.149E+01    1.133E+01    1.118E+01    1.103E+01    1.087E+01    1.072E+01    1.056E+01    1.041E+01    1.025E+01
     1.009E+01    9.938E+00    9.781E+00    9.624E+00    9.467E+00    9.310E+00    9.152E+00    8.994E+00    8.835E+00    8.676E+00
     8.517E+00    8.357E+00    8.197E+00    8.036E+00    7.875E+00    7.714E+00    7.552E+00    7.389E+00    7.226E+00    7.063E+00
     6.900E+00    6.736E+00    6.571E+00    6.406E+00    6.241E+00    6.076E+00    5.910E+00    5.743E+00    5.577E+00    5.410E+00
     5.242E+00    5.074E+00    4.906E+00    4.738E+00    4.570E+00    4.401E+00    4.231E+00    4.062E+00    3.892E+00    3.722E+00
     3.552E+00    3.381E+00    3.211E+00    3.040E+00    2.868E+00    2.697E+00    2.525E+00    2.353E+00    2.181E+00    2.009E+00
     1.837E+00    1.664E+00    1.492E+00    1.319E+00    1.146E+00    9.726E-01    7.994E-01    6.260E-01    4.525E-01    2.790E-01
     1.053E-01   -6.844E-02   -2.423E-01   -4.162E-01   -5.902E-01   -7.643E-01   -9.385E-01   -1.113E+00   -1.287E+00   -1.462E+00
    -1.636E+00   -1.811E+00   -1.986E+00   -2.161E+00   -2.336E+00   -2.511E+00   -2.687E+00   -2.862E+00   -3.038E+00   -3.214E+00
    -3.390E+00   -3.566E+00   -3.742E+00   -3.919E+00   -4.095E+00   -4.272E+00   -4.449E+00   -4.627E+00   -4.804E+00   -4.982E+00
    -5.159E+00   -5.337E+00   -5.516E+00   -5.694E+00   -5.873E+00   -6.051E+00   -6.230E+00   -6.410E+00   -6.589E+00   -6.769E+00
    -6.949E+00   -7.129E+00   -7.310E+00   -7.490E+00   -7.671E+00   -7.853E+00   -8.034E+00   -8.216E+00   -8.398E+00   -8.580E+00
    -8.762E+00   -8.945E+00   -9.128E+00   -9.310E+00   -9.493E+00   -9.676E+00   -9.859E+00   -1.004E+01   -1.022E+01   -1.041E+01
    -1.059E+01   -1.077E+01   -1.095E+01   -1.114E+01   -1.132E+01   -1.150E+01   -1.168E+01   -1.186E+01   -1.204E+01   -1.222E+01
    -1.240E+01   -1.258E+01   -1.276E+01   -1.294E+01   -1.312E+01   -1.329E+01   -1.347E+01   -1.365E+01   -1.382E+01   -1.400E+01
    -1.417E+01   -1.435E+01   -1.452E+01   -1.469E+01   -1.486E+01   -1.503E+01   -1.520E+01   -1.537E+01   -1.554E+01   -1.571E+01
    -1.587E+01   -1.604E+01   -1.620E+01   -1.637E+01   -1.653E+01   -1.669E+01   -1.685E+01   -1.701E+01   -1.717E+01   -1.733E+01
    -1.748E+01   -1.764E+01   -1.779E+01   -1.795E+01   -1.810E+01   -1.825E+01   -1.840E+01   -1.856E+01   -1.871E+01   -1.886E+01
    -1.900E+01   -1.915E+01   -1.930E+01   -1.945E+01   -1.959E+01   -1.974E+01   -1.988E+01   -2.003E+01   -2.017E+01   -2.031E+01
    -2.045E+01   -2.060E+01   -2.074E+01   -2.088E+01   -2.102E+01   -2.116E+01   -2.130E+01   -2.143E+01   -2.157E+01   -2.171E+01
    -2.185E+01   -2.198E+01   -2.212E+01   -2.226E+01   -2.239E+01   -2.253E+01   -2.266E+01   -2.280E+01   -2.293E+01   -2.306E+01
    -2.320E+01   -2.333E+01   -2.346E+01   -2.359E+01   -2.372E+01   -2.385E+01   -2.398E+01   -2.411E+01   -2.424E+01   -2.437E+01
    -2.450E+01   -2.462E+01   -2.475E+01   -2.487E+01   -2.500E+01   -2.512E+01   -2.524E+01   -2.536E+01   -2.548E+01   -2.560E+01
    -2.571E+01   -2.583E+01   -2.595E+01   -2.606E+01   -2.617E+01   -2.628E+01   -2.639E+01   -2.650E+01   -2.661E+01   -2.671E+01
    -2.681E+01   -2.692E+01   -2.702E+01   -2.712E+01   -2.721E+01   -2.731E+01   -2.740E+01   -2.750E+01   -2.759E+01   -2.768E+01
    -2.776E+01   -2.785E+01   -2.793E+01   -2.801E+01   -2.809E+01   -2.817E+01   -2.825E+01   -2.832E+01   -2.839E+01   -2.846E+01
    -2.853E+01   -2.859E+01   -2.866E+01   -2.872E+01   -2.878E+01   -2.884E+01   -2.889E+01   -2.895E+01   -2.900E+01   -2.905E+01
    -2.909E+01   -2.914E+01   -2.918E+01   -2.923E+01   -2.926E+01   -2.930E+01   -2.934E+01   -2.937E+01   -2.940E+01   -2.943E+01
    -2.946E+01   -2.948E+01   -2.950E+01   -2.952E+01   -2.954E+01   -2.956E+01   -2.957E+01   -2.958E+01   -2.959E+01   -2.960E+01
    -2.961E+01   -2.961E+01   -2.961E+01   -2.961E+01   -2.961E+01   -2.960E+01   -2.959E+01   -2.958E+01   -2.957E+01   -2.955E+01
    -2.954E+01   -2.952E+01   -2.950E+01   -2.947E+01   -2.945E+01   -2.942E+01   -2.939E+01   -2.936E+01   -2.933E+01   -2.929E+01
    -2.925E+01   -2.921E+01   -2.917E+01   -2.913E+01   -2.909E+01   -2.904E+01   -2.899E+01   -2.894E+01   -2.889E+01   -2.883E+01
    -2.878E+01   -2.872E+01   -2.866E+01   -2.860E+01   -2.854E+01   -2.848E+01   -2.841E+01   -2.835E+01   -2.828E+01   -2.821E+01
    -2.814E+01   -2.807E+01   -2.800E+01   -2.792E+01   -2.784E+01   -2.777E+01   -2.769E+01   -2.761E+01   -2.753E+01   -2.745E+01
    -2.736E+01   -2.728E+01   -2.719E+01   -2.711E+01   -2.702E+01   -2.693E+01   -2.684E+01   -2.675E+01   -2.666E+01   -2.656E+01
    -2.647E+01   -2.637E+01   -2.628E+01   -2.618E+01   -2.608E+01   -2.598E+01   -2.588E+01   -2.578E+01   -2.568E+01   -2.558E+01
    -2.547E+01   -2.537E+01   -2.527E+01   -2.516E+01   -2.505E+01   -2.495E+01   -2.484E+01   -2.473E+01   -2.462E+01   -2.451E+01
    -2.440E+01   -2.429E+01   -2.417E+01   -2.406E+01   -2.395E+01   -2.383E+01   -2.372E+01   -2.360E+01   -2.348E+01   -2.337E+01
    -2.325E+01   -2.313E+01   -2.301E+01   -2.289E+01   -2.277E+01   -2.265E+01   -2.253E+01   -2.241E+01   -2.229E+01   -2.217E+01
    -2.204E+01   -2.192E+01   -2.180E+01   -2.167E+01   -2.155E+01   -2.143E+01   -2.130E+01   -2.118E+01   -2.105E+01   -2.093E+01
    -2.080E+01   -2.067E+01   -2.055E+01   -2.042E+01   -2.029E+01   -2.017E+01   -2.004E+01   -1.991E+01   -1.979E+01   -1.966E+01
    -1.953E+01   -1.940E+01   -1.928E+01   -1.915E+01   -1.902E+01   -1.889E+01   -1.876E+01   -1.864E+01   -1.851E+01   -1.838E+01
    -1.825E+01   -1.813E+01   -1.800E+01   -1.787E+01   -1.774E+01   -1.762E+01   -1.749E+01   -1.736E+01   -1.724E+01   -1.711E+01
    -1.699E+01   -1.686E+01   -1.674E+01   -1.661E+01   -1.649E+01   -1.636E+01   -1.624E+01   -1.611E+01   -1.599E+01   -1.587E+01
    -1.574E+01   -1.562E+01   -1.550E+01   -1.537E+01   -1.525E+01   -1.513E+01   -1.501E+01   -1.489E+01   -1.476E+01   -1.464E+01
    -1.452E+01   -1.440E+01   -1.428E+01   -1.416E+01   -1.404E+01   -1.392E+01   -1.380E+01   -1.368E+01   -1.356E+01   -1.344E+01
    -1.332E+01   -1.320E+01   -1.308E+01   -1.296E+01   -1.284E+01   -1.272E+01   -1.260E+01   -1.248E+01   -1.236E+01   -1.224E+01
    -1.212E+01   -1.200E+01   -1.188E+01   -1.176E+01   -1.164E+01   -1.152E+01   -1.140E+01   -1.129E+01
 Ala      Conc. = 7.26E+02
