 LCModel (Version 6.3-1L) Copyright: S.W. Provencher.          Ref.: Magn. Reson. Med. 30:672-679 (1993).                
 Slice#2 Row#9 Col#6  PD_24_press_2_raw_act
 36 lines in following concentration table = NCONC+1
    Conc.  %SD /Cr+PCr  Metabolite                                         
    0.000 999%   0.000 Ala                                                 
   49.508 627% 1.9E-02 Asp                                                 
 1.26E+03  23%   0.470 Cr                                                  
 1.42E+03  21%   0.530 PCr                                                 
    0.000 999%   0.000 GABA                                                
    0.000 999%   0.000 Glc                                                 
  850.364  36%   0.318 Gln                                                 
 2.78E+03  12%   1.040 Glu                                                 
  572.948   5%   0.214 GPC                                                 
    0.000 999%   0.000 PCh                                                 
  818.833  11%   0.306 GSH                                                 
 1.54E+03  21%   0.575 Ins                                                 
  158.304  99% 5.9E-02 Lac                                                 
 3.94E+03   4%   1.473 NAA                                                 
  299.422  60%   0.112 NAAG                                                
   86.946  38% 3.3E-02 Scyllo                                              
    0.000 999%   0.000 Tau                                                 
    0.000 999%   0.000 -CrCH2                                              
  572.948   5%   0.214 GPC+PCh                                             
 4.23E+03   3%   1.585 NAA+NAAG                                            
 2.67E+03   3%   1.000 Cr+PCr                                              
 3.63E+03  14%   1.358 Glu+Gln                                             
 3.13E+03  22%   1.173 Lip13a                                              
    0.000 999%   0.000 Lip13b                                              
    0.000 999%   0.000 Lip09                                               
 2.34E+03  11%   0.874 MM09                                                
  488.381  73%   0.183 Lip20                                               
 5.36E+03  10%   2.008 MM20                                                
  738.417  32%   0.276 MM12                                                
 1.55E+03  33%   0.581 MM14                                                
 3.08E+03   6%   1.151 MM17                                                
 3.13E+03  22%   1.173 Lip13a+Lip13b                                       
 5.43E+03  10%   2.031 MM14+Lip13a+Lip13b+MM12                             
 2.34E+03  11%   0.874 MM09+Lip09                                          
 5.85E+03   9%   2.191 MM20+Lip20                                          
   6 lines in following misc. output table
  FWHM = 0.054 ppm    S/N =  17                                            
  Data shift = 0.015 ppm                                                   
  Ph:  -5 deg       2.6 deg/ppm                                            
  alphaB,S = 1.4E+00,   1.8E+02                                            
   14 spline knots.   Ns = 7(1)                                            
  (11) 2 infls.   ( 1) 1 extrs.                                            
  498 points on ppm-axis = NY
      4.000000     3.992357     3.984714     3.977070     3.969427     3.961784     3.954141     3.946497     3.938854     3.931211
      3.923568     3.915925     3.908281     3.900638     3.892995     3.885352     3.877708     3.870065     3.862422     3.854779
      3.847136     3.839492     3.831849     3.824206     3.816563     3.808919     3.801276     3.793633     3.785990     3.778347
      3.770703     3.763060     3.755417     3.747774     3.740130     3.732487     3.724844     3.717201     3.709558     3.701914
      3.694271     3.686628     3.678985     3.671341     3.663698     3.656055     3.648412     3.640769     3.633125     3.625482
      3.617839     3.610196     3.602552     3.594909     3.587266     3.579623     3.571980     3.564336     3.556693     3.549050
      3.541407     3.533763     3.526120     3.518477     3.510834     3.503191     3.495547     3.487904     3.480261     3.472618
      3.464974     3.457331     3.449688     3.442045     3.434402     3.426758     3.419115     3.411472     3.403829     3.396185
      3.388542     3.380899     3.373256     3.365613     3.357969     3.350326     3.342683     3.335040     3.327396     3.319753
      3.312110     3.304467     3.296824     3.289180     3.281537     3.273894     3.266251     3.258607     3.250964     3.243321
      3.235678     3.228034     3.220391     3.212748     3.205105     3.197462     3.189818     3.182175     3.174532     3.166889
      3.159245     3.151602     3.143959     3.136316     3.128673     3.121029     3.113386     3.105743     3.098100     3.090456
      3.082813     3.075170     3.067527     3.059884     3.052240     3.044597     3.036954     3.029311     3.021667     3.014024
      3.006381     2.998738     2.991095     2.983451     2.975808     2.968165     2.960522     2.952878     2.945235     2.937592
      2.929949     2.922306     2.914662     2.907019     2.899376     2.891733     2.884089     2.876446     2.868803     2.861160
      2.853517     2.845873     2.838230     2.830587     2.822944     2.815300     2.807657     2.800014     2.792371     2.784728
      2.777084     2.769441     2.761798     2.754155     2.746511     2.738868     2.731225     2.723582     2.715939     2.708295
      2.700652     2.693009     2.685366     2.677722     2.670079     2.662436     2.654793     2.647150     2.639506     2.631863
      2.624220     2.616577     2.608933     2.601290     2.593647     2.586004     2.578361     2.570717     2.563074     2.555431
      2.547788     2.540144     2.532501     2.524858     2.517215     2.509572     2.501928     2.494285     2.486642     2.478999
      2.471355     2.463712     2.456069     2.448426     2.440783     2.433139     2.425496     2.417853     2.410210     2.402566
      2.394923     2.387280     2.379637     2.371994     2.364350     2.356707     2.349064     2.341421     2.333777     2.326134
      2.318491     2.310848     2.303205     2.295561     2.287918     2.280275     2.272632     2.264988     2.257345     2.249702
      2.242059     2.234416     2.226772     2.219129     2.211486     2.203843     2.196199     2.188556     2.180913     2.173270
      2.165627     2.157983     2.150340     2.142697     2.135054     2.127410     2.119767     2.112124     2.104481     2.096838
      2.089194     2.081551     2.073908     2.066265     2.058621     2.050978     2.043335     2.035692     2.028049     2.020405
      2.012762     2.005119     1.997476     1.989833     1.982190     1.974546     1.966903     1.959260     1.951617     1.943974
      1.936331     1.928688     1.921045     1.913402     1.905759     1.898115     1.890472     1.882829     1.875186     1.867543
      1.859900     1.852257     1.844614     1.836971     1.829327     1.821684     1.814041     1.806398     1.798755     1.791112
      1.783469     1.775826     1.768183     1.760540     1.752896     1.745253     1.737610     1.729967     1.722324     1.714681
      1.707038     1.699395     1.691752     1.684108     1.676465     1.668822     1.661179     1.653536     1.645893     1.638250
      1.630607     1.622964     1.615321     1.607677     1.600034     1.592391     1.584748     1.577105     1.569462     1.561819
      1.554176     1.546533     1.538890     1.531246     1.523603     1.515960     1.508317     1.500674     1.493031     1.485388
      1.477745     1.470102     1.462458     1.454815     1.447172     1.439529     1.431886     1.424243     1.416600     1.408957
      1.401314     1.393671     1.386027     1.378384     1.370741     1.363098     1.355455     1.347812     1.340169     1.332526
      1.324883     1.317240     1.309596     1.301953     1.294310     1.286667     1.279024     1.271381     1.263738     1.256095
      1.248452     1.240808     1.233165     1.225522     1.217879     1.210236     1.202593     1.194950     1.187307     1.179664
      1.172021     1.164377     1.156734     1.149091     1.141448     1.133805     1.126162     1.118519     1.110876     1.103233
      1.095590     1.087946     1.080303     1.072660     1.065017     1.057374     1.049731     1.042088     1.034445     1.026802
      1.019158     1.011515     1.003872     0.996229     0.988586     0.980943     0.973300     0.965657     0.958014     0.950371
      0.942727     0.935084     0.927441     0.919798     0.912155     0.904512     0.896869     0.889226     0.881583     0.873940
      0.866296     0.858653     0.851010     0.843367     0.835724     0.828081     0.820438     0.812795     0.805152     0.797508
      0.789865     0.782222     0.774579     0.766936     0.759293     0.751650     0.744007     0.736364     0.728721     0.721077
      0.713434     0.705791     0.698148     0.690505     0.682862     0.675219     0.667576     0.659933     0.652290     0.644646
      0.637003     0.629360     0.621717     0.614074     0.606431     0.598788     0.591145     0.583502     0.575858     0.568215
      0.560572     0.552929     0.545286     0.537643     0.530000     0.522357     0.514714     0.507071     0.499427     0.491784
      0.484141     0.476498     0.468855     0.461212     0.453569     0.445925     0.438282     0.430639     0.422996     0.415353
      0.407710     0.400067     0.392424     0.384780     0.377137     0.369494     0.361851     0.354208     0.346565     0.338922
      0.331278     0.323635     0.315992     0.308349     0.300706     0.293063     0.285420     0.277777     0.270133     0.262490
      0.254847     0.247204     0.239561     0.231918     0.224275     0.216631     0.208988     0.201345
 NY phased data points follow
   4.66871E+01  4.75829E+01  5.35313E+01  5.63806E+01  6.31871E+01  6.40534E+01  7.85381E+01  8.60211E+01  8.75424E+01  9.84752E+01
   1.03819E+02  1.02862E+02  1.00261E+02  9.40791E+01  8.87696E+01  7.92375E+01  7.02727E+01  6.82959E+01  5.65218E+01  5.68927E+01
   4.74825E+01  5.16184E+01  4.72792E+01  5.30653E+01  5.04148E+01  5.43871E+01  5.68305E+01  5.11074E+01  6.25703E+01  6.33812E+01
   6.24864E+01  6.12089E+01  5.77515E+01  5.73266E+01  5.42683E+01  5.23669E+01  4.90397E+01  4.46221E+01  5.43981E+01  4.49758E+01
   4.76819E+01  4.46770E+01  5.08608E+01  4.48973E+01  4.80541E+01  4.65338E+01  5.77980E+01  4.87350E+01  5.24049E+01  4.61589E+01
   4.77291E+01  4.32956E+01  4.31754E+01  3.75735E+01  4.37241E+01  3.60991E+01  4.62576E+01  3.47474E+01  3.77135E+01  4.17485E+01
   3.91474E+01  3.36345E+01  3.41313E+01  2.87586E+01  3.00505E+01  3.58385E+01  3.32000E+01  2.35170E+01  2.78602E+01  2.00909E+01
   2.61776E+01  2.71748E+01  3.26994E+01  3.25056E+01  2.89055E+01  2.36457E+01  3.04924E+01  2.90088E+01  2.99565E+01  2.57384E+01
   2.12643E+01  2.03522E+01  2.35694E+01  2.94185E+01  2.84281E+01  2.71657E+01  2.97743E+01  3.03028E+01  2.62677E+01  2.47833E+01
   2.69048E+01  2.51286E+01  2.54090E+01  2.10691E+01  2.66558E+01  2.05705E+01  2.30938E+01  2.70749E+01  3.11273E+01  3.42689E+01
   4.10371E+01  6.01560E+01  6.16983E+01  6.77757E+01  7.01229E+01  6.85607E+01  6.61184E+01  5.02997E+01  4.25357E+01  3.97253E+01
   3.17925E+01  3.00164E+01  3.03343E+01  2.56179E+01  2.56965E+01  2.14266E+01  2.15918E+01  2.18508E+01  1.91341E+01  2.42521E+01
   1.96830E+01  2.62793E+01  3.58526E+01  5.03511E+01  6.02564E+01  7.69849E+01  9.22796E+01  1.01627E+02  1.03365E+02  9.14611E+01
   8.42640E+01  7.36990E+01  5.30318E+01  4.87319E+01  3.68115E+01  2.67239E+01  2.18818E+01  2.47642E+01  2.21011E+01  2.11146E+01
   1.94637E+01  2.17136E+01  1.12533E+01  1.20456E+01  1.66025E+01  1.16758E+01  1.17160E+01  1.20118E+01  1.50515E+01  1.18565E+01
   1.14399E+01  1.76247E+01  9.06976E+00  7.14605E+00  1.36413E+01  1.10088E+01  1.58759E+01  1.17012E+01  1.19379E+01  4.12534E+00
   1.55351E+01  1.17507E+01  6.84455E+00  5.85015E+00  6.27237E+00  6.58861E+00  7.52716E+00  6.14280E+00  7.09241E+00  6.56013E+00
   5.10996E-01  1.80569E+00  2.76244E+00 -5.42884E+00 -4.31220E+00 -6.82043E+00 -5.00294E+00 -6.80303E+00 -1.63194E+00  1.10309E+00
  -1.17433E+00 -7.94735E+00 -2.86274E+00 -3.78353E+00  1.19091E+00 -2.49487E+00  3.70444E-01  4.62950E-01  5.93524E+00  5.28204E+00
   9.12212E+00  9.57386E+00  8.14263E+00  1.06641E+01  1.69333E+01  1.74511E+01  8.92011E+00  7.39478E+00  4.42841E+00  5.77701E+00
   6.03362E+00  7.66661E+00  1.24982E+01  1.37128E+01  6.52473E+00  9.17557E+00  1.04103E+01  1.05272E+01  5.51626E+00  1.05416E+01
   3.13288E+00  8.28572E+00  7.78948E+00  1.89207E+01  2.08660E+01  2.73283E+01  2.10729E+01  1.79649E+01  2.38090E+01  7.46716E+00
   8.48408E+00  8.73534E+00  4.74721E+00  2.83309E+00  2.70608E+00  9.83316E+00  1.37393E+01  1.70217E+01  1.75370E+01  2.30022E+01
   2.04620E+01  2.04608E+01  1.79357E+01  1.65480E+01  2.31544E+01  1.63019E+01  1.46931E+01  1.67018E+01  1.71317E+01  1.98974E+01
   1.83930E+01  1.49750E+01  1.36373E+01  1.94699E+01  2.35485E+01  2.21507E+01  2.16869E+01  2.29191E+01  2.61145E+01  2.46757E+01
   2.81918E+01  3.36290E+01  3.56648E+01  4.17393E+01  4.97123E+01  5.46199E+01  7.23751E+01  9.00737E+01  1.16408E+02  1.45333E+02
   1.50049E+02  1.46903E+02  1.37271E+02  1.15393E+02  9.13724E+01  7.44162E+01  5.11516E+01  4.87123E+01  3.43948E+01  2.34714E+01
   2.13175E+01  1.80213E+01  2.15249E+01  1.27016E+01  1.22098E+01  1.31768E+01  1.52492E+01  1.50703E+01  1.08212E+01  1.14991E+01
   7.50243E+00  7.84716E+00  1.33185E+01  8.71210E+00  1.09480E+01  1.38342E+01  1.01697E+01  7.27162E+00  1.19599E+01  1.09507E+01
   1.04472E+01  9.84946E+00  1.09795E+01  7.73791E+00  1.52979E+01  1.85209E+01  1.11397E+01  1.61983E+01  1.71555E+01  1.79450E+01
   1.82950E+01  2.47540E+01  2.49310E+01  2.49707E+01  2.41672E+01  2.70474E+01  3.20837E+01  2.81584E+01  3.07395E+01  3.33388E+01
   3.22436E+01  3.68267E+01  3.36720E+01  2.58657E+01  2.71812E+01  2.91720E+01  2.22347E+01  2.14376E+01  1.79065E+01  1.39321E+01
   9.69522E+00  1.43033E+01  1.29890E+01  9.88283E+00  1.25247E+01  7.43805E+00  4.44483E+00  1.33482E+01  1.47076E+01  8.48397E+00
   1.16507E+01  1.13145E+01  1.18966E+01  1.31733E+01  8.50419E+00  1.13864E+01  8.54763E+00  1.66826E+01  2.19725E+01  1.36405E+01
   2.34529E+01  1.19954E+01  1.69564E+01  1.89485E+01  2.06557E+01  2.20740E+01  2.15736E+01  2.21341E+01  2.31098E+01  1.40437E+01
   1.61286E+01  1.33012E+01  2.65948E+01  2.78437E+01  2.63625E+01  1.98034E+01  2.47299E+01  1.89683E+01  1.64603E+01  2.22442E+01
   1.89426E+01  2.11485E+01  2.20351E+01  1.65858E+01  2.29921E+01  1.89785E+01  1.73454E+01  1.58377E+01  1.99577E+01  1.61730E+01
   1.61877E+01  9.15746E+00  1.37686E+01  1.79704E+01  1.04644E+01  7.41431E+00  7.13121E+00  1.24230E+01  8.88804E+00  1.08454E+01
   9.22678E+00  2.75142E+00  8.81070E+00  4.20833E+00  6.52265E-01  7.32240E+00  1.01369E+01 -4.57137E-01  3.54243E+00  1.10176E+01
   8.27897E+00  9.92912E+00  1.04786E+01  7.57287E+00  1.32702E+01  1.00912E+01  1.60956E+01  1.08406E+01  1.45140E+01  1.73797E+01
   1.61631E+01  2.38905E+01  1.57558E+01  1.72337E+01  1.74737E+01  2.30166E+01  2.27452E+01  2.37678E+01  2.18856E+01  2.14785E+01
   2.29762E+01  1.74663E+01  1.86764E+01  1.47315E+01  1.33101E+01  2.17169E+01  1.48782E+01  1.42286E+01  1.31811E+01  4.47364E+00
   1.49662E+01  1.01944E+01  1.04527E+01  2.96959E+00  5.50066E+00  3.71507E+00  9.24617E+00  1.01092E+01  2.89791E+00 -7.69767E-01
  -2.78937E+00  1.91198E+00  3.54043E+00  3.94835E+00  4.01128E+00  1.40119E+00  3.36952E+00  5.90494E-01  8.75693E+00  5.20784E+00
   7.53401E-01  1.25726E+00  2.44226E+00  6.42259E+00  7.59704E+00  1.36771E+00 -1.00935E+00  2.48423E+00  3.62371E+00 -1.39086E+00
   3.44242E+00 -2.93419E-01  8.39349E+00  3.33725E+00  8.27160E+00 -1.96548E-01 -4.63200E-01  6.64075E+00 -3.36286E+00  3.45140E+00
   6.39425E+00  1.67732E+00  2.05165E+00  1.36027E+00  1.70217E+00  3.30309E+00  3.18343E+00  4.88624E+00  2.42468E+00 -2.95277E+00
   8.41279E-01  6.69891E+00 -1.43536E+00  2.37313E-01 -4.73788E-01  3.82626E+00  9.36393E+00  6.54224E+00  4.12646E+00  9.05421E+00
   1.25245E+00  6.96072E+00  6.06015E+00  6.78914E+00  6.22278E+00 -1.79233E+00  7.40970E-01  3.90469E+00  5.18739E+00  5.16709E+00
   6.62512E+00 -4.61334E+00 -6.26601E-01  6.20731E+00  2.26525E+00 -3.44344E+00  4.75963E+00  5.37153E+00
 NY points of the fit to the data follow
   5.26366E+01  5.20966E+01  5.26006E+01  5.45116E+01  5.79042E+01  6.34746E+01  7.11503E+01  8.01309E+01  8.91151E+01  9.65194E+01
   1.00873E+02  1.01272E+02  9.78123E+01  9.15754E+01  8.40291E+01  7.63371E+01  6.90862E+01  6.25819E+01  5.74722E+01  5.38540E+01
   5.10745E+01  4.94667E+01  4.87306E+01  4.86534E+01  4.90364E+01  5.00813E+01  5.20928E+01  5.50122E+01  5.82194E+01  6.08899E+01
   6.24921E+01  6.26831E+01  6.12549E+01  5.84691E+01  5.49388E+01  5.11851E+01  4.75850E+01  4.43690E+01  4.22005E+01  4.14226E+01
   4.15217E+01  4.23376E+01  4.36794E+01  4.53930E+01  4.73456E+01  4.91243E+01  5.02360E+01  5.01955E+01  4.89053E+01  4.68245E+01
   4.43926E+01  4.19341E+01  3.98646E+01  3.83679E+01  3.72622E+01  3.64966E+01  3.63230E+01  3.66937E+01  3.71324E+01  3.72537E+01
   3.69783E+01  3.62970E+01  3.53097E+01  3.41958E+01  3.31950E+01  3.25067E+01  3.21167E+01  3.19409E+01  3.19610E+01  3.21134E+01
   3.22808E+01  3.23480E+01  3.22216E+01  3.18975E+01  3.14134E+01  3.08346E+01  3.02522E+01  2.97166E+01  2.92533E+01  2.88944E+01
   2.86927E+01  2.86258E+01  2.86487E+01  2.87193E+01  2.87074E+01  2.84381E+01  2.78341E+01  2.69864E+01  2.60764E+01  2.53015E+01
   2.47850E+01  2.45357E+01  2.44509E+01  2.43715E+01  2.42180E+01  2.41548E+01  2.47576E+01  2.70680E+01  3.11317E+01  3.71101E+01
   4.53309E+01  5.51138E+01  6.43032E+01  7.03184E+01  7.16898E+01  6.85425E+01  6.20558E+01  5.39624E+01  4.60064E+01  3.91464E+01
   3.32407E+01  2.77847E+01  2.34591E+01  2.16618E+01  2.11769E+01  2.09920E+01  2.09184E+01  2.09488E+01  2.11581E+01  2.18346E+01
   2.42261E+01  2.97375E+01  3.81164E+01  4.95949E+01  6.42591E+01  8.03652E+01  9.42423E+01  1.02229E+02  1.02701E+02  9.63613E+01
   8.53239E+01  7.22427E+01  5.94490E+01  4.79371E+01  3.74034E+01  2.77397E+01  2.10095E+01  1.86368E+01  1.83005E+01  1.86190E+01
   1.90309E+01  1.92835E+01  1.93704E+01  1.92431E+01  1.88398E+01  1.82457E+01  1.75252E+01  1.67018E+01  1.58598E+01  1.50443E+01
   1.43481E+01  1.37784E+01  1.33138E+01  1.29533E+01  1.26209E+01  1.22515E+01  1.18089E+01  1.12398E+01  1.05637E+01  9.83817E+00
   9.21206E+00  8.87542E+00  8.84900E+00  8.93714E+00  8.88778E+00  8.55021E+00  7.90343E+00  7.06708E+00  6.22231E+00  5.42790E+00
   4.55077E+00  3.59496E+00  2.59039E+00  1.60797E+00  8.46249E-01  3.99846E-01  2.74744E-01  3.69495E-01  4.73432E-01  4.60464E-01
   3.07848E-01  1.19543E-01  8.54786E-02  3.11416E-01  8.52534E-01  1.73327E+00  3.03965E+00  4.93558E+00  7.22614E+00  9.42898E+00
   1.09802E+01  1.15776E+01  1.13681E+01  1.06364E+01  9.71622E+00  8.90065E+00  8.33229E+00  8.27126E+00  8.92230E+00  1.01912E+01
   1.18732E+01  1.36744E+01  1.51587E+01  1.57888E+01  1.53617E+01  1.38290E+01  1.12827E+01  8.16449E+00  5.30420E+00  3.58345E+00
   3.40615E+00  4.74866E+00  7.51448E+00  1.13225E+01  1.51428E+01  1.76697E+01  1.80329E+01  1.61985E+01  1.26104E+01  7.84902E+00
   3.27830E+00  1.80024E-01 -9.14905E-01 -1.87207E-02  2.49582E+00  6.18066E+00  1.00921E+01  1.32417E+01  1.53457E+01  1.66362E+01
   1.75471E+01  1.81380E+01  1.84334E+01  1.88313E+01  1.95747E+01  2.03516E+01  2.07486E+01  2.06316E+01  2.01052E+01  1.93034E+01
   1.83357E+01  1.76220E+01  1.76507E+01  1.84982E+01  1.98519E+01  2.13584E+01  2.28886E+01  2.41887E+01  2.51725E+01  2.61929E+01
   2.75664E+01  2.94296E+01  3.20091E+01  3.71090E+01  4.66513E+01  5.95872E+01  7.60812E+01  9.66394E+01  1.19041E+02  1.37879E+02
   1.47798E+02  1.46531E+02  1.35126E+02  1.16757E+02  9.58422E+01  7.64520E+01  5.99434E+01  4.52008E+01  3.14515E+01  2.15512E+01
   1.76169E+01  1.59081E+01  1.48527E+01  1.41463E+01  1.35843E+01  1.29996E+01  1.23905E+01  1.17469E+01  1.10828E+01  1.04393E+01
   9.84638E+00  9.29867E+00  8.81251E+00  8.42208E+00  8.13198E+00  7.92491E+00  7.79299E+00  7.75322E+00  7.83230E+00  8.04591E+00
   8.40107E+00  8.91825E+00  9.61267E+00  1.04897E+01  1.15470E+01  1.27813E+01  1.41858E+01  1.57464E+01  1.74391E+01  1.92294E+01
   2.10730E+01  2.29191E+01  2.47074E+01  2.63722E+01  2.78486E+01  2.90783E+01  3.00125E+01  3.06132E+01  3.08552E+01  3.07319E+01
   3.02527E+01  2.94415E+01  2.83373E+01  2.69907E+01  2.54595E+01  2.38060E+01  2.20931E+01  2.03814E+01  1.87259E+01  1.71736E+01
   1.57620E+01  1.45180E+01  1.34585E+01  1.25911E+01  1.19152E+01  1.14237E+01  1.11038E+01  1.09393E+01  1.09123E+01  1.10042E+01
   1.11971E+01  1.14743E+01  1.18206E+01  1.22235E+01  1.26728E+01  1.31613E+01  1.36845E+01  1.42412E+01  1.48346E+01  1.54786E+01
   1.62012E+01  1.69776E+01  1.77664E+01  1.85463E+01  1.92563E+01  1.97922E+01  2.00659E+01  2.00783E+01  1.99580E+01  1.98367E+01
   1.98193E+01  2.00052E+01  2.04376E+01  2.10515E+01  2.17049E+01  2.22831E+01  2.27306E+01  2.29345E+01  2.28331E+01  2.24885E+01
   2.19774E+01  2.13409E+01  2.05726E+01  1.96857E+01  1.87857E+01  1.79056E+01  1.70257E+01  1.61451E+01  1.52705E+01  1.44107E+01
   1.35745E+01  1.27702E+01  1.20051E+01  1.12857E+01  1.06174E+01  1.00044E+01  9.45006E+00  8.95694E+00  8.52712E+00  8.16246E+00
   7.86469E+00  7.63552E+00  7.47673E+00  7.39044E+00  7.37916E+00  7.44584E+00  7.59362E+00  7.82562E+00  8.14470E+00  8.55324E+00
   9.05276E+00  9.64337E+00  1.03232E+01  1.10876E+01  1.19294E+01  1.28378E+01  1.37988E+01  1.47947E+01  1.58044E+01  1.68041E+01
   1.77677E+01  1.86681E+01  1.94781E+01  2.01722E+01  2.07268E+01  2.11227E+01  2.13453E+01  2.13859E+01  2.12422E+01  2.09180E+01
   2.04233E+01  1.97735E+01  1.89886E+01  1.80922E+01  1.71100E+01  1.60682E+01  1.49928E+01  1.39081E+01  1.28363E+01  1.17963E+01
   1.08033E+01  9.86918E+00  9.00189E+00  8.20633E+00  7.48447E+00  6.83581E+00  6.25783E+00  5.74653E+00  5.29695E+00  4.90367E+00
   4.56105E+00  4.26345E+00  4.00539E+00  3.78178E+00  3.58801E+00  3.42006E+00  3.27437E+00  3.14779E+00  3.03757E+00  2.94136E+00
   2.85726E+00  2.78368E+00  2.71925E+00  2.66275E+00  2.61313E+00  2.56954E+00  2.53133E+00  2.49793E+00  2.46881E+00  2.44349E+00
   2.42151E+00  2.40259E+00  2.38649E+00  2.37299E+00  2.36183E+00  2.35276E+00  2.34559E+00  2.34020E+00  2.33650E+00  2.33438E+00
   2.33365E+00  2.33419E+00  2.33591E+00  2.33878E+00  2.34276E+00  2.34776E+00  2.35365E+00  2.36035E+00  2.36784E+00  2.37613E+00
   2.38519E+00  2.39492E+00  2.40524E+00  2.41612E+00  2.42757E+00  2.43961E+00  2.45219E+00  2.46521E+00  2.47863E+00  2.49245E+00
   2.50670E+00  2.52137E+00  2.53640E+00  2.55172E+00  2.56732E+00  2.58322E+00  2.59945E+00  2.61598E+00  2.63275E+00  2.64971E+00
   2.66687E+00  2.68427E+00  2.70192E+00  2.71979E+00  2.73781E+00  2.75596E+00  2.77429E+00  2.79283E+00
 NY background values follow
     4.722E+01    4.694E+01    4.665E+01    4.637E+01    4.608E+01    4.580E+01    4.551E+01    4.523E+01    4.494E+01    4.466E+01
     4.438E+01    4.409E+01    4.381E+01    4.352E+01    4.324E+01    4.295E+01    4.267E+01    4.238E+01    4.210E+01    4.181E+01
     4.153E+01    4.124E+01    4.096E+01    4.067E+01    4.039E+01    4.011E+01    3.982E+01    3.954E+01    3.926E+01    3.897E+01
     3.869E+01    3.841E+01    3.812E+01    3.784E+01    3.756E+01    3.728E+01    3.700E+01    3.672E+01    3.644E+01    3.615E+01
     3.587E+01    3.559E+01    3.531E+01    3.504E+01    3.476E+01    3.448E+01    3.420E+01    3.392E+01    3.364E+01    3.337E+01
     3.309E+01    3.282E+01    3.254E+01    3.227E+01    3.199E+01    3.172E+01    3.144E+01    3.117E+01    3.090E+01    3.063E+01
     3.036E+01    3.009E+01    2.982E+01    2.955E+01    2.928E+01    2.901E+01    2.875E+01    2.848E+01    2.822E+01    2.795E+01
     2.769E+01    2.743E+01    2.717E+01    2.691E+01    2.665E+01    2.639E+01    2.613E+01    2.587E+01    2.562E+01    2.536E+01
     2.511E+01    2.486E+01    2.461E+01    2.436E+01    2.411E+01    2.386E+01    2.361E+01    2.337E+01    2.312E+01    2.288E+01
     2.264E+01    2.240E+01    2.216E+01    2.192E+01    2.169E+01    2.145E+01    2.122E+01    2.098E+01    2.075E+01    2.052E+01
     2.029E+01    2.007E+01    1.984E+01    1.962E+01    1.939E+01    1.917E+01    1.895E+01    1.873E+01    1.852E+01    1.830E+01
     1.809E+01    1.787E+01    1.766E+01    1.745E+01    1.724E+01    1.704E+01    1.683E+01    1.663E+01    1.642E+01    1.622E+01
     1.602E+01    1.582E+01    1.563E+01    1.543E+01    1.524E+01    1.505E+01    1.486E+01    1.467E+01    1.448E+01    1.429E+01
     1.411E+01    1.393E+01    1.375E+01    1.357E+01    1.339E+01    1.322E+01    1.304E+01    1.287E+01    1.270E+01    1.253E+01
     1.236E+01    1.219E+01    1.203E+01    1.187E+01    1.171E+01    1.155E+01    1.139E+01    1.123E+01    1.108E+01    1.093E+01
     1.077E+01    1.063E+01    1.048E+01    1.033E+01    1.019E+01    1.004E+01    9.901E+00    9.762E+00    9.623E+00    9.487E+00
     9.352E+00    9.218E+00    9.087E+00    8.956E+00    8.828E+00    8.701E+00    8.575E+00    8.452E+00    8.329E+00    8.209E+00
     8.090E+00    7.973E+00    7.857E+00    7.743E+00    7.630E+00    7.519E+00    7.410E+00    7.302E+00    7.196E+00    7.091E+00
     6.988E+00    6.886E+00    6.786E+00    6.688E+00    6.591E+00    6.496E+00    6.402E+00    6.309E+00    6.219E+00    6.129E+00
     6.041E+00    5.954E+00    5.869E+00    5.785E+00    5.702E+00    5.621E+00    5.540E+00    5.462E+00    5.384E+00    5.307E+00
     5.232E+00    5.158E+00    5.085E+00    5.013E+00    4.943E+00    4.873E+00    4.804E+00    4.737E+00    4.670E+00    4.605E+00
     4.540E+00    4.477E+00    4.414E+00    4.352E+00    4.292E+00    4.232E+00    4.173E+00    4.114E+00    4.057E+00    4.000E+00
     3.944E+00    3.889E+00    3.835E+00    3.781E+00    3.728E+00    3.676E+00    3.624E+00    3.573E+00    3.522E+00    3.472E+00
     3.423E+00    3.374E+00    3.326E+00    3.279E+00    3.232E+00    3.185E+00    3.139E+00    3.094E+00    3.049E+00    3.005E+00
     2.961E+00    2.918E+00    2.875E+00    2.833E+00    2.791E+00    2.750E+00    2.709E+00    2.669E+00    2.629E+00    2.590E+00
     2.551E+00    2.512E+00    2.474E+00    2.437E+00    2.399E+00    2.363E+00    2.326E+00    2.290E+00    2.255E+00    2.219E+00
     2.185E+00    2.150E+00    2.116E+00    2.082E+00    2.049E+00    2.016E+00    1.983E+00    1.951E+00    1.919E+00    1.887E+00
     1.855E+00    1.824E+00    1.793E+00    1.763E+00    1.732E+00    1.702E+00    1.673E+00    1.643E+00    1.614E+00    1.585E+00
     1.556E+00    1.528E+00    1.500E+00    1.472E+00    1.444E+00    1.417E+00    1.390E+00    1.363E+00    1.337E+00    1.311E+00
     1.285E+00    1.259E+00    1.234E+00    1.209E+00    1.184E+00    1.159E+00    1.135E+00    1.111E+00    1.087E+00    1.063E+00
     1.040E+00    1.017E+00    9.944E-01    9.719E-01    9.496E-01    9.276E-01    9.059E-01    8.844E-01    8.631E-01    8.421E-01
     8.214E-01    8.009E-01    7.806E-01    7.606E-01    7.408E-01    7.213E-01    7.021E-01    6.830E-01    6.642E-01    6.457E-01
     6.274E-01    6.094E-01    5.916E-01    5.741E-01    5.568E-01    5.398E-01    5.230E-01    5.065E-01    4.903E-01    4.743E-01
     4.586E-01    4.432E-01    4.281E-01    4.132E-01    3.986E-01    3.843E-01    3.703E-01    3.566E-01    3.431E-01    3.300E-01
     3.171E-01    3.045E-01    2.923E-01    2.803E-01    2.686E-01    2.572E-01    2.462E-01    2.354E-01    2.249E-01    2.148E-01
     2.050E-01    1.955E-01    1.863E-01    1.774E-01    1.688E-01    1.606E-01    1.527E-01    1.451E-01    1.379E-01    1.310E-01
     1.244E-01    1.182E-01    1.123E-01    1.067E-01    1.015E-01    9.663E-02    9.210E-02    8.793E-02    8.410E-02    8.062E-02
     7.750E-02    7.472E-02    7.230E-02    7.024E-02    6.853E-02    6.718E-02    6.620E-02    6.557E-02    6.530E-02    6.540E-02
     6.587E-02    6.670E-02    6.790E-02    6.946E-02    7.140E-02    7.372E-02    7.640E-02    7.946E-02    8.290E-02    8.672E-02
     9.091E-02    9.549E-02    1.004E-01    1.058E-01    1.115E-01    1.176E-01    1.241E-01    1.310E-01    1.383E-01    1.460E-01
     1.540E-01    1.625E-01    1.714E-01    1.806E-01    1.903E-01    2.003E-01    2.108E-01    2.217E-01    2.329E-01    2.446E-01
     2.566E-01    2.691E-01    2.819E-01    2.951E-01    3.086E-01    3.226E-01    3.368E-01    3.515E-01    3.664E-01    3.818E-01
     3.974E-01    4.134E-01    4.297E-01    4.463E-01    4.632E-01    4.805E-01    4.980E-01    5.158E-01    5.340E-01    5.524E-01
     5.710E-01    5.900E-01    6.092E-01    6.287E-01    6.484E-01    6.684E-01    6.886E-01    7.091E-01    7.298E-01    7.507E-01
     7.718E-01    7.932E-01    8.147E-01    8.365E-01    8.585E-01    8.806E-01    9.030E-01    9.255E-01    9.482E-01    9.711E-01
     9.941E-01    1.017E+00    1.041E+00    1.064E+00    1.088E+00    1.112E+00    1.135E+00    1.159E+00    1.184E+00    1.208E+00
     1.232E+00    1.257E+00    1.281E+00    1.306E+00    1.331E+00    1.356E+00    1.381E+00    1.406E+00    1.431E+00    1.456E+00
     1.482E+00    1.507E+00    1.533E+00    1.558E+00    1.584E+00    1.609E+00    1.635E+00    1.661E+00    1.687E+00    1.712E+00
     1.738E+00    1.764E+00    1.790E+00    1.816E+00    1.842E+00    1.868E+00    1.893E+00    1.919E+00    1.945E+00    1.971E+00
     1.997E+00    2.023E+00    2.049E+00    2.075E+00    2.100E+00    2.126E+00    2.152E+00    2.178E+00
 Asp      Conc. = 4.95E+01
