 LCModel (Version 6.3-1L) Copyright: S.W. Provencher.          Ref.: Magn. Reson. Med. 30:672-679 (1993).                
 Slice#2 Row#7 Col#4  PD_24_press_2_raw_act
 36 lines in following concentration table = NCONC+1
    Conc.  %SD /Cr+PCr  Metabolite                                         
    0.000 999%   0.000 Ala                                                 
    0.000 999%   0.000 Asp                                                 
 2.08E+03  17%   0.681 Cr                                                  
  975.039  36%   0.319 PCr                                                 
    0.000 999%   0.000 GABA                                                
    7.845 999% 2.6E-03 Glc                                                 
  889.114  47%   0.291 Gln                                                 
 2.42E+03  19%   0.791 Glu                                                 
 1.04E+03   4%   0.339 GPC                                                 
    0.000 999%   0.000 PCh                                                 
  671.283  21%   0.220 GSH                                                 
 2.18E+03  23%   0.713 Ins                                                 
  206.505 111% 6.8E-02 Lac                                                 
 4.84E+03   4%   1.583 NAA                                                 
  584.990  32%   0.191 NAAG                                                
  182.646  30% 6.0E-02 Scyllo                                              
    0.000 999%   0.000 Tau                                                 
    0.000 999%   0.000 -CrCH2                                              
 1.04E+03   4%   0.339 GPC+PCh                                             
 5.42E+03   3%   1.775 NAA+NAAG                                            
 3.06E+03   3%   1.000 Cr+PCr                                              
 3.31E+03  19%   1.082 Glu+Gln                                             
 3.33E+03  18%   1.091 Lip13a                                              
    0.000 999%   0.000 Lip13b                                              
    0.000 999%   0.000 Lip09                                               
 4.50E+03  10%   1.473 MM09                                                
  775.061  46%   0.254 Lip20                                               
 1.02E+04   8%   3.351 MM20                                                
 1.51E+03  24%   0.494 MM12                                                
 2.45E+03  18%   0.802 MM14                                                
 3.47E+03   9%   1.135 MM17                                                
 3.33E+03  18%   1.091 Lip13a+Lip13b                                       
 7.29E+03  10%   2.387 MM14+Lip13a+Lip13b+MM12                             
 4.50E+03  10%   1.473 MM09+Lip09                                          
 1.10E+04   8%   3.605 MM20+Lip20                                          
   6 lines in following misc. output table
  FWHM = 0.054 ppm    S/N =  14                                            
  Data shift = 0.008 ppm                                                   
  Ph: -26 deg      -2.7 deg/ppm                                            
  alphaB,S = 6.2E-01,   1.5E+02                                            
   14 spline knots.   Ns = 6(1)                                            
  (10) 2 infls.   ( 3) 1 extrs.                                            
  498 points on ppm-axis = NY
      4.000000     3.992357     3.984714     3.977070     3.969427     3.961784     3.954141     3.946497     3.938854     3.931211
      3.923568     3.915925     3.908281     3.900638     3.892995     3.885352     3.877708     3.870065     3.862422     3.854779
      3.847136     3.839492     3.831849     3.824206     3.816563     3.808919     3.801276     3.793633     3.785990     3.778347
      3.770703     3.763060     3.755417     3.747774     3.740130     3.732487     3.724844     3.717201     3.709558     3.701914
      3.694271     3.686628     3.678985     3.671341     3.663698     3.656055     3.648412     3.640769     3.633125     3.625482
      3.617839     3.610196     3.602552     3.594909     3.587266     3.579623     3.571980     3.564336     3.556693     3.549050
      3.541407     3.533763     3.526120     3.518477     3.510834     3.503191     3.495547     3.487904     3.480261     3.472618
      3.464974     3.457331     3.449688     3.442045     3.434402     3.426758     3.419115     3.411472     3.403829     3.396185
      3.388542     3.380899     3.373256     3.365613     3.357969     3.350326     3.342683     3.335040     3.327396     3.319753
      3.312110     3.304467     3.296824     3.289180     3.281537     3.273894     3.266251     3.258607     3.250964     3.243321
      3.235678     3.228034     3.220391     3.212748     3.205105     3.197462     3.189818     3.182175     3.174532     3.166889
      3.159245     3.151602     3.143959     3.136316     3.128673     3.121029     3.113386     3.105743     3.098100     3.090456
      3.082813     3.075170     3.067527     3.059884     3.052240     3.044597     3.036954     3.029311     3.021667     3.014024
      3.006381     2.998738     2.991095     2.983451     2.975808     2.968165     2.960522     2.952878     2.945235     2.937592
      2.929949     2.922306     2.914662     2.907019     2.899376     2.891733     2.884089     2.876446     2.868803     2.861160
      2.853517     2.845873     2.838230     2.830587     2.822944     2.815300     2.807657     2.800014     2.792371     2.784728
      2.777084     2.769441     2.761798     2.754155     2.746511     2.738868     2.731225     2.723582     2.715939     2.708295
      2.700652     2.693009     2.685366     2.677722     2.670079     2.662436     2.654793     2.647150     2.639506     2.631863
      2.624220     2.616577     2.608933     2.601290     2.593647     2.586004     2.578361     2.570717     2.563074     2.555431
      2.547788     2.540144     2.532501     2.524858     2.517215     2.509572     2.501928     2.494285     2.486642     2.478999
      2.471355     2.463712     2.456069     2.448426     2.440783     2.433139     2.425496     2.417853     2.410210     2.402566
      2.394923     2.387280     2.379637     2.371994     2.364350     2.356707     2.349064     2.341421     2.333777     2.326134
      2.318491     2.310848     2.303205     2.295561     2.287918     2.280275     2.272632     2.264988     2.257345     2.249702
      2.242059     2.234416     2.226772     2.219129     2.211486     2.203843     2.196199     2.188556     2.180913     2.173270
      2.165627     2.157983     2.150340     2.142697     2.135054     2.127410     2.119767     2.112124     2.104481     2.096838
      2.089194     2.081551     2.073908     2.066265     2.058621     2.050978     2.043335     2.035692     2.028049     2.020405
      2.012762     2.005119     1.997476     1.989833     1.982190     1.974546     1.966903     1.959260     1.951617     1.943974
      1.936331     1.928688     1.921045     1.913402     1.905759     1.898115     1.890472     1.882829     1.875186     1.867543
      1.859900     1.852257     1.844614     1.836971     1.829327     1.821684     1.814041     1.806398     1.798755     1.791112
      1.783469     1.775826     1.768183     1.760540     1.752896     1.745253     1.737610     1.729967     1.722324     1.714681
      1.707038     1.699395     1.691752     1.684108     1.676465     1.668822     1.661179     1.653536     1.645893     1.638250
      1.630607     1.622964     1.615321     1.607677     1.600034     1.592391     1.584748     1.577105     1.569462     1.561819
      1.554176     1.546533     1.538890     1.531246     1.523603     1.515960     1.508317     1.500674     1.493031     1.485388
      1.477745     1.470102     1.462458     1.454815     1.447172     1.439529     1.431886     1.424243     1.416600     1.408957
      1.401314     1.393671     1.386027     1.378384     1.370741     1.363098     1.355455     1.347812     1.340169     1.332526
      1.324883     1.317240     1.309596     1.301953     1.294310     1.286667     1.279024     1.271381     1.263738     1.256095
      1.248452     1.240808     1.233165     1.225522     1.217879     1.210236     1.202593     1.194950     1.187307     1.179664
      1.172021     1.164377     1.156734     1.149091     1.141448     1.133805     1.126162     1.118519     1.110876     1.103233
      1.095590     1.087946     1.080303     1.072660     1.065017     1.057374     1.049731     1.042088     1.034445     1.026802
      1.019158     1.011515     1.003872     0.996229     0.988586     0.980943     0.973300     0.965657     0.958014     0.950371
      0.942727     0.935084     0.927441     0.919798     0.912155     0.904512     0.896869     0.889226     0.881583     0.873940
      0.866296     0.858653     0.851010     0.843367     0.835724     0.828081     0.820438     0.812795     0.805152     0.797508
      0.789865     0.782222     0.774579     0.766936     0.759293     0.751650     0.744007     0.736364     0.728721     0.721077
      0.713434     0.705791     0.698148     0.690505     0.682862     0.675219     0.667576     0.659933     0.652290     0.644646
      0.637003     0.629360     0.621717     0.614074     0.606431     0.598788     0.591145     0.583502     0.575858     0.568215
      0.560572     0.552929     0.545286     0.537643     0.530000     0.522357     0.514714     0.507071     0.499427     0.491784
      0.484141     0.476498     0.468855     0.461212     0.453569     0.445925     0.438282     0.430639     0.422996     0.415353
      0.407710     0.400067     0.392424     0.384780     0.377137     0.369494     0.361851     0.354208     0.346565     0.338922
      0.331278     0.323635     0.315992     0.308349     0.300706     0.293063     0.285420     0.277777     0.270133     0.262490
      0.254847     0.247204     0.239561     0.231918     0.224275     0.216631     0.208988     0.201345
 NY phased data points follow
  -4.92853E+01 -5.00545E+01 -4.39296E+01 -3.47504E+01 -2.93475E+01 -2.60820E+01 -6.47978E+00 -1.18038E+01  1.55845E+01  2.35530E+01
   4.55535E+01  3.77579E+01  5.33317E+01  2.72599E+01  2.54481E+01  1.40357E+01 -6.85396E-01 -8.17395E+00 -4.56003E+00 -2.18716E+01
  -9.63023E+00 -2.25660E+01 -2.15480E+01 -2.56522E+01 -1.78849E+01 -2.20938E+01 -6.28647E+00 -2.64166E+01 -1.03520E+01 -1.17564E+01
  -3.27156E+00 -6.30945E+00 -9.90924E+00 -1.46597E+01 -1.12245E+01 -1.44827E+01 -1.59918E+01 -1.51847E+01 -2.14861E+01 -9.61644E+00
  -1.46927E+01 -2.37608E+01 -7.46604E+00 -2.32552E+01 -6.90215E+00 -5.84305E+00 -3.76555E+00 -6.71103E+00  9.70812E+00 -2.21859E+00
  -2.29820E+00 -1.33453E+01 -8.12167E+00 -1.63977E+01 -1.72676E+01 -2.44782E+01 -5.34672E+00 -1.28210E+01 -1.30831E+01 -7.79986E+00
  -1.29447E+01 -2.01554E+01 -1.51325E+01 -2.54537E+01 -1.89018E+01 -3.11540E+01 -2.28006E+01 -2.84959E+01 -1.97194E+01 -1.93891E+01
  -2.52177E+01 -1.64509E+01 -1.84918E+01 -2.55738E+01 -2.02854E+01 -1.85179E+01 -2.45472E+01 -2.20601E+01 -1.15289E+01 -2.59778E+01
  -1.28872E+01 -2.13822E+01 -8.20668E+00 -1.50560E+01 -9.64966E+00 -1.25378E+01 -1.99036E+01 -2.18493E+01 -1.16629E+01 -1.76390E+01
  -1.36430E+01 -9.64598E+00 -8.59194E+00 -1.74176E+01  1.63681E+00 -1.49642E+01  7.27898E-01 -1.33263E+01 -1.24134E-01  3.50931E+00
   3.03180E+01  3.71538E+01  6.15887E+01  7.74275E+01  8.91429E+01  8.51132E+01  5.64787E+01  3.26668E+01  9.88381E+00  6.92730E+00
   2.84169E+00 -9.68050E+00 -9.67334E-01 -6.91601E+00 -3.94590E+00 -2.00943E+01 -1.39393E+01 -1.93985E+01 -1.62887E+01 -1.40162E+01
  -1.04820E+01 -1.76476E+01 -4.06757E+00  6.17768E+00  2.69449E+01  4.85652E+01  8.26693E+01  9.21692E+01  9.75600E+01  8.19940E+01
   7.20640E+01  4.59775E+01  2.69990E+01  2.32521E+01  1.78070E+01  3.07855E+00 -8.38943E+00 -8.85623E+00 -1.49309E+01 -1.56028E+01
  -1.03970E+01 -2.01632E+01 -1.26827E+01 -2.73942E+01 -1.38344E+01 -1.41635E+01 -5.64244E+00 -1.92666E+01 -1.16791E+01 -1.61609E+01
  -1.83361E+01 -1.51831E+01 -9.91029E+00 -2.05092E+01 -1.72110E+01 -1.86971E+01 -3.66790E+00 -2.45066E+01 -3.18747E+00 -1.75893E+01
  -6.87148E+00 -1.17928E+01 -1.56617E+01 -2.65156E+01 -2.20284E+01 -2.39541E+01 -1.66358E+01 -2.59728E+01 -2.62014E+01 -3.00946E+01
  -1.62987E+01 -2.82759E+01 -2.72392E+01 -3.44667E+01 -3.75350E+01 -3.80617E+01 -3.93629E+01 -4.27090E+01 -3.63890E+01 -3.95363E+01
  -2.60919E+01 -3.74754E+01 -3.81062E+01 -3.01859E+01 -3.80255E+01 -2.61893E+01 -2.82251E+01 -2.98215E+01 -2.46690E+01 -1.99277E+01
  -1.62499E+01 -1.75422E+01 -4.16586E+00 -3.98318E+00 -5.54327E+00 -8.21644E+00 -1.24518E+01 -1.87815E+01 -1.31990E+01 -1.30686E+01
  -1.38494E+01 -1.76501E+01 -1.41269E+01  3.45025E-01 -5.47644E+00 -7.80061E+00 -1.34206E+01 -1.56028E+01 -1.04869E+01 -1.84886E+01
  -2.62933E+01 -1.09884E+01 -1.96256E+01 -1.02099E+01  2.02489E+00  9.92577E+00  1.11573E+01  8.05536E+00  4.51438E+00 -6.16261E+00
  -6.56317E+00 -7.94548E+00 -1.19025E+01 -1.80567E+01 -8.61837E+00 -5.52970E+00  9.40441E-01 -3.13658E+00 -3.66222E+00  4.14231E+00
   6.72483E+00  6.16336E+00  8.91336E+00  9.78855E+00  1.67428E+01  1.37376E+01  1.79221E+00  3.00288E+00  1.19261E+01  1.39925E+01
  -6.81817E+00  8.83343E+00  5.17903E+00  5.13002E+00  1.13239E+01  7.97466E+00  1.76971E+01  1.34656E+01  1.42669E+01  2.77055E+01
   2.17445E+01  2.98339E+01  3.68739E+01  3.83402E+01  5.11887E+01  5.99274E+01  7.30809E+01  1.12105E+02  1.35160E+02  1.68141E+02
   1.98452E+02  1.91482E+02  1.63939E+02  1.23630E+02  1.03528E+02  7.45546E+01  6.13382E+01  3.01685E+01  1.27625E+01  1.10448E+01
   1.66816E+01  1.18650E+00  1.39721E+01  1.11675E+01 -8.52998E-01 -8.32285E-01  9.67828E+00 -1.03854E+01 -2.05079E-01 -2.70929E+00
  -1.51342E+01  1.55947E+00 -1.75228E+00 -7.76700E+00 -4.85042E+00 -5.81055E+00 -6.52108E+00  5.78053E+00  4.33092E+00  1.05223E+01
   1.09829E+01 -2.15755E+00  7.72951E-01  3.60630E+00  7.17490E-01  6.87447E+00  7.19248E+00  9.82379E+00  1.75217E+01  6.32438E+00
   2.97872E+00  5.30297E+00  7.29753E+00  5.40731E+00  8.36148E+00 -6.26304E+00  1.79000E+00 -8.19926E+00 -9.12553E+00 -2.10527E+01
  -1.42821E+01 -1.54754E+01 -3.71062E+01 -3.08706E+01 -3.72860E+01 -3.26354E+01 -3.29436E+01 -3.28477E+01 -3.14719E+01 -3.79737E+01
  -3.90744E+01 -2.57866E+01 -1.91394E+01 -3.17719E+01 -2.20895E+01 -2.19610E+01 -1.64564E+01 -1.52241E+01 -1.93676E+01 -1.48523E+01
  -6.32204E+00 -3.50910E+00 -4.19125E+00 -1.79027E+01 -1.89104E+00 -8.77795E+00  3.00890E+00 -5.23213E+00 -1.57739E+00  7.76263E+00
   9.41506E+00 -2.54359E+00 -2.91792E+00 -8.55201E+00 -7.43442E+00  5.84750E-01  3.21796E+00 -1.15499E+01 -7.33326E-01 -2.81525E-01
  -3.42636E+00 -5.80148E+00 -4.83625E+00 -5.44081E+00 -2.58168E+00  3.26104E+00 -2.52182E+00 -3.38725E+00  4.60132E-01  3.80089E+00
   2.93742E+00  4.74180E-01  5.09098E+00  4.01182E-01  6.20098E+00 -1.27980E+00 -1.23453E+01 -1.15086E-01  1.32698E+00 -5.00386E+00
  -1.53585E+00 -1.01789E+01 -9.75410E+00 -1.64929E+01 -5.79563E+00 -1.37856E+01 -1.24850E+01 -1.18052E+01 -7.79031E+00 -6.80102E+00
  -1.64146E+01 -1.93152E+01 -6.57103E+00 -1.53079E+01 -6.04487E+00 -1.74138E+01 -3.51810E-01 -1.39565E+01 -2.22728E+00 -1.46358E+01
  -5.83120E-01 -1.29634E+01 -1.15946E+01 -7.61930E-01 -3.29876E+00 -7.25008E+00 -4.55244E+00  3.94565E+00  3.62918E+00 -4.07374E-01
  -3.99209E+00 -2.63125E+00  1.17880E+00  1.58143E+00  7.91325E+00  1.22650E+01  5.84986E+00  5.62604E+00  1.82440E+01  9.79261E+00
   7.73150E+00  1.03094E+01 -8.66497E+00  1.92021E+00 -4.73421E+00 -2.28035E+01 -1.66491E+00 -1.71551E+01 -1.07609E+01 -1.08608E+01
  -1.41624E+01 -8.06602E+00 -3.09626E+00 -2.22703E+01 -1.19949E+01 -1.64372E+01 -6.21687E+00 -1.07250E+01 -5.23138E+00 -1.24261E+01
  -9.91571E+00 -9.37739E+00 -1.80644E+01 -1.25527E+01 -1.38657E+01 -1.79201E+01 -1.86236E+01 -1.32022E+01 -1.28863E+01 -9.70913E+00
  -8.10699E+00 -6.67792E+00 -1.26173E+01 -1.63569E+01 -1.07364E+01 -1.52411E+01 -1.31039E+01 -1.77345E+01 -9.82899E+00 -1.64402E+01
  -1.51642E+01 -2.14848E+01 -8.93828E+00 -6.73748E+00 -1.93363E+01 -4.76966E+00 -1.65742E+01 -8.04912E+00 -1.58224E+01 -2.21852E+01
  -5.66796E+00 -1.42258E+01 -6.27740E+00 -1.08893E+01 -1.11411E+00 -3.66898E+00 -8.21014E+00 -9.00503E+00 -5.01710E+00 -1.16575E+01
  -7.71603E-01 -1.14042E+01 -9.53867E+00 -4.47369E+00 -1.37729E+01 -1.53708E+01 -5.89803E+00 -4.09268E+00 -6.37030E+00 -2.56606E+00
  -7.99266E+00 -8.38884E-01  2.13991E+00 -1.45876E+01 -8.83849E+00 -9.02701E+00 -9.75207E+00 -1.21141E+01 -6.01632E+00 -5.35519E+00
  -1.62815E+01 -1.34267E+00 -7.49911E-01 -9.77514E+00 -3.20379E+00 -1.87931E+01 -3.02544E+00 -7.48054E+00
 NY points of the fit to the data follow
  -3.08788E+01 -3.13325E+01 -3.12194E+01 -3.01744E+01 -2.74548E+01 -2.25079E+01 -1.42872E+01 -2.86826E+00  1.07608E+01  2.45313E+01
   3.57169E+01  4.17085E+01  4.10665E+01  3.43742E+01  2.40503E+01  1.28760E+01  2.66330E+00 -5.79223E+00 -1.25478E+01 -1.75817E+01
  -1.98864E+01 -2.09561E+01 -2.18582E+01 -2.27322E+01 -2.31536E+01 -2.27889E+01 -2.13635E+01 -1.87557E+01 -1.50889E+01 -1.09177E+01
  -7.27635E+00 -5.10749E+00 -4.82841E+00 -6.21349E+00 -8.72272E+00 -1.18825E+01 -1.54704E+01 -1.86943E+01 -2.05122E+01 -2.12294E+01
  -2.10747E+01 -1.98864E+01 -1.75855E+01 -1.43271E+01 -1.05781E+01 -6.74608E+00 -3.58601E+00 -2.07931E+00 -2.68813E+00 -5.24397E+00
  -8.89261E+00 -1.24632E+01 -1.53855E+01 -1.77610E+01 -1.94095E+01 -1.97670E+01 -1.89082E+01 -1.75371E+01 -1.61748E+01 -1.51357E+01
  -1.47875E+01 -1.53062E+01 -1.65677E+01 -1.81167E+01 -1.94559E+01 -2.03302E+01 -2.06397E+01 -2.03385E+01 -1.95599E+01 -1.85500E+01
  -1.75369E+01 -1.67727E+01 -1.64028E+01 -1.64688E+01 -1.68710E+01 -1.73891E+01 -1.78654E+01 -1.82346E+01 -1.85374E+01 -1.87090E+01
  -1.84751E+01 -1.77086E+01 -1.64969E+01 -1.50102E+01 -1.35491E+01 -1.25529E+01 -1.24882E+01 -1.35258E+01 -1.53066E+01 -1.71239E+01
  -1.83704E+01 -1.89300E+01 -1.91074E+01 -1.91686E+01 -1.89738E+01 -1.85425E+01 -1.79250E+01 -1.52457E+01 -7.76228E+00  5.48161E+00
   2.42259E+01  4.61892E+01  6.69724E+01  8.07504E+01  8.30956E+01  7.38813E+01  5.74659E+01  3.95037E+01  2.33786E+01  9.28829E+00
  -3.05925E+00 -1.10850E+01 -1.37383E+01 -1.45217E+01 -1.48014E+01 -1.48847E+01 -1.48643E+01 -1.47659E+01 -1.45618E+01 -1.41497E+01
  -1.31795E+01 -9.93368E+00 -1.69079E+00  1.23182E+01  3.17968E+01  5.45722E+01  7.64254E+01  9.15728E+01  9.52157E+01  8.67864E+01
   7.05007E+01  5.21302E+01  3.51999E+01  1.98676E+01  5.55949E+00 -4.96994E+00 -9.38526E+00 -1.10449E+01 -1.14510E+01 -1.11305E+01
  -1.05229E+01 -9.91400E+00 -9.53525E+00 -9.59759E+00 -1.00478E+01 -1.07233E+01 -1.15166E+01 -1.23133E+01 -1.30745E+01 -1.37793E+01
  -1.43922E+01 -1.49569E+01 -1.54481E+01 -1.58066E+01 -1.60117E+01 -1.61786E+01 -1.64641E+01 -1.69974E+01 -1.78397E+01 -1.88297E+01
  -1.96912E+01 -2.01364E+01 -2.00410E+01 -1.95983E+01 -1.92509E+01 -1.94379E+01 -2.02444E+01 -2.13472E+01 -2.24028E+01 -2.34035E+01
  -2.44368E+01 -2.55760E+01 -2.67466E+01 -2.77292E+01 -2.84729E+01 -2.89578E+01 -2.90180E+01 -2.86478E+01 -2.81150E+01 -2.77449E+01
  -2.76562E+01 -2.77174E+01 -2.76470E+01 -2.73251E+01 -2.68945E+01 -2.62452E+01 -2.48265E+01 -2.23849E+01 -1.91622E+01 -1.59183E+01
  -1.33922E+01 -1.18887E+01 -1.14675E+01 -1.19147E+01 -1.28998E+01 -1.41724E+01 -1.53116E+01 -1.58432E+01 -1.55122E+01 -1.42126E+01
  -1.20629E+01 -9.50921E+00 -7.16113E+00 -5.54969E+00 -5.24970E+00 -6.51405E+00 -9.32562E+00 -1.31439E+01 -1.70947E+01 -2.02405E+01
  -2.17053E+01 -2.09217E+01 -1.78748E+01 -1.31527E+01 -7.76035E+00 -2.99030E+00 -2.53333E-01 -5.12512E-01 -3.81073E+00 -8.74876E+00
  -1.37556E+01 -1.77993E+01 -1.99220E+01 -1.93920E+01 -1.60884E+01 -1.10706E+01 -6.10697E+00 -2.15107E+00  5.85524E-01  2.25136E+00
   2.91456E+00  2.87117E+00  2.91871E+00  3.67620E+00  5.05034E+00  6.71948E+00  8.35667E+00  9.58012E+00  1.01365E+01  9.91235E+00
   9.17538E+00  8.53735E+00  8.56847E+00  9.52463E+00  1.13116E+01  1.37024E+01  1.61719E+01  1.82012E+01  1.97203E+01  2.11236E+01
   2.31253E+01  2.60265E+01  3.01541E+01  3.58871E+01  4.52743E+01  6.10943E+01  8.34240E+01  1.11452E+02  1.42349E+02  1.70504E+02
   1.87632E+02  1.86750E+02  1.67394E+02  1.36851E+02  1.04881E+02  7.65022E+01  5.15430E+01  2.92408E+01  1.37651E+01  7.31055E+00
   4.09904E+00  1.87954E+00  2.51734E-01 -9.77425E-01 -2.04256E+00 -3.02438E+00 -3.96433E+00 -4.83892E+00 -5.57351E+00 -6.09980E+00
  -6.39470E+00 -6.42750E+00 -6.14756E+00 -5.55235E+00 -4.70350E+00 -3.66379E+00 -2.45557E+00 -1.09238E+00  3.90866E-01  1.93583E+00
   3.49382E+00  5.00902E+00  6.39555E+00  7.55243E+00  8.39944E+00  8.87877E+00  8.95619E+00  8.61739E+00  7.86660E+00  6.73178E+00
   5.26251E+00  3.50714E+00  1.51689E+00 -6.50402E-01 -2.93005E+00 -5.25445E+00 -7.56147E+00 -9.79739E+00 -1.19091E+01 -1.38551E+01
  -1.56074E+01 -1.71472E+01 -1.84646E+01 -1.95578E+01 -2.04305E+01 -2.10906E+01 -2.15480E+01 -2.18134E+01 -2.18970E+01 -2.18088E+01
  -2.15576E+01 -2.11521E+01 -2.06006E+01 -1.99110E+01 -1.90918E+01 -1.81531E+01 -1.71075E+01 -1.59700E+01 -1.47581E+01 -1.34916E+01
  -1.21925E+01 -1.08846E+01 -9.59274E+00 -8.34120E+00 -7.15238E+00 -6.04543E+00 -5.03510E+00 -4.13056E+00 -3.33345E+00 -2.63459E+00
  -2.00557E+00 -1.38578E+00 -7.60324E-01 -1.88622E-01  2.47284E-01  4.32496E-01  2.50429E-01 -3.64734E-01 -1.34193E+00 -2.39621E+00
  -3.18748E+00 -3.50227E+00 -3.29364E+00 -2.63667E+00 -1.64565E+00 -4.80941E-01  5.19033E-01  1.06636E+00  1.18037E+00  9.90114E-01
   5.98032E-01  1.46166E-02 -7.57671E-01 -1.57360E+00 -2.36739E+00 -3.18599E+00 -4.04271E+00 -4.93240E+00 -5.84274E+00 -6.75811E+00
  -7.66169E+00 -8.53661E+00 -9.36657E+00 -1.01362E+01 -1.08314E+01 -1.14399E+01 -1.19511E+01 -1.23563E+01 -1.26481E+01 -1.28206E+01
  -1.28691E+01 -1.27903E+01 -1.25824E+01 -1.22448E+01 -1.17780E+01 -1.11840E+01 -1.04665E+01 -9.63125E+00 -8.68623E+00 -7.64183E+00
  -6.51089E+00 -5.30898E+00 -4.05455E+00 -2.76889E+00 -1.47565E+00 -2.00307E-01  1.03054E+00  2.18973E+00  3.25041E+00  4.18699E+00
   4.97640E+00  5.59906E+00  6.03973E+00  6.28801E+00  6.33871E+00  6.19223E+00  5.85462E+00  5.33724E+00  4.65607E+00  3.83073E+00
   2.88364E+00  1.83913E+00  7.22493E-01 -4.41023E-01 -1.62731E+00 -2.81420E+00 -3.98200E+00 -5.11371E+00 -6.19521E+00 -7.21545E+00
  -8.16647E+00 -9.04321E+00 -9.84305E+00 -1.05654E+01 -1.12113E+01 -1.17832E+01 -1.22847E+01 -1.27204E+01 -1.30949E+01 -1.34130E+01
  -1.36797E+01 -1.38995E+01 -1.40773E+01 -1.42174E+01 -1.43236E+01 -1.43996E+01 -1.44485E+01 -1.44731E+01 -1.44764E+01 -1.44605E+01
  -1.44276E+01 -1.43793E+01 -1.43171E+01 -1.42426E+01 -1.41571E+01 -1.40619E+01 -1.39576E+01 -1.38452E+01 -1.37254E+01 -1.35991E+01
  -1.34670E+01 -1.33295E+01 -1.31872E+01 -1.30403E+01 -1.28893E+01 -1.27348E+01 -1.25768E+01 -1.24158E+01 -1.22518E+01 -1.20851E+01
  -1.19159E+01 -1.17445E+01 -1.15711E+01 -1.13957E+01 -1.12184E+01 -1.10393E+01 -1.08588E+01 -1.06769E+01 -1.04937E+01 -1.03091E+01
  -1.01233E+01 -9.93641E+00 -9.74859E+00 -9.55989E+00 -9.37028E+00 -9.17974E+00 -8.98838E+00 -8.79635E+00 -8.60374E+00 -8.41056E+00
  -8.21673E+00 -8.02226E+00 -7.82729E+00 -7.63192E+00 -7.43619E+00 -7.24004E+00 -7.04342E+00 -6.84637E+00 -6.64901E+00 -6.45144E+00
  -6.25361E+00 -6.05545E+00 -5.85694E+00 -5.65813E+00 -5.45916E+00 -5.26002E+00 -5.06064E+00 -4.86094E+00
 NY background values follow
    -3.547E+01   -3.526E+01   -3.506E+01   -3.485E+01   -3.464E+01   -3.443E+01   -3.422E+01   -3.401E+01   -3.381E+01   -3.360E+01
    -3.340E+01   -3.319E+01   -3.299E+01   -3.278E+01   -3.258E+01   -3.238E+01   -3.218E+01   -3.198E+01   -3.178E+01   -3.158E+01
    -3.138E+01   -3.119E+01   -3.099E+01   -3.080E+01   -3.061E+01   -3.042E+01   -3.023E+01   -3.004E+01   -2.985E+01   -2.967E+01
    -2.948E+01   -2.930E+01   -2.912E+01   -2.894E+01   -2.876E+01   -2.858E+01   -2.841E+01   -2.823E+01   -2.806E+01   -2.789E+01
    -2.773E+01   -2.756E+01   -2.740E+01   -2.723E+01   -2.708E+01   -2.692E+01   -2.676E+01   -2.661E+01   -2.646E+01   -2.631E+01
    -2.616E+01   -2.602E+01   -2.587E+01   -2.573E+01   -2.559E+01   -2.546E+01   -2.532E+01   -2.519E+01   -2.506E+01   -2.493E+01
    -2.481E+01   -2.468E+01   -2.456E+01   -2.444E+01   -2.433E+01   -2.421E+01   -2.410E+01   -2.399E+01   -2.388E+01   -2.377E+01
    -2.367E+01   -2.357E+01   -2.347E+01   -2.337E+01   -2.328E+01   -2.319E+01   -2.310E+01   -2.301E+01   -2.292E+01   -2.284E+01
    -2.276E+01   -2.268E+01   -2.260E+01   -2.253E+01   -2.245E+01   -2.238E+01   -2.232E+01   -2.225E+01   -2.219E+01   -2.213E+01
    -2.207E+01   -2.201E+01   -2.196E+01   -2.191E+01   -2.186E+01   -2.181E+01   -2.177E+01   -2.172E+01   -2.168E+01   -2.164E+01
    -2.161E+01   -2.157E+01   -2.154E+01   -2.150E+01   -2.147E+01   -2.144E+01   -2.142E+01   -2.139E+01   -2.136E+01   -2.134E+01
    -2.132E+01   -2.130E+01   -2.128E+01   -2.126E+01   -2.124E+01   -2.123E+01   -2.121E+01   -2.120E+01   -2.118E+01   -2.117E+01
    -2.116E+01   -2.115E+01   -2.113E+01   -2.112E+01   -2.111E+01   -2.111E+01   -2.110E+01   -2.109E+01   -2.108E+01   -2.107E+01
    -2.107E+01   -2.106E+01   -2.105E+01   -2.104E+01   -2.104E+01   -2.103E+01   -2.102E+01   -2.101E+01   -2.101E+01   -2.100E+01
    -2.099E+01   -2.098E+01   -2.097E+01   -2.096E+01   -2.095E+01   -2.094E+01   -2.093E+01   -2.092E+01   -2.091E+01   -2.090E+01
    -2.089E+01   -2.088E+01   -2.087E+01   -2.085E+01   -2.084E+01   -2.083E+01   -2.081E+01   -2.080E+01   -2.078E+01   -2.077E+01
    -2.075E+01   -2.073E+01   -2.072E+01   -2.070E+01   -2.068E+01   -2.066E+01   -2.064E+01   -2.062E+01   -2.060E+01   -2.057E+01
    -2.055E+01   -2.053E+01   -2.050E+01   -2.048E+01   -2.045E+01   -2.042E+01   -2.039E+01   -2.036E+01   -2.033E+01   -2.030E+01
    -2.027E+01   -2.024E+01   -2.020E+01   -2.017E+01   -2.013E+01   -2.009E+01   -2.006E+01   -2.002E+01   -1.998E+01   -1.994E+01
    -1.990E+01   -1.987E+01   -1.983E+01   -1.979E+01   -1.975E+01   -1.971E+01   -1.967E+01   -1.964E+01   -1.960E+01   -1.956E+01
    -1.953E+01   -1.949E+01   -1.946E+01   -1.943E+01   -1.940E+01   -1.936E+01   -1.934E+01   -1.931E+01   -1.928E+01   -1.926E+01
    -1.923E+01   -1.921E+01   -1.919E+01   -1.918E+01   -1.916E+01   -1.915E+01   -1.914E+01   -1.913E+01   -1.912E+01   -1.912E+01
    -1.912E+01   -1.912E+01   -1.913E+01   -1.914E+01   -1.915E+01   -1.916E+01   -1.918E+01   -1.920E+01   -1.922E+01   -1.925E+01
    -1.928E+01   -1.931E+01   -1.935E+01   -1.939E+01   -1.943E+01   -1.948E+01   -1.953E+01   -1.958E+01   -1.963E+01   -1.969E+01
    -1.975E+01   -1.981E+01   -1.988E+01   -1.995E+01   -2.002E+01   -2.009E+01   -2.017E+01   -2.025E+01   -2.033E+01   -2.041E+01
    -2.050E+01   -2.058E+01   -2.068E+01   -2.077E+01   -2.086E+01   -2.096E+01   -2.106E+01   -2.116E+01   -2.127E+01   -2.137E+01
    -2.148E+01   -2.159E+01   -2.170E+01   -2.182E+01   -2.193E+01   -2.205E+01   -2.217E+01   -2.229E+01   -2.241E+01   -2.254E+01
    -2.266E+01   -2.279E+01   -2.292E+01   -2.305E+01   -2.318E+01   -2.332E+01   -2.345E+01   -2.359E+01   -2.372E+01   -2.386E+01
    -2.400E+01   -2.414E+01   -2.428E+01   -2.442E+01   -2.456E+01   -2.470E+01   -2.484E+01   -2.498E+01   -2.512E+01   -2.525E+01
    -2.539E+01   -2.553E+01   -2.567E+01   -2.581E+01   -2.594E+01   -2.608E+01   -2.621E+01   -2.635E+01   -2.648E+01   -2.661E+01
    -2.674E+01   -2.686E+01   -2.699E+01   -2.711E+01   -2.723E+01   -2.735E+01   -2.747E+01   -2.758E+01   -2.770E+01   -2.781E+01
    -2.791E+01   -2.802E+01   -2.812E+01   -2.822E+01   -2.832E+01   -2.841E+01   -2.850E+01   -2.858E+01   -2.867E+01   -2.875E+01
    -2.882E+01   -2.889E+01   -2.896E+01   -2.903E+01   -2.909E+01   -2.915E+01   -2.921E+01   -2.926E+01   -2.931E+01   -2.936E+01
    -2.940E+01   -2.944E+01   -2.948E+01   -2.951E+01   -2.954E+01   -2.957E+01   -2.959E+01   -2.961E+01   -2.963E+01   -2.965E+01
    -2.966E+01   -2.967E+01   -2.967E+01   -2.968E+01   -2.968E+01   -2.967E+01   -2.967E+01   -2.966E+01   -2.965E+01   -2.963E+01
    -2.962E+01   -2.960E+01   -2.957E+01   -2.955E+01   -2.952E+01   -2.949E+01   -2.945E+01   -2.942E+01   -2.938E+01   -2.934E+01
    -2.929E+01   -2.924E+01   -2.919E+01   -2.914E+01   -2.909E+01   -2.903E+01   -2.897E+01   -2.890E+01   -2.884E+01   -2.877E+01
    -2.870E+01   -2.862E+01   -2.855E+01   -2.847E+01   -2.839E+01   -2.830E+01   -2.822E+01   -2.813E+01   -2.804E+01   -2.794E+01
    -2.784E+01   -2.774E+01   -2.764E+01   -2.754E+01   -2.743E+01   -2.732E+01   -2.721E+01   -2.709E+01   -2.697E+01   -2.685E+01
    -2.673E+01   -2.661E+01   -2.648E+01   -2.635E+01   -2.621E+01   -2.608E+01   -2.594E+01   -2.580E+01   -2.566E+01   -2.551E+01
    -2.536E+01   -2.521E+01   -2.506E+01   -2.490E+01   -2.475E+01   -2.459E+01   -2.442E+01   -2.426E+01   -2.409E+01   -2.392E+01
    -2.374E+01   -2.357E+01   -2.339E+01   -2.321E+01   -2.303E+01   -2.285E+01   -2.266E+01   -2.247E+01   -2.228E+01   -2.209E+01
    -2.190E+01   -2.170E+01   -2.151E+01   -2.131E+01   -2.111E+01   -2.091E+01   -2.070E+01   -2.050E+01   -2.030E+01   -2.009E+01
    -1.988E+01   -1.967E+01   -1.946E+01   -1.925E+01   -1.904E+01   -1.883E+01   -1.861E+01   -1.840E+01   -1.818E+01   -1.797E+01
    -1.775E+01   -1.753E+01   -1.731E+01   -1.710E+01   -1.688E+01   -1.666E+01   -1.644E+01   -1.622E+01   -1.600E+01   -1.578E+01
    -1.556E+01   -1.534E+01   -1.512E+01   -1.490E+01   -1.468E+01   -1.446E+01   -1.424E+01   -1.402E+01   -1.381E+01   -1.359E+01
    -1.337E+01   -1.315E+01   -1.293E+01   -1.271E+01   -1.250E+01   -1.228E+01   -1.206E+01   -1.184E+01   -1.163E+01   -1.141E+01
    -1.119E+01   -1.097E+01   -1.076E+01   -1.054E+01   -1.033E+01   -1.011E+01   -9.894E+00   -9.678E+00   -9.463E+00   -9.248E+00
    -9.033E+00   -8.818E+00   -8.603E+00   -8.389E+00   -8.175E+00   -7.961E+00   -7.747E+00   -7.534E+00   -7.321E+00   -7.108E+00
    -6.895E+00   -6.682E+00   -6.470E+00   -6.258E+00   -6.046E+00   -5.835E+00   -5.624E+00   -5.413E+00
 Cr       Conc. = 2.08E+03
