 LCModel (Version 6.3-1L) Copyright: S.W. Provencher.          Ref.: Magn. Reson. Med. 30:672-679 (1993).                
 Slice#1 Row#11 Col#4  PD_24_press_2_raw_act
 36 lines in following concentration table = NCONC+1
    Conc.  %SD /Cr+PCr  Metabolite                                         
    0.000 999%   0.000 Ala                                                 
   82.769  26%   0.394 Asp                                                 
    0.000 999%   0.000 Cr                                                  
  209.910  33%   1.000 PCr                                                 
   51.620  25%   0.246 GABA                                                
   49.464  26%   0.236 Glc                                                 
    0.000 999%   0.000 Gln                                                 
    0.000 999%   0.000 Glu                                                 
    0.000 999%   0.000 GPC                                                 
    0.000 999%   0.000 PCh                                                 
    0.000 999%   0.000 GSH                                                 
  224.421 111%   1.069 Ins                                                 
  430.796  63%   2.052 Lac                                                 
  831.887  19%   3.963 NAA                                                 
  667.563  23%   3.180 NAAG                                                
   16.269  27% 7.8E-02 Scyllo                                              
   78.693  28%   0.375 Tau                                                 
   20.780  38% 9.9E-02 -CrCH2                                              
    0.000 999%   0.000 GPC+PCh                                             
 1.50E+03   8%   7.143 NAA+NAAG                                            
  209.910  33%   1.000 Cr+PCr                                              
    0.000 999%   0.000 Glu+Gln                                             
  338.828  64%   1.614 Lip13a                                              
    0.000 999%   0.000 Lip13b                                              
    0.000 999%   0.000 Lip09                                               
  479.773  26%   2.286 MM09                                                
  128.853  81%   0.614 Lip20                                               
  691.626  42%   3.295 MM20                                                
  157.198  51%   0.749 MM12                                                
  816.659  21%   3.891 MM14                                                
 1.10E+03   9%   5.252+MM17                                                
  338.828  64%   1.614 Lip13a+Lip13b                                       
 1.31E+03  24%   6.254 MM14+Lip13a+Lip13b+MM12                             
  479.773  26%   2.286 MM09+Lip09                                          
  820.479  37%   3.909 MM20+Lip20                                          
   6 lines in following misc. output table
  FWHM = 0.290 ppm    S/N =   3                                            
  Data shift = 0.222 ppm                                                   
  Ph:  87 deg     -17.1 deg/ppm                                            
  alphaB,S = 2.2E+00,   4.9E+01                                            
    9 spline knots.   Ns = 9(2)                                            
  (19) 7 infls.   (13) 7 extrs.                                            
  498 points on ppm-axis = NY
      4.000000     3.992357     3.984714     3.977070     3.969427     3.961784     3.954141     3.946497     3.938854     3.931211
      3.923568     3.915925     3.908281     3.900638     3.892995     3.885352     3.877708     3.870065     3.862422     3.854779
      3.847136     3.839492     3.831849     3.824206     3.816563     3.808919     3.801276     3.793633     3.785990     3.778347
      3.770703     3.763060     3.755417     3.747774     3.740130     3.732487     3.724844     3.717201     3.709558     3.701914
      3.694271     3.686628     3.678985     3.671341     3.663698     3.656055     3.648412     3.640769     3.633125     3.625482
      3.617839     3.610196     3.602552     3.594909     3.587266     3.579623     3.571980     3.564336     3.556693     3.549050
      3.541407     3.533763     3.526120     3.518477     3.510834     3.503191     3.495547     3.487904     3.480261     3.472618
      3.464974     3.457331     3.449688     3.442045     3.434402     3.426758     3.419115     3.411472     3.403829     3.396185
      3.388542     3.380899     3.373256     3.365613     3.357969     3.350326     3.342683     3.335040     3.327396     3.319753
      3.312110     3.304467     3.296824     3.289180     3.281537     3.273894     3.266251     3.258607     3.250964     3.243321
      3.235678     3.228034     3.220391     3.212748     3.205105     3.197462     3.189818     3.182175     3.174532     3.166889
      3.159245     3.151602     3.143959     3.136316     3.128673     3.121029     3.113386     3.105743     3.098100     3.090456
      3.082813     3.075170     3.067527     3.059884     3.052240     3.044597     3.036954     3.029311     3.021667     3.014024
      3.006381     2.998738     2.991095     2.983451     2.975808     2.968165     2.960522     2.952878     2.945235     2.937592
      2.929949     2.922306     2.914662     2.907019     2.899376     2.891733     2.884089     2.876446     2.868803     2.861160
      2.853517     2.845873     2.838230     2.830587     2.822944     2.815300     2.807657     2.800014     2.792371     2.784728
      2.777084     2.769441     2.761798     2.754155     2.746511     2.738868     2.731225     2.723582     2.715939     2.708295
      2.700652     2.693009     2.685366     2.677722     2.670079     2.662436     2.654793     2.647150     2.639506     2.631863
      2.624220     2.616577     2.608933     2.601290     2.593647     2.586004     2.578361     2.570717     2.563074     2.555431
      2.547788     2.540144     2.532501     2.524858     2.517215     2.509572     2.501928     2.494285     2.486642     2.478999
      2.471355     2.463712     2.456069     2.448426     2.440783     2.433139     2.425496     2.417853     2.410210     2.402566
      2.394923     2.387280     2.379637     2.371994     2.364350     2.356707     2.349064     2.341421     2.333777     2.326134
      2.318491     2.310848     2.303205     2.295561     2.287918     2.280275     2.272632     2.264988     2.257345     2.249702
      2.242059     2.234416     2.226772     2.219129     2.211486     2.203843     2.196199     2.188556     2.180913     2.173270
      2.165627     2.157983     2.150340     2.142697     2.135054     2.127410     2.119767     2.112124     2.104481     2.096838
      2.089194     2.081551     2.073908     2.066265     2.058621     2.050978     2.043335     2.035692     2.028049     2.020405
      2.012762     2.005119     1.997476     1.989833     1.982190     1.974546     1.966903     1.959260     1.951617     1.943974
      1.936331     1.928688     1.921045     1.913402     1.905759     1.898115     1.890472     1.882829     1.875186     1.867543
      1.859900     1.852257     1.844614     1.836971     1.829327     1.821684     1.814041     1.806398     1.798755     1.791112
      1.783469     1.775826     1.768183     1.760540     1.752896     1.745253     1.737610     1.729967     1.722324     1.714681
      1.707038     1.699395     1.691752     1.684108     1.676465     1.668822     1.661179     1.653536     1.645893     1.638250
      1.630607     1.622964     1.615321     1.607677     1.600034     1.592391     1.584748     1.577105     1.569462     1.561819
      1.554176     1.546533     1.538890     1.531246     1.523603     1.515960     1.508317     1.500674     1.493031     1.485388
      1.477745     1.470102     1.462458     1.454815     1.447172     1.439529     1.431886     1.424243     1.416600     1.408957
      1.401314     1.393671     1.386027     1.378384     1.370741     1.363098     1.355455     1.347812     1.340169     1.332526
      1.324883     1.317240     1.309596     1.301953     1.294310     1.286667     1.279024     1.271381     1.263738     1.256095
      1.248452     1.240808     1.233165     1.225522     1.217879     1.210236     1.202593     1.194950     1.187307     1.179664
      1.172021     1.164377     1.156734     1.149091     1.141448     1.133805     1.126162     1.118519     1.110876     1.103233
      1.095590     1.087946     1.080303     1.072660     1.065017     1.057374     1.049731     1.042088     1.034445     1.026802
      1.019158     1.011515     1.003872     0.996229     0.988586     0.980943     0.973300     0.965657     0.958014     0.950371
      0.942727     0.935084     0.927441     0.919798     0.912155     0.904512     0.896869     0.889226     0.881583     0.873940
      0.866296     0.858653     0.851010     0.843367     0.835724     0.828081     0.820438     0.812795     0.805152     0.797508
      0.789865     0.782222     0.774579     0.766936     0.759293     0.751650     0.744007     0.736364     0.728721     0.721077
      0.713434     0.705791     0.698148     0.690505     0.682862     0.675219     0.667576     0.659933     0.652290     0.644646
      0.637003     0.629360     0.621717     0.614074     0.606431     0.598788     0.591145     0.583502     0.575858     0.568215
      0.560572     0.552929     0.545286     0.537643     0.530000     0.522357     0.514714     0.507071     0.499427     0.491784
      0.484141     0.476498     0.468855     0.461212     0.453569     0.445925     0.438282     0.430639     0.422996     0.415353
      0.407710     0.400067     0.392424     0.384780     0.377137     0.369494     0.361851     0.354208     0.346565     0.338922
      0.331278     0.323635     0.315992     0.308349     0.300706     0.293063     0.285420     0.277777     0.270133     0.262490
      0.254847     0.247204     0.239561     0.231918     0.224275     0.216631     0.208988     0.201345
 NY phased data points follow
   1.19735E+02  1.17491E+02  1.20562E+02  1.15072E+02  1.19381E+02  1.12556E+02  1.15622E+02  1.09571E+02  1.13869E+02  1.09607E+02
   1.14160E+02  1.05665E+02  1.09592E+02  1.03733E+02  1.06918E+02  1.04599E+02  1.04936E+02  1.02739E+02  1.03986E+02  1.02151E+02
   1.02567E+02  1.00270E+02  9.85642E+01  9.81174E+01  9.89633E+01  9.55938E+01  9.88226E+01  9.62380E+01  1.00746E+02  9.13522E+01
   9.82127E+01  9.18394E+01  9.30634E+01  9.08657E+01  9.47176E+01  9.04309E+01  9.48830E+01  8.80546E+01  8.91279E+01  8.85142E+01
   9.10619E+01  8.51736E+01  9.00677E+01  8.39397E+01  8.62942E+01  8.50504E+01  8.56318E+01  8.31848E+01  8.48557E+01  8.41084E+01
   8.38371E+01  8.24063E+01  8.15841E+01  7.76705E+01  8.11789E+01  7.93397E+01  8.12559E+01  7.72806E+01  8.19815E+01  7.69032E+01
   8.02893E+01  7.55866E+01  7.80737E+01  7.26276E+01  7.32514E+01  7.34470E+01  7.85035E+01  7.35208E+01  7.48365E+01  7.35519E+01
   7.37360E+01  6.95476E+01  7.00377E+01  7.06711E+01  7.00818E+01  6.67338E+01  7.12305E+01  7.09026E+01  7.27202E+01  6.75088E+01
   6.94518E+01  6.64494E+01  6.65515E+01  6.84462E+01  6.56653E+01  6.74433E+01  6.71416E+01  6.76797E+01  6.61087E+01  6.54040E+01
   6.48583E+01  6.73699E+01  6.51922E+01  6.14832E+01  6.35621E+01  6.30958E+01  6.19026E+01  5.88613E+01  6.08721E+01  6.07615E+01
   6.07278E+01  6.44157E+01  5.99997E+01  5.88472E+01  6.23680E+01  5.79826E+01  6.16798E+01  5.47664E+01  6.15557E+01  6.01948E+01
   5.98890E+01  5.84758E+01  5.98630E+01  5.87080E+01  5.85354E+01  5.78413E+01  5.86184E+01  5.60008E+01  5.79720E+01  5.74244E+01
   5.82201E+01  5.66371E+01  5.74582E+01  5.81524E+01  5.48941E+01  5.55859E+01  5.66304E+01  5.41441E+01  5.61691E+01  5.39979E+01
   5.18015E+01  5.48171E+01  5.42716E+01  5.38243E+01  5.48193E+01  5.32696E+01  5.33183E+01  5.29516E+01  5.24218E+01  5.28695E+01
   5.39526E+01  5.34488E+01  5.11779E+01  5.37250E+01  5.23304E+01  5.23356E+01  5.21781E+01  5.14038E+01  5.33820E+01  4.86788E+01
   4.92121E+01  4.76291E+01  4.90581E+01  4.70653E+01  4.81881E+01  4.85002E+01  4.97326E+01  4.66821E+01  4.64432E+01  5.00467E+01
   4.77987E+01  4.51837E+01  4.48421E+01  4.63256E+01  4.89871E+01  4.72760E+01  4.65162E+01  4.77967E+01  4.35824E+01  4.69183E+01
   4.65584E+01  4.26814E+01  4.55706E+01  4.28869E+01  4.56648E+01  4.33743E+01  4.57338E+01  4.42985E+01  3.88627E+01  4.07515E+01
   4.12120E+01  4.18659E+01  3.94146E+01  4.03246E+01  4.32048E+01  4.01456E+01  4.09360E+01  3.88917E+01  4.22153E+01  3.99771E+01
   3.85610E+01  4.03203E+01  3.97646E+01  4.13067E+01  4.25097E+01  3.91496E+01  3.77164E+01  3.99906E+01  3.72329E+01  3.98580E+01
   3.97156E+01  3.70647E+01  4.01478E+01  3.95765E+01  3.76006E+01  3.58424E+01  3.85689E+01  3.64148E+01  4.15673E+01  3.78627E+01
   3.87322E+01  3.90295E+01  3.76855E+01  4.03479E+01  3.67196E+01  3.83142E+01  3.61290E+01  3.76857E+01  3.45088E+01  3.79989E+01
   3.59175E+01  3.61512E+01  3.68372E+01  3.43039E+01  3.16229E+01  3.37284E+01  3.56677E+01  3.10839E+01  3.23854E+01  2.76837E+01
   2.87103E+01  3.23877E+01  3.07398E+01  3.35200E+01  3.37066E+01  3.53283E+01  3.69282E+01  4.10932E+01  4.23094E+01  3.81820E+01
   3.79170E+01  3.43518E+01  4.04126E+01  4.07651E+01  4.01224E+01  3.88568E+01  4.00201E+01  3.85467E+01  3.84363E+01  3.88822E+01
   4.20779E+01  3.77876E+01  3.81606E+01  4.03184E+01  3.92130E+01  3.97875E+01  3.75846E+01  4.15691E+01  3.93334E+01  4.09108E+01
   4.03884E+01  3.84117E+01  3.98891E+01  4.05036E+01  3.91962E+01  4.09669E+01  4.05039E+01  3.85532E+01  3.81318E+01  3.76452E+01
   3.93587E+01  3.68889E+01  3.80920E+01  3.72455E+01  3.41620E+01  3.66629E+01  3.30061E+01  2.99646E+01  2.98361E+01  2.74081E+01
   3.00314E+01  2.79694E+01  2.30479E+01  2.15144E+01  2.08116E+01  2.00310E+01  2.00934E+01  1.76860E+01  1.64104E+01  1.43149E+01
   1.61093E+01  1.63275E+01  1.87864E+01  1.64890E+01  2.07333E+01  2.07000E+01  2.23949E+01  2.07452E+01  2.37368E+01  2.46254E+01
   2.52532E+01  2.96512E+01  2.55712E+01  3.02306E+01  3.08947E+01  3.12396E+01  3.11224E+01  2.81316E+01  2.88316E+01  3.09386E+01
   3.04572E+01  2.92157E+01  3.11477E+01  2.95839E+01  2.97409E+01  2.90861E+01  2.67517E+01  2.76472E+01  2.71279E+01  2.82427E+01
   2.77029E+01  2.59671E+01  2.42825E+01  2.55857E+01  2.55919E+01  2.67205E+01  2.22454E+01  2.33687E+01  2.34736E+01  2.28090E+01
   2.46737E+01  2.24493E+01  1.93590E+01  2.07805E+01  2.38973E+01  1.90568E+01  2.18007E+01  2.00805E+01  2.27098E+01  2.12526E+01
   1.99161E+01  2.45537E+01  2.28293E+01  2.26568E+01  2.20789E+01  2.42263E+01  2.10318E+01  2.15718E+01  1.99771E+01  2.01738E+01
   1.86550E+01  1.99507E+01  1.64413E+01  2.15266E+01  1.97684E+01  1.84514E+01  1.72548E+01  1.63605E+01  1.58971E+01  1.77593E+01
   1.82906E+01  2.21529E+01  2.11168E+01  1.97580E+01  1.96520E+01  1.75632E+01  1.77901E+01  1.82843E+01  1.75454E+01  1.94999E+01
   2.02822E+01  1.95882E+01  1.83620E+01  1.74015E+01  2.07788E+01  1.64261E+01  1.45444E+01  1.88927E+01  1.64707E+01  1.95272E+01
   1.36583E+01  1.67902E+01  1.70388E+01  1.61992E+01  1.88211E+01  1.63513E+01  1.77672E+01  1.85092E+01  1.71509E+01  1.64646E+01
   1.78541E+01  1.88032E+01  1.72418E+01  1.84693E+01  1.70314E+01  1.90342E+01  1.72342E+01  1.84982E+01  1.67099E+01  1.74605E+01
   1.93551E+01  1.49097E+01  1.99286E+01  1.53822E+01  1.67783E+01  1.45735E+01  1.28023E+01  1.46070E+01  1.64183E+01  1.69298E+01
   1.62689E+01  1.46123E+01  1.90862E+01  1.51353E+01  1.58853E+01  1.47852E+01  1.42900E+01  1.43617E+01  1.71977E+01  1.68719E+01
   1.65792E+01  1.38427E+01  1.18095E+01  1.44211E+01  1.49954E+01  1.47278E+01  1.46072E+01  1.52618E+01  1.52992E+01  1.28016E+01
   1.48200E+01  1.58656E+01  1.36986E+01  1.19111E+01  1.38601E+01  1.40930E+01  1.49746E+01  1.50413E+01  1.24130E+01  1.40633E+01
   1.16227E+01  1.09518E+01  1.10812E+01  1.43397E+01  1.21378E+01  1.29188E+01  1.17490E+01  1.49500E+01  1.41682E+01  1.48207E+01
   1.13910E+01  1.17543E+01  1.16855E+01  1.25946E+01  1.06929E+01  1.21055E+01  1.19876E+01  1.38300E+01  1.13142E+01  1.07894E+01
   1.16168E+01  1.13746E+01  1.16623E+01  8.78036E+00  1.02022E+01  9.48710E+00  1.24564E+01  9.32444E+00  1.09085E+01  8.21527E+00
   1.07335E+01  1.10013E+01  1.00201E+01  8.64085E+00  8.96105E+00  8.67084E+00  9.36806E+00  8.92046E+00  7.29813E+00  5.38738E+00
   6.44727E+00  7.81066E+00  7.92946E+00  4.80949E+00  8.42099E+00  8.84848E+00  9.37403E+00  7.98373E+00  9.30167E+00  8.45476E+00
   9.29539E+00  6.93834E+00  7.73032E+00  7.13274E+00  8.70227E+00  9.72064E+00  4.66897E+00  7.19328E+00
 NY points of the fit to the data follow
   1.14838E+02  1.14119E+02  1.13349E+02  1.12777E+02  1.12269E+02  1.11807E+02  1.11301E+02  1.10768E+02  1.10190E+02  1.09446E+02
   1.08736E+02  1.07852E+02  1.07219E+02  1.06398E+02  1.05869E+02  1.05075E+02  1.04561E+02  1.03781E+02  1.03334E+02  1.02539E+02
   1.02096E+02  1.01299E+02  1.00837E+02  1.00067E+02  9.96306E+01  9.87234E+01  9.82129E+01  9.71862E+01  9.65778E+01  9.56050E+01
   9.49706E+01  9.43786E+01  9.37697E+01  9.31440E+01  9.25111E+01  9.18900E+01  9.12712E+01  9.06804E+01  9.01134E+01  8.95547E+01
   8.90079E+01  8.84743E+01  8.79536E+01  8.74152E+01  8.68813E+01  8.62960E+01  8.57358E+01  8.51288E+01  8.45757E+01  8.40142E+01
   8.34968E+01  8.29859E+01  8.24705E+01  8.19375E+01  8.14354E+01  8.08841E+01  8.03668E+01  7.98645E+01  7.93891E+01  7.88951E+01
   7.84448E+01  7.79517E+01  7.74851E+01  7.69676E+01  7.64780E+01  7.59183E+01  7.53867E+01  7.48235E+01  7.43774E+01  7.38627E+01
   7.34681E+01  7.29781E+01  7.25641E+01  7.20989E+01  7.17109E+01  7.12308E+01  7.08300E+01  7.03415E+01  6.99582E+01  6.94687E+01
   6.90803E+01  6.86416E+01  6.82343E+01  6.78241E+01  6.74440E+01  6.70073E+01  6.66349E+01  6.62102E+01  6.58865E+01  6.54640E+01
   6.51662E+01  6.47243E+01  6.43784E+01  6.39288E+01  6.35959E+01  6.31609E+01  6.28410E+01  6.24766E+01  6.21995E+01  6.18495E+01
   6.15920E+01  6.12219E+01  6.09056E+01  6.05433E+01  6.02151E+01  5.98799E+01  5.95572E+01  5.93411E+01  5.92670E+01  5.96371E+01
   5.96217E+01  5.94654E+01  5.92828E+01  5.89244E+01  5.86656E+01  5.82584E+01  5.79819E+01  5.76128E+01  5.74123E+01  5.71637E+01
   5.70627E+01  5.69034E+01  5.68202E+01  5.66336E+01  5.65256E+01  5.62952E+01  5.61551E+01  5.58537E+01  5.57191E+01  5.55227E+01
   5.54187E+01  5.52401E+01  5.51230E+01  5.48408E+01  5.46819E+01  5.43264E+01  5.40935E+01  5.37646E+01  5.36041E+01  5.33708E+01
   5.33098E+01  5.31531E+01  5.29532E+01  5.24576E+01  5.20358E+01  5.12836E+01  5.07294E+01  4.98812E+01  4.94124E+01  4.91636E+01
   4.88619E+01  4.85898E+01  4.82694E+01  4.81156E+01  4.78331E+01  4.76869E+01  4.73482E+01  4.71142E+01  4.67262E+01  4.64866E+01
   4.62362E+01  4.60605E+01  4.57967E+01  4.55458E+01  4.51303E+01  4.49508E+01  4.46536E+01  4.45283E+01  4.42292E+01  4.40487E+01
   4.37683E+01  4.36794E+01  4.34355E+01  4.33661E+01  4.31267E+01  4.29469E+01  4.26136E+01  4.24236E+01  4.21368E+01  4.20052E+01
   4.18331E+01  4.17098E+01  4.15992E+01  4.13487E+01  4.11679E+01  4.09529E+01  4.08889E+01  4.07799E+01  4.07143E+01  4.05193E+01
   4.03822E+01  4.00700E+01  3.99763E+01  3.97939E+01  3.97483E+01  3.95676E+01  3.94664E+01  3.93243E+01  3.91936E+01  3.90599E+01
   3.89864E+01  3.88788E+01  3.88088E+01  3.86151E+01  3.84196E+01  3.82206E+01  3.81020E+01  3.78610E+01  3.77241E+01  3.73631E+01
   3.71464E+01  3.68515E+01  3.66052E+01  3.63418E+01  3.61989E+01  3.59061E+01  3.58134E+01  3.55918E+01  3.55141E+01  3.52902E+01
   3.51195E+01  3.49379E+01  3.47239E+01  3.44882E+01  3.41926E+01  3.40541E+01  3.39418E+01  3.38922E+01  3.38314E+01  3.38533E+01
   3.37349E+01  3.37485E+01  3.36610E+01  3.37014E+01  3.36951E+01  3.37280E+01  3.39527E+01  3.51667E+01  3.70119E+01  3.67196E+01
   3.78269E+01  3.71102E+01  3.89419E+01  4.02350E+01  4.02060E+01  4.05407E+01  3.98125E+01  3.98354E+01  3.93973E+01  3.92811E+01
   3.92468E+01  3.90223E+01  3.92693E+01  3.92397E+01  3.95785E+01  3.95303E+01  3.95680E+01  3.98410E+01  4.00248E+01  4.02101E+01
   4.02730E+01  3.99118E+01  4.00495E+01  3.98477E+01  3.97775E+01  3.98634E+01  3.95031E+01  3.95138E+01  3.91687E+01  3.91101E+01
   3.89953E+01  3.82800E+01  3.75919E+01  3.65893E+01  3.50006E+01  3.43138E+01  3.11000E+01  3.14670E+01  2.87778E+01  2.79907E+01
   2.53476E+01  2.34671E+01  2.30017E+01  2.27834E+01  2.26293E+01  2.25238E+01  2.24317E+01  2.23819E+01  2.23442E+01  2.23200E+01
   2.23150E+01  2.23097E+01  2.23540E+01  2.24420E+01  2.26067E+01  2.28209E+01  2.31406E+01  2.35114E+01  2.39443E+01  2.44115E+01
   2.49416E+01  2.54847E+01  2.60793E+01  2.66462E+01  2.72569E+01  2.78174E+01  2.83701E+01  2.88280E+01  2.92370E+01  2.95043E+01
   2.96888E+01  2.97100E+01  2.96204E+01  2.93969E+01  2.90917E+01  2.86726E+01  2.82016E+01  2.76601E+01  2.71005E+01  2.65228E+01
   2.59457E+01  2.53949E+01  2.48843E+01  2.44284E+01  2.40364E+01  2.37176E+01  2.34814E+01  2.33520E+01  2.34033E+01  2.36039E+01
   2.30831E+01  2.28584E+01  2.23113E+01  2.20303E+01  2.15647E+01  2.12641E+01  2.10139E+01  2.15574E+01  2.14509E+01  2.19292E+01
   2.16602E+01  2.19323E+01  2.14949E+01  2.15911E+01  2.10782E+01  2.11079E+01  2.05633E+01  2.06535E+01  2.02318E+01  2.05227E+01
   2.00720E+01  2.03939E+01  1.98424E+01  2.01310E+01  1.95500E+01  1.97437E+01  1.91968E+01  1.95224E+01  1.90299E+01  1.94934E+01
   1.89565E+01  1.93579E+01  1.85581E+01  1.86612E+01  1.78140E+01  1.77667E+01  1.71600E+01  1.72514E+01  1.73202E+01  1.80794E+01
   1.80310E+01  1.85547E+01  1.83898E+01  1.84914E+01  1.81817E+01  1.76614E+01  1.73900E+01  1.72263E+01  1.71150E+01  1.70381E+01
   1.69868E+01  1.69574E+01  1.69467E+01  1.69535E+01  1.69759E+01  1.70134E+01  1.70640E+01  1.71268E+01  1.71993E+01  1.72804E+01
   1.73671E+01  1.74574E+01  1.75479E+01  1.76360E+01  1.77178E+01  1.77907E+01  1.78509E+01  1.78959E+01  1.79224E+01  1.79286E+01
   1.79120E+01  1.78722E+01  1.78080E+01  1.77203E+01  1.76091E+01  1.74767E+01  1.73245E+01  1.71556E+01  1.69722E+01  1.67781E+01
   1.65755E+01  1.63684E+01  1.61587E+01  1.59500E+01  1.57438E+01  1.55426E+01  1.53473E+01  1.51598E+01  1.49801E+01  1.48095E+01
   1.46474E+01  1.44944E+01  1.43493E+01  1.42126E+01  1.40828E+01  1.39603E+01  1.38434E+01  1.37324E+01  1.36257E+01  1.35237E+01
   1.34249E+01  1.33296E+01  1.32365E+01  1.31460E+01  1.30570E+01  1.29699E+01  1.28837E+01  1.27988E+01  1.27144E+01  1.26309E+01
   1.25475E+01  1.24648E+01  1.23819E+01  1.22996E+01  1.22168E+01  1.21343E+01  1.20514E+01  1.19687E+01  1.18854E+01  1.18022E+01
   1.17183E+01  1.16345E+01  1.15500E+01  1.14655E+01  1.13803E+01  1.12950E+01  1.12089E+01  1.11228E+01  1.10360E+01  1.09491E+01
   1.08613E+01  1.07735E+01  1.06849E+01  1.05963E+01  1.05069E+01  1.04174E+01  1.03271E+01  1.02367E+01  1.01456E+01  1.00544E+01
   9.96247E+00  9.87050E+00  9.77773E+00  9.68495E+00  9.59142E+00  9.49793E+00  9.40367E+00  9.30943E+00  9.21444E+00  9.11952E+00
   9.02388E+00  8.92833E+00  8.83207E+00  8.73589E+00  8.63902E+00  8.54228E+00  8.44491E+00  8.34768E+00  8.24981E+00  8.15210E+00
   8.05381E+00  7.95574E+00  7.85713E+00  7.75878E+00  7.65991E+00  7.56138E+00  7.46244E+00  7.36398E+00
 NY background values follow
     1.135E+02    1.128E+02    1.122E+02    1.115E+02    1.108E+02    1.102E+02    1.095E+02    1.089E+02    1.082E+02    1.076E+02
     1.069E+02    1.063E+02    1.056E+02    1.050E+02    1.043E+02    1.037E+02    1.031E+02    1.024E+02    1.018E+02    1.012E+02
     1.005E+02    9.989E+01    9.926E+01    9.863E+01    9.801E+01    9.738E+01    9.676E+01    9.614E+01    9.553E+01    9.491E+01
     9.430E+01    9.369E+01    9.308E+01    9.248E+01    9.188E+01    9.128E+01    9.068E+01    9.009E+01    8.950E+01    8.891E+01
     8.833E+01    8.775E+01    8.717E+01    8.659E+01    8.602E+01    8.545E+01    8.489E+01    8.433E+01    8.377E+01    8.321E+01
     8.266E+01    8.211E+01    8.157E+01    8.103E+01    8.049E+01    7.996E+01    7.943E+01    7.891E+01    7.839E+01    7.787E+01
     7.736E+01    7.685E+01    7.635E+01    7.585E+01    7.536E+01    7.487E+01    7.438E+01    7.390E+01    7.342E+01    7.295E+01
     7.248E+01    7.202E+01    7.156E+01    7.111E+01    7.066E+01    7.022E+01    6.978E+01    6.935E+01    6.893E+01    6.850E+01
     6.809E+01    6.768E+01    6.727E+01    6.687E+01    6.648E+01    6.609E+01    6.570E+01    6.532E+01    6.495E+01    6.458E+01
     6.422E+01    6.386E+01    6.351E+01    6.316E+01    6.282E+01    6.248E+01    6.214E+01    6.181E+01    6.149E+01    6.117E+01
     6.085E+01    6.054E+01    6.023E+01    5.993E+01    5.963E+01    5.933E+01    5.904E+01    5.875E+01    5.846E+01    5.818E+01
     5.790E+01    5.763E+01    5.736E+01    5.709E+01    5.682E+01    5.656E+01    5.630E+01    5.604E+01    5.579E+01    5.554E+01
     5.529E+01    5.505E+01    5.480E+01    5.456E+01    5.433E+01    5.409E+01    5.386E+01    5.362E+01    5.340E+01    5.317E+01
     5.294E+01    5.272E+01    5.250E+01    5.228E+01    5.206E+01    5.184E+01    5.162E+01    5.141E+01    5.120E+01    5.098E+01
     5.077E+01    5.056E+01    5.035E+01    5.015E+01    4.994E+01    4.973E+01    4.953E+01    4.932E+01    4.912E+01    4.891E+01
     4.871E+01    4.850E+01    4.830E+01    4.810E+01    4.789E+01    4.769E+01    4.748E+01    4.728E+01    4.707E+01    4.687E+01
     4.666E+01    4.646E+01    4.625E+01    4.604E+01    4.583E+01    4.563E+01    4.542E+01    4.520E+01    4.499E+01    4.478E+01
     4.457E+01    4.435E+01    4.413E+01    4.392E+01    4.370E+01    4.348E+01    4.326E+01    4.304E+01    4.282E+01    4.260E+01
     4.238E+01    4.216E+01    4.194E+01    4.171E+01    4.149E+01    4.127E+01    4.104E+01    4.082E+01    4.059E+01    4.037E+01
     4.014E+01    3.992E+01    3.969E+01    3.946E+01    3.924E+01    3.901E+01    3.878E+01    3.856E+01    3.833E+01    3.810E+01
     3.788E+01    3.765E+01    3.742E+01    3.720E+01    3.697E+01    3.674E+01    3.652E+01    3.629E+01    3.607E+01    3.584E+01
     3.562E+01    3.539E+01    3.517E+01    3.494E+01    3.472E+01    3.450E+01    3.427E+01    3.405E+01    3.383E+01    3.361E+01
     3.339E+01    3.317E+01    3.295E+01    3.274E+01    3.252E+01    3.230E+01    3.209E+01    3.187E+01    3.166E+01    3.145E+01
     3.123E+01    3.102E+01    3.081E+01    3.060E+01    3.040E+01    3.019E+01    2.998E+01    2.978E+01    2.958E+01    2.937E+01
     2.917E+01    2.897E+01    2.878E+01    2.858E+01    2.838E+01    2.819E+01    2.800E+01    2.781E+01    2.762E+01    2.743E+01
     2.724E+01    2.706E+01    2.687E+01    2.669E+01    2.651E+01    2.633E+01    2.616E+01    2.598E+01    2.581E+01    2.563E+01
     2.546E+01    2.529E+01    2.513E+01    2.496E+01    2.479E+01    2.463E+01    2.447E+01    2.431E+01    2.415E+01    2.399E+01
     2.384E+01    2.368E+01    2.353E+01    2.338E+01    2.323E+01    2.308E+01    2.294E+01    2.279E+01    2.265E+01    2.250E+01
     2.236E+01    2.223E+01    2.209E+01    2.195E+01    2.182E+01    2.169E+01    2.155E+01    2.142E+01    2.130E+01    2.117E+01
     2.104E+01    2.092E+01    2.080E+01    2.068E+01    2.056E+01    2.044E+01    2.032E+01    2.021E+01    2.010E+01    1.999E+01
     1.987E+01    1.977E+01    1.966E+01    1.955E+01    1.945E+01    1.935E+01    1.925E+01    1.915E+01    1.905E+01    1.895E+01
     1.886E+01    1.876E+01    1.867E+01    1.858E+01    1.849E+01    1.840E+01    1.832E+01    1.823E+01    1.815E+01    1.807E+01
     1.799E+01    1.791E+01    1.783E+01    1.775E+01    1.768E+01    1.761E+01    1.754E+01    1.747E+01    1.740E+01    1.733E+01
     1.727E+01    1.720E+01    1.714E+01    1.708E+01    1.702E+01    1.696E+01    1.690E+01    1.685E+01    1.679E+01    1.674E+01
     1.669E+01    1.664E+01    1.659E+01    1.654E+01    1.649E+01    1.645E+01    1.640E+01    1.636E+01    1.632E+01    1.627E+01
     1.623E+01    1.619E+01    1.615E+01    1.611E+01    1.608E+01    1.604E+01    1.600E+01    1.597E+01    1.593E+01    1.590E+01
     1.587E+01    1.583E+01    1.580E+01    1.577E+01    1.574E+01    1.571E+01    1.568E+01    1.565E+01    1.562E+01    1.559E+01
     1.556E+01    1.553E+01    1.550E+01    1.547E+01    1.544E+01    1.542E+01    1.539E+01    1.536E+01    1.533E+01    1.530E+01
     1.528E+01    1.525E+01    1.522E+01    1.519E+01    1.517E+01    1.514E+01    1.511E+01    1.508E+01    1.505E+01    1.502E+01
     1.499E+01    1.496E+01    1.493E+01    1.490E+01    1.487E+01    1.484E+01    1.481E+01    1.477E+01    1.474E+01    1.471E+01
     1.467E+01    1.464E+01    1.460E+01    1.457E+01    1.453E+01    1.449E+01    1.445E+01    1.441E+01    1.437E+01    1.433E+01
     1.429E+01    1.425E+01    1.420E+01    1.416E+01    1.411E+01    1.406E+01    1.401E+01    1.396E+01    1.391E+01    1.386E+01
     1.381E+01    1.375E+01    1.370E+01    1.364E+01    1.359E+01    1.353E+01    1.347E+01    1.341E+01    1.335E+01    1.329E+01
     1.323E+01    1.316E+01    1.310E+01    1.303E+01    1.297E+01    1.290E+01    1.283E+01    1.276E+01    1.269E+01    1.262E+01
     1.255E+01    1.248E+01    1.241E+01    1.233E+01    1.226E+01    1.218E+01    1.211E+01    1.203E+01    1.195E+01    1.187E+01
     1.180E+01    1.172E+01    1.164E+01    1.155E+01    1.147E+01    1.139E+01    1.131E+01    1.122E+01    1.114E+01    1.105E+01
     1.097E+01    1.088E+01    1.080E+01    1.071E+01    1.062E+01    1.053E+01    1.044E+01    1.035E+01    1.026E+01    1.017E+01
     1.008E+01    9.991E+00    9.899E+00    9.807E+00    9.714E+00    9.621E+00    9.527E+00    9.433E+00    9.338E+00    9.243E+00
     9.148E+00    9.052E+00    8.956E+00    8.859E+00    8.763E+00    8.665E+00    8.568E+00    8.470E+00    8.372E+00    8.274E+00
     8.175E+00    8.076E+00    7.977E+00    7.877E+00    7.778E+00    7.678E+00    7.578E+00    7.477E+00
 Asp      Conc. = 8.28E+01
