 LCModel (Version 6.3-1L) Copyright: S.W. Provencher.          Ref.: Magn. Reson. Med. 30:672-679 (1993).                
 Slice#2 Row#11 Col#10  PD_24_press_2_raw_act
 36 lines in following concentration table = NCONC+1
    Conc.  %SD /Cr+PCr  Metabolite                                         
   86.967  45%   2.353 Ala                                                 
    6.391 108%   0.173 Asp                                                 
   36.961  46%   1.000 Cr                                                  
    0.000 999%   0.000 PCr                                                 
    4.044 102%   0.109 GABA                                                
    3.623 115% 9.8E-02 Glc                                                 
    9.051 756%   0.245 Gln                                                 
   83.696  92%   2.264 Glu                                                 
    0.000 999%   0.000 GPC                                                 
    3.207 197% 8.7E-02 PCh                                                 
    0.000 999%   0.000 GSH                                                 
    0.000 999%   0.000 Ins                                                 
   40.804  94%   1.104 Lac                                                 
   84.608  27%   2.289 NAA                                                 
    5.522 431%   0.149 NAAG                                                
    1.277 107% 3.5E-02 Scyllo                                              
    5.235 131%   0.142 Tau                                                 
    5.349 160%   0.145 -CrCH2                                              
    3.207 197% 8.7E-02 GPC+PCh                                             
   90.130  28%   2.439 NAA+NAAG                                            
   36.961  46%   1.000 Cr+PCr                                              
   92.747 107%   2.509 Glu+Gln                                             
 1.87E+03  11%  50.485 Lip13a                                              
    0.000 999%   0.000 Lip13b                                              
  498.222  11%  13.480 Lip09                                               
   24.017 213%   0.650 MM09                                                
  279.901  11%   7.573 Lip20                                               
    4.044 999%   0.109 MM20                                                
    4.340 520%   0.117 MM12                                                
  371.600  17%  10.054+MM14                                                
    0.000 999%   0.000 MM17                                                
 1.87E+03  11%  50.485 Lip13a+Lip13b                                       
 2.24E+03   8%  60.657 MM14+Lip13a+Lip13b+MM12                             
  522.239  12%  14.129 MM09+Lip09                                          
  283.945  30%   7.682 MM20+Lip20                                          
   6 lines in following misc. output table
  FWHM = 0.046 ppm    S/N =   2                                            
  Data shift = 0.008 ppm                                                   
  Ph: -71 deg      41.6 deg/ppm                                            
  alphaB,S = 3.7E+00,   1.4E+01                                            
   14 spline knots.   Ns = 5(1)                                            
  ( 8) 2 infls.   ( 6) 1 extrs.                                            
  498 points on ppm-axis = NY
      4.000000     3.992357     3.984714     3.977070     3.969427     3.961784     3.954141     3.946497     3.938854     3.931211
      3.923568     3.915925     3.908281     3.900638     3.892995     3.885352     3.877708     3.870065     3.862422     3.854779
      3.847136     3.839492     3.831849     3.824206     3.816563     3.808919     3.801276     3.793633     3.785990     3.778347
      3.770703     3.763060     3.755417     3.747774     3.740130     3.732487     3.724844     3.717201     3.709558     3.701914
      3.694271     3.686628     3.678985     3.671341     3.663698     3.656055     3.648412     3.640769     3.633125     3.625482
      3.617839     3.610196     3.602552     3.594909     3.587266     3.579623     3.571980     3.564336     3.556693     3.549050
      3.541407     3.533763     3.526120     3.518477     3.510834     3.503191     3.495547     3.487904     3.480261     3.472618
      3.464974     3.457331     3.449688     3.442045     3.434402     3.426758     3.419115     3.411472     3.403829     3.396185
      3.388542     3.380899     3.373256     3.365613     3.357969     3.350326     3.342683     3.335040     3.327396     3.319753
      3.312110     3.304467     3.296824     3.289180     3.281537     3.273894     3.266251     3.258607     3.250964     3.243321
      3.235678     3.228034     3.220391     3.212748     3.205105     3.197462     3.189818     3.182175     3.174532     3.166889
      3.159245     3.151602     3.143959     3.136316     3.128673     3.121029     3.113386     3.105743     3.098100     3.090456
      3.082813     3.075170     3.067527     3.059884     3.052240     3.044597     3.036954     3.029311     3.021667     3.014024
      3.006381     2.998738     2.991095     2.983451     2.975808     2.968165     2.960522     2.952878     2.945235     2.937592
      2.929949     2.922306     2.914662     2.907019     2.899376     2.891733     2.884089     2.876446     2.868803     2.861160
      2.853517     2.845873     2.838230     2.830587     2.822944     2.815300     2.807657     2.800014     2.792371     2.784728
      2.777084     2.769441     2.761798     2.754155     2.746511     2.738868     2.731225     2.723582     2.715939     2.708295
      2.700652     2.693009     2.685366     2.677722     2.670079     2.662436     2.654793     2.647150     2.639506     2.631863
      2.624220     2.616577     2.608933     2.601290     2.593647     2.586004     2.578361     2.570717     2.563074     2.555431
      2.547788     2.540144     2.532501     2.524858     2.517215     2.509572     2.501928     2.494285     2.486642     2.478999
      2.471355     2.463712     2.456069     2.448426     2.440783     2.433139     2.425496     2.417853     2.410210     2.402566
      2.394923     2.387280     2.379637     2.371994     2.364350     2.356707     2.349064     2.341421     2.333777     2.326134
      2.318491     2.310848     2.303205     2.295561     2.287918     2.280275     2.272632     2.264988     2.257345     2.249702
      2.242059     2.234416     2.226772     2.219129     2.211486     2.203843     2.196199     2.188556     2.180913     2.173270
      2.165627     2.157983     2.150340     2.142697     2.135054     2.127410     2.119767     2.112124     2.104481     2.096838
      2.089194     2.081551     2.073908     2.066265     2.058621     2.050978     2.043335     2.035692     2.028049     2.020405
      2.012762     2.005119     1.997476     1.989833     1.982190     1.974546     1.966903     1.959260     1.951617     1.943974
      1.936331     1.928688     1.921045     1.913402     1.905759     1.898115     1.890472     1.882829     1.875186     1.867543
      1.859900     1.852257     1.844614     1.836971     1.829327     1.821684     1.814041     1.806398     1.798755     1.791112
      1.783469     1.775826     1.768183     1.760540     1.752896     1.745253     1.737610     1.729967     1.722324     1.714681
      1.707038     1.699395     1.691752     1.684108     1.676465     1.668822     1.661179     1.653536     1.645893     1.638250
      1.630607     1.622964     1.615321     1.607677     1.600034     1.592391     1.584748     1.577105     1.569462     1.561819
      1.554176     1.546533     1.538890     1.531246     1.523603     1.515960     1.508317     1.500674     1.493031     1.485388
      1.477745     1.470102     1.462458     1.454815     1.447172     1.439529     1.431886     1.424243     1.416600     1.408957
      1.401314     1.393671     1.386027     1.378384     1.370741     1.363098     1.355455     1.347812     1.340169     1.332526
      1.324883     1.317240     1.309596     1.301953     1.294310     1.286667     1.279024     1.271381     1.263738     1.256095
      1.248452     1.240808     1.233165     1.225522     1.217879     1.210236     1.202593     1.194950     1.187307     1.179664
      1.172021     1.164377     1.156734     1.149091     1.141448     1.133805     1.126162     1.118519     1.110876     1.103233
      1.095590     1.087946     1.080303     1.072660     1.065017     1.057374     1.049731     1.042088     1.034445     1.026802
      1.019158     1.011515     1.003872     0.996229     0.988586     0.980943     0.973300     0.965657     0.958014     0.950371
      0.942727     0.935084     0.927441     0.919798     0.912155     0.904512     0.896869     0.889226     0.881583     0.873940
      0.866296     0.858653     0.851010     0.843367     0.835724     0.828081     0.820438     0.812795     0.805152     0.797508
      0.789865     0.782222     0.774579     0.766936     0.759293     0.751650     0.744007     0.736364     0.728721     0.721077
      0.713434     0.705791     0.698148     0.690505     0.682862     0.675219     0.667576     0.659933     0.652290     0.644646
      0.637003     0.629360     0.621717     0.614074     0.606431     0.598788     0.591145     0.583502     0.575858     0.568215
      0.560572     0.552929     0.545286     0.537643     0.530000     0.522357     0.514714     0.507071     0.499427     0.491784
      0.484141     0.476498     0.468855     0.461212     0.453569     0.445925     0.438282     0.430639     0.422996     0.415353
      0.407710     0.400067     0.392424     0.384780     0.377137     0.369494     0.361851     0.354208     0.346565     0.338922
      0.331278     0.323635     0.315992     0.308349     0.300706     0.293063     0.285420     0.277777     0.270133     0.262490
      0.254847     0.247204     0.239561     0.231918     0.224275     0.216631     0.208988     0.201345
 NY phased data points follow
  -1.67944E-02 -1.06640E+00 -1.84122E+00  4.06936E-01 -1.40223E+00  1.06684E+00 -8.54174E-01  2.92142E+00 -1.25686E+00  3.23526E-01
   3.48393E-01  2.68837E-01  6.93180E-01  9.89161E-02  1.25473E+00 -2.28653E-01 -5.24735E-01 -1.59658E+00 -7.37520E-02  5.15350E-02
  -2.85718E+00 -4.29878E-01 -2.23544E+00 -1.29859E+00 -4.28165E-01 -1.64919E-01 -1.05278E-02 -2.56215E-02  2.28721E-01  1.30632E-01
  -1.78948E+00 -1.65570E-02  1.51088E+00  3.45977E-01 -2.25099E+00  1.37263E+00  2.31624E-01  1.07308E+00 -2.88699E-01 -2.10780E+00
  -1.18083E+00 -5.00480E-01 -6.32789E-01 -1.00314E+00  2.23916E-02  6.44179E-01 -1.36708E+00  2.01407E+00 -2.29682E-01  1.67618E+00
   5.11089E-01 -1.00640E+00 -1.06499E+00 -5.37510E-03  9.59399E-01 -1.02729E+00 -3.71800E-01 -1.74108E+00  5.40735E-01  1.12991E+00
  -4.93104E-02 -9.46905E-01 -2.61536E+00  6.38797E-01 -1.03620E+00 -2.18308E+00 -4.76389E-01 -1.84934E+00 -6.47937E-02 -1.23208E+00
   5.97925E-01 -1.36828E+00 -5.21314E-01  1.22863E+00  8.78640E-01 -2.44527E+00  4.58942E-01  1.06768E-01  9.66081E-02  1.05610E+00
   9.52122E-01  3.48422E-02  1.76251E-01 -1.36171E+00  6.24955E-01 -1.65493E-02 -8.13667E-01  2.82474E-01  1.15678E+00 -5.70759E-01
   4.68447E-01 -8.09637E-01 -6.57142E-01 -7.67215E-01 -1.27319E+00  9.55687E-01 -7.54340E-01 -1.92734E+00  6.20312E-02  1.78640E-01
   1.14659E+00 -7.99148E-01 -1.78256E-01  2.34414E+00  6.45598E-01  4.28690E-01 -2.32606E+00 -8.76859E-01 -9.57114E-01 -2.07340E+00
  -2.30157E+00  1.33093E+00 -1.34125E+00 -9.89042E-01  2.34586E-01  1.23449E+00  2.77431E+00 -9.63067E-01 -1.19860E+00  2.74177E-01
   2.63877E-01 -5.68427E-01 -5.19948E-01 -3.37136E-01  5.50517E-01  1.08076E+00  1.50237E+00  2.70784E+00  7.23008E-01  2.02663E+00
  -7.97961E-01 -1.02098E+00 -2.08902E+00 -7.04960E-01 -1.97627E+00 -4.21547E-01 -1.27063E+00 -5.05234E-01 -8.89101E-01 -1.35019E+00
  -7.47904E-01 -9.20046E-01 -9.55967E-01  2.82372E-01  7.43052E-01 -7.42037E-01  1.07762E+00  1.12626E+00 -1.71644E-01  8.65539E-01
   4.99769E-01 -3.43520E-01 -1.26948E+00 -4.30925E-01 -4.05285E-01 -6.32698E-01  1.49408E+00 -4.10724E-01  1.45440E+00 -4.06237E-01
  -7.06372E-02 -4.08410E-01 -3.00598E-01  5.45180E-01 -1.27533E+00 -2.48541E-01  1.10654E-01  9.50483E-02 -5.54163E-01  6.84674E-01
  -5.12218E-01 -1.00443E+00 -3.97704E-01 -1.07050E+00 -1.77977E+00  2.91720E-01 -5.85826E-01 -1.43571E+00 -2.63508E+00 -1.42290E+00
  -2.60220E+00 -1.15799E+00 -2.35817E+00 -2.49239E-01 -1.65494E+00  1.53875E+00 -1.70536E-01 -5.08276E-01 -1.82525E+00 -2.78911E+00
  -7.17256E-01  1.59721E+00 -1.34577E+00 -2.50986E+00 -1.45367E+00  5.73826E-01 -1.71859E+00 -2.71847E+00 -3.84388E+00 -7.76319E-01
  -2.00897E+00 -2.68937E+00 -1.24858E+00  3.01568E-01 -1.66271E+00 -8.49163E-01 -2.57817E-01 -3.63781E+00 -2.69285E+00 -2.61329E+00
   2.11013E-01  1.08207E+00 -4.00194E-02  8.52162E-01 -3.53595E-01 -2.50078E+00 -2.58608E+00 -1.41638E+00 -4.38617E-01 -3.39297E+00
  -4.13282E+00 -3.41604E+00 -2.51484E+00  3.26913E-01 -2.04084E+00 -2.42693E+00 -8.69577E-01 -4.26387E+00 -6.79134E-01 -1.32961E+00
  -8.33724E-01 -2.66942E+00 -2.18193E+00 -2.14514E+00 -4.12693E+00 -2.34533E+00 -2.98065E+00 -1.91588E+00 -1.30773E+00 -5.11344E-01
  -1.65266E+00 -7.23828E-01 -1.38602E+00 -2.55107E+00 -3.28346E+00 -3.31643E+00 -2.52464E+00 -1.05291E-01 -1.63623E+00 -1.93729E-01
  -7.25598E-01 -2.20348E+00 -4.88009E-01 -7.74166E-01 -7.43169E-01 -2.08878E+00  1.27920E+00  2.17910E+00  1.10302E+00  2.77132E+00
   2.75754E+00  1.22411E+00 -6.49874E-01 -1.96519E+00 -2.12677E+00 -5.23102E-01 -5.08391E+00 -1.48926E+00 -3.34902E+00  8.88239E-01
  -2.51934E+00 -2.80936E+00 -3.09095E-01 -1.98503E-01 -5.99322E-01 -2.60759E+00 -8.64378E-01 -2.00751E+00 -5.44127E+00 -1.34869E-01
  -1.32200E+00 -5.50197E+00 -1.08324E+00 -1.54549E+00 -1.29217E+00 -4.80727E+00 -3.68786E+00 -5.42527E+00 -5.18355E+00 -1.46419E+00
  -1.93483E+00 -3.99804E+00 -2.55612E+00 -4.52682E+00 -2.56924E+00 -3.14192E+00 -6.60488E+00 -3.70919E+00 -3.96319E+00 -5.80982E+00
  -4.17990E+00 -4.47573E+00 -5.57812E+00 -5.11659E+00 -3.72921E+00 -4.92014E+00 -5.69243E+00 -4.97437E+00 -4.28398E+00 -3.40560E+00
  -5.01333E+00 -2.52767E+00 -1.76999E+00 -2.39054E+00 -1.84144E+00 -8.21185E-01 -6.52793E-01 -2.53575E+00 -1.11066E+00 -2.94463E-01
   7.64015E-01  2.15771E-01  3.34697E-01  7.17987E-01  1.17743E+00  1.34184E+00  1.41198E+00  1.04593E+00  6.98940E-01 -5.89538E-01
   1.47419E+00  3.29254E+00  3.40068E+00  2.05041E+00  1.62868E+00  3.92240E+00  5.13931E+00  5.66109E+00  6.75614E+00  4.89765E+00
   6.73114E+00  5.01304E+00  4.41971E+00  7.46588E+00  5.34624E+00  6.76589E+00  6.20301E+00  3.41875E+00  4.38879E+00  4.77135E+00
   4.85958E+00  4.20906E+00  2.49952E+00  5.19788E+00  1.83913E+00  2.54077E+00  1.33257E+00  2.38428E+00  2.77781E+00  2.70196E+00
   2.49379E+00  2.75205E+00  3.94947E+00  1.11357E+00  6.70879E-01  1.71134E+00  3.73834E+00  6.65053E-01  2.38582E+00  3.40599E+00
   1.77337E+00  1.66777E+00  8.24455E-01 -1.68763E-01  2.81529E+00 -7.18519E-01  1.29026E+00  2.11418E+00  3.25898E-01  1.47456E+00
  -6.37377E-01  1.86662E+00  3.28543E-01  4.48866E-03  1.79695E+00  1.85287E+00 -1.55675E+00  1.88117E+00  2.57653E-01 -5.64811E-01
   1.69068E+00 -2.02027E+00 -2.10439E+00 -1.31135E-01 -1.92862E+00 -4.71955E-01  7.40795E-01 -1.83004E+00 -1.48263E+00 -2.16225E+00
  -1.43952E-01 -5.42463E-01  3.23975E-01 -5.78908E-01  7.18626E-01  9.58060E-01  1.11398E-01  5.27639E-01 -1.05712E-01 -5.69907E-01
   3.18715E-01 -2.69319E-02  2.00724E+00 -4.01717E-01  6.72094E-01  1.50938E+00  3.00909E-01  6.10509E-01  1.96380E+00 -1.68059E-01
  -5.10480E-02  2.25322E+00 -6.13028E-02  2.86664E-01  1.09026E+00 -1.33750E+00  1.26912E+00  4.25735E-01 -5.39049E-01 -1.49220E-01
   1.09946E+00  6.13147E-01 -4.75150E-01 -5.97236E-01 -6.70051E-01  2.09677E-02  1.15233E+00 -2.69615E-01  4.02861E-01  2.76655E+00
   4.75965E-01  3.22497E+00  1.78116E+00  8.13040E-01  4.46022E-01 -7.57596E-01  6.15045E-01  1.27635E+00 -5.12888E-01  6.46017E-01
  -1.37039E+00  4.59291E-02  3.79005E-01  4.00016E-01  1.20055E-01 -2.42924E-01  4.54673E-01  7.18340E-01 -2.39754E+00  2.69441E-01
   8.98617E-01 -1.95955E-01  1.20505E-01  3.94524E-01  3.92535E-01 -4.98709E-01 -2.40070E-01  2.53764E+00  2.23022E+00  1.26378E+00
   5.16993E-01  1.36636E+00  5.06899E-01  1.19066E+00  1.79114E+00  1.02271E+00  1.22491E+00 -3.93541E-01  5.26163E-01  5.03396E-01
  -1.63870E-01  2.65121E+00 -8.82056E-02  6.36607E-01  2.36794E+00 -8.73342E-01 -2.05766E-01  3.68303E+00  3.31109E+00  1.05963E+00
   1.66307E+00 -4.43997E-02  1.71311E+00  4.58710E-01 -2.47242E-01 -8.48621E-03 -2.66052E-01  5.82208E-01
 NY points of the fit to the data follow
   7.04968E-01  7.19464E-01  7.29646E-01  7.33463E-01  7.53536E-01  8.39125E-01  1.02091E+00  1.18067E+00  1.17709E+00  1.06440E+00
   8.94950E-01  6.53753E-01  3.64338E-01  1.36634E-01  4.14922E-02  4.64503E-02  1.07880E-01  2.17641E-01  3.40735E-01  4.26954E-01
   4.40505E-01  3.43509E-01  1.75521E-01  2.76981E-03 -1.31419E-01 -2.01853E-01 -1.72271E-01 -4.73444E-03  2.63587E-01  4.96703E-01
   6.11682E-01  6.18737E-01  5.27101E-01  3.56677E-01  1.78459E-01  4.76958E-02 -1.39528E-02 -1.38045E-02  2.59676E-02  8.20643E-02
   1.24088E-01  1.42232E-01  1.44195E-01  1.34542E-01  1.18844E-01  1.06466E-01  9.43063E-02  8.41192E-02  7.66660E-02  6.95365E-02
   6.23556E-02  5.50140E-02  4.67699E-02  3.76973E-02  2.87992E-02  2.09160E-02  1.37599E-02  6.97358E-03  1.22562E-03 -3.66919E-03
  -8.33432E-03 -1.27646E-02 -1.84643E-02 -2.63537E-02 -3.47518E-02 -4.50390E-02 -5.59635E-02 -6.47213E-02 -7.10486E-02 -7.42342E-02
  -7.13715E-02 -6.77814E-02 -7.14129E-02 -8.21266E-02 -9.71238E-02 -1.15241E-01 -1.33581E-01 -1.45853E-01 -1.50485E-01 -1.49033E-01
  -1.39544E-01 -1.19171E-01 -1.07453E-01 -1.14501E-01 -1.32131E-01 -1.55729E-01 -1.85992E-01 -2.18450E-01 -2.46786E-01 -2.67956E-01
  -2.81387E-01 -2.87343E-01 -2.84016E-01 -2.72172E-01 -2.54488E-01 -2.36496E-01 -2.15399E-01 -1.80186E-01 -1.10514E-01 -4.08114E-02
  -2.54920E-02 -5.42573E-02 -1.07213E-01 -1.88334E-01 -2.92785E-01 -3.89807E-01 -4.55261E-01 -4.90164E-01 -5.06166E-01 -5.03098E-01
  -4.89717E-01 -4.79436E-01 -4.70446E-01 -4.61111E-01 -4.50832E-01 -4.39520E-01 -4.24314E-01 -4.03292E-01 -3.75250E-01 -3.33749E-01
  -2.65743E-01 -1.36690E-01  1.48855E-01  5.09259E-01  6.86873E-01  6.74666E-01  5.49091E-01  2.95616E-01 -8.19515E-02 -4.68697E-01
  -7.48703E-01 -9.07470E-01 -9.87758E-01 -9.91336E-01 -9.40136E-01 -8.99809E-01 -8.69499E-01 -8.46627E-01 -8.28139E-01 -8.11430E-01
  -7.96327E-01 -7.82180E-01 -7.69941E-01 -7.61142E-01 -7.55314E-01 -7.52305E-01 -7.52486E-01 -7.54959E-01 -7.58857E-01 -7.64025E-01
  -7.70350E-01 -7.77470E-01 -7.85523E-01 -7.95659E-01 -8.09820E-01 -8.35136E-01 -8.78775E-01 -9.23596E-01 -9.56062E-01 -9.74549E-01
  -9.77823E-01 -9.81998E-01 -9.93872E-01 -1.01443E+00 -1.04844E+00 -1.09672E+00 -1.15025E+00 -1.20076E+00 -1.24363E+00 -1.28224E+00
  -1.32174E+00 -1.36687E+00 -1.40818E+00 -1.42672E+00 -1.43250E+00 -1.43974E+00 -1.45478E+00 -1.46677E+00 -1.47385E+00 -1.48334E+00
  -1.49492E+00 -1.50679E+00 -1.52418E+00 -1.52922E+00 -1.51380E+00 -1.49407E+00 -1.47452E+00 -1.45425E+00 -1.43764E+00 -1.43283E+00
  -1.43860E+00 -1.44549E+00 -1.44768E+00 -1.46020E+00 -1.48067E+00 -1.50020E+00 -1.51832E+00 -1.53485E+00 -1.53771E+00 -1.51554E+00
  -1.48232E+00 -1.45714E+00 -1.45970E+00 -1.48356E+00 -1.54442E+00 -1.64879E+00 -1.75598E+00 -1.83232E+00 -1.87385E+00 -1.85016E+00
  -1.72499E+00 -1.51193E+00 -1.33296E+00 -1.24248E+00 -1.22721E+00 -1.30394E+00 -1.50281E+00 -1.79440E+00 -2.06064E+00 -2.19352E+00
  -2.19288E+00 -2.09871E+00 -1.91102E+00 -1.68053E+00 -1.47398E+00 -1.34124E+00 -1.28998E+00 -1.29517E+00 -1.33600E+00 -1.39081E+00
  -1.43466E+00 -1.46195E+00 -1.47477E+00 -1.47560E+00 -1.47470E+00 -1.48592E+00 -1.50528E+00 -1.53555E+00 -1.58014E+00 -1.61105E+00
  -1.61296E+00 -1.59960E+00 -1.57825E+00 -1.53953E+00 -1.49994E+00 -1.48836E+00 -1.50670E+00 -1.52600E+00 -1.52889E+00 -1.51874E+00
  -1.47863E+00 -1.38386E+00 -1.27044E+00 -1.18207E+00 -1.03837E+00 -4.91400E-01  4.49889E-01  1.19822E+00  1.61362E+00  1.81378E+00
   1.69590E+00  1.14960E+00  3.66603E-01 -3.67961E-01 -9.46590E-01 -1.39844E+00 -1.67802E+00 -1.79031E+00 -1.87366E+00 -1.93911E+00
  -1.98666E+00 -2.02470E+00 -2.05642E+00 -2.08504E+00 -2.11722E+00 -2.15682E+00 -2.20275E+00 -2.25066E+00 -2.29773E+00 -2.34158E+00
  -2.38015E+00 -2.41267E+00 -2.44009E+00 -2.46479E+00 -2.48800E+00 -2.50984E+00 -2.53139E+00 -2.55296E+00 -2.57365E+00 -2.59337E+00
  -2.61238E+00 -2.63074E+00 -2.64826E+00 -2.66521E+00 -2.68205E+00 -2.69854E+00 -2.71429E+00 -2.72930E+00 -2.74330E+00 -2.75592E+00
  -2.76709E+00 -2.77665E+00 -2.78435E+00 -2.78981E+00 -2.79245E+00 -2.79154E+00 -2.78608E+00 -2.77490E+00 -2.75669E+00 -2.72991E+00
  -2.69286E+00 -2.64367E+00 -2.58030E+00 -2.50058E+00 -2.40215E+00 -2.28248E+00 -2.13874E+00 -1.96759E+00 -1.76446E+00 -1.52154E+00
  -1.22096E+00 -8.05674E-01 -1.95541E-01  3.62878E-01  6.63720E-01  7.82166E-01  7.72612E-01  5.93621E-01  2.71082E-01 -7.60085E-02
  -1.42776E-01  2.18002E-01  8.11004E-01  1.52926E+00  2.30618E+00  3.03082E+00  3.57333E+00  3.89045E+00  4.05814E+00  4.15508E+00
   4.19895E+00  4.26490E+00  4.44796E+00  4.69350E+00  4.83878E+00  4.85932E+00  4.79627E+00  4.63937E+00  4.37004E+00  4.02650E+00
   3.76197E+00  3.69134E+00  3.73579E+00  3.83350E+00  3.97664E+00  4.10220E+00  4.14524E+00  4.07883E+00  3.93286E+00  3.74527E+00
   3.52479E+00  3.29522E+00  3.08405E+00  2.88050E+00  2.68106E+00  2.48552E+00  2.29431E+00  2.10807E+00  1.92749E+00  1.75323E+00
   1.58582E+00  1.42571E+00  1.27322E+00  1.12856E+00  9.91864E-01  8.63156E-01  7.42418E-01  6.29581E-01  5.24551E-01  4.27215E-01
   3.37459E-01  2.55177E-01  1.80288E-01  1.12734E-01  5.24926E-02 -4.36102E-04 -4.60110E-02 -8.41664E-02 -1.14801E-01 -1.37804E-01
  -1.53049E-01 -1.60424E-01 -1.59825E-01 -1.51186E-01 -1.34483E-01 -1.09765E-01 -7.71588E-02 -3.68947E-02  1.06976E-02  6.51689E-02
   1.25953E-01  1.92354E-01  2.63565E-01  3.38666E-01  4.16658E-01  4.96462E-01  5.76953E-01  6.56975E-01  7.35381E-01  8.11051E-01
   8.82930E-01  9.50039E-01  1.01151E+00  1.06659E+00  1.11466E+00  1.15528E+00  1.18813E+00  1.21305E+00  1.23006E+00  1.23928E+00
   1.24097E+00  1.23552E+00  1.22340E+00  1.20517E+00  1.18142E+00  1.15281E+00  1.12001E+00  1.08367E+00  1.04446E+00  1.00299E+00
   9.59862E-01  9.15609E-01  8.70733E-01  8.25673E-01  7.80816E-01  7.36485E-01  6.92962E-01  6.50472E-01  6.09204E-01  5.69297E-01
   5.30858E-01  4.93955E-01  4.58637E-01  4.24927E-01  3.92833E-01  3.62340E-01  3.33425E-01  3.06051E-01  2.80182E-01  2.55772E-01
   2.32776E-01  2.11138E-01  1.90807E-01  1.71728E-01  1.53854E-01  1.37134E-01  1.21520E-01  1.06960E-01  9.34091E-02  8.08206E-02
   6.91579E-02  5.83792E-02  4.84472E-02  3.93211E-02  3.09684E-02  2.33556E-02  1.64562E-02  1.02384E-02  4.67474E-03 -2.65923E-04
  -4.60474E-03 -8.36525E-03 -1.15659E-02 -1.42327E-02 -1.63844E-02 -1.80439E-02 -1.92253E-02 -1.99467E-02 -2.02217E-02 -2.00709E-02
  -1.95092E-02 -1.85525E-02 -1.72104E-02 -1.54972E-02 -1.34244E-02 -1.10098E-02 -8.26345E-03 -5.19872E-03 -1.82213E-03  1.85238E-03
   5.81422E-03  1.00477E-02  1.45437E-02  1.92909E-02  2.42812E-02  2.94999E-02  3.49347E-02  4.05678E-02
 NY background values follow
    -3.374E-01   -3.456E-01   -3.539E-01   -3.622E-01   -3.706E-01   -3.790E-01   -3.875E-01   -3.960E-01   -4.045E-01   -4.131E-01
    -4.217E-01   -4.303E-01   -4.390E-01   -4.477E-01   -4.564E-01   -4.652E-01   -4.740E-01   -4.829E-01   -4.918E-01   -5.007E-01
    -5.097E-01   -5.187E-01   -5.277E-01   -5.368E-01   -5.459E-01   -5.550E-01   -5.642E-01   -5.733E-01   -5.826E-01   -5.918E-01
    -6.011E-01   -6.104E-01   -6.198E-01   -6.292E-01   -6.386E-01   -6.480E-01   -6.575E-01   -6.670E-01   -6.765E-01   -6.860E-01
    -6.956E-01   -7.052E-01   -7.149E-01   -7.245E-01   -7.342E-01   -7.439E-01   -7.537E-01   -7.634E-01   -7.732E-01   -7.830E-01
    -7.929E-01   -8.027E-01   -8.126E-01   -8.225E-01   -8.324E-01   -8.424E-01   -8.523E-01   -8.623E-01   -8.723E-01   -8.824E-01
    -8.924E-01   -9.025E-01   -9.126E-01   -9.227E-01   -9.328E-01   -9.430E-01   -9.531E-01   -9.633E-01   -9.735E-01   -9.837E-01
    -9.939E-01   -1.004E+00   -1.014E+00   -1.025E+00   -1.035E+00   -1.045E+00   -1.056E+00   -1.066E+00   -1.076E+00   -1.087E+00
    -1.097E+00   -1.107E+00   -1.118E+00   -1.128E+00   -1.139E+00   -1.149E+00   -1.159E+00   -1.170E+00   -1.180E+00   -1.191E+00
    -1.201E+00   -1.212E+00   -1.222E+00   -1.233E+00   -1.243E+00   -1.253E+00   -1.264E+00   -1.274E+00   -1.285E+00   -1.295E+00
    -1.306E+00   -1.316E+00   -1.327E+00   -1.337E+00   -1.348E+00   -1.359E+00   -1.369E+00   -1.380E+00   -1.390E+00   -1.401E+00
    -1.411E+00   -1.422E+00   -1.432E+00   -1.443E+00   -1.453E+00   -1.464E+00   -1.474E+00   -1.485E+00   -1.495E+00   -1.505E+00
    -1.516E+00   -1.526E+00   -1.537E+00   -1.547E+00   -1.558E+00   -1.568E+00   -1.579E+00   -1.589E+00   -1.599E+00   -1.610E+00
    -1.620E+00   -1.631E+00   -1.641E+00   -1.651E+00   -1.662E+00   -1.672E+00   -1.682E+00   -1.692E+00   -1.703E+00   -1.713E+00
    -1.723E+00   -1.733E+00   -1.744E+00   -1.754E+00   -1.764E+00   -1.774E+00   -1.784E+00   -1.794E+00   -1.805E+00   -1.815E+00
    -1.825E+00   -1.835E+00   -1.845E+00   -1.855E+00   -1.865E+00   -1.875E+00   -1.885E+00   -1.894E+00   -1.904E+00   -1.914E+00
    -1.924E+00   -1.934E+00   -1.944E+00   -1.953E+00   -1.963E+00   -1.973E+00   -1.982E+00   -1.992E+00   -2.002E+00   -2.011E+00
    -2.021E+00   -2.030E+00   -2.040E+00   -2.049E+00   -2.059E+00   -2.068E+00   -2.077E+00   -2.087E+00   -2.096E+00   -2.105E+00
    -2.114E+00   -2.124E+00   -2.133E+00   -2.142E+00   -2.151E+00   -2.160E+00   -2.169E+00   -2.178E+00   -2.187E+00   -2.196E+00
    -2.205E+00   -2.213E+00   -2.222E+00   -2.231E+00   -2.239E+00   -2.248E+00   -2.257E+00   -2.265E+00   -2.274E+00   -2.282E+00
    -2.290E+00   -2.299E+00   -2.307E+00   -2.315E+00   -2.324E+00   -2.332E+00   -2.340E+00   -2.348E+00   -2.356E+00   -2.364E+00
    -2.372E+00   -2.380E+00   -2.387E+00   -2.395E+00   -2.403E+00   -2.411E+00   -2.418E+00   -2.426E+00   -2.433E+00   -2.441E+00
    -2.448E+00   -2.455E+00   -2.463E+00   -2.470E+00   -2.477E+00   -2.484E+00   -2.491E+00   -2.498E+00   -2.505E+00   -2.512E+00
    -2.518E+00   -2.525E+00   -2.532E+00   -2.538E+00   -2.545E+00   -2.551E+00   -2.558E+00   -2.564E+00   -2.570E+00   -2.577E+00
    -2.583E+00   -2.589E+00   -2.595E+00   -2.601E+00   -2.607E+00   -2.613E+00   -2.618E+00   -2.624E+00   -2.630E+00   -2.635E+00
    -2.641E+00   -2.646E+00   -2.651E+00   -2.657E+00   -2.662E+00   -2.667E+00   -2.672E+00   -2.677E+00   -2.682E+00   -2.687E+00
    -2.691E+00   -2.696E+00   -2.701E+00   -2.705E+00   -2.709E+00   -2.714E+00   -2.718E+00   -2.722E+00   -2.726E+00   -2.730E+00
    -2.734E+00   -2.738E+00   -2.742E+00   -2.746E+00   -2.749E+00   -2.753E+00   -2.757E+00   -2.760E+00   -2.763E+00   -2.767E+00
    -2.770E+00   -2.773E+00   -2.776E+00   -2.779E+00   -2.781E+00   -2.784E+00   -2.787E+00   -2.789E+00   -2.792E+00   -2.794E+00
    -2.797E+00   -2.799E+00   -2.801E+00   -2.803E+00   -2.805E+00   -2.807E+00   -2.809E+00   -2.810E+00   -2.812E+00   -2.813E+00
    -2.815E+00   -2.816E+00   -2.818E+00   -2.819E+00   -2.820E+00   -2.821E+00   -2.822E+00   -2.822E+00   -2.823E+00   -2.824E+00
    -2.824E+00   -2.825E+00   -2.825E+00   -2.825E+00   -2.825E+00   -2.826E+00   -2.825E+00   -2.825E+00   -2.825E+00   -2.825E+00
    -2.824E+00   -2.824E+00   -2.823E+00   -2.823E+00   -2.822E+00   -2.821E+00   -2.820E+00   -2.819E+00   -2.818E+00   -2.816E+00
    -2.815E+00   -2.814E+00   -2.812E+00   -2.810E+00   -2.809E+00   -2.807E+00   -2.805E+00   -2.803E+00   -2.800E+00   -2.798E+00
    -2.796E+00   -2.793E+00   -2.791E+00   -2.788E+00   -2.785E+00   -2.783E+00   -2.780E+00   -2.777E+00   -2.773E+00   -2.770E+00
    -2.767E+00   -2.763E+00   -2.760E+00   -2.756E+00   -2.752E+00   -2.749E+00   -2.745E+00   -2.741E+00   -2.736E+00   -2.732E+00
    -2.728E+00   -2.723E+00   -2.719E+00   -2.714E+00   -2.709E+00   -2.704E+00   -2.699E+00   -2.694E+00   -2.689E+00   -2.684E+00
    -2.678E+00   -2.673E+00   -2.667E+00   -2.662E+00   -2.656E+00   -2.650E+00   -2.644E+00   -2.638E+00   -2.632E+00   -2.625E+00
    -2.619E+00   -2.612E+00   -2.606E+00   -2.599E+00   -2.592E+00   -2.585E+00   -2.578E+00   -2.571E+00   -2.564E+00   -2.556E+00
    -2.549E+00   -2.541E+00   -2.534E+00   -2.526E+00   -2.518E+00   -2.510E+00   -2.502E+00   -2.494E+00   -2.485E+00   -2.477E+00
    -2.469E+00   -2.460E+00   -2.451E+00   -2.442E+00   -2.434E+00   -2.425E+00   -2.415E+00   -2.406E+00   -2.397E+00   -2.387E+00
    -2.378E+00   -2.368E+00   -2.359E+00   -2.349E+00   -2.339E+00   -2.329E+00   -2.319E+00   -2.308E+00   -2.298E+00   -2.287E+00
    -2.277E+00   -2.266E+00   -2.256E+00   -2.245E+00   -2.234E+00   -2.223E+00   -2.211E+00   -2.200E+00   -2.189E+00   -2.177E+00
    -2.166E+00   -2.154E+00   -2.142E+00   -2.130E+00   -2.119E+00   -2.106E+00   -2.094E+00   -2.082E+00   -2.070E+00   -2.057E+00
    -2.045E+00   -2.032E+00   -2.019E+00   -2.006E+00   -1.993E+00   -1.980E+00   -1.967E+00   -1.954E+00   -1.941E+00   -1.927E+00
    -1.914E+00   -1.900E+00   -1.886E+00   -1.872E+00   -1.858E+00   -1.844E+00   -1.830E+00   -1.816E+00   -1.802E+00   -1.787E+00
    -1.773E+00   -1.758E+00   -1.744E+00   -1.729E+00   -1.714E+00   -1.699E+00   -1.684E+00   -1.669E+00   -1.654E+00   -1.638E+00
    -1.623E+00   -1.607E+00   -1.592E+00   -1.576E+00   -1.560E+00   -1.544E+00   -1.529E+00   -1.512E+00   -1.496E+00   -1.480E+00
    -1.464E+00   -1.447E+00   -1.431E+00   -1.414E+00   -1.398E+00   -1.381E+00   -1.364E+00   -1.347E+00   -1.330E+00   -1.313E+00
    -1.296E+00   -1.279E+00   -1.261E+00   -1.244E+00   -1.226E+00   -1.209E+00   -1.191E+00   -1.173E+00
 Ala      Conc. = 8.70E+01
