 LCModel (Version 6.3-1L) Copyright: S.W. Provencher.          Ref.: Magn. Reson. Med. 30:672-679 (1993).                
 Slice#2 Row#3 Col#2  PD_24_press_2_raw_act
 36 lines in following concentration table = NCONC+1
    Conc.  %SD /Cr+PCr  Metabolite                                         
    0.000 999%   0.000 Ala                                                 
   62.603 384%   0.000 Asp                                                 
    0.000 999%   0.000 Cr                                                  
    0.000 999%   0.000 PCr                                                 
  181.155  81%   0.000 GABA                                                
  217.923  67%   0.000 Glc                                                 
 2.30E+03  76%   0.000 Gln                                                 
    0.000 999%   0.000 Glu                                                 
    0.000 999%   0.000 GPC                                                 
    0.000 999%   0.000 PCh                                                 
   46.713 586%   0.000 GSH                                                 
  451.504 141%   0.000 Ins                                                 
    0.000 999%   0.000 Lac                                                 
 5.82E+03   6%   0.000 NAA                                                 
    0.000 999%   0.000 NAAG                                                
   79.979  55%   0.000 Scyllo                                              
  198.884 118%   0.000 Tau                                                 
    0.000 999%   0.000 -CrCH2                                              
    0.000 999%   0.000 GPC+PCh                                             
 5.82E+03   6%   0.000 NAA+NAAG                                            
    0.000 999%   0.000 Cr+PCr                                              
 2.30E+03  76%   0.000 Glu+Gln                                             
 4.35E+03  24%   0.000 Lip13a                                              
    0.000 999%   0.000 Lip13b                                              
  880.149  45%   0.000 Lip09                                               
 1.32E+03  30%   0.000 MM09                                                
 1.05E+03  25%   0.000 Lip20                                               
 2.62E+03  30%   0.000 MM20                                                
  432.695  53%   0.000 MM12                                                
 1.81E+03  26%   0.000 MM14                                                
    0.000 999%   0.000 MM17                                                
 4.35E+03  24%   0.000 Lip13a+Lip13b                                       
 6.59E+03  16%   0.000 MM14+Lip13a+Lip13b+MM12                             
 2.20E+03  19%   0.000 MM09+Lip09                                          
 3.67E+03  22%   0.000 MM20+Lip20                                          
   6 lines in following misc. output table
  FWHM = 0.153 ppm    S/N =   6                                            
  Data shift = 0.306 ppm                                                   
  Ph: -78 deg     -10.3 deg/ppm                                            
  alphaB,S = 4.4E-01,   1.6E+02                                            
   13 spline knots.   Ns = 9(2)                                            
  (10) 5 infls.   ( 9) 1 extrs.                                            
  498 points on ppm-axis = NY
      4.000000     3.992357     3.984714     3.977070     3.969427     3.961784     3.954141     3.946497     3.938854     3.931211
      3.923568     3.915925     3.908281     3.900638     3.892995     3.885352     3.877708     3.870065     3.862422     3.854779
      3.847136     3.839492     3.831849     3.824206     3.816563     3.808919     3.801276     3.793633     3.785990     3.778347
      3.770703     3.763060     3.755417     3.747774     3.740130     3.732487     3.724844     3.717201     3.709558     3.701914
      3.694271     3.686628     3.678985     3.671341     3.663698     3.656055     3.648412     3.640769     3.633125     3.625482
      3.617839     3.610196     3.602552     3.594909     3.587266     3.579623     3.571980     3.564336     3.556693     3.549050
      3.541407     3.533763     3.526120     3.518477     3.510834     3.503191     3.495547     3.487904     3.480261     3.472618
      3.464974     3.457331     3.449688     3.442045     3.434402     3.426758     3.419115     3.411472     3.403829     3.396185
      3.388542     3.380899     3.373256     3.365613     3.357969     3.350326     3.342683     3.335040     3.327396     3.319753
      3.312110     3.304467     3.296824     3.289180     3.281537     3.273894     3.266251     3.258607     3.250964     3.243321
      3.235678     3.228034     3.220391     3.212748     3.205105     3.197462     3.189818     3.182175     3.174532     3.166889
      3.159245     3.151602     3.143959     3.136316     3.128673     3.121029     3.113386     3.105743     3.098100     3.090456
      3.082813     3.075170     3.067527     3.059884     3.052240     3.044597     3.036954     3.029311     3.021667     3.014024
      3.006381     2.998738     2.991095     2.983451     2.975808     2.968165     2.960522     2.952878     2.945235     2.937592
      2.929949     2.922306     2.914662     2.907019     2.899376     2.891733     2.884089     2.876446     2.868803     2.861160
      2.853517     2.845873     2.838230     2.830587     2.822944     2.815300     2.807657     2.800014     2.792371     2.784728
      2.777084     2.769441     2.761798     2.754155     2.746511     2.738868     2.731225     2.723582     2.715939     2.708295
      2.700652     2.693009     2.685366     2.677722     2.670079     2.662436     2.654793     2.647150     2.639506     2.631863
      2.624220     2.616577     2.608933     2.601290     2.593647     2.586004     2.578361     2.570717     2.563074     2.555431
      2.547788     2.540144     2.532501     2.524858     2.517215     2.509572     2.501928     2.494285     2.486642     2.478999
      2.471355     2.463712     2.456069     2.448426     2.440783     2.433139     2.425496     2.417853     2.410210     2.402566
      2.394923     2.387280     2.379637     2.371994     2.364350     2.356707     2.349064     2.341421     2.333777     2.326134
      2.318491     2.310848     2.303205     2.295561     2.287918     2.280275     2.272632     2.264988     2.257345     2.249702
      2.242059     2.234416     2.226772     2.219129     2.211486     2.203843     2.196199     2.188556     2.180913     2.173270
      2.165627     2.157983     2.150340     2.142697     2.135054     2.127410     2.119767     2.112124     2.104481     2.096838
      2.089194     2.081551     2.073908     2.066265     2.058621     2.050978     2.043335     2.035692     2.028049     2.020405
      2.012762     2.005119     1.997476     1.989833     1.982190     1.974546     1.966903     1.959260     1.951617     1.943974
      1.936331     1.928688     1.921045     1.913402     1.905759     1.898115     1.890472     1.882829     1.875186     1.867543
      1.859900     1.852257     1.844614     1.836971     1.829327     1.821684     1.814041     1.806398     1.798755     1.791112
      1.783469     1.775826     1.768183     1.760540     1.752896     1.745253     1.737610     1.729967     1.722324     1.714681
      1.707038     1.699395     1.691752     1.684108     1.676465     1.668822     1.661179     1.653536     1.645893     1.638250
      1.630607     1.622964     1.615321     1.607677     1.600034     1.592391     1.584748     1.577105     1.569462     1.561819
      1.554176     1.546533     1.538890     1.531246     1.523603     1.515960     1.508317     1.500674     1.493031     1.485388
      1.477745     1.470102     1.462458     1.454815     1.447172     1.439529     1.431886     1.424243     1.416600     1.408957
      1.401314     1.393671     1.386027     1.378384     1.370741     1.363098     1.355455     1.347812     1.340169     1.332526
      1.324883     1.317240     1.309596     1.301953     1.294310     1.286667     1.279024     1.271381     1.263738     1.256095
      1.248452     1.240808     1.233165     1.225522     1.217879     1.210236     1.202593     1.194950     1.187307     1.179664
      1.172021     1.164377     1.156734     1.149091     1.141448     1.133805     1.126162     1.118519     1.110876     1.103233
      1.095590     1.087946     1.080303     1.072660     1.065017     1.057374     1.049731     1.042088     1.034445     1.026802
      1.019158     1.011515     1.003872     0.996229     0.988586     0.980943     0.973300     0.965657     0.958014     0.950371
      0.942727     0.935084     0.927441     0.919798     0.912155     0.904512     0.896869     0.889226     0.881583     0.873940
      0.866296     0.858653     0.851010     0.843367     0.835724     0.828081     0.820438     0.812795     0.805152     0.797508
      0.789865     0.782222     0.774579     0.766936     0.759293     0.751650     0.744007     0.736364     0.728721     0.721077
      0.713434     0.705791     0.698148     0.690505     0.682862     0.675219     0.667576     0.659933     0.652290     0.644646
      0.637003     0.629360     0.621717     0.614074     0.606431     0.598788     0.591145     0.583502     0.575858     0.568215
      0.560572     0.552929     0.545286     0.537643     0.530000     0.522357     0.514714     0.507071     0.499427     0.491784
      0.484141     0.476498     0.468855     0.461212     0.453569     0.445925     0.438282     0.430639     0.422996     0.415353
      0.407710     0.400067     0.392424     0.384780     0.377137     0.369494     0.361851     0.354208     0.346565     0.338922
      0.331278     0.323635     0.315992     0.308349     0.300706     0.293063     0.285420     0.277777     0.270133     0.262490
      0.254847     0.247204     0.239561     0.231918     0.224275     0.216631     0.208988     0.201345
 NY phased data points follow
  -7.47566E+01 -7.72419E+01 -7.39118E+01 -8.50091E+01 -7.83230E+01 -7.72494E+01 -7.53167E+01 -7.71736E+01 -8.10164E+01 -7.27757E+01
  -7.60400E+01 -6.69309E+01 -6.54296E+01 -7.34575E+01 -6.11703E+01 -6.86910E+01 -6.63116E+01 -6.06929E+01 -7.26707E+01 -7.16850E+01
  -6.77550E+01 -5.98353E+01 -6.93774E+01 -6.51894E+01 -5.17957E+01 -6.98875E+01 -6.52388E+01 -5.51211E+01 -6.38054E+01 -6.38238E+01
  -5.16208E+01 -5.83401E+01 -5.91061E+01 -5.79501E+01 -6.02819E+01 -5.80028E+01 -5.36410E+01 -5.80906E+01 -5.38316E+01 -5.90974E+01
  -5.87350E+01 -5.69047E+01 -6.07268E+01 -4.93540E+01 -5.46310E+01 -4.99626E+01 -4.99844E+01 -5.62229E+01 -5.20281E+01 -6.56301E+01
  -5.43334E+01 -5.52111E+01 -5.39335E+01 -5.14329E+01 -5.42303E+01 -5.21867E+01 -5.15557E+01 -4.97676E+01 -4.67809E+01 -3.96353E+01
  -4.86000E+01 -3.95055E+01 -3.12157E+01 -3.00976E+01 -3.54604E+01 -3.53120E+01 -3.89869E+01 -4.82420E+01 -3.83688E+01 -4.26317E+01
  -4.59604E+01 -4.24485E+01 -4.64015E+01 -4.20114E+01 -5.23569E+01 -3.81670E+01 -4.84761E+01 -3.23661E+01 -3.97330E+01 -4.06210E+01
  -3.03635E+01 -3.96543E+01 -3.82235E+01 -3.12668E+01 -2.86392E+01 -2.81603E+01 -3.66963E+01 -3.33322E+01 -3.24586E+01 -2.49822E+01
  -2.59450E+01 -2.84117E+01 -2.60792E+01 -3.33354E+01 -4.07651E+01 -3.44746E+01 -3.85002E+01 -2.96178E+01 -3.01777E+01 -3.09042E+01
  -2.63478E+01 -2.40039E+01 -3.43127E+01 -2.88367E+01 -3.15010E+01 -2.61802E+01 -2.92565E+01 -3.04526E+01 -3.33897E+01 -3.16435E+01
  -3.50286E+01 -3.29676E+01 -3.00587E+01 -2.90577E+01 -2.82516E+01 -2.61384E+01 -3.62056E+01 -3.15291E+01 -2.35796E+01 -2.86208E+01
  -2.55811E+01 -2.40384E+01 -3.10157E+01 -2.91680E+01 -2.20504E+01 -2.81998E+01 -2.61834E+01 -2.24029E+01 -2.08538E+01 -2.91489E+01
  -2.29731E+01 -2.51153E+01 -2.01274E+01 -2.04889E+01 -1.66346E+01 -2.13634E+01 -2.71148E+01 -2.15810E+01 -2.38492E+01 -1.61896E+01
  -2.89052E+01 -1.04713E+01 -1.82477E+01 -2.14716E+01 -1.07158E+01 -2.14979E+01 -1.57181E+01 -5.78086E+00 -1.53497E+01 -9.52790E+00
  -1.59122E+01 -6.70145E+00 -1.31018E+01 -1.42964E+01 -7.11950E+00 -1.22879E+01 -9.01158E+00 -1.25138E+01 -1.01244E+01 -1.03911E+01
  -5.74716E+00 -1.01760E+01 -1.39447E+01 -1.36506E+01 -9.66156E+00 -1.43162E+01 -1.50400E+01 -4.86962E+00 -6.52089E+00 -9.01191E+00
  -3.92013E+00 -6.39811E+00 -1.75068E+01 -8.24992E+00 -1.57852E+01 -1.06650E+01 -1.04405E+01 -9.04301E+00 -7.93373E+00 -1.44104E+01
  -1.24093E+01 -1.02805E+01 -1.91971E+01 -2.33444E+01 -1.62569E+01 -1.84503E+01 -2.57744E+01 -2.07923E+01 -1.94781E+01 -1.59566E+01
  -1.17554E+01 -1.60367E+01 -2.38848E+01 -2.23396E+01 -1.54852E+01 -2.13505E+01 -2.41730E+01 -2.39721E+01 -2.37349E+01 -2.34941E+01
  -1.59664E+01 -2.03602E+01 -2.00714E+01 -3.13679E+01 -2.62850E+01 -2.71126E+01 -2.29728E+01 -2.56219E+01 -1.81952E+01 -3.47961E+01
  -2.35069E+01 -2.34126E+01 -2.28204E+01 -2.00952E+01 -2.01355E+01 -7.75092E+00 -1.63949E+01 -1.87613E+01 -8.74629E-01 -1.32934E+01
  -1.30128E+01 -5.97931E+00 -1.08556E+01 -4.75091E+00 -1.06327E+01 -2.05368E+01 -2.04750E+01 -2.02674E+01 -1.84510E+01 -1.57793E+01
  -2.30270E+01 -2.22356E+01 -1.27977E+01 -2.31925E+01 -1.02738E+01 -1.73683E+01 -2.35134E+01 -1.00722E+01 -1.49597E+01 -1.91998E+01
  -7.99549E+00 -6.85680E+00 -1.16554E+01 -1.43919E+00 -2.71146E+00 -4.56025E+00 -5.49727E+00 -1.51937E+00 -1.61156E+00 -5.25325E+00
   5.31127E-02  7.14250E+00  2.61895E+00  3.17345E+00  7.60174E+00  2.99306E+00  1.96552E+01  8.66542E+00  2.11215E+01  1.96011E+01
   2.88351E+01  2.36552E+01  2.51785E+01  2.80706E+01  3.50371E+01  3.97248E+01  3.93014E+01  4.63803E+01  4.25006E+01  4.05874E+01
   3.83160E+01  3.94321E+01  4.33866E+01  4.24436E+01  3.30661E+01  2.61898E+01  1.55387E+01  1.03620E+01  5.91646E+00 -1.95648E+00
  -1.15168E+01 -1.55843E+01 -1.24248E+01 -2.55269E+01 -2.74418E+01 -3.76513E+01 -4.56127E+01 -4.51728E+01 -3.81402E+01 -4.40961E+01
  -4.85634E+01 -4.62169E+01 -4.91152E+01 -5.06270E+01 -4.75740E+01 -5.06823E+01 -5.03196E+01 -5.42029E+01 -4.55919E+01 -4.47478E+01
  -5.76888E+01 -4.59350E+01 -5.05239E+01 -4.75477E+01 -4.93571E+01 -5.07635E+01 -4.28714E+01 -4.68300E+01 -4.24132E+01 -4.89857E+01
  -4.60623E+01 -4.47985E+01 -5.15280E+01 -3.76989E+01 -3.59144E+01 -4.25095E+01 -3.91920E+01 -3.28201E+01 -3.31925E+01 -3.80405E+01
  -3.86750E+01 -3.08803E+01 -2.89547E+01 -3.23401E+01 -3.99992E+01 -3.46431E+01 -3.06561E+01 -2.69559E+01 -3.45071E+01 -3.58916E+01
  -3.24104E+01 -3.05491E+01 -2.99521E+01 -2.36416E+01 -2.98021E+01 -3.01073E+01 -2.58848E+01 -1.81566E+01 -2.71257E+01 -3.42150E+01
  -1.27976E+01 -2.29075E+01 -2.03965E+01 -2.80382E+01 -3.40222E+01 -2.84411E+01 -2.34573E+01 -4.07439E+01 -2.96521E+01 -2.68101E+01
  -2.48836E+01 -2.21035E+01 -2.30323E+01 -2.63039E+01 -2.09236E+01 -2.63330E+01 -2.43998E+01 -1.69656E+01 -2.32446E+01 -2.89069E+01
  -2.35077E+01 -2.31846E+01 -2.97836E+01 -2.68312E+01 -2.10058E+01 -2.77207E+01 -2.71448E+01 -2.58871E+01 -2.53593E+01 -2.37654E+01
  -2.51391E+01 -2.25998E+01 -2.05054E+01 -3.19550E+01 -2.89559E+01 -2.51202E+01 -2.36757E+01 -1.73426E+01 -1.46795E+01 -1.83695E+01
  -2.62282E+01 -2.36546E+01 -2.56791E+01 -1.67704E+01 -1.74639E+01 -1.89966E+01 -2.33150E+01 -2.49245E+01 -2.49263E+01 -1.46896E+01
  -2.85219E+01 -1.74843E+01 -1.89859E+01 -3.10588E+01 -2.31365E+01 -1.95502E+01 -1.71330E+01 -1.77245E+01 -2.31616E+01 -1.94732E+01
  -2.16088E+01 -1.92912E+01 -2.24548E+01 -1.92391E+01 -1.61877E+01 -2.06319E+01 -1.97950E+01 -2.24494E+01 -2.14113E+01 -2.27790E+01
  -1.05514E+01 -3.06735E+01 -2.01686E+01 -1.71827E+01 -2.92989E+01 -2.14740E+01 -1.83195E+01 -2.25999E+01 -2.21371E+01 -2.26562E+01
  -1.98195E+01 -1.94033E+01 -2.57414E+01 -2.79261E+01 -1.94140E+01 -2.57653E+01 -1.92059E+01 -2.15506E+01 -1.95718E+01 -2.17928E+01
  -2.62147E+01 -2.17674E+01 -2.36096E+01 -1.49647E+01 -1.86434E+01 -1.79790E+01 -1.56462E+01 -2.01525E+01 -1.48425E+01 -1.92719E+01
  -2.49177E+01 -1.84107E+01 -1.40158E+01 -1.73856E+01 -2.03271E+01 -1.21999E+01 -1.42268E+01 -1.92433E+01 -1.74917E+01 -1.61718E+01
  -2.00537E+01 -1.14099E+01 -6.13431E+00 -1.57663E+01 -1.34294E+01 -1.24629E+01 -1.98544E+01 -2.00062E+01 -1.60724E+01 -1.34975E+01
  -1.74706E+01 -1.83532E+01 -1.37805E+01 -1.63961E+01 -2.09247E+01 -1.59595E+01 -1.14994E+01 -1.47579E+01 -1.11042E+01 -1.61436E+01
  -1.36560E+01 -7.46852E+00 -9.14572E+00 -1.62206E+01 -2.09078E+01 -9.87710E+00 -1.97547E+01 -2.17847E+01 -1.78643E+01 -1.04814E+01
  -9.36108E+00 -1.55728E+01 -1.94096E+01 -9.10118E+00 -9.59436E+00 -2.25438E+01 -5.31833E+00 -8.18698E+00 -7.13922E+00 -1.45904E+01
  -1.74279E+01 -1.25318E+01 -7.16076E+00 -1.33973E+01 -1.04392E+01 -7.22757E+00 -6.92393E+00 -1.01955E+01
 NY points of the fit to the data follow
  -7.63416E+01 -7.57865E+01 -7.52439E+01 -7.46933E+01 -7.41672E+01 -7.36333E+01 -7.31313E+01 -7.26104E+01 -7.21948E+01 -7.18383E+01
  -7.14590E+01 -7.11720E+01 -7.07204E+01 -7.04198E+01 -6.97094E+01 -6.92076E+01 -6.85675E+01 -6.80453E+01 -6.74852E+01 -6.70161E+01
  -6.65315E+01 -6.60317E+01 -6.54931E+01 -6.49934E+01 -6.44057E+01 -6.39220E+01 -6.32572E+01 -6.27418E+01 -6.19909E+01 -6.13953E+01
  -6.06299E+01 -6.00578E+01 -5.93986E+01 -5.88737E+01 -5.82859E+01 -5.77582E+01 -5.71999E+01 -5.66614E+01 -5.61752E+01 -5.56680E+01
  -5.52798E+01 -5.47188E+01 -5.43394E+01 -5.36023E+01 -5.32550E+01 -5.23611E+01 -5.21960E+01 -5.12353E+01 -5.14126E+01 -5.07949E+01
  -5.10847E+01 -5.06059E+01 -5.06443E+01 -5.01681E+01 -4.94760E+01 -4.88032E+01 -4.80987E+01 -4.75259E+01 -4.69308E+01 -4.65648E+01
  -4.61842E+01 -4.58186E+01 -4.54635E+01 -4.51351E+01 -4.48149E+01 -4.44969E+01 -4.41870E+01 -4.38313E+01 -4.33783E+01 -4.28658E+01
  -4.23034E+01 -4.17555E+01 -4.12556E+01 -4.07483E+01 -4.02906E+01 -3.98350E+01 -3.94058E+01 -3.89846E+01 -3.85589E+01 -3.81435E+01
  -3.77055E+01 -3.72309E+01 -3.67417E+01 -3.62488E+01 -3.57509E+01 -3.53207E+01 -3.48561E+01 -3.44904E+01 -3.40422E+01 -3.37198E+01
  -3.33067E+01 -3.30045E+01 -3.26664E+01 -3.23824E+01 -3.20640E+01 -3.17594E+01 -3.14576E+01 -3.10702E+01 -3.07759E+01 -3.04105E+01
  -3.02373E+01 -2.99251E+01 -2.98731E+01 -2.95916E+01 -2.95744E+01 -2.92967E+01 -2.92262E+01 -2.88748E+01 -2.84821E+01 -2.80296E+01
  -2.76435E+01 -2.71901E+01 -2.67962E+01 -2.63364E+01 -2.59184E+01 -2.54946E+01 -2.50855E+01 -2.47129E+01 -2.42672E+01 -2.39270E+01
  -2.34318E+01 -2.30633E+01 -2.25884E+01 -2.22138E+01 -2.17586E+01 -2.14122E+01 -2.10038E+01 -2.06556E+01 -2.02823E+01 -1.99475E+01
  -1.95904E+01 -1.92885E+01 -1.89515E+01 -1.86766E+01 -1.83475E+01 -1.80910E+01 -1.77641E+01 -1.75177E+01 -1.71905E+01 -1.69539E+01
  -1.66312E+01 -1.64133E+01 -1.61700E+01 -1.60943E+01 -1.58799E+01 -1.58482E+01 -1.55753E+01 -1.54475E+01 -1.52316E+01 -1.51100E+01
  -1.49587E+01 -1.48758E+01 -1.47386E+01 -1.46639E+01 -1.45583E+01 -1.45354E+01 -1.45098E+01 -1.46407E+01 -1.47468E+01 -1.49473E+01
  -1.49975E+01 -1.51852E+01 -1.52540E+01 -1.55817E+01 -1.57124E+01 -1.61184E+01 -1.62955E+01 -1.67352E+01 -1.69868E+01 -1.75292E+01
  -1.77690E+01 -1.83068E+01 -1.85303E+01 -1.90328E+01 -1.92003E+01 -1.96281E+01 -1.97792E+01 -2.01603E+01 -2.02697E+01 -2.06206E+01
  -2.07428E+01 -2.11517E+01 -2.12686E+01 -2.19755E+01 -2.17143E+01 -2.22405E+01 -2.13820E+01 -2.15520E+01 -2.05480E+01 -2.07703E+01
  -1.97321E+01 -2.00887E+01 -1.92731E+01 -1.96349E+01 -1.86769E+01 -1.89682E+01 -1.79644E+01 -1.81393E+01 -1.73627E+01 -1.72774E+01
  -1.63361E+01 -1.61125E+01 -1.53200E+01 -1.54430E+01 -1.48626E+01 -1.51431E+01 -1.47726E+01 -1.53340E+01 -1.51924E+01 -1.62116E+01
  -1.58321E+01 -1.68763E+01 -1.62698E+01 -1.73392E+01 -1.65712E+01 -1.77008E+01 -1.68722E+01 -1.81920E+01 -1.74981E+01 -1.90245E+01
  -1.85750E+01 -2.01744E+01 -1.96806E+01 -2.08055E+01 -1.97368E+01 -2.02251E+01 -1.86807E+01 -1.86743E+01 -1.70592E+01 -1.69006E+01
  -1.57716E+01 -1.58101E+01 -1.58578E+01 -1.60547E+01 -1.61133E+01 -1.65062E+01 -1.64266E+01 -1.67894E+01 -1.65558E+01 -1.69804E+01
  -1.64949E+01 -1.61823E+01 -1.21746E+01 -1.05553E+01 -7.11741E+00 -5.76248E+00 -3.78399E+00 -2.99687E+00 -1.60209E+00 -9.50200E-01
   7.75853E-01  1.61039E+00  3.57121E+00  4.67609E+00  7.37486E+00  9.10216E+00  1.26072E+01  1.49713E+01  1.79226E+01  2.06809E+01
   2.28881E+01  2.61381E+01  2.79173E+01  3.19248E+01  3.36931E+01  3.75783E+01  3.82776E+01  4.15358E+01  4.05319E+01  4.29628E+01
   4.08093E+01  4.23977E+01  3.82740E+01  3.83545E+01  3.03265E+01  2.77856E+01  1.59030E+01  1.06339E+01 -3.75463E+00 -1.07927E+01
  -2.38499E+01 -2.90900E+01 -3.12109E+01 -3.25651E+01 -3.35997E+01 -3.44490E+01 -3.51731E+01 -3.58036E+01 -3.63665E+01 -3.68752E+01
  -3.73384E+01 -3.77815E+01 -3.81980E+01 -3.85842E+01 -3.89541E+01 -3.92854E+01 -3.96019E+01 -3.98759E+01 -4.01274E+01 -4.03343E+01
  -4.05379E+01 -4.06985E+01 -4.08567E+01 -4.09802E+01 -4.11011E+01 -4.11864E+01 -4.12664E+01 -4.13003E+01 -4.13160E+01 -4.12850E+01
  -4.12248E+01 -4.11128E+01 -4.09585E+01 -4.07538E+01 -4.04952E+01 -4.01829E+01 -3.98132E+01 -3.93861E+01 -3.89002E+01 -3.83575E+01
  -3.77594E+01 -3.71108E+01 -3.64167E+01 -3.56851E+01 -3.49248E+01 -3.41459E+01 -3.33599E+01 -3.25781E+01 -3.18126E+01 -3.10753E+01
  -3.03767E+01 -2.97264E+01 -2.91317E+01 -2.85980E+01 -2.81284E+01 -2.77233E+01 -2.73802E+01 -2.70945E+01 -2.68594E+01 -2.66665E+01
  -2.65062E+01 -2.63685E+01 -2.62430E+01 -2.61203E+01 -2.59917E+01 -2.58508E+01 -2.56925E+01 -2.55141E+01 -2.53150E+01 -2.50968E+01
  -2.48632E+01 -2.46196E+01 -2.43727E+01 -2.41303E+01 -2.39003E+01 -2.36910E+01 -2.35104E+01 -2.33653E+01 -2.32617E+01 -2.32042E+01
  -2.31954E+01 -2.32368E+01 -2.33279E+01 -2.34667E+01 -2.36493E+01 -2.38707E+01 -2.41246E+01 -2.44038E+01 -2.47004E+01 -2.50060E+01
  -2.53118E+01 -2.56089E+01 -2.58889E+01 -2.61434E+01 -2.63647E+01 -2.65455E+01 -2.66792E+01 -2.67601E+01 -2.67833E+01 -2.67451E+01
  -2.66427E+01 -2.64743E+01 -2.62397E+01 -2.59399E+01 -2.55771E+01 -2.51555E+01 -2.46804E+01 -2.41587E+01 -2.35986E+01 -2.30098E+01
  -2.24031E+01 -2.17898E+01 -2.11819E+01 -2.05914E+01 -2.00300E+01 -1.95086E+01 -1.90373E+01 -1.86241E+01 -1.82757E+01 -1.79965E+01
  -1.77891E+01 -1.76537E+01 -1.75887E+01 -1.75906E+01 -1.76542E+01 -1.77731E+01 -1.79401E+01 -1.81473E+01 -1.83864E+01 -1.86495E+01
  -1.89285E+01 -1.92163E+01 -1.95061E+01 -1.97921E+01 -2.00692E+01 -2.03331E+01 -2.05803E+01 -2.08082E+01 -2.10147E+01 -2.11985E+01
  -2.13587E+01 -2.14948E+01 -2.16069E+01 -2.16953E+01 -2.17607E+01 -2.18038E+01 -2.18256E+01 -2.18272E+01 -2.18096E+01 -2.17741E+01
  -2.17219E+01 -2.16543E+01 -2.15723E+01 -2.14772E+01 -2.13700E+01 -2.12519E+01 -2.11238E+01 -2.09866E+01 -2.08412E+01 -2.06884E+01
  -2.05290E+01 -2.03636E+01 -2.01929E+01 -2.00175E+01 -1.98378E+01 -1.96545E+01 -1.94679E+01 -1.92785E+01 -1.90866E+01 -1.88925E+01
  -1.86964E+01 -1.84986E+01 -1.82993E+01 -1.80987E+01 -1.78968E+01 -1.76938E+01 -1.74898E+01 -1.72850E+01 -1.70794E+01 -1.68732E+01
  -1.66663E+01 -1.64589E+01 -1.62510E+01 -1.60428E+01 -1.58341E+01 -1.56252E+01 -1.54159E+01 -1.52063E+01 -1.49965E+01 -1.47865E+01
  -1.45763E+01 -1.43659E+01 -1.41553E+01 -1.39445E+01 -1.37336E+01 -1.35225E+01 -1.33113E+01 -1.30999E+01 -1.28884E+01 -1.26767E+01
  -1.24648E+01 -1.22528E+01 -1.20406E+01 -1.18282E+01 -1.16156E+01 -1.14028E+01 -1.11899E+01 -1.09766E+01 -1.07631E+01 -1.05493E+01
  -1.03353E+01 -1.01210E+01 -9.90634E+00 -9.69136E+00 -9.47599E+00 -9.26024E+00 -9.04408E+00 -8.82749E+00
 NY background values follow
    -7.766E+01   -7.716E+01   -7.665E+01   -7.614E+01   -7.563E+01   -7.512E+01   -7.461E+01   -7.411E+01   -7.360E+01   -7.309E+01
    -7.258E+01   -7.207E+01   -7.156E+01   -7.106E+01   -7.055E+01   -7.004E+01   -6.954E+01   -6.903E+01   -6.853E+01   -6.802E+01
    -6.752E+01   -6.701E+01   -6.651E+01   -6.601E+01   -6.551E+01   -6.501E+01   -6.451E+01   -6.401E+01   -6.351E+01   -6.302E+01
    -6.252E+01   -6.203E+01   -6.154E+01   -6.105E+01   -6.056E+01   -6.007E+01   -5.958E+01   -5.909E+01   -5.861E+01   -5.813E+01
    -5.765E+01   -5.717E+01   -5.669E+01   -5.621E+01   -5.574E+01   -5.527E+01   -5.480E+01   -5.433E+01   -5.386E+01   -5.340E+01
    -5.293E+01   -5.247E+01   -5.201E+01   -5.156E+01   -5.110E+01   -5.065E+01   -5.020E+01   -4.975E+01   -4.931E+01   -4.886E+01
    -4.842E+01   -4.798E+01   -4.754E+01   -4.711E+01   -4.667E+01   -4.624E+01   -4.581E+01   -4.538E+01   -4.495E+01   -4.452E+01
    -4.410E+01   -4.368E+01   -4.326E+01   -4.284E+01   -4.242E+01   -4.200E+01   -4.159E+01   -4.118E+01   -4.077E+01   -4.036E+01
    -3.995E+01   -3.954E+01   -3.914E+01   -3.873E+01   -3.833E+01   -3.793E+01   -3.753E+01   -3.713E+01   -3.674E+01   -3.634E+01
    -3.595E+01   -3.556E+01   -3.516E+01   -3.477E+01   -3.439E+01   -3.400E+01   -3.361E+01   -3.323E+01   -3.284E+01   -3.246E+01
    -3.208E+01   -3.170E+01   -3.132E+01   -3.094E+01   -3.056E+01   -3.019E+01   -2.982E+01   -2.944E+01   -2.908E+01   -2.871E+01
    -2.834E+01   -2.798E+01   -2.762E+01   -2.726E+01   -2.691E+01   -2.656E+01   -2.621E+01   -2.586E+01   -2.552E+01   -2.518E+01
    -2.485E+01   -2.452E+01   -2.419E+01   -2.386E+01   -2.354E+01   -2.323E+01   -2.291E+01   -2.261E+01   -2.230E+01   -2.200E+01
    -2.171E+01   -2.142E+01   -2.113E+01   -2.085E+01   -2.058E+01   -2.031E+01   -2.005E+01   -1.979E+01   -1.953E+01   -1.929E+01
    -1.904E+01   -1.881E+01   -1.858E+01   -1.836E+01   -1.814E+01   -1.793E+01   -1.773E+01   -1.753E+01   -1.734E+01   -1.715E+01
    -1.698E+01   -1.681E+01   -1.665E+01   -1.649E+01   -1.634E+01   -1.620E+01   -1.607E+01   -1.594E+01   -1.582E+01   -1.570E+01
    -1.560E+01   -1.550E+01   -1.540E+01   -1.532E+01   -1.524E+01   -1.516E+01   -1.510E+01   -1.504E+01   -1.498E+01   -1.494E+01
    -1.490E+01   -1.486E+01   -1.484E+01   -1.482E+01   -1.481E+01   -1.480E+01   -1.480E+01   -1.481E+01   -1.482E+01   -1.484E+01
    -1.487E+01   -1.490E+01   -1.494E+01   -1.498E+01   -1.503E+01   -1.509E+01   -1.516E+01   -1.523E+01   -1.531E+01   -1.539E+01
    -1.548E+01   -1.558E+01   -1.568E+01   -1.579E+01   -1.590E+01   -1.602E+01   -1.615E+01   -1.629E+01   -1.643E+01   -1.657E+01
    -1.672E+01   -1.688E+01   -1.705E+01   -1.722E+01   -1.739E+01   -1.757E+01   -1.776E+01   -1.795E+01   -1.815E+01   -1.835E+01
    -1.856E+01   -1.877E+01   -1.899E+01   -1.921E+01   -1.944E+01   -1.967E+01   -1.991E+01   -2.015E+01   -2.039E+01   -2.064E+01
    -2.089E+01   -2.115E+01   -2.141E+01   -2.168E+01   -2.195E+01   -2.222E+01   -2.249E+01   -2.277E+01   -2.305E+01   -2.334E+01
    -2.363E+01   -2.392E+01   -2.422E+01   -2.451E+01   -2.481E+01   -2.512E+01   -2.542E+01   -2.573E+01   -2.604E+01   -2.635E+01
    -2.667E+01   -2.698E+01   -2.730E+01   -2.762E+01   -2.794E+01   -2.827E+01   -2.859E+01   -2.892E+01   -2.925E+01   -2.957E+01
    -2.990E+01   -3.023E+01   -3.057E+01   -3.090E+01   -3.123E+01   -3.156E+01   -3.190E+01   -3.223E+01   -3.256E+01   -3.289E+01
    -3.323E+01   -3.356E+01   -3.388E+01   -3.421E+01   -3.454E+01   -3.487E+01   -3.519E+01   -3.551E+01   -3.583E+01   -3.615E+01
    -3.646E+01   -3.678E+01   -3.709E+01   -3.739E+01   -3.770E+01   -3.800E+01   -3.830E+01   -3.859E+01   -3.888E+01   -3.917E+01
    -3.945E+01   -3.973E+01   -4.000E+01   -4.027E+01   -4.053E+01   -4.079E+01   -4.105E+01   -4.129E+01   -4.154E+01   -4.177E+01
    -4.201E+01   -4.223E+01   -4.245E+01   -4.266E+01   -4.287E+01   -4.307E+01   -4.326E+01   -4.345E+01   -4.363E+01   -4.380E+01
    -4.396E+01   -4.412E+01   -4.427E+01   -4.441E+01   -4.455E+01   -4.468E+01   -4.480E+01   -4.491E+01   -4.502E+01   -4.512E+01
    -4.521E+01   -4.530E+01   -4.538E+01   -4.546E+01   -4.552E+01   -4.559E+01   -4.564E+01   -4.569E+01   -4.573E+01   -4.577E+01
    -4.580E+01   -4.582E+01   -4.584E+01   -4.586E+01   -4.586E+01   -4.586E+01   -4.586E+01   -4.585E+01   -4.584E+01   -4.581E+01
    -4.579E+01   -4.576E+01   -4.572E+01   -4.568E+01   -4.563E+01   -4.558E+01   -4.552E+01   -4.546E+01   -4.539E+01   -4.532E+01
    -4.525E+01   -4.516E+01   -4.508E+01   -4.499E+01   -4.489E+01   -4.479E+01   -4.469E+01   -4.458E+01   -4.447E+01   -4.436E+01
    -4.424E+01   -4.411E+01   -4.398E+01   -4.385E+01   -4.372E+01   -4.358E+01   -4.343E+01   -4.329E+01   -4.314E+01   -4.298E+01
    -4.282E+01   -4.266E+01   -4.250E+01   -4.233E+01   -4.216E+01   -4.198E+01   -4.181E+01   -4.162E+01   -4.144E+01   -4.125E+01
    -4.106E+01   -4.087E+01   -4.067E+01   -4.047E+01   -4.027E+01   -4.007E+01   -3.986E+01   -3.965E+01   -3.944E+01   -3.922E+01
    -3.900E+01   -3.878E+01   -3.856E+01   -3.834E+01   -3.811E+01   -3.788E+01   -3.765E+01   -3.742E+01   -3.718E+01   -3.694E+01
    -3.670E+01   -3.646E+01   -3.622E+01   -3.597E+01   -3.573E+01   -3.548E+01   -3.523E+01   -3.498E+01   -3.472E+01   -3.447E+01
    -3.421E+01   -3.395E+01   -3.369E+01   -3.343E+01   -3.317E+01   -3.291E+01   -3.265E+01   -3.238E+01   -3.212E+01   -3.185E+01
    -3.158E+01   -3.132E+01   -3.105E+01   -3.078E+01   -3.051E+01   -3.024E+01   -2.997E+01   -2.970E+01   -2.942E+01   -2.915E+01
    -2.888E+01   -2.861E+01   -2.833E+01   -2.806E+01   -2.779E+01   -2.751E+01   -2.724E+01   -2.697E+01   -2.670E+01   -2.642E+01
    -2.615E+01   -2.588E+01   -2.561E+01   -2.534E+01   -2.507E+01   -2.480E+01   -2.453E+01   -2.426E+01   -2.399E+01   -2.372E+01
    -2.346E+01   -2.319E+01   -2.293E+01   -2.267E+01   -2.240E+01   -2.214E+01   -2.188E+01   -2.162E+01   -2.137E+01   -2.111E+01
    -2.086E+01   -2.060E+01   -2.035E+01   -2.010E+01   -1.985E+01   -1.960E+01   -1.935E+01   -1.911E+01   -1.886E+01   -1.862E+01
    -1.837E+01   -1.813E+01   -1.789E+01   -1.765E+01   -1.741E+01   -1.717E+01   -1.693E+01   -1.669E+01   -1.646E+01   -1.622E+01
    -1.599E+01   -1.575E+01   -1.552E+01   -1.528E+01   -1.505E+01   -1.482E+01   -1.459E+01   -1.435E+01   -1.412E+01   -1.389E+01
    -1.366E+01   -1.343E+01   -1.320E+01   -1.297E+01   -1.274E+01   -1.251E+01   -1.229E+01   -1.206E+01   -1.183E+01   -1.160E+01
    -1.137E+01   -1.114E+01   -1.091E+01   -1.069E+01   -1.046E+01   -1.023E+01   -9.999E+00   -9.770E+00
 Asp      Conc. = 6.26E+01
