 LCModel (Version 6.3-1L) Copyright: S.W. Provencher.          Ref.: Magn. Reson. Med. 30:672-679 (1993).                
 Slice#1 Row#7 Col#2  PD_24_press_2_raw_act
 36 lines in following concentration table = NCONC+1
    Conc.  %SD /Cr+PCr  Metabolite                                         
 2.31E+03  26%   0.972 Ala                                                 
  302.414 169%   0.127 Asp                                                 
  208.779 337% 8.8E-02 Cr                                                  
 2.17E+03  32%   0.912 PCr                                                 
    0.000 999%   0.000 GABA                                                
    0.000 999%   0.000 Glc                                                 
 9.59E+03  16%   4.033 Gln                                                 
 9.43E+03  19%   3.965 Glu                                                 
  898.555   6%   0.378 GPC                                                 
    0.000 999%   0.000 PCh                                                 
  366.004  72%   0.154 GSH                                                 
 1.98E+03  41%   0.832 Ins                                                 
    0.000 999%   0.000 Lac                                                 
 4.52E+03   4%   1.900 NAA                                                 
    0.000 999%   0.000 NAAG                                                
  236.212  29% 9.9E-02 Scyllo                                              
    0.000 999%   0.000 Tau                                                 
    0.000 999%   0.000 -CrCH2                                              
  898.555   6%   0.378 GPC+PCh                                             
 4.52E+03   4%   1.900 NAA+NAAG                                            
 2.38E+03   6%   1.000 Cr+PCr                                              
 1.90E+04  16%   7.998 Glu+Gln                                             
    0.000 999%   0.000 Lip13a                                              
    0.000 999%   0.000 Lip13b                                              
    0.000 999%   0.000 Lip09                                               
 3.01E+03  12%   1.265 MM09                                                
    0.000 999%   0.000 Lip20                                               
 4.43E+03  13%   1.864 MM20                                                
  894.369  14%   0.376 MM12                                                
 3.28E+03   9%   1.378+MM14                                                
 1.60E+03  11%   0.674 MM17                                                
    0.000 999%   0.000 Lip13a+Lip13b                                       
 4.17E+03   9%   1.754 MM14+Lip13a+Lip13b+MM12                             
 3.01E+03  12%   1.265 MM09+Lip09                                          
 4.43E+03  13%   1.864 MM20+Lip20                                          
   6 lines in following misc. output table
  FWHM = 0.107 ppm    S/N =   8                                            
  Data shift =-0.038 ppm                                                   
  Ph: -45 deg     -19.0 deg/ppm                                            
  alphaB,S = 5.9E-01,   1.9E+02                                            
   14 spline knots.   Ns = 6(2)                                            
  ( 9) 2 infls.   ( 1) 1 extrs.                                            
  498 points on ppm-axis = NY
      4.000000     3.992357     3.984714     3.977070     3.969427     3.961784     3.954141     3.946497     3.938854     3.931211
      3.923568     3.915925     3.908281     3.900638     3.892995     3.885352     3.877708     3.870065     3.862422     3.854779
      3.847136     3.839492     3.831849     3.824206     3.816563     3.808919     3.801276     3.793633     3.785990     3.778347
      3.770703     3.763060     3.755417     3.747774     3.740130     3.732487     3.724844     3.717201     3.709558     3.701914
      3.694271     3.686628     3.678985     3.671341     3.663698     3.656055     3.648412     3.640769     3.633125     3.625482
      3.617839     3.610196     3.602552     3.594909     3.587266     3.579623     3.571980     3.564336     3.556693     3.549050
      3.541407     3.533763     3.526120     3.518477     3.510834     3.503191     3.495547     3.487904     3.480261     3.472618
      3.464974     3.457331     3.449688     3.442045     3.434402     3.426758     3.419115     3.411472     3.403829     3.396185
      3.388542     3.380899     3.373256     3.365613     3.357969     3.350326     3.342683     3.335040     3.327396     3.319753
      3.312110     3.304467     3.296824     3.289180     3.281537     3.273894     3.266251     3.258607     3.250964     3.243321
      3.235678     3.228034     3.220391     3.212748     3.205105     3.197462     3.189818     3.182175     3.174532     3.166889
      3.159245     3.151602     3.143959     3.136316     3.128673     3.121029     3.113386     3.105743     3.098100     3.090456
      3.082813     3.075170     3.067527     3.059884     3.052240     3.044597     3.036954     3.029311     3.021667     3.014024
      3.006381     2.998738     2.991095     2.983451     2.975808     2.968165     2.960522     2.952878     2.945235     2.937592
      2.929949     2.922306     2.914662     2.907019     2.899376     2.891733     2.884089     2.876446     2.868803     2.861160
      2.853517     2.845873     2.838230     2.830587     2.822944     2.815300     2.807657     2.800014     2.792371     2.784728
      2.777084     2.769441     2.761798     2.754155     2.746511     2.738868     2.731225     2.723582     2.715939     2.708295
      2.700652     2.693009     2.685366     2.677722     2.670079     2.662436     2.654793     2.647150     2.639506     2.631863
      2.624220     2.616577     2.608933     2.601290     2.593647     2.586004     2.578361     2.570717     2.563074     2.555431
      2.547788     2.540144     2.532501     2.524858     2.517215     2.509572     2.501928     2.494285     2.486642     2.478999
      2.471355     2.463712     2.456069     2.448426     2.440783     2.433139     2.425496     2.417853     2.410210     2.402566
      2.394923     2.387280     2.379637     2.371994     2.364350     2.356707     2.349064     2.341421     2.333777     2.326134
      2.318491     2.310848     2.303205     2.295561     2.287918     2.280275     2.272632     2.264988     2.257345     2.249702
      2.242059     2.234416     2.226772     2.219129     2.211486     2.203843     2.196199     2.188556     2.180913     2.173270
      2.165627     2.157983     2.150340     2.142697     2.135054     2.127410     2.119767     2.112124     2.104481     2.096838
      2.089194     2.081551     2.073908     2.066265     2.058621     2.050978     2.043335     2.035692     2.028049     2.020405
      2.012762     2.005119     1.997476     1.989833     1.982190     1.974546     1.966903     1.959260     1.951617     1.943974
      1.936331     1.928688     1.921045     1.913402     1.905759     1.898115     1.890472     1.882829     1.875186     1.867543
      1.859900     1.852257     1.844614     1.836971     1.829327     1.821684     1.814041     1.806398     1.798755     1.791112
      1.783469     1.775826     1.768183     1.760540     1.752896     1.745253     1.737610     1.729967     1.722324     1.714681
      1.707038     1.699395     1.691752     1.684108     1.676465     1.668822     1.661179     1.653536     1.645893     1.638250
      1.630607     1.622964     1.615321     1.607677     1.600034     1.592391     1.584748     1.577105     1.569462     1.561819
      1.554176     1.546533     1.538890     1.531246     1.523603     1.515960     1.508317     1.500674     1.493031     1.485388
      1.477745     1.470102     1.462458     1.454815     1.447172     1.439529     1.431886     1.424243     1.416600     1.408957
      1.401314     1.393671     1.386027     1.378384     1.370741     1.363098     1.355455     1.347812     1.340169     1.332526
      1.324883     1.317240     1.309596     1.301953     1.294310     1.286667     1.279024     1.271381     1.263738     1.256095
      1.248452     1.240808     1.233165     1.225522     1.217879     1.210236     1.202593     1.194950     1.187307     1.179664
      1.172021     1.164377     1.156734     1.149091     1.141448     1.133805     1.126162     1.118519     1.110876     1.103233
      1.095590     1.087946     1.080303     1.072660     1.065017     1.057374     1.049731     1.042088     1.034445     1.026802
      1.019158     1.011515     1.003872     0.996229     0.988586     0.980943     0.973300     0.965657     0.958014     0.950371
      0.942727     0.935084     0.927441     0.919798     0.912155     0.904512     0.896869     0.889226     0.881583     0.873940
      0.866296     0.858653     0.851010     0.843367     0.835724     0.828081     0.820438     0.812795     0.805152     0.797508
      0.789865     0.782222     0.774579     0.766936     0.759293     0.751650     0.744007     0.736364     0.728721     0.721077
      0.713434     0.705791     0.698148     0.690505     0.682862     0.675219     0.667576     0.659933     0.652290     0.644646
      0.637003     0.629360     0.621717     0.614074     0.606431     0.598788     0.591145     0.583502     0.575858     0.568215
      0.560572     0.552929     0.545286     0.537643     0.530000     0.522357     0.514714     0.507071     0.499427     0.491784
      0.484141     0.476498     0.468855     0.461212     0.453569     0.445925     0.438282     0.430639     0.422996     0.415353
      0.407710     0.400067     0.392424     0.384780     0.377137     0.369494     0.361851     0.354208     0.346565     0.338922
      0.331278     0.323635     0.315992     0.308349     0.300706     0.293063     0.285420     0.277777     0.270133     0.262490
      0.254847     0.247204     0.239561     0.231918     0.224275     0.216631     0.208988     0.201345
 NY phased data points follow
   2.97810E+01  2.86656E+01  3.08066E+01  3.91073E+01  2.76741E+01  4.17187E+01  3.55593E+01  4.22822E+01  3.83999E+01  4.44311E+01
   4.90459E+01  5.10301E+01  4.36882E+01  5.18045E+01  3.99272E+01  4.21608E+01  3.59992E+01  3.98541E+01  3.08999E+01  3.67003E+01
   2.87234E+01  3.26739E+01  2.55250E+01  2.68909E+01  2.79763E+01  2.86343E+01  2.85180E+01  2.70220E+01  2.65964E+01  3.48083E+01
   2.75524E+01  2.51797E+01  2.43999E+01  2.50307E+01  2.81356E+01  2.33884E+01  2.83296E+01  1.99277E+01  2.19416E+01  2.57741E+01
   2.14292E+01  2.62378E+01  3.02997E+01  2.37919E+01  2.25154E+01  3.23536E+01  3.25596E+01  2.67880E+01  3.09972E+01  2.23520E+01
   1.58445E+01  2.99042E+01  2.67622E+01  2.06560E+01  2.45912E+01  1.65085E+01  2.96610E+01  1.88413E+01  1.80967E+01  1.82739E+01
   1.62886E+01  1.83141E+01  2.72477E+00  1.89180E+01  1.19275E+01  7.26802E+00  1.04705E+01  1.86183E+01  6.16830E+00  7.02794E+00
   1.29262E+01  2.84547E+00  9.94644E+00  7.28465E+00  9.52474E+00  1.18118E+01  3.06797E+00  1.31674E+01  1.15494E+01  1.05131E+01
   2.84763E+00  5.56706E+00  9.85611E+00  1.52537E+01  8.98291E+00  1.85726E+01  1.23210E+01  2.27734E+01  1.36786E+01  1.29787E+01
   1.73695E+01  1.42925E+01  1.36711E+01  2.30401E+01  2.04734E+01  1.72346E+01  2.57942E+01  2.77487E+01  3.18451E+01  2.80656E+01
   3.99937E+01  4.97243E+01  4.78191E+01  5.96830E+01  4.88672E+01  5.34598E+01  4.57855E+01  5.19134E+01  3.66196E+01  4.37123E+01
   2.92063E+01  2.66321E+01  2.12398E+01  2.98277E+01  1.96169E+01  2.33326E+01  1.11986E+01  1.22520E+01  1.93850E+01  2.55191E+01
   2.94073E+01  2.77878E+01  2.99551E+01  3.87902E+01  4.54609E+01  4.97736E+01  5.02847E+01  5.48491E+01  4.76490E+01  4.85734E+01
   4.12605E+01  3.99918E+01  3.83414E+01  3.29086E+01  3.04063E+01  2.95411E+01  2.37198E+01  2.76917E+01  6.81875E+00  1.55759E+01
   1.88744E+01  6.14870E+00  5.97782E+00  9.09009E+00  1.53018E+01  3.90857E+00  7.61210E+00  1.10099E+01  1.39113E+01  8.68946E+00
   2.96551E+00  5.30409E+00  6.22587E+00  8.12847E+00  6.57952E+00  4.79299E+00  2.80737E+00  8.33221E+00  2.83178E+00  8.00584E+00
   2.00072E+00  1.73152E+00 -2.85617E+00  8.42750E+00  5.88563E-01 -2.56614E+00 -2.93383E+00  2.55701E+00 -1.35206E+01 -3.19857E+00
  -4.80664E-01 -1.62577E+00 -9.70078E+00 -8.47185E+00 -1.45388E+01 -1.75821E+01 -1.46944E+01 -9.74474E+00 -1.81389E+00 -1.04313E+01
  -7.50992E+00  1.58339E+00 -3.90732E+00 -1.39672E+00 -1.94843E+00  1.88562E+00 -7.33366E+00 -6.62881E+00  2.04697E+00  2.62171E+00
   1.04725E+01  3.61585E+00  4.98264E+00  7.59716E+00 -1.07779E+00  1.13602E+00  1.68723E+00 -2.30610E+00 -1.23283E+00  3.28618E+00
   2.37220E+00  1.11652E+01  9.47506E+00  6.78200E+00  1.21883E+01  1.21861E+01  1.42476E+01  1.06513E+01  4.46857E+00  2.06589E+00
   9.98185E+00  1.70470E+01  1.21723E+01  2.06936E+01  1.72011E+01  2.56995E+01  1.68606E+01  2.01046E+01  1.87442E+01  2.04976E+01
   1.07484E+01  1.30313E+01  1.51737E+01  1.82326E+01  1.71228E+01  1.18998E+01  5.89490E+00  1.69754E+01  1.74465E+01  1.75186E+01
   1.85826E+01  1.92688E+01  1.34954E+01  2.03670E+01  7.35769E+00  1.91898E+01  9.91500E+00  1.20496E+01  1.93613E+01  1.11843E+01
   1.97300E+01  1.09150E+01  1.54270E+01  1.41842E+01  1.93518E+01  9.55138E+00  1.80959E+01  1.53419E+01  2.00658E+01  2.40412E+01
   2.57006E+01  3.62778E+01  3.48862E+01  4.99998E+01  5.33663E+01  6.69603E+01  7.99834E+01  9.48616E+01  9.56485E+01  1.06690E+02
   1.07998E+02  1.14333E+02  1.04152E+02  1.04626E+02  9.10524E+01  8.01513E+01  8.54726E+01  6.90394E+01  6.29235E+01  5.02496E+01
   4.64545E+01  4.64521E+01  3.60015E+01  2.77657E+01  3.43811E+01  2.63980E+01  2.74313E+01  3.26858E+01  2.35995E+01  2.46359E+01
   1.95736E+01  2.04978E+01  2.20998E+01  2.08849E+01  1.29180E+01  1.50146E+01  1.94975E+01  2.65490E+01  1.52119E+01  2.18255E+01
   1.75853E+01  2.18496E+01  1.83094E+01  2.55064E+01  2.57267E+01  2.27444E+01  2.00944E+01  2.14529E+01  3.21058E+01  2.50850E+01
   2.77353E+01  3.03320E+01  2.77796E+01  2.27730E+01  3.22361E+01  3.61291E+01  3.13782E+01  4.11162E+01  3.73832E+01  4.26513E+01
   3.90968E+01  4.92661E+01  4.78284E+01  4.20903E+01  5.31990E+01  5.40222E+01  5.81620E+01  5.65851E+01  5.45244E+01  5.48737E+01
   5.30847E+01  5.28644E+01  6.00410E+01  5.30752E+01  5.12653E+01  3.89782E+01  3.36231E+01  4.58970E+01  2.21292E+01  2.85291E+01
   2.02291E+01  1.68794E+01  2.27729E+01  1.81465E+01  1.14678E+01  1.73837E+01  9.11962E+00  1.21920E+01  1.24483E+01  9.62274E+00
   3.78846E+00  1.27544E+01  9.20459E+00  8.88394E+00  2.41128E+00  1.65699E+01  1.02693E+01  5.38464E+00  4.59801E+00  1.26098E+01
   1.10628E+01  8.75089E+00  1.01217E+01  1.17561E+01  7.90757E+00  1.07922E+01  1.03738E+01  7.79704E+00  1.66122E+01  7.32848E+00
   1.68685E+01  7.97971E+00  9.55213E+00  1.63525E+01  1.11723E+01  4.82658E+00  7.66136E+00  7.48645E+00  7.25608E+00  1.40522E+01
   1.85936E+01  2.70244E+00  4.26327E+00  5.93537E+00  8.72366E+00  1.35237E+01  7.17116E+00  1.09419E+01  6.93257E+00  1.40168E+01
   1.86319E+00  4.82822E+00  9.34220E+00  2.61536E+00  8.39695E+00  5.08975E+00  4.50887E+00  1.25504E+01  1.26070E+01  1.41318E+01
   4.55835E+00  1.15092E+01  5.45071E+00  1.32728E+01  8.93706E+00  6.74565E+00  1.16009E+00  3.19108E+00  8.68513E+00  9.10137E+00
   6.08808E+00  1.27415E+01  2.75768E+00  1.30188E+00  2.03846E-01  1.25468E+01  1.09733E+01  9.64469E+00  3.19496E+00  9.68469E+00
   1.20184E+01  1.46427E+01  1.33976E+01  1.58130E+01 -1.23537E+00  6.07450E+00  1.41873E+01  2.70871E+00  2.42021E+00  1.12676E+01
   6.67380E+00  8.69542E+00  8.51729E+00  3.82261E+00  7.01259E+00  3.77551E+00  6.34941E+00  6.86323E+00  6.61530E+00  1.05649E+01
   8.46261E+00  1.00787E+00  1.43681E+01 -5.88545E-01  9.48487E+00  4.00892E+00  7.53276E+00  7.47612E+00  1.00724E+00  1.34800E+00
   1.02324E+01  2.03908E+00 -4.97505E+00  1.03794E+01  5.15257E+00  2.05969E+00  2.46354E+00 -1.11550E+00  4.53053E+00 -5.40391E+00
   9.35268E+00  6.27865E+00  9.26385E-01  8.92292E-01  3.35960E+00 -6.26377E-01  5.15743E+00  2.75713E+00  6.56979E+00  6.31240E+00
   1.98215E+00  6.16519E+00  4.23559E+00  4.83736E+00  4.79034E+00  2.64354E+00  4.63733E+00  1.95545E+00  4.31416E+00  6.29095E+00
   2.13016E+00  8.45078E+00  6.86608E+00  1.34894E+00  5.88204E+00  3.56070E+00 -1.48556E+00  3.84813E+00  3.71195E+00 -1.25429E+00
  -8.29188E-01  4.31652E+00 -1.65590E+00  1.15624E+00 -5.57496E+00  7.42416E+00  4.62252E+00 -7.91755E-01  5.64360E+00  5.85288E+00
   5.87691E+00  9.28369E+00  4.31257E+00  5.53884E+00  6.39450E+00  7.02690E+00  5.84364E+00  9.43646E+00
 NY points of the fit to the data follow
   2.36199E+01  2.67828E+01  2.74808E+01  3.20421E+01  3.23559E+01  3.82289E+01  3.74297E+01  4.39182E+01  4.13094E+01  4.75148E+01
   4.29837E+01  4.80630E+01  4.27663E+01  4.62067E+01  4.04391E+01  4.26167E+01  3.63028E+01  3.75521E+01  3.17463E+01  3.33980E+01
   2.82110E+01  3.01869E+01  2.56369E+01  2.80533E+01  2.39121E+01  2.74930E+01  2.32355E+01  2.75688E+01  2.44659E+01  2.90522E+01
   2.72255E+01  3.08596E+01  2.94933E+01  3.10118E+01  2.96576E+01  2.93897E+01  2.85185E+01  2.74521E+01  2.77039E+01  2.66366E+01
   2.81666E+01  2.71338E+01  2.83910E+01  2.71535E+01  2.74799E+01  2.59972E+01  2.61248E+01  2.53893E+01  2.57140E+01  2.51279E+01
   2.51953E+01  2.42350E+01  2.32085E+01  2.17268E+01  2.04623E+01  1.89637E+01  1.79636E+01  1.68032E+01  1.60284E+01  1.50800E+01
   1.44288E+01  1.35428E+01  1.31572E+01  1.26000E+01  1.24698E+01  1.20037E+01  1.19788E+01  1.15445E+01  1.16043E+01  1.11617E+01
   1.12718E+01  1.07834E+01  1.08902E+01  1.04017E+01  1.07207E+01  1.06109E+01  1.08582E+01  1.10155E+01  1.10960E+01  1.14708E+01
   1.13691E+01  1.20510E+01  1.17094E+01  1.27097E+01  1.19974E+01  1.31627E+01  1.19050E+01  1.29913E+01  1.13734E+01  1.23015E+01
   1.14809E+01  1.47688E+01  1.43860E+01  1.90840E+01  1.86999E+01  2.47986E+01  2.43866E+01  3.25068E+01  3.16162E+01  4.14391E+01
   3.94583E+01  4.96557E+01  4.59665E+01  5.43906E+01  4.83383E+01  5.31287E+01  4.56599E+01  4.70440E+01  3.94988E+01  3.87448E+01
   3.20102E+01  2.99094E+01  2.45689E+01  2.23043E+01  1.99536E+01  1.84831E+01  1.80669E+01  1.80993E+01  1.98849E+01  2.37501E+01
   2.65015E+01  3.20182E+01  3.46392E+01  4.12380E+01  4.24061E+01  4.90400E+01  4.73241E+01  5.26798E+01  4.77123E+01  5.09518E+01
   4.38745E+01  4.50716E+01  3.75389E+01  3.72978E+01  3.02220E+01  2.90285E+01  2.31167E+01  2.14402E+01  1.64922E+01  1.44451E+01
   1.11115E+01  9.44409E+00  8.94538E+00  8.45395E+00  8.23514E+00  7.83474E+00  7.64399E+00  7.30194E+00  7.06631E+00  6.66916E+00
   6.42618E+00  5.93250E+00  5.74017E+00  5.25105E+00  5.01348E+00  4.51371E+00  4.26555E+00  3.77340E+00  3.52959E+00  3.08912E+00
   2.84275E+00  2.54817E+00  2.24424E+00  2.07891E+00  1.52469E+00  1.45337E+00  7.89254E-01  7.12005E-01 -1.21538E-02 -2.54272E-01
  -9.18260E-01 -1.24727E+00 -1.69737E+00 -2.07147E+00 -2.27329E+00 -2.80255E+00 -2.62234E+00 -3.29923E+00 -2.58325E+00 -3.18641E+00
  -2.03991E+00 -2.69521E+00 -1.44512E+00 -2.32125E+00 -1.19073E+00 -2.07248E+00 -1.22731E+00 -1.98537E+00 -1.09737E+00 -1.19071E+00
  -3.69014E-01  1.02009E-01  1.11903E+00  2.48451E+00  3.82847E+00  5.95355E+00  6.91423E+00  8.30833E+00  8.94552E+00  1.05030E+01
   1.05347E+01  1.11895E+01  1.00115E+01  9.39569E+00  7.71098E+00  6.73767E+00  4.08050E+00  4.06972E+00  1.55776E+00  3.50718E+00
   1.81089E+00  5.43877E+00  4.88857E+00  9.89174E+00  9.26660E+00  1.40356E+01  1.20182E+01  1.58761E+01  1.21105E+01  1.45838E+01
   1.06448E+01  1.33000E+01  1.01308E+01  1.21497E+01  9.87325E+00  1.13667E+01  1.03833E+01  1.29261E+01  1.29848E+01  1.50299E+01
   1.55059E+01  1.72102E+01  1.86879E+01  2.03228E+01  2.16140E+01  2.32285E+01  2.35745E+01  2.44968E+01  2.27956E+01  2.22261E+01
   1.93769E+01  1.87971E+01  1.58249E+01  1.57621E+01  1.38023E+01  1.46281E+01  1.39432E+01  1.66430E+01  2.07833E+01  2.58705E+01
   3.18080E+01  3.75025E+01  4.46176E+01  5.19463E+01  6.08488E+01  6.98005E+01  7.95589E+01  8.84652E+01  9.54999E+01  1.02453E+02
   1.04055E+02  1.07824E+02  1.02789E+02  1.03192E+02  9.31585E+01  9.12122E+01  7.92510E+01  7.60159E+01  6.38329E+01  6.02764E+01
   4.97542E+01  4.61576E+01  3.66430E+01  3.32705E+01  2.59813E+01  2.39682E+01  2.22924E+01  2.17401E+01  2.08507E+01  2.02775E+01
   1.98401E+01  1.91854E+01  1.87964E+01  1.82121E+01  1.78984E+01  1.73509E+01  1.70451E+01  1.65405E+01  1.62377E+01  1.58800E+01
   1.57618E+01  1.56437E+01  1.57247E+01  1.58709E+01  1.61900E+01  1.66352E+01  1.72303E+01  1.79806E+01  1.89183E+01  2.00329E+01
   2.13405E+01  2.28216E+01  2.44760E+01  2.62747E+01  2.81995E+01  3.02110E+01  3.22853E+01  3.43711E+01  3.64412E+01  3.84472E+01
   4.03670E+01  4.21678E+01  4.38534E+01  4.54557E+01  4.71477E+01  4.88617E+01  4.94490E+01  5.06896E+01  4.99798E+01  5.07239E+01
   4.85892E+01  4.87442E+01  4.47361E+01  4.51940E+01  3.96116E+01  3.99535E+01  3.28359E+01  3.28364E+01  2.50198E+01  2.51921E+01
   1.81591E+01  1.92004E+01  1.40383E+01  1.61204E+01  1.29871E+01  1.53938E+01  1.38854E+01  1.57493E+01  1.50373E+01  1.58926E+01
   1.58465E+01  1.61637E+01  1.67557E+01  1.68708E+01  1.67905E+01  1.62416E+01  1.58492E+01  1.46925E+01  1.39539E+01  1.24916E+01
   1.16013E+01  1.10622E+01  1.07057E+01  1.04638E+01  1.03002E+01  1.01923E+01  1.01244E+01  1.00843E+01  1.00625E+01  1.00509E+01
   1.00428E+01  1.00323E+01  1.00148E+01  9.98620E+00  9.94359E+00  9.88496E+00  9.80927E+00  9.71634E+00  9.60693E+00  9.48271E+00
   9.34612E+00  9.20024E+00  9.04864E+00  8.89523E+00  8.74416E+00  8.59971E+00  8.46613E+00  8.34748E+00  8.24753E+00  8.16971E+00
   8.11708E+00  8.09235E+00  8.09774E+00  8.13502E+00  8.20548E+00  8.30995E+00  8.44887E+00  8.62221E+00  8.82950E+00  9.06971E+00
   9.34129E+00  9.64218E+00  9.96980E+00  1.03209E+01  1.06918E+01  1.10779E+01  1.14741E+01  1.18749E+01  1.22742E+01  1.26655E+01
   1.30421E+01  1.33969E+01  1.37231E+01  1.40141E+01  1.42635E+01  1.44658E+01  1.46162E+01  1.47105E+01  1.47460E+01  1.47210E+01
   1.46351E+01  1.44889E+01  1.42844E+01  1.40247E+01  1.37139E+01  1.33569E+01  1.29595E+01  1.25275E+01  1.20675E+01  1.15859E+01
   1.10891E+01  1.05833E+01  1.00743E+01  9.56718E+00  9.06671E+00  8.57701E+00  8.10146E+00  7.64293E+00  7.20351E+00  6.78485E+00
   6.38793E+00  6.01345E+00  5.66155E+00  5.33220E+00  5.02486E+00  4.73897E+00  4.47366E+00  4.22811E+00  4.00127E+00  3.79219E+00
   3.59971E+00  3.42284E+00  3.26053E+00  3.11186E+00  2.97586E+00  2.85163E+00  2.73830E+00  2.63509E+00  2.54129E+00  2.45623E+00
   2.37929E+00  2.30985E+00  2.24737E+00  2.19137E+00  2.14142E+00  2.09714E+00  2.05809E+00  2.02396E+00  1.99436E+00  1.96911E+00
   1.94785E+00  1.93044E+00  1.91650E+00  1.90593E+00  1.89843E+00  1.89394E+00  1.89218E+00  1.89309E+00  1.89640E+00  1.90206E+00
   1.90987E+00  1.91980E+00  1.93167E+00  1.94542E+00  1.96089E+00  1.97800E+00  1.99669E+00  2.01688E+00  2.03848E+00  2.06140E+00
   2.08555E+00  2.11089E+00  2.13738E+00  2.16495E+00  2.19353E+00  2.22305E+00  2.25347E+00  2.28476E+00  2.31688E+00  2.34980E+00
   2.38345E+00  2.41780E+00  2.45283E+00  2.48854E+00  2.52492E+00  2.56195E+00  2.59960E+00  2.63790E+00
 NY background values follow
     9.407E+00    9.355E+00    9.303E+00    9.251E+00    9.198E+00    9.146E+00    9.094E+00    9.042E+00    8.990E+00    8.938E+00
     8.886E+00    8.834E+00    8.782E+00    8.730E+00    8.679E+00    8.627E+00    8.576E+00    8.524E+00    8.473E+00    8.422E+00
     8.371E+00    8.320E+00    8.269E+00    8.219E+00    8.168E+00    8.118E+00    8.068E+00    8.018E+00    7.969E+00    7.920E+00
     7.871E+00    7.822E+00    7.773E+00    7.725E+00    7.677E+00    7.629E+00    7.581E+00    7.534E+00    7.487E+00    7.441E+00
     7.394E+00    7.348E+00    7.303E+00    7.258E+00    7.213E+00    7.168E+00    7.124E+00    7.080E+00    7.037E+00    6.994E+00
     6.951E+00    6.909E+00    6.867E+00    6.826E+00    6.785E+00    6.745E+00    6.705E+00    6.665E+00    6.626E+00    6.587E+00
     6.549E+00    6.511E+00    6.474E+00    6.437E+00    6.400E+00    6.364E+00    6.329E+00    6.294E+00    6.260E+00    6.226E+00
     6.192E+00    6.159E+00    6.127E+00    6.095E+00    6.064E+00    6.033E+00    6.002E+00    5.973E+00    5.943E+00    5.915E+00
     5.887E+00    5.859E+00    5.832E+00    5.806E+00    5.780E+00    5.755E+00    5.730E+00    5.706E+00    5.683E+00    5.660E+00
     5.637E+00    5.616E+00    5.595E+00    5.574E+00    5.555E+00    5.536E+00    5.517E+00    5.499E+00    5.482E+00    5.465E+00
     5.449E+00    5.434E+00    5.419E+00    5.405E+00    5.392E+00    5.379E+00    5.367E+00    5.355E+00    5.344E+00    5.334E+00
     5.324E+00    5.315E+00    5.307E+00    5.299E+00    5.292E+00    5.286E+00    5.280E+00    5.275E+00    5.271E+00    5.267E+00
     5.264E+00    5.262E+00    5.260E+00    5.259E+00    5.258E+00    5.259E+00    5.260E+00    5.261E+00    5.264E+00    5.266E+00
     5.270E+00    5.274E+00    5.279E+00    5.285E+00    5.291E+00    5.298E+00    5.306E+00    5.315E+00    5.324E+00    5.333E+00
     5.344E+00    5.355E+00    5.367E+00    5.379E+00    5.392E+00    5.406E+00    5.420E+00    5.435E+00    5.450E+00    5.466E+00
     5.483E+00    5.500E+00    5.518E+00    5.537E+00    5.556E+00    5.576E+00    5.596E+00    5.617E+00    5.638E+00    5.660E+00
     5.683E+00    5.706E+00    5.729E+00    5.753E+00    5.778E+00    5.803E+00    5.829E+00    5.855E+00    5.882E+00    5.909E+00
     5.937E+00    5.965E+00    5.993E+00    6.023E+00    6.052E+00    6.082E+00    6.113E+00    6.144E+00    6.175E+00    6.207E+00
     6.239E+00    6.272E+00    6.305E+00    6.339E+00    6.373E+00    6.407E+00    6.441E+00    6.476E+00    6.511E+00    6.547E+00
     6.582E+00    6.618E+00    6.654E+00    6.691E+00    6.727E+00    6.763E+00    6.800E+00    6.837E+00    6.873E+00    6.910E+00
     6.947E+00    6.984E+00    7.021E+00    7.057E+00    7.094E+00    7.130E+00    7.167E+00    7.203E+00    7.239E+00    7.275E+00
     7.310E+00    7.346E+00    7.381E+00    7.416E+00    7.450E+00    7.485E+00    7.518E+00    7.552E+00    7.585E+00    7.618E+00
     7.650E+00    7.682E+00    7.713E+00    7.744E+00    7.774E+00    7.804E+00    7.833E+00    7.861E+00    7.889E+00    7.917E+00
     7.943E+00    7.969E+00    7.994E+00    8.019E+00    8.043E+00    8.066E+00    8.088E+00    8.110E+00    8.131E+00    8.151E+00
     8.170E+00    8.188E+00    8.206E+00    8.222E+00    8.238E+00    8.253E+00    8.267E+00    8.280E+00    8.292E+00    8.303E+00
     8.314E+00    8.323E+00    8.331E+00    8.338E+00    8.344E+00    8.349E+00    8.353E+00    8.356E+00    8.358E+00    8.359E+00
     8.358E+00    8.356E+00    8.354E+00    8.349E+00    8.344E+00    8.338E+00    8.330E+00    8.321E+00    8.311E+00    8.299E+00
     8.287E+00    8.272E+00    8.257E+00    8.240E+00    8.222E+00    8.202E+00    8.182E+00    8.159E+00    8.136E+00    8.111E+00
     8.084E+00    8.057E+00    8.027E+00    7.997E+00    7.965E+00    7.932E+00    7.897E+00    7.861E+00    7.823E+00    7.785E+00
     7.744E+00    7.702E+00    7.659E+00    7.615E+00    7.569E+00    7.521E+00    7.472E+00    7.422E+00    7.370E+00    7.317E+00
     7.262E+00    7.206E+00    7.148E+00    7.089E+00    7.028E+00    6.966E+00    6.902E+00    6.837E+00    6.771E+00    6.703E+00
     6.633E+00    6.562E+00    6.489E+00    6.415E+00    6.339E+00    6.262E+00    6.184E+00    6.103E+00    6.022E+00    5.938E+00
     5.854E+00    5.768E+00    5.681E+00    5.592E+00    5.503E+00    5.412E+00    5.320E+00    5.227E+00    5.134E+00    5.039E+00
     4.944E+00    4.847E+00    4.750E+00    4.653E+00    4.554E+00    4.455E+00    4.356E+00    4.256E+00    4.156E+00    4.055E+00
     3.954E+00    3.853E+00    3.751E+00    3.649E+00    3.548E+00    3.446E+00    3.344E+00    3.243E+00    3.141E+00    3.040E+00
     2.939E+00    2.838E+00    2.737E+00    2.637E+00    2.537E+00    2.438E+00    2.340E+00    2.242E+00    2.144E+00    2.048E+00
     1.952E+00    1.857E+00    1.762E+00    1.669E+00    1.577E+00    1.486E+00    1.395E+00    1.306E+00    1.218E+00    1.130E+00
     1.044E+00    9.595E-01    8.757E-01    7.931E-01    7.117E-01    6.316E-01    5.527E-01    4.751E-01    3.988E-01    3.239E-01
     2.504E-01    1.782E-01    1.075E-01    3.826E-02   -2.952E-02   -9.579E-02   -1.605E-01   -2.237E-01   -2.853E-01   -3.452E-01
    -4.036E-01   -4.602E-01   -5.152E-01   -5.684E-01   -6.199E-01   -6.696E-01   -7.175E-01   -7.636E-01   -8.078E-01   -8.501E-01
    -8.906E-01   -9.290E-01   -9.655E-01   -1.000E+00   -1.033E+00   -1.063E+00   -1.091E+00   -1.118E+00   -1.142E+00   -1.164E+00
    -1.184E+00   -1.202E+00   -1.218E+00   -1.232E+00   -1.244E+00   -1.255E+00   -1.263E+00   -1.270E+00   -1.275E+00   -1.278E+00
    -1.279E+00   -1.278E+00   -1.276E+00   -1.272E+00   -1.267E+00   -1.260E+00   -1.251E+00   -1.241E+00   -1.230E+00   -1.217E+00
    -1.202E+00   -1.186E+00   -1.169E+00   -1.150E+00   -1.130E+00   -1.109E+00   -1.086E+00   -1.063E+00   -1.038E+00   -1.011E+00
    -9.841E-01   -9.557E-01   -9.262E-01   -8.957E-01   -8.641E-01   -8.315E-01   -7.980E-01   -7.636E-01   -7.282E-01   -6.920E-01
    -6.549E-01   -6.170E-01   -5.784E-01   -5.390E-01   -4.988E-01   -4.580E-01   -4.164E-01   -3.742E-01   -3.313E-01   -2.878E-01
    -2.436E-01   -1.989E-01   -1.536E-01   -1.077E-01   -6.127E-02   -1.434E-02    3.310E-02    8.102E-02    1.294E-01    1.782E-01
     2.275E-01    2.771E-01    3.272E-01    3.776E-01    4.283E-01    4.794E-01    5.308E-01    5.824E-01    6.344E-01    6.866E-01
     7.390E-01    7.916E-01    8.444E-01    8.974E-01    9.506E-01    1.004E+00    1.057E+00    1.111E+00    1.164E+00    1.218E+00
     1.272E+00    1.325E+00    1.379E+00    1.433E+00    1.486E+00    1.540E+00    1.593E+00    1.647E+00
 Ala      Conc. = 2.31E+03
