 LCModel (Version 6.3-1L) Copyright: S.W. Provencher.          Ref.: Magn. Reson. Med. 30:672-679 (1993).                
 Slice#2 Row#2 Col#6  PD_24_press_2_raw_act
 36 lines in following concentration table = NCONC+1
    Conc.  %SD /Cr+PCr  Metabolite                                         
   44.212 159%   0.239 Ala                                                 
   41.424 188%   0.224 Asp                                                 
  185.277  27%   1.000 Cr                                                  
    0.000 999%   0.000 PCr                                                 
   31.603 145%   0.171 GABA                                                
   53.769  89%   0.290 Glc                                                 
    0.000 999%   0.000 Gln                                                 
  496.773  34%   2.681 Glu                                                 
   82.191  25%   0.444 GPC                                                 
    0.000 999%   0.000 PCh                                                 
   20.404 286%   0.110 GSH                                                 
  246.834  75%   1.332 Ins                                                 
   26.108 285%   0.141 Lac                                                 
  456.860  17%   2.466 NAA                                                 
  291.702  24%   1.574 NAAG                                                
   12.295 113% 6.6E-02 Scyllo                                              
   45.742 167%   0.247 Tau                                                 
    0.000 999%   0.000 -CrCH2                                              
   82.191  25%   0.444 GPC+PCh                                             
  748.562  15%   4.040 NAA+NAAG                                            
  185.277  27%   1.000 Cr+PCr                                              
  496.773  34%   2.681 Glu+Gln                                             
    0.000 999%   0.000 Lip13a                                              
    0.000 999%   0.000 Lip13b                                              
    0.000 999%   0.000 Lip09                                               
    0.000 999%   0.000 MM09                                                
    0.000 999%   0.000 Lip20                                               
    0.000 999%   0.000 MM20                                                
    0.000 999%   0.000 MM12                                                
 1.14E-02 999% 6.2E-05 MM14                                                
    0.786 719% 4.2E-03 MM17                                                
    0.000 999%   0.000 Lip13a+Lip13b                                       
 1.14E-02 999% 6.2E-05 MM14+Lip13a+Lip13b+MM12                             
    0.000 999%   0.000 MM09+Lip09                                          
    0.000 999%   0.000 MM20+Lip20                                          
   6 lines in following misc. output table
  FWHM = 0.038 ppm    S/N =   2                                            
  Data shift = 0.015 ppm                                                   
  Ph: -87 deg      10.0 deg/ppm                                            
  alphaB,S = 9.6E-01,   1.1E+01                                            
   14 spline knots.   Ns = 6(1)                                            
  ( 6) 4 infls.   ( 8) 2 extrs.                                            
  498 points on ppm-axis = NY
      4.000000     3.992357     3.984714     3.977070     3.969427     3.961784     3.954141     3.946497     3.938854     3.931211
      3.923568     3.915925     3.908281     3.900638     3.892995     3.885352     3.877708     3.870065     3.862422     3.854779
      3.847136     3.839492     3.831849     3.824206     3.816563     3.808919     3.801276     3.793633     3.785990     3.778347
      3.770703     3.763060     3.755417     3.747774     3.740130     3.732487     3.724844     3.717201     3.709558     3.701914
      3.694271     3.686628     3.678985     3.671341     3.663698     3.656055     3.648412     3.640769     3.633125     3.625482
      3.617839     3.610196     3.602552     3.594909     3.587266     3.579623     3.571980     3.564336     3.556693     3.549050
      3.541407     3.533763     3.526120     3.518477     3.510834     3.503191     3.495547     3.487904     3.480261     3.472618
      3.464974     3.457331     3.449688     3.442045     3.434402     3.426758     3.419115     3.411472     3.403829     3.396185
      3.388542     3.380899     3.373256     3.365613     3.357969     3.350326     3.342683     3.335040     3.327396     3.319753
      3.312110     3.304467     3.296824     3.289180     3.281537     3.273894     3.266251     3.258607     3.250964     3.243321
      3.235678     3.228034     3.220391     3.212748     3.205105     3.197462     3.189818     3.182175     3.174532     3.166889
      3.159245     3.151602     3.143959     3.136316     3.128673     3.121029     3.113386     3.105743     3.098100     3.090456
      3.082813     3.075170     3.067527     3.059884     3.052240     3.044597     3.036954     3.029311     3.021667     3.014024
      3.006381     2.998738     2.991095     2.983451     2.975808     2.968165     2.960522     2.952878     2.945235     2.937592
      2.929949     2.922306     2.914662     2.907019     2.899376     2.891733     2.884089     2.876446     2.868803     2.861160
      2.853517     2.845873     2.838230     2.830587     2.822944     2.815300     2.807657     2.800014     2.792371     2.784728
      2.777084     2.769441     2.761798     2.754155     2.746511     2.738868     2.731225     2.723582     2.715939     2.708295
      2.700652     2.693009     2.685366     2.677722     2.670079     2.662436     2.654793     2.647150     2.639506     2.631863
      2.624220     2.616577     2.608933     2.601290     2.593647     2.586004     2.578361     2.570717     2.563074     2.555431
      2.547788     2.540144     2.532501     2.524858     2.517215     2.509572     2.501928     2.494285     2.486642     2.478999
      2.471355     2.463712     2.456069     2.448426     2.440783     2.433139     2.425496     2.417853     2.410210     2.402566
      2.394923     2.387280     2.379637     2.371994     2.364350     2.356707     2.349064     2.341421     2.333777     2.326134
      2.318491     2.310848     2.303205     2.295561     2.287918     2.280275     2.272632     2.264988     2.257345     2.249702
      2.242059     2.234416     2.226772     2.219129     2.211486     2.203843     2.196199     2.188556     2.180913     2.173270
      2.165627     2.157983     2.150340     2.142697     2.135054     2.127410     2.119767     2.112124     2.104481     2.096838
      2.089194     2.081551     2.073908     2.066265     2.058621     2.050978     2.043335     2.035692     2.028049     2.020405
      2.012762     2.005119     1.997476     1.989833     1.982190     1.974546     1.966903     1.959260     1.951617     1.943974
      1.936331     1.928688     1.921045     1.913402     1.905759     1.898115     1.890472     1.882829     1.875186     1.867543
      1.859900     1.852257     1.844614     1.836971     1.829327     1.821684     1.814041     1.806398     1.798755     1.791112
      1.783469     1.775826     1.768183     1.760540     1.752896     1.745253     1.737610     1.729967     1.722324     1.714681
      1.707038     1.699395     1.691752     1.684108     1.676465     1.668822     1.661179     1.653536     1.645893     1.638250
      1.630607     1.622964     1.615321     1.607677     1.600034     1.592391     1.584748     1.577105     1.569462     1.561819
      1.554176     1.546533     1.538890     1.531246     1.523603     1.515960     1.508317     1.500674     1.493031     1.485388
      1.477745     1.470102     1.462458     1.454815     1.447172     1.439529     1.431886     1.424243     1.416600     1.408957
      1.401314     1.393671     1.386027     1.378384     1.370741     1.363098     1.355455     1.347812     1.340169     1.332526
      1.324883     1.317240     1.309596     1.301953     1.294310     1.286667     1.279024     1.271381     1.263738     1.256095
      1.248452     1.240808     1.233165     1.225522     1.217879     1.210236     1.202593     1.194950     1.187307     1.179664
      1.172021     1.164377     1.156734     1.149091     1.141448     1.133805     1.126162     1.118519     1.110876     1.103233
      1.095590     1.087946     1.080303     1.072660     1.065017     1.057374     1.049731     1.042088     1.034445     1.026802
      1.019158     1.011515     1.003872     0.996229     0.988586     0.980943     0.973300     0.965657     0.958014     0.950371
      0.942727     0.935084     0.927441     0.919798     0.912155     0.904512     0.896869     0.889226     0.881583     0.873940
      0.866296     0.858653     0.851010     0.843367     0.835724     0.828081     0.820438     0.812795     0.805152     0.797508
      0.789865     0.782222     0.774579     0.766936     0.759293     0.751650     0.744007     0.736364     0.728721     0.721077
      0.713434     0.705791     0.698148     0.690505     0.682862     0.675219     0.667576     0.659933     0.652290     0.644646
      0.637003     0.629360     0.621717     0.614074     0.606431     0.598788     0.591145     0.583502     0.575858     0.568215
      0.560572     0.552929     0.545286     0.537643     0.530000     0.522357     0.514714     0.507071     0.499427     0.491784
      0.484141     0.476498     0.468855     0.461212     0.453569     0.445925     0.438282     0.430639     0.422996     0.415353
      0.407710     0.400067     0.392424     0.384780     0.377137     0.369494     0.361851     0.354208     0.346565     0.338922
      0.331278     0.323635     0.315992     0.308349     0.300706     0.293063     0.285420     0.277777     0.270133     0.262490
      0.254847     0.247204     0.239561     0.231918     0.224275     0.216631     0.208988     0.201345
 NY phased data points follow
   4.07924E+01  1.54885E+01  3.00610E+01  2.47672E+01  3.15301E+01  2.83552E+01  2.45142E+01  2.58549E+01  3.42363E+01  4.28632E+01
   5.35082E+01  2.71701E+01  3.65062E+01  2.87488E+01  3.48951E+01  1.82276E+01  1.77164E+01  2.48644E+01  3.51236E+01  1.58701E+01
   2.25682E+01  2.63269E+01  3.67481E+01  2.13954E+01  3.37738E+01  7.33798E+00  2.53087E+01  3.43455E+01  3.56829E+01  2.56141E+01
   2.36661E+01  1.21637E+01  2.31876E+01  2.25085E+01  2.81487E+01  3.08399E+01  2.74205E+01  3.14095E+01  3.17617E+01  1.75280E+01
   2.17707E+01  2.11185E+01  2.56947E+01  2.66345E+01  3.25537E+01  1.65615E+01  2.04294E+01  1.93836E+01  3.23009E+01  3.00409E+01
   3.00883E+01  2.38897E+01  2.50794E+01  1.31947E+01  1.83825E+01  1.68171E+01  3.45217E+01  2.58917E+01  3.49127E+01  3.17467E+01
   2.29809E+01  1.64203E+01  1.44509E+01  5.49304E+00  2.36966E+01  1.50342E+01  2.26460E+01  2.25466E+01  1.32308E+01  2.13824E+01
   2.75514E+01  1.59909E+01  2.86973E+01  2.47262E+01  2.50794E+01  2.30526E+01  3.29562E+01  3.97543E+01  2.79634E+01  2.49933E+01
   2.47761E+01  1.52239E+01  2.70659E+01  2.24566E+01  2.13687E+01  1.62974E+01  1.35590E+01  1.95771E+01  2.91723E+01  2.87077E+01
   1.48084E+01  1.45915E+01  1.94265E+01  1.40356E+01  1.73119E+01  1.07265E+01  1.93131E+01  1.65515E+01  2.02155E+01  1.61583E+01
   2.75661E+01  2.88407E+01  4.16973E+01  3.16763E+01  3.83923E+01  3.03789E+01  2.36179E+01  7.45046E+00  1.80619E+01 -1.84223E+00
   8.19966E+00  1.58920E+01  1.07067E+01  3.96876E+00  1.71665E+01  1.34589E+01  1.82407E+01  1.00038E+01  1.45486E+01  2.36041E+01
   2.44836E+01  2.16915E+01  2.29773E+01  1.76844E+01  1.03015E+01  3.15217E+01  3.41374E+01  1.49629E+01  3.43403E+01  2.53341E+01
   2.00363E+01  1.05097E+01  1.68271E+01 -1.04731E+01  8.15751E+00  4.71208E+00  9.21624E+00 -1.10610E+01  8.50858E+00  1.23008E+01
   2.84727E+01 -4.79538E+00  1.85458E+01  1.72120E+01  1.79135E+01  4.06707E+00  1.14488E+01  4.03321E+00  1.48880E+01  1.68025E+01
   1.65758E+01  1.42381E+01  1.30610E+01  1.28147E+00  2.06599E+01 -2.58696E+00  1.43094E+01  1.63663E+01  2.35551E+01  8.11347E+00
   1.61142E+01  1.66409E+01  2.13343E+00  8.07897E+00  6.22131E+00  1.26491E+01  1.51559E+01  9.21965E+00  5.20121E+00  1.68186E+01
   4.17686E+00  1.24217E+01 -1.34160E+00  4.84792E+00 -6.77021E+00 -7.59953E+00  1.29918E+01  4.72077E+00  1.27774E+01  1.05662E+01
   1.00832E+01  1.55963E+01  3.70587E+00  2.30302E+01  6.19851E+00  5.91689E+00  5.02445E+00  6.10940E+00  1.06733E+01  1.42235E+01
   1.16861E+01  6.36521E+00  6.65712E+00  6.65473E+00  9.74291E+00  7.61799E+00 -9.53012E-01 -6.01461E+00  1.49844E+01 -6.16473E-01
   1.54474E+00  1.06426E+01  1.65763E+01  8.74576E+00 -1.53274E-01  6.83033E+00  7.19906E+00  2.49650E+00 -7.04245E-01  3.67921E-01
   2.57706E-02  3.07214E+00  2.35282E+01  6.66377E+00  2.07079E+01  1.45614E+01  9.00918E+00  1.89703E+00  1.21955E+01  9.90371E-01
  -4.23214E+00 -6.05376E+00 -7.95015E+00 -2.27518E+00 -1.62234E+01  1.05069E+01  1.17399E+00  6.01076E+00  1.91400E+01 -9.45013E-01
   6.65806E+00  9.08255E+00  9.23707E+00 -1.76383E+00  1.00983E+00 -4.94184E+00  1.21594E+01  9.76982E+00 -1.48014E+00  1.07316E+01
  -5.62927E-01 -2.62653E+00  9.89314E+00  1.31713E+01  3.56171E+00  5.13794E+00  9.33714E+00  7.52502E+00  8.66762E+00 -1.01913E+01
  -5.17850E+00  4.05690E+00  1.13709E+01  1.66379E+01  2.54415E+01  2.28097E+01  2.55267E+01  3.15699E+01  5.64643E+01  5.58575E+01
   3.78142E+01  2.89762E+01  2.12958E+01  1.41643E+01  5.42033E-01 -4.02561E+00 -8.02991E+00 -1.38358E+01 -6.64162E+00 -5.24639E+00
   5.40428E+00 -5.36191E+00  4.13439E+00 -9.46738E+00  6.54441E+00 -4.42889E+00 -8.04478E-01  1.37838E+01  6.07819E+00 -4.61712E+00
  -1.00344E+00 -3.26927E+00  6.07334E+00  2.17955E+00  4.82696E+00 -2.24853E+00  9.73356E+00  3.16837E+00  1.27401E+01  6.27565E+00
   1.45412E+01  1.30443E+01  1.02790E+01 -3.93301E-01  6.90458E+00  9.44764E+00  1.62324E+01  1.34366E+01  2.11661E+01  1.61807E+01
   2.36582E+01  2.45016E+01  2.18605E+01  2.52982E+01  3.06909E+01  2.99030E+01  3.02857E+01  1.50702E+01  2.23801E+01  2.88581E+01
   4.11311E+01  2.10435E+01  3.02019E+01  2.74054E+01  2.37287E+01  2.83800E+01  2.09032E+01  2.16424E+01  1.82143E+01  2.08330E+01
   3.36323E+00  1.65563E+01  9.11845E+00  1.20857E+01  7.18200E+00  4.23106E+00  9.54926E+00  4.85907E+00  1.05316E+01  6.86566E+00
  -3.02109E+00  1.70812E+01  1.17552E+01 -4.32588E+00  4.06283E+00 -8.07117E+00  9.58319E+00  7.94877E+00  1.37391E+01  1.63023E+01
   1.21515E+01  9.71871E+00 -2.15631E-01 -6.15348E+00  1.07960E+01  1.94535E+01  1.43279E+01  5.56948E+00  1.59538E+01 -2.53382E+00
   1.45984E+00  3.61053E+00  1.69282E+01 -7.66570E+00  9.80823E+00  8.18050E+00  2.30541E+00 -2.90668E+00  1.72850E+01 -3.93784E+00
  -2.30411E+00  2.43753E+00  7.46847E+00  3.46567E+00  1.16814E+01 -1.52058E+00  1.48196E+01  1.04003E+01 -3.05627E-01 -2.92701E+00
   6.27864E+00  1.86665E+00  3.12260E+00  9.56079E+00 -2.90644E+00  1.67923E+00  1.24428E+01 -4.30867E+00  7.69640E-01  5.70473E-01
  -2.50363E+00  1.37000E+01  1.02303E+01  1.90627E+01  2.22005E+00 -1.53497E+00  2.02292E-01  8.95508E+00 -1.63652E-01 -9.13601E-01
   7.97008E+00 -3.53934E+00 -9.84400E+00  1.91404E+01  3.16332E+00 -1.71898E+01  1.47220E+00  2.21919E+00 -8.30880E-01 -2.34760E+01
   9.72360E+00 -6.26076E+00 -5.91149E+00 -1.40592E+01  3.44061E+00 -2.15190E+00  7.26774E+00  8.64594E+00 -2.15326E+00  6.11711E+00
  -5.07067E+00 -6.51678E+00  1.46904E+01 -6.79718E+00  3.08686E+00 -9.29432E+00 -4.10407E+00  1.19678E+00 -5.80142E+00  3.76028E+00
  -1.65141E+00  1.51819E+00 -7.27553E+00 -2.01432E+00 -3.06908E+00 -6.44081E+00 -2.19292E+00 -6.79049E+00 -1.12713E+01 -9.95549E+00
  -2.28322E+00 -9.13968E+00 -8.87314E+00 -5.38318E+00 -1.20486E+01 -1.09784E+01  4.68949E+00  1.04149E+01 -9.86174E+00  3.80872E+00
  -1.35624E+01 -6.36940E+00 -9.09666E+00  2.35970E+00  6.49732E+00  1.04961E+00 -3.11649E+00 -6.60094E+00 -4.41162E-02 -9.77659E+00
  -8.22102E+00  1.28559E+01  1.49158E+00 -7.36289E+00 -8.21092E+00 -4.17692E-01  3.45128E+00 -8.01761E+00  5.30315E+00  1.63410E+00
  -1.13677E+01 -6.15664E+00  1.33641E+01 -1.46286E+01  5.25237E+00  4.28825E+00 -7.66442E-03  3.71724E+00 -1.06744E+01  7.80319E-01
   1.40609E+00 -1.45683E+01 -3.62304E+00 -2.42403E+00 -3.16555E+00  3.27383E+00  4.45989E+00 -8.69715E+00  9.87505E+00 -3.57098E+00
   8.79145E+00 -1.11176E+00  5.96103E-01  4.87460E-01 -8.63211E+00 -1.18958E+00  8.17191E+00  5.92686E+00  3.19762E+00 -5.89300E+00
  -2.59994E+00  2.71295E+00 -4.05967E-01  7.55465E-01  3.28689E-01 -8.47314E-01  5.65748E+00 -3.19052E+00
 NY points of the fit to the data follow
   2.53509E+01  2.53381E+01  2.54471E+01  2.57471E+01  2.59456E+01  2.62772E+01  2.74650E+01  2.96963E+01  3.27344E+01  3.53898E+01
   3.61674E+01  3.51281E+01  3.34576E+01  3.14076E+01  2.84538E+01  2.47775E+01  2.16532E+01  2.04674E+01  2.17420E+01  2.38914E+01
   2.49189E+01  2.54611E+01  2.58959E+01  2.60918E+01  2.57672E+01  2.48032E+01  2.36993E+01  2.31591E+01  2.33077E+01  2.40063E+01
   2.52006E+01  2.66904E+01  2.78690E+01  2.81078E+01  2.72532E+01  2.54736E+01  2.34776E+01  2.18543E+01  2.07846E+01  2.05174E+01
   2.12131E+01  2.25198E+01  2.39375E+01  2.52334E+01  2.65599E+01  2.75012E+01  2.75442E+01  2.69280E+01  2.59191E+01  2.46513E+01
   2.31643E+01  2.14616E+01  1.99209E+01  1.92805E+01  1.97895E+01  2.08747E+01  2.18980E+01  2.26805E+01  2.31557E+01  2.31952E+01
   2.28434E+01  2.22672E+01  2.16202E+01  2.09690E+01  2.03425E+01  1.98591E+01  1.97931E+01  2.01361E+01  2.06321E+01  2.11276E+01
   2.14504E+01  2.15561E+01  2.15463E+01  2.15003E+01  2.13263E+01  2.09173E+01  2.03913E+01  1.98455E+01  1.93648E+01  1.90651E+01
   1.89339E+01  1.90397E+01  1.94322E+01  1.98886E+01  1.99458E+01  1.94240E+01  1.86165E+01  1.78887E+01  1.73111E+01  1.67960E+01
   1.63575E+01  1.61663E+01  1.63523E+01  1.67996E+01  1.69442E+01  1.64940E+01  1.57911E+01  1.58438E+01  1.79891E+01  2.25254E+01
   2.88737E+01  3.45165E+01  3.65593E+01  3.51818E+01  3.24315E+01  2.85466E+01  2.27357E+01  1.56222E+01  9.73941E+00  7.63421E+00
   1.00455E+01  1.37317E+01  1.51633E+01  1.55596E+01  1.56304E+01  1.55615E+01  1.53641E+01  1.50706E+01  1.47220E+01  1.43270E+01
   1.39148E+01  1.41111E+01  1.59253E+01  1.95941E+01  2.46866E+01  2.92533E+01  3.10161E+01  3.00781E+01  2.80366E+01  2.50549E+01
   2.04769E+01  1.48703E+01  1.01421E+01  8.25498E+00  9.86814E+00  1.25239E+01  1.35986E+01  1.40268E+01  1.43230E+01  1.45539E+01
   1.47490E+01  1.48960E+01  1.49417E+01  1.48922E+01  1.47378E+01  1.45248E+01  1.43678E+01  1.42802E+01  1.41817E+01  1.39904E+01
   1.36966E+01  1.33712E+01  1.31271E+01  1.31137E+01  1.32927E+01  1.34708E+01  1.34964E+01  1.32720E+01  1.28374E+01  1.24481E+01
   1.22526E+01  1.21209E+01  1.19906E+01  1.19296E+01  1.19132E+01  1.19631E+01  1.19625E+01  1.16366E+01  1.11036E+01  1.07515E+01
   1.06241E+01  1.05150E+01  1.03857E+01  1.01633E+01  9.99962E+00  1.00223E+01  9.94230E+00  9.58072E+00  9.26127E+00  9.31030E+00
   9.66982E+00  1.00431E+01  1.00373E+01  9.68725E+00  9.57351E+00  1.01378E+01  1.11009E+01  1.19046E+01  1.21932E+01  1.21709E+01
   1.21564E+01  1.21874E+01  1.20350E+01  1.15598E+01  1.08711E+01  1.02488E+01  9.92766E+00  9.88178E+00  1.00871E+01  1.04050E+01
   1.07703E+01  1.12263E+01  1.16657E+01  1.18480E+01  1.15695E+01  1.07152E+01  9.47448E+00  7.98309E+00  6.33012E+00  5.01903E+00
   4.80979E+00  6.27545E+00  9.14834E+00  1.26398E+01  1.53375E+01  1.62092E+01  1.53084E+01  1.27465E+01  8.62095E+00  3.37454E+00
  -1.46688E+00 -3.66263E+00 -2.38133E+00  1.22044E+00  5.22536E+00  8.69993E+00  1.17029E+01  1.34542E+01  1.31702E+01  1.10372E+01
   8.50360E+00  7.12010E+00  6.95625E+00  7.24908E+00  7.71861E+00  8.11807E+00  8.17484E+00  7.56150E+00  6.11228E+00  4.33870E+00
   2.97577E+00  2.45957E+00  2.88949E+00  3.81783E+00  4.72213E+00  5.34360E+00  5.49509E+00  4.72285E+00  2.87277E+00  5.98575E-01
  -1.21170E-01  2.39266E+00  8.20762E+00  1.58109E+01  2.24785E+01  2.79813E+01  3.44039E+01  4.34500E+01  5.10820E+01  5.06017E+01
   4.22231E+01  3.27096E+01  2.60240E+01  2.02620E+01  1.06056E+01 -9.81886E-01 -7.69707E+00 -5.69531E+00  1.10372E+00  4.72711E+00
   6.28473E+00  7.37569E+00  8.18840E+00  8.66806E+00  8.94964E+00  9.00911E+00  8.85823E+00  8.52207E+00  8.08151E+00  7.67970E+00
   7.49418E+00  7.57561E+00  7.77136E+00  7.91734E+00  7.95518E+00  7.91184E+00  7.79994E+00  7.62170E+00  7.41798E+00  7.29098E+00
   7.27702E+00  7.31243E+00  7.33661E+00  7.37090E+00  7.37773E+00  7.30778E+00  7.14827E+00  6.93920E+00  6.75315E+00  6.65091E+00
   6.60142E+00  6.57425E+00  6.57139E+00  6.58452E+00  6.59141E+00  6.56544E+00  6.49621E+00  6.41658E+00  6.34628E+00  6.28073E+00
   6.22221E+00  6.16800E+00  6.11434E+00  6.06086E+00  6.00837E+00  5.95772E+00  5.91002E+00  5.86689E+00  5.83131E+00  5.80985E+00
   5.82033E+00  5.92367E+00  6.17227E+00  6.49282E+00  6.75336E+00  6.73072E+00  6.29274E+00  5.60236E+00  4.86001E+00  4.05440E+00
   3.25687E+00  2.72042E+00  2.79828E+00  3.59648E+00  4.73475E+00  5.59501E+00  5.99448E+00  6.23068E+00  6.28592E+00  6.02939E+00
   5.49570E+00  4.93422E+00  4.71646E+00  4.92798E+00  5.16750E+00  5.19529E+00  4.94521E+00  4.52233E+00  4.04943E+00  3.55038E+00
   3.07707E+00  2.78624E+00  2.87734E+00  3.35579E+00  3.97342E+00  4.41576E+00  4.60303E+00  4.67980E+00  4.61334E+00  4.35666E+00
   3.96767E+00  3.60358E+00  3.44562E+00  3.44706E+00  3.43729E+00  3.40775E+00  3.36915E+00  3.32591E+00  3.27993E+00  3.23231E+00
   3.18380E+00  3.13489E+00  3.08574E+00  3.03630E+00  2.98657E+00  2.93670E+00  2.88694E+00  2.83737E+00  2.78789E+00  2.73833E+00
   2.68868E+00  2.63910E+00  2.58977E+00  2.54066E+00  2.49159E+00  2.44245E+00  2.39329E+00  2.34432E+00  2.29562E+00  2.24709E+00
   2.19854E+00  2.14994E+00  2.10140E+00  2.05312E+00  2.00508E+00  1.95714E+00  1.90915E+00  1.86114E+00  1.81329E+00  1.76572E+00
   1.71835E+00  1.67101E+00  1.62360E+00  1.57626E+00  1.52915E+00  1.48230E+00  1.43559E+00  1.38885E+00  1.34210E+00  1.29549E+00
   1.24915E+00  1.20303E+00  1.15696E+00  1.11085E+00  1.06479E+00  1.01894E+00  9.73363E-01  9.27940E-01  8.82510E-01  8.37055E-01
   7.91712E-01  7.46618E-01  7.01751E-01  6.56958E-01  6.12131E-01  5.67332E-01  5.22720E-01  4.78369E-01  4.34184E-01  3.90010E-01
   3.45805E-01  3.01690E-01  2.57810E-01  2.14170E-01  1.70626E-01  1.27057E-01  8.34972E-02  4.00952E-02 -3.05759E-03 -4.60284E-02
  -8.89660E-02 -1.31927E-01 -1.74813E-01 -2.17485E-01 -2.59917E-01 -3.02232E-01 -3.44560E-01 -3.86893E-01 -4.29095E-01 -4.71059E-01
  -5.12829E-01 -5.54551E-01 -5.96302E-01 -6.38005E-01 -6.79512E-01 -7.20782E-01 -7.61921E-01 -8.03067E-01 -8.44234E-01 -8.85302E-01
  -9.26156E-01 -9.66823E-01 -1.00744E+00 -1.04810E+00 -1.08875E+00 -1.12924E+00 -1.16953E+00 -1.20970E+00 -1.24988E+00 -1.29012E+00
  -1.33030E+00 -1.37031E+00 -1.41015E+00 -1.44993E+00 -1.48978E+00 -1.52966E+00 -1.56946E+00 -1.60908E+00 -1.64860E+00 -1.68817E+00
  -1.72784E+00 -1.76754E+00 -1.80712E+00 -1.84659E+00 -1.88605E+00 -1.92564E+00 -1.96536E+00 -2.00511E+00 -2.04477E+00 -2.08442E+00
  -2.12422E+00 -2.16424E+00 -2.20446E+00 -2.24476E+00 -2.28510E+00 -2.32563E+00 -2.36652E+00 -2.40784E+00
 NY background values follow
     2.684E+01    2.674E+01    2.664E+01    2.655E+01    2.645E+01    2.635E+01    2.626E+01    2.616E+01    2.606E+01    2.597E+01
     2.587E+01    2.577E+01    2.568E+01    2.558E+01    2.549E+01    2.539E+01    2.529E+01    2.520E+01    2.510E+01    2.501E+01
     2.491E+01    2.481E+01    2.472E+01    2.462E+01    2.453E+01    2.443E+01    2.434E+01    2.424E+01    2.415E+01    2.405E+01
     2.396E+01    2.386E+01    2.377E+01    2.367E+01    2.358E+01    2.348E+01    2.339E+01    2.329E+01    2.320E+01    2.310E+01
     2.301E+01    2.292E+01    2.282E+01    2.273E+01    2.263E+01    2.254E+01    2.245E+01    2.235E+01    2.226E+01    2.217E+01
     2.207E+01    2.198E+01    2.188E+01    2.179E+01    2.170E+01    2.161E+01    2.151E+01    2.142E+01    2.133E+01    2.123E+01
     2.114E+01    2.105E+01    2.096E+01    2.087E+01    2.077E+01    2.068E+01    2.059E+01    2.050E+01    2.041E+01    2.032E+01
     2.022E+01    2.013E+01    2.004E+01    1.995E+01    1.986E+01    1.977E+01    1.968E+01    1.959E+01    1.950E+01    1.941E+01
     1.932E+01    1.923E+01    1.914E+01    1.905E+01    1.896E+01    1.887E+01    1.878E+01    1.869E+01    1.861E+01    1.852E+01
     1.843E+01    1.834E+01    1.825E+01    1.816E+01    1.808E+01    1.799E+01    1.790E+01    1.782E+01    1.773E+01    1.764E+01
     1.756E+01    1.747E+01    1.738E+01    1.730E+01    1.721E+01    1.713E+01    1.704E+01    1.696E+01    1.687E+01    1.679E+01
     1.670E+01    1.662E+01    1.653E+01    1.645E+01    1.637E+01    1.628E+01    1.620E+01    1.612E+01    1.603E+01    1.595E+01
     1.587E+01    1.579E+01    1.571E+01    1.563E+01    1.554E+01    1.546E+01    1.538E+01    1.530E+01    1.522E+01    1.514E+01
     1.506E+01    1.498E+01    1.491E+01    1.483E+01    1.475E+01    1.467E+01    1.459E+01    1.452E+01    1.444E+01    1.436E+01
     1.429E+01    1.421E+01    1.413E+01    1.406E+01    1.398E+01    1.391E+01    1.383E+01    1.376E+01    1.368E+01    1.361E+01
     1.354E+01    1.346E+01    1.339E+01    1.332E+01    1.325E+01    1.317E+01    1.310E+01    1.303E+01    1.296E+01    1.289E+01
     1.282E+01    1.275E+01    1.268E+01    1.261E+01    1.254E+01    1.247E+01    1.240E+01    1.234E+01    1.227E+01    1.220E+01
     1.213E+01    1.207E+01    1.200E+01    1.193E+01    1.187E+01    1.180E+01    1.174E+01    1.167E+01    1.161E+01    1.154E+01
     1.148E+01    1.141E+01    1.135E+01    1.129E+01    1.123E+01    1.116E+01    1.110E+01    1.104E+01    1.098E+01    1.092E+01
     1.086E+01    1.080E+01    1.074E+01    1.068E+01    1.062E+01    1.056E+01    1.050E+01    1.044E+01    1.038E+01    1.032E+01
     1.027E+01    1.021E+01    1.015E+01    1.010E+01    1.004E+01    9.983E+00    9.927E+00    9.872E+00    9.816E+00    9.761E+00
     9.707E+00    9.652E+00    9.598E+00    9.544E+00    9.491E+00    9.437E+00    9.384E+00    9.332E+00    9.279E+00    9.227E+00
     9.175E+00    9.123E+00    9.072E+00    9.021E+00    8.970E+00    8.919E+00    8.869E+00    8.819E+00    8.769E+00    8.720E+00
     8.670E+00    8.621E+00    8.572E+00    8.524E+00    8.475E+00    8.427E+00    8.379E+00    8.332E+00    8.284E+00    8.237E+00
     8.190E+00    8.143E+00    8.096E+00    8.050E+00    8.004E+00    7.958E+00    7.912E+00    7.866E+00    7.821E+00    7.775E+00
     7.730E+00    7.685E+00    7.640E+00    7.596E+00    7.551E+00    7.507E+00    7.463E+00    7.419E+00    7.375E+00    7.331E+00
     7.288E+00    7.244E+00    7.201E+00    7.157E+00    7.114E+00    7.071E+00    7.028E+00    6.986E+00    6.943E+00    6.901E+00
     6.858E+00    6.816E+00    6.773E+00    6.731E+00    6.689E+00    6.647E+00    6.605E+00    6.563E+00    6.522E+00    6.480E+00
     6.438E+00    6.397E+00    6.355E+00    6.313E+00    6.272E+00    6.231E+00    6.189E+00    6.148E+00    6.106E+00    6.065E+00
     6.024E+00    5.982E+00    5.941E+00    5.900E+00    5.858E+00    5.817E+00    5.776E+00    5.734E+00    5.693E+00    5.651E+00
     5.610E+00    5.568E+00    5.527E+00    5.485E+00    5.444E+00    5.402E+00    5.360E+00    5.318E+00    5.276E+00    5.234E+00
     5.192E+00    5.150E+00    5.108E+00    5.066E+00    5.024E+00    4.981E+00    4.939E+00    4.896E+00    4.853E+00    4.810E+00
     4.767E+00    4.724E+00    4.681E+00    4.638E+00    4.595E+00    4.551E+00    4.508E+00    4.464E+00    4.421E+00    4.377E+00
     4.333E+00    4.289E+00    4.245E+00    4.201E+00    4.157E+00    4.113E+00    4.069E+00    4.024E+00    3.980E+00    3.936E+00
     3.891E+00    3.847E+00    3.802E+00    3.757E+00    3.713E+00    3.668E+00    3.623E+00    3.578E+00    3.533E+00    3.488E+00
     3.443E+00    3.398E+00    3.353E+00    3.308E+00    3.263E+00    3.218E+00    3.173E+00    3.128E+00    3.083E+00    3.037E+00
     2.992E+00    2.947E+00    2.902E+00    2.856E+00    2.811E+00    2.766E+00    2.720E+00    2.675E+00    2.630E+00    2.584E+00
     2.539E+00    2.494E+00    2.448E+00    2.403E+00    2.358E+00    2.313E+00    2.267E+00    2.222E+00    2.177E+00    2.132E+00
     2.086E+00    2.041E+00    1.996E+00    1.951E+00    1.906E+00    1.861E+00    1.816E+00    1.771E+00    1.726E+00    1.681E+00
     1.636E+00    1.592E+00    1.547E+00    1.502E+00    1.458E+00    1.413E+00    1.369E+00    1.324E+00    1.280E+00    1.235E+00
     1.191E+00    1.147E+00    1.103E+00    1.059E+00    1.015E+00    9.712E-01    9.274E-01    8.837E-01    8.401E-01    7.966E-01
     7.531E-01    7.098E-01    6.665E-01    6.233E-01    5.802E-01    5.372E-01    4.943E-01    4.515E-01    4.088E-01    3.661E-01
     3.236E-01    2.811E-01    2.387E-01    1.964E-01    1.543E-01    1.122E-01    7.017E-02    2.827E-02   -1.354E-02   -5.526E-02
    -9.687E-02   -1.384E-01   -1.798E-01   -2.211E-01   -2.624E-01   -3.035E-01   -3.445E-01   -3.855E-01   -4.263E-01   -4.670E-01
    -5.076E-01   -5.482E-01   -5.886E-01   -6.289E-01   -6.691E-01   -7.093E-01   -7.493E-01   -7.892E-01   -8.290E-01   -8.687E-01
    -9.083E-01   -9.478E-01   -9.872E-01   -1.026E+00   -1.066E+00   -1.105E+00   -1.144E+00   -1.182E+00   -1.221E+00   -1.260E+00
    -1.298E+00   -1.337E+00   -1.375E+00   -1.413E+00   -1.452E+00   -1.490E+00   -1.528E+00   -1.565E+00   -1.603E+00   -1.641E+00
    -1.678E+00   -1.716E+00   -1.753E+00   -1.790E+00   -1.828E+00   -1.865E+00   -1.902E+00   -1.939E+00   -1.975E+00   -2.012E+00
    -2.049E+00   -2.085E+00   -2.122E+00   -2.158E+00   -2.194E+00   -2.231E+00   -2.267E+00   -2.303E+00   -2.339E+00   -2.374E+00
    -2.410E+00   -2.446E+00   -2.481E+00   -2.517E+00   -2.552E+00   -2.588E+00   -2.623E+00   -2.658E+00
 Ala      Conc. = 4.42E+01
