 LCModel (Version 6.3-1L) Copyright: S.W. Provencher.          Ref.: Magn. Reson. Med. 30:672-679 (1993).                
 Slice#1 Row#11 Col#8  PD_24_press_2_raw_act
 36 lines in following concentration table = NCONC+1
    Conc.  %SD /Cr+PCr  Metabolite                                         
  552.713  34%   2.395 Ala                                                 
   34.150 143%   0.148 Asp                                                 
  230.759  17%   1.000 Cr                                                  
    0.000 999%   0.000 PCr                                                 
   28.585 104%   0.124 GABA                                                
   30.302  98%   0.131 Glc                                                 
    0.000 999%   0.000 Gln                                                 
    0.000 999%   0.000 Glu                                                 
    0.000 999%   0.000 GPC                                                 
   71.426  19%   0.310 PCh                                                 
    0.000 999%   0.000 GSH                                                 
    0.000 999%   0.000 Ins                                                 
  513.746  34%   2.226 Lac                                                 
  442.248  10%   1.916 NAA                                                 
    0.000 999%   0.000 NAAG                                                
    8.900 102% 3.9E-02 Scyllo                                              
   60.375  79%   0.262 Tau                                                 
  324.749  18%   1.407+-CrCH2                                              
   71.426  19%   0.310 GPC+PCh                                             
  442.248  10%   1.916 NAA+NAAG                                            
  230.759  17%   1.000 Cr+PCr                                              
    0.000 999%   0.000 Glu+Gln                                             
    0.000 999%   0.000 Lip13a                                              
    0.000 999%   0.000 Lip13b                                              
    0.000 999%   0.000 Lip09                                               
   46.863 143%   0.203 MM09                                                
   10.616 266% 4.6E-02 Lip20                                               
   73.313 139%   0.318 MM20                                                
   14.058 148% 6.1E-02 MM12                                                
   38.307 143%   0.166 MM14                                                
   20.643 141% 8.9E-02 MM17                                                
    0.000 999%   0.000 Lip13a+Lip13b                                       
   52.365 141%   0.227 MM14+Lip13a+Lip13b+MM12                             
   46.863 143%   0.203 MM09+Lip09                                          
   83.928 125%   0.364 MM20+Lip20                                          
   6 lines in following misc. output table
  FWHM = 0.107 ppm    S/N =   2                                            
  Data shift =-0.008 ppm                                                   
  Ph: -64 deg     -25.1 deg/ppm                                            
  alphaB,S = 9.6E-01,   5.2E+01                                            
   14 spline knots.   Ns = 7(2)                                            
  ( 7) 5 infls.   ( 7) 3 extrs.                                            
  498 points on ppm-axis = NY
      4.000000     3.992357     3.984714     3.977070     3.969427     3.961784     3.954141     3.946497     3.938854     3.931211
      3.923568     3.915925     3.908281     3.900638     3.892995     3.885352     3.877708     3.870065     3.862422     3.854779
      3.847136     3.839492     3.831849     3.824206     3.816563     3.808919     3.801276     3.793633     3.785990     3.778347
      3.770703     3.763060     3.755417     3.747774     3.740130     3.732487     3.724844     3.717201     3.709558     3.701914
      3.694271     3.686628     3.678985     3.671341     3.663698     3.656055     3.648412     3.640769     3.633125     3.625482
      3.617839     3.610196     3.602552     3.594909     3.587266     3.579623     3.571980     3.564336     3.556693     3.549050
      3.541407     3.533763     3.526120     3.518477     3.510834     3.503191     3.495547     3.487904     3.480261     3.472618
      3.464974     3.457331     3.449688     3.442045     3.434402     3.426758     3.419115     3.411472     3.403829     3.396185
      3.388542     3.380899     3.373256     3.365613     3.357969     3.350326     3.342683     3.335040     3.327396     3.319753
      3.312110     3.304467     3.296824     3.289180     3.281537     3.273894     3.266251     3.258607     3.250964     3.243321
      3.235678     3.228034     3.220391     3.212748     3.205105     3.197462     3.189818     3.182175     3.174532     3.166889
      3.159245     3.151602     3.143959     3.136316     3.128673     3.121029     3.113386     3.105743     3.098100     3.090456
      3.082813     3.075170     3.067527     3.059884     3.052240     3.044597     3.036954     3.029311     3.021667     3.014024
      3.006381     2.998738     2.991095     2.983451     2.975808     2.968165     2.960522     2.952878     2.945235     2.937592
      2.929949     2.922306     2.914662     2.907019     2.899376     2.891733     2.884089     2.876446     2.868803     2.861160
      2.853517     2.845873     2.838230     2.830587     2.822944     2.815300     2.807657     2.800014     2.792371     2.784728
      2.777084     2.769441     2.761798     2.754155     2.746511     2.738868     2.731225     2.723582     2.715939     2.708295
      2.700652     2.693009     2.685366     2.677722     2.670079     2.662436     2.654793     2.647150     2.639506     2.631863
      2.624220     2.616577     2.608933     2.601290     2.593647     2.586004     2.578361     2.570717     2.563074     2.555431
      2.547788     2.540144     2.532501     2.524858     2.517215     2.509572     2.501928     2.494285     2.486642     2.478999
      2.471355     2.463712     2.456069     2.448426     2.440783     2.433139     2.425496     2.417853     2.410210     2.402566
      2.394923     2.387280     2.379637     2.371994     2.364350     2.356707     2.349064     2.341421     2.333777     2.326134
      2.318491     2.310848     2.303205     2.295561     2.287918     2.280275     2.272632     2.264988     2.257345     2.249702
      2.242059     2.234416     2.226772     2.219129     2.211486     2.203843     2.196199     2.188556     2.180913     2.173270
      2.165627     2.157983     2.150340     2.142697     2.135054     2.127410     2.119767     2.112124     2.104481     2.096838
      2.089194     2.081551     2.073908     2.066265     2.058621     2.050978     2.043335     2.035692     2.028049     2.020405
      2.012762     2.005119     1.997476     1.989833     1.982190     1.974546     1.966903     1.959260     1.951617     1.943974
      1.936331     1.928688     1.921045     1.913402     1.905759     1.898115     1.890472     1.882829     1.875186     1.867543
      1.859900     1.852257     1.844614     1.836971     1.829327     1.821684     1.814041     1.806398     1.798755     1.791112
      1.783469     1.775826     1.768183     1.760540     1.752896     1.745253     1.737610     1.729967     1.722324     1.714681
      1.707038     1.699395     1.691752     1.684108     1.676465     1.668822     1.661179     1.653536     1.645893     1.638250
      1.630607     1.622964     1.615321     1.607677     1.600034     1.592391     1.584748     1.577105     1.569462     1.561819
      1.554176     1.546533     1.538890     1.531246     1.523603     1.515960     1.508317     1.500674     1.493031     1.485388
      1.477745     1.470102     1.462458     1.454815     1.447172     1.439529     1.431886     1.424243     1.416600     1.408957
      1.401314     1.393671     1.386027     1.378384     1.370741     1.363098     1.355455     1.347812     1.340169     1.332526
      1.324883     1.317240     1.309596     1.301953     1.294310     1.286667     1.279024     1.271381     1.263738     1.256095
      1.248452     1.240808     1.233165     1.225522     1.217879     1.210236     1.202593     1.194950     1.187307     1.179664
      1.172021     1.164377     1.156734     1.149091     1.141448     1.133805     1.126162     1.118519     1.110876     1.103233
      1.095590     1.087946     1.080303     1.072660     1.065017     1.057374     1.049731     1.042088     1.034445     1.026802
      1.019158     1.011515     1.003872     0.996229     0.988586     0.980943     0.973300     0.965657     0.958014     0.950371
      0.942727     0.935084     0.927441     0.919798     0.912155     0.904512     0.896869     0.889226     0.881583     0.873940
      0.866296     0.858653     0.851010     0.843367     0.835724     0.828081     0.820438     0.812795     0.805152     0.797508
      0.789865     0.782222     0.774579     0.766936     0.759293     0.751650     0.744007     0.736364     0.728721     0.721077
      0.713434     0.705791     0.698148     0.690505     0.682862     0.675219     0.667576     0.659933     0.652290     0.644646
      0.637003     0.629360     0.621717     0.614074     0.606431     0.598788     0.591145     0.583502     0.575858     0.568215
      0.560572     0.552929     0.545286     0.537643     0.530000     0.522357     0.514714     0.507071     0.499427     0.491784
      0.484141     0.476498     0.468855     0.461212     0.453569     0.445925     0.438282     0.430639     0.422996     0.415353
      0.407710     0.400067     0.392424     0.384780     0.377137     0.369494     0.361851     0.354208     0.346565     0.338922
      0.331278     0.323635     0.315992     0.308349     0.300706     0.293063     0.285420     0.277777     0.270133     0.262490
      0.254847     0.247204     0.239561     0.231918     0.224275     0.216631     0.208988     0.201345
 NY phased data points follow
  -1.33816E+01 -1.18931E+01 -1.40459E+01 -1.11331E+01 -1.39025E+01 -1.04353E+01 -9.32638E+00 -9.26738E+00 -8.76364E+00 -4.96538E+00
  -4.57826E+00 -7.50682E+00 -7.71486E+00 -7.35701E+00 -8.64255E+00 -9.40252E+00 -8.21517E+00 -8.61618E+00 -1.00301E+01 -8.25875E+00
  -1.09419E+01 -7.54295E+00 -9.01562E+00 -6.72862E+00 -8.37955E+00 -6.58332E+00 -5.63842E+00 -6.40654E+00 -8.88395E+00 -8.31955E+00
  -8.52599E+00 -5.39360E+00 -4.71177E+00 -4.67646E+00 -5.93582E+00 -3.71817E+00 -6.18421E+00 -5.12220E+00 -8.30805E+00 -5.99970E+00
  -5.59403E+00 -6.94917E+00 -7.19144E+00 -7.06767E+00 -4.89755E+00 -6.74026E+00 -3.34882E+00 -2.75585E+00 -6.77210E+00 -3.78081E+00
  -4.86725E+00 -2.77500E+00 -4.02781E+00 -3.83554E+00 -3.16420E+00 -2.74796E+00 -5.26178E+00 -4.38290E+00 -4.85584E+00 -5.32058E+00
  -4.48840E+00 -5.95116E+00 -5.88141E+00 -4.32037E+00 -3.83371E+00 -6.07629E+00 -2.90738E+00 -2.50742E+00 -3.56782E+00 -4.37500E+00
  -6.21758E+00 -2.84673E+00 -4.35853E+00 -2.24495E+00 -1.62524E+00 -1.32838E+00 -1.98773E+00 -4.08952E+00 -2.38721E+00 -4.50157E+00
  -4.70151E+00 -1.82380E+00 -4.57737E+00 -2.85146E+00 -3.38381E+00 -2.92415E+00 -6.28588E+00 -2.46843E+00 -5.05244E+00 -2.83153E+00
  -3.17181E+00 -1.20558E+00 -4.70136E+00 -8.61051E-01 -3.66664E+00  2.30392E-01 -2.68839E+00 -2.39244E+00 -1.77339E+00  2.71337E+00
  -1.47803E+00  4.21881E-01  2.96221E-02  4.16894E-02  8.37639E-01  2.27354E+00 -5.63753E-01 -4.57240E-01 -8.89609E-01 -7.31182E-01
  -4.56841E+00 -4.47162E+00 -1.92369E+00 -5.88254E-01  2.96118E-01  4.47148E+00  8.24458E-02 -7.71038E-02 -6.37761E-02 -1.53471E+00
  -2.41790E+00 -8.97989E-01 -2.74663E+00  1.96090E+00  3.13625E+00  3.61190E+00  2.25224E-01  4.11469E+00  1.33833E+00  3.20782E+00
  -3.25123E-01  3.21125E+00  1.42157E+00  9.07121E-01 -5.44361E-01 -1.81080E+00 -1.79216E+00  7.76283E-01 -2.26663E+00  2.27034E+00
  -3.80951E-01  1.09749E+00  8.51963E-01 -6.60540E-01 -4.71037E-02  1.71488E+00 -2.07286E+00  6.51273E-01 -2.25070E+00 -1.20472E+00
  -1.65906E+00 -1.93143E+00 -1.26171E-01  1.44612E+00 -2.10708E-01 -1.15696E-01 -1.41828E+00 -7.82554E-01  6.32316E-01 -1.61672E+00
  -6.63876E-01 -9.19469E-01  5.58180E-01 -2.09746E+00 -1.48462E-01 -1.21673E+00 -1.64366E+00 -6.41144E-01 -1.58803E+00 -6.59212E-01
  -1.95982E+00 -7.56800E-01 -1.92321E+00 -4.06873E+00 -3.46265E+00 -1.51769E+00 -1.16488E+00  8.51042E-01 -2.77262E-01  1.03155E+00
  -1.62560E+00  1.54179E+00 -1.29214E+00 -5.78195E-01 -8.41415E-01 -6.62083E-01  1.26259E+00 -4.44417E-02 -2.09331E+00 -4.42319E-01
  -1.38817E+00 -1.07902E+00 -1.47870E+00  5.46958E-02  3.76832E-01 -2.66746E+00 -2.36953E+00 -1.12577E+00  1.44085E+00  2.87539E-02
  -3.01112E+00 -1.64744E+00 -1.02874E+00  2.91315E+00  1.17567E+00  3.62045E+00  1.76524E+00 -1.27464E+00  1.16827E+00  1.90428E+00
   2.48626E+00 -1.25504E+00 -3.80337E-01  1.15116E-01  2.77971E+00 -9.24800E-01  2.50109E+00  6.21213E-01 -4.36886E-02  1.89987E+00
   4.45208E-01  2.30957E+00  1.55228E+00  5.36368E-01 -3.58687E+00 -6.57900E-02  1.47199E+00  2.25366E+00  2.23329E+00  4.83592E-01
  -1.83914E+00  2.04719E+00 -8.63950E-01  2.01262E+00  2.65993E+00  9.78796E-01  4.04447E-01  2.22244E-01  7.10115E-01  1.27640E+00
   2.37246E+00  4.20573E+00  2.06494E-01  2.46480E+00  1.34304E+00  2.09690E+00  6.74391E-01  2.40157E+00  2.73119E+00  2.34683E+00
   3.21100E+00  5.79173E+00  7.58532E-01  2.79038E+00  3.06754E+00  7.22288E+00  6.62191E+00  7.60823E+00  7.02209E+00  1.15200E+01
   5.10739E+00  7.24465E+00  8.60153E+00  6.05548E+00  9.25935E+00  8.22845E+00  7.50190E+00  8.88563E+00  3.54685E+00 -1.99435E-01
   5.05505E+00  3.96053E+00  2.84489E+00  5.10553E+00  6.62423E+00  4.81372E+00  6.42457E+00  2.13343E+00 -1.85385E-01  1.76480E+00
   3.73148E+00  3.14518E+00  2.89859E+00  9.98462E-01  2.24410E+00 -6.79749E-01  1.57111E+00  6.08340E+00  3.37753E+00 -1.49895E+00
  -1.26541E+00  6.61623E-01 -2.22811E+00  1.22920E+00  2.80256E-01  3.44395E+00  1.29196E+00  3.51273E+00 -1.22390E+00  2.87062E+00
   8.20810E-01 -1.66069E+00  3.51715E+00  2.94494E+00  1.09977E+00  2.32368E+00  5.01516E+00  1.27492E+00  4.74742E+00  5.10408E+00
   4.35546E+00  4.86824E+00  2.29735E-01  2.87491E-01  3.59783E+00  1.79589E+00  3.74750E+00  7.43404E+00  4.17868E+00  7.50445E+00
   6.21092E+00  3.66519E+00  3.16875E+00  5.38202E+00  4.54503E+00  6.24944E+00  3.13826E+00  4.91669E+00  1.96317E+00  3.01041E+00
   4.85917E+00  5.83675E+00  3.12366E+00  9.11098E-01  5.41908E+00  4.49663E+00  1.47777E+00  1.51454E+00  2.02591E+00  3.36422E+00
   6.39021E+00  5.19625E+00  4.26067E+00  5.32409E+00  3.58458E+00  3.52644E+00  1.97038E+00  3.60053E+00  3.89953E+00  7.75539E-01
   2.19723E+00  3.13267E+00 -2.35174E-01  2.21413E+00  2.09925E+00  2.56745E+00  2.67973E+00  9.33519E-01  2.16364E+00  5.67926E+00
   9.37129E-01  4.94852E+00  3.34012E+00  4.47809E+00  7.93086E-01  4.48855E+00  1.60094E+00  4.16986E+00  3.17219E+00  2.93264E+00
   2.90287E+00  3.03124E+00  7.05564E+00  4.59687E+00  2.71307E+00  4.12233E+00  2.52052E+00  3.96202E+00  4.44251E+00  3.14438E+00
   4.05530E+00  1.14928E+00  2.13661E+00  2.56676E+00 -1.01466E+00  3.19232E+00  2.33940E+00  4.18658E+00  1.78544E+00  8.22539E-02
  -6.94788E-01  2.65418E+00  2.10316E+00  2.16556E-01 -1.12388E+00  1.29148E+00  2.51000E+00 -8.20721E-01 -8.91621E-01 -7.83954E-01
   2.28300E+00  6.25877E-01  1.56159E+00  5.07698E+00  3.25158E+00  3.26936E+00  1.46736E+00  3.21996E+00  7.80438E-01  3.04903E+00
  -1.39789E+00  2.00182E+00  1.08237E+00  4.39016E+00  1.07996E+00  3.13480E+00  1.25625E+00  1.59017E+00  3.96066E+00  3.66391E+00
  -4.21327E-02  1.86971E+00  2.88260E+00  7.64555E-01  1.54984E+00  2.68163E+00  3.30540E-01  3.00299E+00 -1.76362E+00  2.71186E+00
   3.45316E+00 -1.18434E+00  1.75657E+00 -4.90934E-01  1.79071E+00  1.94985E+00  2.38028E+00  2.43428E+00  2.54312E+00  1.53839E+00
   2.33857E+00  2.52898E-01 -9.84381E-01  2.83066E+00  3.96090E+00  7.65066E-01  2.85320E+00 -1.94599E+00 -1.75150E+00  3.86821E-01
  -8.72915E-01  9.42125E-01  7.23879E-01  1.62002E-01  4.01525E-01  1.12254E+00  4.81848E-01  1.36786E+00  1.67125E-01  4.27033E+00
   1.18379E+00  5.00720E+00  1.80738E-01  1.87547E+00 -7.44714E-01  7.43463E-01  1.80436E+00 -9.96049E-01 -3.40453E+00 -4.05000E-01
   2.40637E+00  2.59328E+00  3.86127E+00  1.34818E+00  9.53814E-01  3.29638E+00  1.14173E+00  2.58457E+00  3.08490E+00  9.16410E-01
   3.60876E+00  1.10152E+00 -2.04681E-01  4.12032E+00  3.37870E+00  3.68683E+00  1.95070E+00  4.67170E+00 -2.69572E+00  5.75756E+00
  -2.81880E-01  2.90250E-01  3.06226E+00  4.06398E+00 -5.76555E-01  9.99801E-01  2.60038E-03  1.81113E+00
 NY points of the fit to the data follow
  -8.79283E+00 -8.23147E+00 -9.13977E+00 -8.42440E+00 -9.33541E+00 -8.46296E+00 -9.16558E+00 -8.29127E+00 -8.69953E+00 -7.84661E+00
  -8.26134E+00 -7.64108E+00 -8.00186E+00 -7.42609E+00 -7.43342E+00 -6.89744E+00 -6.83393E+00 -6.57633E+00 -6.82066E+00 -6.77252E+00
  -7.03185E+00 -6.79645E+00 -6.71862E+00 -6.34587E+00 -6.11211E+00 -6.01902E+00 -6.25121E+00 -6.49482E+00 -6.54469E+00 -6.46863E+00
  -6.43933E+00 -6.35086E+00 -6.20990E+00 -6.16270E+00 -5.94499E+00 -5.92227E+00 -5.78348E+00 -5.79692E+00 -5.71626E+00 -5.86866E+00
  -5.78283E+00 -5.99505E+00 -5.82148E+00 -5.88306E+00 -5.71197E+00 -5.70904E+00 -5.46903E+00 -5.48796E+00 -5.26202E+00 -5.38344E+00
  -5.28050E+00 -5.34467E+00 -5.24050E+00 -5.29270E+00 -5.16723E+00 -5.18969E+00 -5.03027E+00 -5.02029E+00 -4.90315E+00 -4.89734E+00
  -4.80576E+00 -4.78121E+00 -4.69528E+00 -4.66616E+00 -4.58094E+00 -4.55559E+00 -4.49168E+00 -4.45880E+00 -4.39848E+00 -4.35932E+00
  -4.28235E+00 -4.23965E+00 -4.15165E+00 -4.12241E+00 -4.03412E+00 -4.03003E+00 -3.94340E+00 -3.93754E+00 -3.82824E+00 -3.81073E+00
  -3.69835E+00 -3.69368E+00 -3.60156E+00 -3.60446E+00 -3.51365E+00 -3.49576E+00 -3.41371E+00 -3.37865E+00 -3.23732E+00 -3.03745E+00
  -2.93193E+00 -2.63980E+00 -2.65692E+00 -2.33599E+00 -2.31271E+00 -1.77325E+00 -1.70662E+00 -8.69769E-01 -9.24498E-01  6.79072E-02
  -2.50599E-01  6.14359E-01  3.02971E-02  5.80588E-01 -1.17136E-02  4.36029E-01 -1.42050E-01  2.22268E-01 -4.22368E-01 -3.72253E-01
  -9.31619E-01 -1.04044E+00 -1.23356E+00 -8.89632E-01 -9.82721E-01 -3.95719E-01 -7.22447E-01 -4.26714E-01 -8.09524E-01 -6.08453E-01
  -6.52171E-01  2.29783E-01  1.17624E-01  1.23297E+00  8.15920E-01  1.83007E+00  1.11208E+00  1.80171E+00  1.05052E+00  1.64133E+00
   9.17125E-01  1.42131E+00  6.08243E-01  7.34848E-01  1.58614E-02 -6.84336E-02 -4.35677E-01 -2.60458E-01 -4.70055E-01 -1.51628E-01
  -5.09471E-01 -5.24668E-01 -9.52733E-01 -1.33372E+00 -1.37696E+00 -1.40471E+00 -1.38377E+00 -1.40445E+00 -1.36961E+00 -1.38056E+00
  -1.33771E+00 -1.32730E+00 -1.29316E+00 -1.29061E+00 -1.26643E+00 -1.28621E+00 -1.26458E+00 -1.27909E+00 -1.25521E+00 -1.25046E+00
  -1.23262E+00 -1.21553E+00 -1.21128E+00 -1.21442E+00 -1.20562E+00 -1.23138E+00 -1.20819E+00 -1.23091E+00 -1.20783E+00 -1.23709E+00
  -1.21591E+00 -1.28305E+00 -1.25074E+00 -1.34430E+00 -1.27386E+00 -1.31973E+00 -1.21542E+00 -1.21362E+00 -1.12895E+00 -1.15821E+00
  -1.08863E+00 -1.09997E+00 -9.98297E-01 -9.39489E-01 -8.52609E-01 -7.65206E-01 -7.11741E-01 -6.02861E-01 -5.42799E-01 -4.29538E-01
  -3.34100E-01 -2.29694E-01 -1.39442E-01 -3.93741E-02 -1.28692E-02  5.98253E-02  9.32487E-02  1.28409E-01  1.84986E-01  1.74321E-01
   2.47211E-01  2.46303E-01  3.17671E-01  2.94205E-01  3.33926E-01  2.50673E-01  2.93976E-01  2.29700E-01  2.73311E-01  2.16366E-01
   2.28202E-01  1.72853E-01  1.74069E-01  1.50030E-01  1.89892E-01  2.08567E-01  2.65316E-01  2.85160E-01  3.32642E-01  3.68170E-01
   3.94292E-01  4.42618E-01  4.76470E-01  4.95394E-01  5.15782E-01  5.20507E-01  5.45525E-01  5.73287E-01  6.12094E-01  6.57863E-01
   6.95037E-01  7.10205E-01  7.42014E-01  7.59651E-01  7.98944E-01  8.21087E-01  8.65873E-01  8.88473E-01  9.25855E-01  9.37270E-01
   9.63945E-01  9.70859E-01  1.00521E+00  1.02150E+00  1.07390E+00  1.14315E+00  1.45923E+00  1.84734E+00  2.12694E+00  2.68837E+00
   2.71568E+00  3.30991E+00  3.44283E+00  4.39640E+00  4.65837E+00  6.12559E+00  6.16067E+00  7.92811E+00  7.30816E+00  8.90677E+00
   7.59185E+00  8.73155E+00  7.35734E+00  8.33584E+00  6.99773E+00  7.79855E+00  6.15327E+00  6.39131E+00  4.88487E+00  4.82952E+00
   4.12037E+00  4.41162E+00  4.03104E+00  4.47713E+00  3.66265E+00  3.60758E+00  2.55782E+00  2.01508E+00  1.88984E+00  1.81515E+00
   1.78833E+00  1.75204E+00  1.74429E+00  1.72382E+00  1.72821E+00  1.71805E+00  1.73354E+00  1.72942E+00  1.74735E+00  1.74784E+00
   1.76622E+00  1.76766E+00  1.78684E+00  1.78922E+00  1.81255E+00  1.82021E+00  1.84667E+00  1.85863E+00  1.88966E+00  1.90431E+00
   1.93837E+00  1.95450E+00  1.99028E+00  2.00940E+00  2.04959E+00  2.07383E+00  2.12041E+00  2.15422E+00  2.21425E+00  2.26632E+00
   2.35509E+00  2.45531E+00  2.64433E+00  2.89830E+00  2.97371E+00  3.20472E+00  3.11850E+00  3.27659E+00  3.20774E+00  3.46490E+00
   3.26563E+00  3.78189E+00  3.39786E+00  3.91434E+00  3.21393E+00  3.35404E+00  2.35586E+00  2.35560E+00  1.57942E+00  1.93388E+00
   1.52618E+00  2.17292E+00  2.11102E+00  2.72993E+00  2.93025E+00  3.33983E+00  3.63787E+00  4.19495E+00  4.42791E+00  5.04797E+00
   4.94584E+00  5.23652E+00  4.69087E+00  4.70232E+00  3.96850E+00  4.30053E+00  3.28596E+00  3.73996E+00  3.04164E+00  3.74634E+00
   3.02368E+00  3.65555E+00  2.49815E+00  3.31923E+00  2.51886E+00  3.22268E+00  2.78926E+00  3.72763E+00  3.32061E+00  4.22306E+00
   3.56837E+00  3.73361E+00  3.05941E+00  2.73286E+00  2.56591E+00  2.84517E+00  2.75484E+00  3.24146E+00  3.20972E+00  3.42237E+00
   3.28202E+00  2.88867E+00  2.68733E+00  2.55009E+00  2.46627E+00  2.38823E+00  2.34035E+00  2.28673E+00  2.25652E+00  2.21650E+00
   2.19715E+00  2.16632E+00  2.15486E+00  2.13111E+00  2.12596E+00  2.10814E+00  2.10851E+00  2.09607E+00  2.10155E+00  2.09407E+00
   2.10418E+00  2.10113E+00  2.11526E+00  2.11592E+00  2.13315E+00  2.13634E+00  2.15527E+00  2.15939E+00  2.17827E+00  2.18148E+00
   2.19839E+00  2.19871E+00  2.21173E+00  2.20744E+00  2.21513E+00  2.20511E+00  2.20669E+00  2.19054E+00  2.18603E+00  2.16421E+00
   2.15448E+00  2.12818E+00  2.11465E+00  2.08544E+00  2.06979E+00  2.03941E+00  2.02333E+00  1.99331E+00  1.97814E+00  1.94962E+00
   1.93629E+00  1.90999E+00  1.89900E+00  1.87520E+00  1.86664E+00  1.84528E+00  1.83900E+00  1.81986E+00  1.81556E+00  1.79830E+00
   1.79563E+00  1.77988E+00  1.77850E+00  1.76398E+00  1.76361E+00  1.75002E+00  1.75041E+00  1.73756E+00  1.73855E+00  1.72629E+00
   1.72773E+00  1.71593E+00  1.71771E+00  1.70630E+00  1.70837E+00  1.69727E+00  1.69957E+00  1.68873E+00  1.69121E+00  1.68061E+00
   1.68324E+00  1.67285E+00  1.67561E+00  1.66539E+00  1.66826E+00  1.65822E+00  1.66118E+00  1.65128E+00  1.65432E+00  1.64454E+00
   1.64765E+00  1.63800E+00  1.64116E+00  1.63163E+00  1.63483E+00  1.62539E+00  1.62863E+00  1.61929E+00  1.62256E+00  1.61330E+00
   1.61659E+00  1.60741E+00  1.61072E+00  1.60162E+00  1.60494E+00  1.59590E+00  1.59923E+00  1.59025E+00  1.59358E+00  1.58467E+00
   1.58799E+00  1.57913E+00  1.58244E+00  1.57363E+00  1.57693E+00  1.56816E+00  1.57144E+00  1.56270E+00  1.56596E+00  1.55726E+00
   1.56049E+00  1.55181E+00  1.55500E+00  1.54633E+00  1.54949E+00  1.54084E+00  1.54395E+00  1.53529E+00
 NY background values follow
    -7.660E+00   -7.614E+00   -7.568E+00   -7.523E+00   -7.477E+00   -7.431E+00   -7.385E+00   -7.339E+00   -7.294E+00   -7.248E+00
    -7.202E+00   -7.156E+00   -7.110E+00   -7.065E+00   -7.019E+00   -6.973E+00   -6.927E+00   -6.882E+00   -6.836E+00   -6.790E+00
    -6.744E+00   -6.699E+00   -6.653E+00   -6.608E+00   -6.562E+00   -6.516E+00   -6.471E+00   -6.425E+00   -6.380E+00   -6.334E+00
    -6.289E+00   -6.244E+00   -6.198E+00   -6.153E+00   -6.108E+00   -6.063E+00   -6.018E+00   -5.972E+00   -5.927E+00   -5.882E+00
    -5.837E+00   -5.793E+00   -5.748E+00   -5.703E+00   -5.658E+00   -5.614E+00   -5.569E+00   -5.524E+00   -5.480E+00   -5.436E+00
    -5.391E+00   -5.347E+00   -5.303E+00   -5.258E+00   -5.214E+00   -5.170E+00   -5.126E+00   -5.083E+00   -5.039E+00   -4.995E+00
    -4.951E+00   -4.908E+00   -4.864E+00   -4.821E+00   -4.778E+00   -4.735E+00   -4.691E+00   -4.648E+00   -4.605E+00   -4.562E+00
    -4.520E+00   -4.477E+00   -4.434E+00   -4.392E+00   -4.349E+00   -4.307E+00   -4.265E+00   -4.223E+00   -4.181E+00   -4.139E+00
    -4.097E+00   -4.055E+00   -4.014E+00   -3.972E+00   -3.931E+00   -3.889E+00   -3.848E+00   -3.807E+00   -3.766E+00   -3.725E+00
    -3.684E+00   -3.644E+00   -3.603E+00   -3.563E+00   -3.522E+00   -3.482E+00   -3.442E+00   -3.402E+00   -3.363E+00   -3.323E+00
    -3.283E+00   -3.244E+00   -3.204E+00   -3.165E+00   -3.126E+00   -3.087E+00   -3.048E+00   -3.010E+00   -2.971E+00   -2.933E+00
    -2.895E+00   -2.856E+00   -2.818E+00   -2.780E+00   -2.743E+00   -2.705E+00   -2.668E+00   -2.630E+00   -2.593E+00   -2.556E+00
    -2.519E+00   -2.482E+00   -2.446E+00   -2.409E+00   -2.373E+00   -2.337E+00   -2.301E+00   -2.265E+00   -2.229E+00   -2.194E+00
    -2.158E+00   -2.123E+00   -2.088E+00   -2.053E+00   -2.018E+00   -1.983E+00   -1.949E+00   -1.914E+00   -1.880E+00   -1.846E+00
    -1.812E+00   -1.779E+00   -1.745E+00   -1.712E+00   -1.678E+00   -1.645E+00   -1.612E+00   -1.580E+00   -1.547E+00   -1.515E+00
    -1.482E+00   -1.450E+00   -1.418E+00   -1.387E+00   -1.355E+00   -1.323E+00   -1.292E+00   -1.261E+00   -1.230E+00   -1.199E+00
    -1.169E+00   -1.138E+00   -1.108E+00   -1.078E+00   -1.048E+00   -1.018E+00   -9.883E-01   -9.588E-01   -9.295E-01   -9.003E-01
    -8.713E-01   -8.425E-01   -8.139E-01   -7.854E-01   -7.571E-01   -7.290E-01   -7.010E-01   -6.732E-01   -6.456E-01   -6.181E-01
    -5.908E-01   -5.637E-01   -5.368E-01   -5.100E-01   -4.834E-01   -4.570E-01   -4.307E-01   -4.046E-01   -3.787E-01   -3.530E-01
    -3.274E-01   -3.020E-01   -2.767E-01   -2.517E-01   -2.268E-01   -2.021E-01   -1.775E-01   -1.531E-01   -1.289E-01   -1.049E-01
    -8.104E-02   -5.735E-02   -3.384E-02   -1.049E-02    1.268E-02    3.568E-02    5.851E-02    8.116E-02    1.036E-01    1.260E-01
     1.481E-01    1.701E-01    1.919E-01    2.135E-01    2.349E-01    2.562E-01    2.773E-01    2.982E-01    3.190E-01    3.396E-01
     3.600E-01    3.802E-01    4.003E-01    4.202E-01    4.399E-01    4.594E-01    4.788E-01    4.980E-01    5.170E-01    5.359E-01
     5.545E-01    5.730E-01    5.914E-01    6.095E-01    6.275E-01    6.453E-01    6.630E-01    6.805E-01    6.978E-01    7.149E-01
     7.319E-01    7.487E-01    7.654E-01    7.818E-01    7.981E-01    8.143E-01    8.302E-01    8.460E-01    8.617E-01    8.772E-01
     8.925E-01    9.076E-01    9.226E-01    9.374E-01    9.521E-01    9.666E-01    9.809E-01    9.951E-01    1.009E+00    1.023E+00
     1.037E+00    1.050E+00    1.063E+00    1.077E+00    1.090E+00    1.103E+00    1.115E+00    1.128E+00    1.140E+00    1.153E+00
     1.165E+00    1.177E+00    1.188E+00    1.200E+00    1.212E+00    1.223E+00    1.234E+00    1.245E+00    1.256E+00    1.267E+00
     1.277E+00    1.288E+00    1.298E+00    1.308E+00    1.318E+00    1.328E+00    1.337E+00    1.347E+00    1.356E+00    1.365E+00
     1.374E+00    1.383E+00    1.392E+00    1.401E+00    1.409E+00    1.417E+00    1.426E+00    1.434E+00    1.441E+00    1.449E+00
     1.457E+00    1.464E+00    1.472E+00    1.479E+00    1.486E+00    1.493E+00    1.499E+00    1.506E+00    1.513E+00    1.519E+00
     1.525E+00    1.531E+00    1.537E+00    1.543E+00    1.548E+00    1.554E+00    1.559E+00    1.565E+00    1.570E+00    1.575E+00
     1.579E+00    1.584E+00    1.589E+00    1.593E+00    1.598E+00    1.602E+00    1.606E+00    1.610E+00    1.614E+00    1.617E+00
     1.621E+00    1.624E+00    1.628E+00    1.631E+00    1.634E+00    1.637E+00    1.640E+00    1.643E+00    1.646E+00    1.648E+00
     1.651E+00    1.653E+00    1.655E+00    1.657E+00    1.660E+00    1.662E+00    1.663E+00    1.665E+00    1.667E+00    1.668E+00
     1.670E+00    1.671E+00    1.673E+00    1.674E+00    1.675E+00    1.676E+00    1.677E+00    1.678E+00    1.679E+00    1.680E+00
     1.680E+00    1.681E+00    1.681E+00    1.682E+00    1.682E+00    1.682E+00    1.683E+00    1.683E+00    1.683E+00    1.683E+00
     1.683E+00    1.683E+00    1.682E+00    1.682E+00    1.682E+00    1.681E+00    1.681E+00    1.680E+00    1.680E+00    1.679E+00
     1.679E+00    1.678E+00    1.677E+00    1.676E+00    1.675E+00    1.675E+00    1.674E+00    1.673E+00    1.671E+00    1.670E+00
     1.669E+00    1.668E+00    1.667E+00    1.666E+00    1.664E+00    1.663E+00    1.662E+00    1.660E+00    1.659E+00    1.657E+00
     1.656E+00    1.654E+00    1.653E+00    1.651E+00    1.649E+00    1.648E+00    1.646E+00    1.644E+00    1.643E+00    1.641E+00
     1.639E+00    1.637E+00    1.636E+00    1.634E+00    1.632E+00    1.630E+00    1.628E+00    1.627E+00    1.625E+00    1.623E+00
     1.621E+00    1.619E+00    1.617E+00    1.615E+00    1.613E+00    1.611E+00    1.609E+00    1.607E+00    1.605E+00    1.603E+00
     1.601E+00    1.599E+00    1.597E+00    1.595E+00    1.593E+00    1.591E+00    1.589E+00    1.587E+00    1.585E+00    1.583E+00
     1.581E+00    1.579E+00    1.577E+00    1.575E+00    1.573E+00    1.571E+00    1.569E+00    1.567E+00    1.565E+00    1.563E+00
     1.561E+00    1.559E+00    1.557E+00    1.555E+00    1.553E+00    1.551E+00    1.549E+00    1.547E+00    1.545E+00    1.543E+00
     1.541E+00    1.539E+00    1.537E+00    1.535E+00    1.533E+00    1.532E+00    1.530E+00    1.528E+00    1.526E+00    1.524E+00
     1.522E+00    1.520E+00    1.518E+00    1.517E+00    1.515E+00    1.513E+00    1.511E+00    1.509E+00    1.507E+00    1.505E+00
     1.504E+00    1.502E+00    1.500E+00    1.498E+00    1.496E+00    1.494E+00    1.492E+00    1.491E+00    1.489E+00    1.487E+00
     1.485E+00    1.483E+00    1.481E+00    1.480E+00    1.478E+00    1.476E+00    1.474E+00    1.472E+00
 Ala      Conc. = 5.53E+02
