 LCModel (Version 6.3-1L) Copyright: S.W. Provencher.          Ref.: Magn. Reson. Med. 30:672-679 (1993).                
 Slice#3 Row#3 Col#11  PD_24_press_2_raw_act
 36 lines in following concentration table = NCONC+1
    Conc.  %SD /Cr+PCr  Metabolite                                         
  148.467  76%   0.705 Ala                                                 
   43.276  76%   0.205 Asp                                                 
    0.000 999%   0.000 Cr                                                  
  210.685  28%   1.000 PCr                                                 
   26.816  73%   0.127 GABA                                                
   27.289  72%   0.130 Glc                                                 
  143.401 150%   0.681 Gln                                                 
  194.409 122%   0.923 Glu                                                 
   78.832  29%   0.374 GPC                                                 
    0.000 999%   0.000 PCh                                                 
    0.000 999%   0.000 GSH                                                 
  164.948 148%   0.783 Ins                                                 
   20.141 578% 9.6E-02 Lac                                                 
  459.194  16%   2.180 NAA                                                 
    0.000 999%   0.000 NAAG                                                
    9.726  67% 4.6E-02 Scyllo                                              
   39.498  82%   0.187 Tau                                                 
   14.847 204% 7.0E-02 -CrCH2                                              
   78.832  29%   0.374 GPC+PCh                                             
  459.194  16%   2.180 NAA+NAAG                                            
  210.685  28%   1.000 Cr+PCr                                              
  337.810  89%   1.603 Glu+Gln                                             
    0.000 999%   0.000 Lip13a                                              
    0.000 999%   0.000 Lip13b                                              
    0.000 999%   0.000 Lip09                                               
  842.716  21%   4.000 MM09                                                
    0.000 999%   0.000 Lip20                                               
  964.206  30%   4.577 MM20                                                
  245.554  29%   1.166 MM12                                                
 1.74E+03  11%   8.237+MM14                                                
  888.004  16%   4.215+MM17                                                
    0.000 999%   0.000 Lip13a+Lip13b                                       
 1.98E+03  11%   9.403 MM14+Lip13a+Lip13b+MM12                             
  842.716  21%   4.000 MM09+Lip09                                          
  964.206  30%   4.577 MM20+Lip20                                          
   6 lines in following misc. output table
  FWHM = 0.046 ppm    S/N =   2                                            
  Data shift = 0.023 ppm                                                   
  Ph:-144 deg     -55.2 deg/ppm                                            
  alphaB,S = 8.5E+01,   1.1E+01                                            
   14 spline knots.   Ns = 5(1)                                            
   1 inflections.     2 extrema                                            
  498 points on ppm-axis = NY
      4.000000     3.992357     3.984714     3.977070     3.969427     3.961784     3.954141     3.946497     3.938854     3.931211
      3.923568     3.915925     3.908281     3.900638     3.892995     3.885352     3.877708     3.870065     3.862422     3.854779
      3.847136     3.839492     3.831849     3.824206     3.816563     3.808919     3.801276     3.793633     3.785990     3.778347
      3.770703     3.763060     3.755417     3.747774     3.740130     3.732487     3.724844     3.717201     3.709558     3.701914
      3.694271     3.686628     3.678985     3.671341     3.663698     3.656055     3.648412     3.640769     3.633125     3.625482
      3.617839     3.610196     3.602552     3.594909     3.587266     3.579623     3.571980     3.564336     3.556693     3.549050
      3.541407     3.533763     3.526120     3.518477     3.510834     3.503191     3.495547     3.487904     3.480261     3.472618
      3.464974     3.457331     3.449688     3.442045     3.434402     3.426758     3.419115     3.411472     3.403829     3.396185
      3.388542     3.380899     3.373256     3.365613     3.357969     3.350326     3.342683     3.335040     3.327396     3.319753
      3.312110     3.304467     3.296824     3.289180     3.281537     3.273894     3.266251     3.258607     3.250964     3.243321
      3.235678     3.228034     3.220391     3.212748     3.205105     3.197462     3.189818     3.182175     3.174532     3.166889
      3.159245     3.151602     3.143959     3.136316     3.128673     3.121029     3.113386     3.105743     3.098100     3.090456
      3.082813     3.075170     3.067527     3.059884     3.052240     3.044597     3.036954     3.029311     3.021667     3.014024
      3.006381     2.998738     2.991095     2.983451     2.975808     2.968165     2.960522     2.952878     2.945235     2.937592
      2.929949     2.922306     2.914662     2.907019     2.899376     2.891733     2.884089     2.876446     2.868803     2.861160
      2.853517     2.845873     2.838230     2.830587     2.822944     2.815300     2.807657     2.800014     2.792371     2.784728
      2.777084     2.769441     2.761798     2.754155     2.746511     2.738868     2.731225     2.723582     2.715939     2.708295
      2.700652     2.693009     2.685366     2.677722     2.670079     2.662436     2.654793     2.647150     2.639506     2.631863
      2.624220     2.616577     2.608933     2.601290     2.593647     2.586004     2.578361     2.570717     2.563074     2.555431
      2.547788     2.540144     2.532501     2.524858     2.517215     2.509572     2.501928     2.494285     2.486642     2.478999
      2.471355     2.463712     2.456069     2.448426     2.440783     2.433139     2.425496     2.417853     2.410210     2.402566
      2.394923     2.387280     2.379637     2.371994     2.364350     2.356707     2.349064     2.341421     2.333777     2.326134
      2.318491     2.310848     2.303205     2.295561     2.287918     2.280275     2.272632     2.264988     2.257345     2.249702
      2.242059     2.234416     2.226772     2.219129     2.211486     2.203843     2.196199     2.188556     2.180913     2.173270
      2.165627     2.157983     2.150340     2.142697     2.135054     2.127410     2.119767     2.112124     2.104481     2.096838
      2.089194     2.081551     2.073908     2.066265     2.058621     2.050978     2.043335     2.035692     2.028049     2.020405
      2.012762     2.005119     1.997476     1.989833     1.982190     1.974546     1.966903     1.959260     1.951617     1.943974
      1.936331     1.928688     1.921045     1.913402     1.905759     1.898115     1.890472     1.882829     1.875186     1.867543
      1.859900     1.852257     1.844614     1.836971     1.829327     1.821684     1.814041     1.806398     1.798755     1.791112
      1.783469     1.775826     1.768183     1.760540     1.752896     1.745253     1.737610     1.729967     1.722324     1.714681
      1.707038     1.699395     1.691752     1.684108     1.676465     1.668822     1.661179     1.653536     1.645893     1.638250
      1.630607     1.622964     1.615321     1.607677     1.600034     1.592391     1.584748     1.577105     1.569462     1.561819
      1.554176     1.546533     1.538890     1.531246     1.523603     1.515960     1.508317     1.500674     1.493031     1.485388
      1.477745     1.470102     1.462458     1.454815     1.447172     1.439529     1.431886     1.424243     1.416600     1.408957
      1.401314     1.393671     1.386027     1.378384     1.370741     1.363098     1.355455     1.347812     1.340169     1.332526
      1.324883     1.317240     1.309596     1.301953     1.294310     1.286667     1.279024     1.271381     1.263738     1.256095
      1.248452     1.240808     1.233165     1.225522     1.217879     1.210236     1.202593     1.194950     1.187307     1.179664
      1.172021     1.164377     1.156734     1.149091     1.141448     1.133805     1.126162     1.118519     1.110876     1.103233
      1.095590     1.087946     1.080303     1.072660     1.065017     1.057374     1.049731     1.042088     1.034445     1.026802
      1.019158     1.011515     1.003872     0.996229     0.988586     0.980943     0.973300     0.965657     0.958014     0.950371
      0.942727     0.935084     0.927441     0.919798     0.912155     0.904512     0.896869     0.889226     0.881583     0.873940
      0.866296     0.858653     0.851010     0.843367     0.835724     0.828081     0.820438     0.812795     0.805152     0.797508
      0.789865     0.782222     0.774579     0.766936     0.759293     0.751650     0.744007     0.736364     0.728721     0.721077
      0.713434     0.705791     0.698148     0.690505     0.682862     0.675219     0.667576     0.659933     0.652290     0.644646
      0.637003     0.629360     0.621717     0.614074     0.606431     0.598788     0.591145     0.583502     0.575858     0.568215
      0.560572     0.552929     0.545286     0.537643     0.530000     0.522357     0.514714     0.507071     0.499427     0.491784
      0.484141     0.476498     0.468855     0.461212     0.453569     0.445925     0.438282     0.430639     0.422996     0.415353
      0.407710     0.400067     0.392424     0.384780     0.377137     0.369494     0.361851     0.354208     0.346565     0.338922
      0.331278     0.323635     0.315992     0.308349     0.300706     0.293063     0.285420     0.277777     0.270133     0.262490
      0.254847     0.247204     0.239561     0.231918     0.224275     0.216631     0.208988     0.201345
 NY phased data points follow
  -1.63350E+00  1.27194E+00 -2.01205E+00 -2.99118E+00 -1.84647E+00  2.18432E+00  1.80297E+00  1.97921E+00  1.41764E+00  7.86158E+00
   9.43283E-02  7.53120E+00 -2.13876E+00 -8.72422E+00 -7.47370E+00 -5.56205E+00 -3.44019E-01  1.27946E+00 -7.15845E+00 -3.47261E+00
  -7.28729E-01  1.07017E+01 -1.23270E+00 -8.03302E+00 -2.52616E+00 -1.78071E+00  2.01223E+00 -2.71529E-01 -7.57629E+00  1.55554E+00
  -9.30566E+00 -4.40799E+00 -3.12332E+00 -6.86665E+00 -7.02123E+00 -3.90121E+00  1.44534E-01  3.41818E+00 -1.50755E+00 -1.21679E+00
  -4.96264E+00 -1.07033E+00 -9.81038E+00 -8.12029E+00 -8.52415E+00 -1.21860E+00  3.57811E+00  6.89862E+00 -3.09774E+00 -5.62803E+00
  -7.80504E+00 -3.15789E+00 -2.82503E+00 -4.44335E+00 -2.32017E+00 -1.79030E+00 -3.51161E-02 -1.95739E+00 -1.04246E+01 -1.04236E+01
  -7.92249E+00 -7.93756E+00 -9.11343E+00 -5.24045E+00 -5.52106E+00 -5.86474E+00 -8.73528E+00 -1.45241E+01 -4.40174E+00 -3.31180E+00
   7.66131E-02 -3.02188E+00  9.16556E-01 -4.48993E+00 -2.82267E+00  1.22142E+00  1.05649E+00 -1.43213E+01 -5.18334E+00 -7.26117E+00
  -3.72205E+00 -6.80420E+00 -6.23018E+00  4.16991E+00 -1.54871E+00 -8.97666E+00 -2.32282E+00  6.95435E-01 -4.18862E+00 -5.03571E+00
  -1.20298E-01  1.38887E+00 -3.07960E+00 -5.79140E+00  6.35147E-01 -3.09481E+00 -1.50861E+01 -1.13624E+01 -4.48214E+00 -4.95688E+00
   1.92626E+00  7.06991E+00  8.23789E+00  1.09897E+01  2.69446E+00 -3.63510E-02 -7.46072E+00 -8.72606E+00 -6.17004E+00 -1.09734E+01
  -3.15275E+00 -3.15797E+00 -4.32178E+00 -8.78605E+00 -3.49774E+00 -1.45807E+01 -2.33469E+00 -3.37006E+00 -1.93064E+00 -4.22201E+00
  -7.20077E+00 -5.76322E+00 -5.69162E+00 -5.11057E+00  2.65637E+00  6.31000E+00  3.92517E+00 -3.64045E-01  6.68907E+00  4.69054E+00
  -4.32679E+00 -7.20952E+00 -3.33220E+00 -9.39211E+00 -5.95156E+00 -2.26481E+00 -9.71782E+00 -9.45250E+00 -3.75240E+00 -9.85234E+00
  -1.11648E+01 -2.79044E+00  1.26627E-01 -9.03715E+00 -2.23148E+00 -1.64644E-01 -3.80062E+00 -4.39598E+00 -5.28719E+00 -1.87960E+00
  -1.36917E+01 -7.15157E+00 -3.26535E+00 -1.34397E+01 -4.93625E+00 -6.94871E+00  3.61395E+00 -2.82805E-01 -7.42626E+00 -1.08544E+01
  -6.56059E+00  1.49567E+00 -2.13758E+00 -5.31606E+00 -3.95470E+00 -9.12723E+00  4.22510E-01 -7.15878E+00 -4.76032E+00 -1.01943E+01
  -5.59894E+00 -6.30992E+00 -8.77030E+00 -9.91514E+00  2.07154E+00 -3.76197E-01 -1.33871E+01 -4.91542E+00  1.07729E+00  1.09192E+00
  -5.35699E+00 -3.55173E+00 -7.33058E+00 -6.35514E+00 -4.55984E+00 -4.20845E+00 -3.12079E+00 -1.39519E+01 -3.08829E+00  1.12672E+00
   1.95489E+00 -3.94252E+00 -1.20025E+01  7.39666E+00  1.57667E-01 -7.59607E+00 -3.68479E+00 -6.85522E+00 -8.56803E+00 -1.13232E+01
  -5.62300E+00  1.22000E+00 -9.24189E+00 -3.51127E-01 -9.87105E+00 -1.14072E+00 -8.10994E+00 -8.55183E+00 -4.46034E+00 -9.07959E+00
  -6.58569E+00 -7.14525E+00 -4.45185E+00 -3.81146E+00  3.80743E+00 -4.38504E+00  2.02192E+00  1.45766E-01 -2.90919E+00 -5.72397E+00
  -3.55549E+00 -1.10616E+00  1.01870E+00 -6.64553E+00 -3.79162E+00 -5.99261E+00 -6.00859E+00 -9.69977E+00 -9.57656E+00 -1.25319E+01
  -5.93172E-01 -7.34476E+00 -7.71053E+00  3.49372E-01 -9.43567E+00 -4.23539E+00 -1.15305E+01 -1.08341E+00 -9.90228E+00 -6.45601E+00
  -2.47418E+00 -6.98414E+00 -9.89038E+00 -4.34964E+00 -6.08872E+00 -1.68928E+00 -1.09255E+01 -7.84957E+00 -1.64774E+00 -1.64740E+00
  -6.33318E+00 -7.54501E+00 -1.40525E+00 -1.30847E+01 -1.08455E+01 -2.87335E+00 -6.42360E+00  5.38613E+00  6.59261E+00  1.37240E+01
   1.77698E+01  1.18153E+01  1.28368E+01  1.82178E+01  1.79920E+01  5.14623E+00  4.93160E+00  4.53742E+00  4.47014E+00 -2.68012E+00
   5.05400E+00  4.93260E-03  8.86346E-01  8.87068E-01 -1.61838E+00  3.39653E+00  3.67683E-01  3.34954E+00  4.60820E+00 -1.26913E+00
   3.63362E+00 -5.93195E-01  5.13191E+00 -5.42465E+00 -5.09844E-01 -1.04630E+00 -7.31390E+00 -2.34007E-01  4.50118E+00  9.71320E+00
   5.80780E+00 -2.19869E+00 -1.05473E+00  9.96590E-01  6.81593E-01  1.79567E+00 -1.11920E-01 -1.84851E+00 -3.64215E+00  1.62655E+00
   1.51289E+00 -2.83579E+00  1.09905E+01  1.64125E+00  1.43629E+01  4.84453E+00  1.39878E+01  8.78808E+00  1.86155E+01  1.21379E+01
   9.76890E+00  1.26632E+01  1.73934E+01  1.70040E+01  1.46581E+01  2.22648E+01  2.05788E+01  1.32168E+01  2.67175E+01  1.20771E+01
   1.36471E+01  1.71857E+01  1.91935E+01  2.02019E+01  2.16532E+01  1.01429E+01  1.64788E+01  8.78496E+00  1.72576E+01  1.93315E+01
   3.55609E+00  9.15166E+00  5.48316E+00  4.15488E+00 -3.72454E+00  8.01360E+00  1.56635E+00  3.82658E+00  1.69658E+00 -2.97868E+00
   1.50911E+00 -3.51610E+00 -4.95938E+00 -2.92643E+00 -3.79798E+00 -8.05301E+00  2.97518E+00 -6.60592E+00 -8.35885E+00 -8.29551E+00
  -7.51721E+00 -7.55263E+00  1.35873E+00 -6.25342E+00 -3.97346E+00 -4.90786E+00 -5.56070E+00 -9.05973E+00  3.42569E+00 -4.12819E+00
   4.34176E-01 -4.34717E+00  8.69165E-01 -4.05932E+00 -4.26373E+00 -1.24026E+00 -3.15561E+00 -3.66204E+00 -3.78147E+00 -1.29923E+01
  -5.15168E+00 -9.22267E+00 -1.22274E+00 -2.62125E+00  3.39074E-01 -1.37673E+00 -7.49269E+00  4.36456E+00 -1.12341E+01  7.40728E-01
   1.58913E-01 -1.62428E+00 -3.26322E+00  1.94353E+00 -8.98491E-01  5.20828E+00 -2.84609E-01 -5.41565E+00  1.63197E+00 -1.56553E+01
  -3.81180E+00 -2.87349E+00 -1.86232E+00 -2.38796E+00 -5.32812E+00 -1.12075E-01  2.55932E-01 -3.85001E+00 -2.42390E+00  1.51326E+00
  -6.14755E+00  8.44930E-01  3.18824E+00 -1.94976E+00 -1.39955E+00 -2.54412E+00  3.17598E-01  5.64943E-01 -1.22776E+00  1.53608E+00
  -1.51363E+00 -7.10487E-01 -4.02583E+00  5.48427E+00 -2.35998E+00 -6.62640E+00 -6.11434E+00 -7.87847E+00 -1.77059E+00 -4.66660E+00
  -5.47876E+00  3.40439E-01  2.14469E+00 -3.50839E+00 -2.60383E+00  3.73882E+00 -9.03959E+00 -6.92640E+00  5.52670E-01 -1.13925E+00
  -3.57993E+00 -1.00870E+01 -4.04748E+00 -1.00724E+01 -8.84521E+00 -1.29386E-01 -7.52412E+00  2.11138E+00 -9.77842E+00  4.45994E+00
  -7.46029E+00 -2.95921E+00 -7.91985E-01 -4.55518E-01 -4.50100E+00 -5.43732E+00 -6.99022E+00 -2.78712E+00 -1.78924E+00 -1.32055E+01
  -5.05659E+00 -8.97228E+00 -6.74184E+00 -4.54722E+00 -1.83651E+00 -8.31563E+00 -9.04167E+00 -5.74526E+00 -2.07885E+00 -2.20726E+00
  -9.87317E+00  1.48233E-02 -4.93821E+00 -1.98561E+00 -5.65490E-01 -1.68006E+01 -8.60128E+00 -4.21541E+00 -2.09162E+00 -6.75572E+00
  -8.38784E+00 -5.41970E+00 -1.22479E+01  9.69289E-01 -7.35676E+00 -7.89510E+00 -5.57642E+00 -1.50107E+00 -3.85888E+00 -4.75568E+00
  -7.55855E+00 -5.11608E+00 -8.58952E-01  3.00391E-01 -5.54111E-02 -4.17035E+00 -4.45478E+00 -6.83345E+00  4.04867E+00 -4.84134E+00
   2.74595E+00 -3.22973E+00 -2.64756E+00  1.03737E+00 -5.65525E+00  1.15029E+00 -1.26135E+01  2.56541E+00
 NY points of the fit to the data follow
  -3.84911E+00 -3.92368E+00 -3.95112E+00 -4.12868E+00 -3.95430E+00 -2.51333E+00 -5.84869E-01  9.06621E-01  1.54752E+00  1.53225E+00
   1.31064E+00  6.83980E-01 -6.33797E-01 -2.04652E+00 -2.92428E+00 -3.36189E+00 -3.62208E+00 -3.79041E+00 -3.85417E+00 -3.87225E+00
  -3.86193E+00 -3.63737E+00 -3.26324E+00 -2.99162E+00 -3.04143E+00 -3.40785E+00 -3.91423E+00 -4.46257E+00 -4.92766E+00 -5.09218E+00
  -4.75992E+00 -4.04667E+00 -3.31430E+00 -2.82520E+00 -2.61101E+00 -2.59315E+00 -2.79677E+00 -3.24289E+00 -3.71298E+00 -3.95468E+00
  -3.99822E+00 -3.97479E+00 -3.95021E+00 -3.83535E+00 -3.46572E+00 -2.92118E+00 -2.47045E+00 -2.24264E+00 -2.21320E+00 -2.35716E+00
  -2.64257E+00 -3.04830E+00 -3.49217E+00 -3.83130E+00 -4.02995E+00 -4.09699E+00 -4.03140E+00 -3.86710E+00 -3.65232E+00 -3.48994E+00
  -3.42884E+00 -3.44706E+00 -3.53252E+00 -3.66233E+00 -3.82277E+00 -3.94260E+00 -3.99751E+00 -4.01548E+00 -3.96086E+00 -3.84682E+00
  -3.74978E+00 -3.68478E+00 -3.60209E+00 -3.50154E+00 -3.41291E+00 -3.39942E+00 -3.48321E+00 -3.60439E+00 -3.71354E+00 -3.81726E+00
  -3.91364E+00 -3.99439E+00 -3.92617E+00 -3.69498E+00 -3.47818E+00 -3.42824E+00 -3.55600E+00 -3.73401E+00 -3.85260E+00 -3.96586E+00
  -4.11981E+00 -4.23276E+00 -4.22605E+00 -4.14114E+00 -4.06454E+00 -4.00263E+00 -4.07156E+00 -4.62932E+00 -4.27587E+00 -1.65462E+00
   1.72627E+00  4.24539E+00  5.16116E+00  5.02432E+00  4.65894E+00  3.51238E+00  1.05139E+00 -1.53132E+00 -3.03190E+00 -3.59195E+00
  -3.73809E+00 -3.78466E+00 -3.80694E+00 -3.81135E+00 -3.80092E+00 -3.78018E+00 -3.76760E+00 -3.76331E+00 -3.75006E+00 -3.73992E+00
  -3.82211E+00 -4.31426E+00 -4.01972E+00 -1.65801E+00  1.46619E+00  3.84920E+00  4.79136E+00  4.77331E+00  4.49634E+00  3.48936E+00
   1.26126E+00 -1.15622E+00 -2.62291E+00 -3.22289E+00 -3.44580E+00 -3.56812E+00 -3.64146E+00 -3.66633E+00 -3.67192E+00 -3.70030E+00
  -3.74965E+00 -3.79437E+00 -3.81000E+00 -3.80704E+00 -3.81672E+00 -3.84094E+00 -3.86834E+00 -3.89707E+00 -3.93294E+00 -3.98325E+00
  -4.04227E+00 -4.08938E+00 -4.11653E+00 -4.13176E+00 -4.14026E+00 -4.13602E+00 -4.10545E+00 -4.14029E+00 -4.31506E+00 -4.55244E+00
  -4.76234E+00 -4.79868E+00 -4.67700E+00 -4.55420E+00 -4.46327E+00 -4.38218E+00 -4.32407E+00 -4.32781E+00 -4.43217E+00 -4.60721E+00
  -4.74820E+00 -4.80155E+00 -4.85249E+00 -5.04236E+00 -5.23385E+00 -5.28963E+00 -5.17616E+00 -5.04373E+00 -5.06043E+00 -5.11472E+00
  -5.05784E+00 -4.90656E+00 -4.79471E+00 -4.84237E+00 -4.99584E+00 -5.01332E+00 -4.86323E+00 -4.64123E+00 -4.44060E+00 -4.30074E+00
  -4.16847E+00 -4.00762E+00 -3.93343E+00 -3.92106E+00 -3.89838E+00 -3.90413E+00 -3.96876E+00 -4.04648E+00 -4.05329E+00 -3.98066E+00
  -3.81219E+00 -3.54061E+00 -3.16909E+00 -2.81387E+00 -2.62696E+00 -2.63263E+00 -3.05102E+00 -3.80927E+00 -4.54961E+00 -5.12174E+00
  -5.46768E+00 -5.58045E+00 -5.25164E+00 -4.39239E+00 -3.38034E+00 -2.69579E+00 -2.41598E+00 -2.32892E+00 -2.50505E+00 -3.16128E+00
  -4.06217E+00 -4.64136E+00 -4.72083E+00 -4.46653E+00 -4.08238E+00 -3.60468E+00 -3.02010E+00 -2.52838E+00 -2.33660E+00 -2.36732E+00
  -2.41785E+00 -2.40851E+00 -2.48167E+00 -2.62909E+00 -2.70455E+00 -2.60458E+00 -2.36528E+00 -2.06004E+00 -1.68573E+00 -1.39422E+00
  -1.22634E+00 -1.19279E+00 -1.24850E+00 -1.34624E+00 -1.45953E+00 -1.54414E+00 -1.51363E+00 -1.36817E+00 -1.22667E+00 -1.09018E+00
  -9.05458E-01 -6.88567E-01 -5.02549E-01 -3.65457E-01 -4.03020E-01 -1.28296E+00 -1.73026E+00  2.15617E+00  8.55475E+00  1.40978E+01
   1.67629E+01  1.69192E+01  1.63077E+01  1.45878E+01  1.02409E+01  4.73104E+00  9.11593E-01 -8.81765E-01 -1.61338E+00 -2.01009E+00
  -2.26763E+00 -2.44627E+00 -2.56629E+00 -2.63420E+00 -2.67369E+00 -2.70820E+00 -2.75100E+00 -2.82623E+00 -2.93527E+00 -3.06115E+00
  -3.19249E+00 -3.31547E+00 -3.41454E+00 -3.48449E+00 -3.52798E+00 -3.55088E+00 -3.55746E+00 -3.54761E+00 -3.52159E+00 -3.47935E+00
  -3.41924E+00 -3.33224E+00 -3.20936E+00 -3.04451E+00 -2.82998E+00 -2.55721E+00 -2.22022E+00 -1.81386E+00 -1.33366E+00 -7.77460E-01
  -1.45088E-01  5.61062E-01  1.33607E+00  2.17228E+00  3.05965E+00  3.98612E+00  4.93742E+00  5.89769E+00  6.85048E+00  7.77943E+00
   8.66879E+00  9.50404E+00  1.02720E+01  1.09610E+01  1.15616E+01  1.20660E+01  1.24690E+01  1.27668E+01  1.29573E+01  1.30399E+01
   1.30136E+01  1.28689E+01  1.26349E+01  1.27327E+01  1.30204E+01  1.28018E+01  1.18454E+01  1.03382E+01  8.68242E+00  7.00354E+00
   4.86000E+00  2.55223E+00  1.25720E+00  1.09991E+00  1.44486E+00  1.68377E+00  1.67735E+00  1.65995E+00  1.56438E+00  1.03354E+00
   1.28975E-01 -7.50428E-01 -1.41748E+00 -1.83588E+00 -2.08052E+00 -2.28865E+00 -2.52093E+00 -2.77142E+00 -2.99638E+00 -3.18752E+00
  -3.41484E+00 -3.61269E+00 -3.64877E+00 -3.52645E+00 -3.34344E+00 -3.18229E+00 -3.04982E+00 -2.92088E+00 -2.82441E+00 -2.80121E+00
  -2.82244E+00 -2.83985E+00 -2.83936E+00 -2.82819E+00 -2.81457E+00 -2.80194E+00 -2.79172E+00 -2.78434E+00 -2.77984E+00 -2.77789E+00
  -2.77791E+00 -2.77893E+00 -2.77978E+00 -2.77913E+00 -2.77564E+00 -2.76791E+00 -2.75441E+00 -2.73346E+00 -2.70339E+00 -2.66252E+00
  -2.60935E+00 -2.54235E+00 -2.46004E+00 -2.36096E+00 -2.24387E+00 -2.10778E+00 -1.95212E+00 -1.77659E+00 -1.58131E+00 -1.36690E+00
  -1.13467E+00 -8.86712E-01 -6.25880E-01 -3.55707E-01 -8.04345E-02  1.95045E-01  4.65151E-01  7.23880E-01  9.65007E-01  1.18245E+00
   1.37041E+00  1.52363E+00  1.63752E+00  1.70856E+00  1.73440E+00  1.71415E+00  1.64822E+00  1.53834E+00  1.38739E+00  1.19939E+00
   9.79262E-01  7.32654E-01  4.65519E-01  1.83884E-01 -1.06423E-01 -3.99840E-01 -6.91296E-01 -9.76323E-01 -1.25129E+00 -1.51333E+00
  -1.76039E+00 -1.99102E+00 -2.20438E+00 -2.40021E+00 -2.57877E+00 -2.74072E+00 -2.88694E+00 -3.01845E+00 -3.13634E+00 -3.24179E+00
  -3.33605E+00 -3.42033E+00 -3.49573E+00 -3.56318E+00 -3.62359E+00 -3.67778E+00 -3.72657E+00 -3.77063E+00 -3.81051E+00 -3.84666E+00
  -3.87949E+00 -3.90941E+00 -3.93683E+00 -3.96202E+00 -3.98519E+00 -4.00650E+00 -4.02616E+00 -4.04437E+00 -4.06133E+00 -4.07714E+00
  -4.09187E+00 -4.10556E+00 -4.11836E+00 -4.13038E+00 -4.14172E+00 -4.15238E+00 -4.16239E+00 -4.17178E+00 -4.18066E+00 -4.18908E+00
  -4.19711E+00 -4.20469E+00 -4.21185E+00 -4.21861E+00 -4.22507E+00 -4.23126E+00 -4.23719E+00 -4.24280E+00 -4.24811E+00 -4.25318E+00
  -4.25808E+00 -4.26279E+00 -4.26731E+00 -4.27159E+00 -4.27567E+00 -4.27960E+00 -4.28342E+00 -4.28711E+00 -4.29064E+00 -4.29398E+00
  -4.29720E+00 -4.30032E+00 -4.30339E+00 -4.30633E+00 -4.30914E+00 -4.31181E+00 -4.31441E+00 -4.31695E+00 -4.31944E+00 -4.32182E+00
  -4.32409E+00 -4.32625E+00 -4.32838E+00 -4.33047E+00 -4.33251E+00 -4.33444E+00 -4.33628E+00 -4.33804E+00
 NY background values follow
    -4.398E+00   -4.398E+00   -4.398E+00   -4.398E+00   -4.398E+00   -4.398E+00   -4.398E+00   -4.398E+00   -4.399E+00   -4.399E+00
    -4.399E+00   -4.399E+00   -4.399E+00   -4.399E+00   -4.399E+00   -4.399E+00   -4.399E+00   -4.399E+00   -4.399E+00   -4.399E+00
    -4.399E+00   -4.400E+00   -4.400E+00   -4.400E+00   -4.400E+00   -4.400E+00   -4.400E+00   -4.400E+00   -4.400E+00   -4.400E+00
    -4.400E+00   -4.400E+00   -4.400E+00   -4.400E+00   -4.401E+00   -4.401E+00   -4.401E+00   -4.401E+00   -4.401E+00   -4.401E+00
    -4.401E+00   -4.401E+00   -4.401E+00   -4.401E+00   -4.401E+00   -4.401E+00   -4.401E+00   -4.402E+00   -4.402E+00   -4.402E+00
    -4.402E+00   -4.402E+00   -4.402E+00   -4.402E+00   -4.402E+00   -4.402E+00   -4.402E+00   -4.402E+00   -4.402E+00   -4.403E+00
    -4.403E+00   -4.403E+00   -4.403E+00   -4.403E+00   -4.403E+00   -4.403E+00   -4.403E+00   -4.403E+00   -4.403E+00   -4.403E+00
    -4.403E+00   -4.403E+00   -4.404E+00   -4.404E+00   -4.404E+00   -4.404E+00   -4.404E+00   -4.404E+00   -4.404E+00   -4.404E+00
    -4.404E+00   -4.404E+00   -4.404E+00   -4.404E+00   -4.404E+00   -4.405E+00   -4.405E+00   -4.405E+00   -4.405E+00   -4.405E+00
    -4.405E+00   -4.405E+00   -4.405E+00   -4.405E+00   -4.405E+00   -4.405E+00   -4.405E+00   -4.405E+00   -4.406E+00   -4.406E+00
    -4.406E+00   -4.406E+00   -4.406E+00   -4.406E+00   -4.406E+00   -4.406E+00   -4.406E+00   -4.406E+00   -4.406E+00   -4.406E+00
    -4.406E+00   -4.407E+00   -4.407E+00   -4.407E+00   -4.407E+00   -4.407E+00   -4.407E+00   -4.407E+00   -4.407E+00   -4.407E+00
    -4.407E+00   -4.407E+00   -4.407E+00   -4.407E+00   -4.408E+00   -4.408E+00   -4.408E+00   -4.408E+00   -4.408E+00   -4.408E+00
    -4.408E+00   -4.408E+00   -4.408E+00   -4.408E+00   -4.408E+00   -4.408E+00   -4.408E+00   -4.409E+00   -4.409E+00   -4.409E+00
    -4.409E+00   -4.409E+00   -4.409E+00   -4.409E+00   -4.409E+00   -4.409E+00   -4.409E+00   -4.409E+00   -4.409E+00   -4.409E+00
    -4.410E+00   -4.410E+00   -4.410E+00   -4.410E+00   -4.410E+00   -4.410E+00   -4.410E+00   -4.410E+00   -4.410E+00   -4.410E+00
    -4.410E+00   -4.410E+00   -4.410E+00   -4.411E+00   -4.411E+00   -4.411E+00   -4.411E+00   -4.411E+00   -4.411E+00   -4.411E+00
    -4.411E+00   -4.411E+00   -4.411E+00   -4.411E+00   -4.411E+00   -4.411E+00   -4.412E+00   -4.412E+00   -4.412E+00   -4.412E+00
    -4.412E+00   -4.412E+00   -4.412E+00   -4.412E+00   -4.412E+00   -4.412E+00   -4.412E+00   -4.412E+00   -4.412E+00   -4.412E+00
    -4.413E+00   -4.413E+00   -4.413E+00   -4.413E+00   -4.413E+00   -4.413E+00   -4.413E+00   -4.413E+00   -4.413E+00   -4.413E+00
    -4.413E+00   -4.413E+00   -4.413E+00   -4.414E+00   -4.414E+00   -4.414E+00   -4.414E+00   -4.414E+00   -4.414E+00   -4.414E+00
    -4.414E+00   -4.414E+00   -4.414E+00   -4.414E+00   -4.414E+00   -4.414E+00   -4.415E+00   -4.415E+00   -4.415E+00   -4.415E+00
    -4.415E+00   -4.415E+00   -4.415E+00   -4.415E+00   -4.415E+00   -4.415E+00   -4.415E+00   -4.415E+00   -4.415E+00   -4.416E+00
    -4.416E+00   -4.416E+00   -4.416E+00   -4.416E+00   -4.416E+00   -4.416E+00   -4.416E+00   -4.416E+00   -4.416E+00   -4.416E+00
    -4.416E+00   -4.416E+00   -4.417E+00   -4.417E+00   -4.417E+00   -4.417E+00   -4.417E+00   -4.417E+00   -4.417E+00   -4.417E+00
    -4.417E+00   -4.417E+00   -4.417E+00   -4.417E+00   -4.417E+00   -4.418E+00   -4.418E+00   -4.418E+00   -4.418E+00   -4.418E+00
    -4.418E+00   -4.418E+00   -4.418E+00   -4.418E+00   -4.418E+00   -4.418E+00   -4.418E+00   -4.418E+00   -4.418E+00   -4.419E+00
    -4.419E+00   -4.419E+00   -4.419E+00   -4.419E+00   -4.419E+00   -4.419E+00   -4.419E+00   -4.419E+00   -4.419E+00   -4.419E+00
    -4.419E+00   -4.419E+00   -4.420E+00   -4.420E+00   -4.420E+00   -4.420E+00   -4.420E+00   -4.420E+00   -4.420E+00   -4.420E+00
    -4.420E+00   -4.420E+00   -4.420E+00   -4.420E+00   -4.420E+00   -4.421E+00   -4.421E+00   -4.421E+00   -4.421E+00   -4.421E+00
    -4.421E+00   -4.421E+00   -4.421E+00   -4.421E+00   -4.421E+00   -4.421E+00   -4.421E+00   -4.421E+00   -4.422E+00   -4.422E+00
    -4.422E+00   -4.422E+00   -4.422E+00   -4.422E+00   -4.422E+00   -4.422E+00   -4.422E+00   -4.422E+00   -4.422E+00   -4.422E+00
    -4.422E+00   -4.423E+00   -4.423E+00   -4.423E+00   -4.423E+00   -4.423E+00   -4.423E+00   -4.423E+00   -4.423E+00   -4.423E+00
    -4.423E+00   -4.423E+00   -4.423E+00   -4.423E+00   -4.424E+00   -4.424E+00   -4.424E+00   -4.424E+00   -4.424E+00   -4.424E+00
    -4.424E+00   -4.424E+00   -4.424E+00   -4.424E+00   -4.424E+00   -4.424E+00   -4.424E+00   -4.425E+00   -4.425E+00   -4.425E+00
    -4.425E+00   -4.425E+00   -4.425E+00   -4.425E+00   -4.425E+00   -4.425E+00   -4.425E+00   -4.425E+00   -4.425E+00   -4.425E+00
    -4.426E+00   -4.426E+00   -4.426E+00   -4.426E+00   -4.426E+00   -4.426E+00   -4.426E+00   -4.426E+00   -4.426E+00   -4.426E+00
    -4.426E+00   -4.426E+00   -4.426E+00   -4.427E+00   -4.427E+00   -4.427E+00   -4.427E+00   -4.427E+00   -4.427E+00   -4.427E+00
    -4.427E+00   -4.427E+00   -4.427E+00   -4.427E+00   -4.427E+00   -4.427E+00   -4.428E+00   -4.428E+00   -4.428E+00   -4.428E+00
    -4.428E+00   -4.428E+00   -4.428E+00   -4.428E+00   -4.428E+00   -4.428E+00   -4.428E+00   -4.428E+00   -4.429E+00   -4.429E+00
    -4.429E+00   -4.429E+00   -4.429E+00   -4.429E+00   -4.429E+00   -4.429E+00   -4.429E+00   -4.429E+00   -4.429E+00   -4.429E+00
    -4.429E+00   -4.430E+00   -4.430E+00   -4.430E+00   -4.430E+00   -4.430E+00   -4.430E+00   -4.430E+00   -4.430E+00   -4.430E+00
    -4.430E+00   -4.430E+00   -4.430E+00   -4.430E+00   -4.431E+00   -4.431E+00   -4.431E+00   -4.431E+00   -4.431E+00   -4.431E+00
    -4.431E+00   -4.431E+00   -4.431E+00   -4.431E+00   -4.431E+00   -4.431E+00   -4.431E+00   -4.432E+00   -4.432E+00   -4.432E+00
    -4.432E+00   -4.432E+00   -4.432E+00   -4.432E+00   -4.432E+00   -4.432E+00   -4.432E+00   -4.432E+00   -4.432E+00   -4.432E+00
    -4.433E+00   -4.433E+00   -4.433E+00   -4.433E+00   -4.433E+00   -4.433E+00   -4.433E+00   -4.433E+00   -4.433E+00   -4.433E+00
    -4.433E+00   -4.433E+00   -4.433E+00   -4.434E+00   -4.434E+00   -4.434E+00   -4.434E+00   -4.434E+00   -4.434E+00   -4.434E+00
    -4.434E+00   -4.434E+00   -4.434E+00   -4.434E+00   -4.434E+00   -4.434E+00   -4.435E+00   -4.435E+00   -4.435E+00   -4.435E+00
    -4.435E+00   -4.435E+00   -4.435E+00   -4.435E+00   -4.435E+00   -4.435E+00   -4.435E+00   -4.435E+00   -4.436E+00   -4.436E+00
    -4.436E+00   -4.436E+00   -4.436E+00   -4.436E+00   -4.436E+00   -4.436E+00   -4.436E+00   -4.436E+00
 Ala      Conc. = 1.48E+02
