 LCModel (Version 6.3-1L) Copyright: S.W. Provencher.          Ref.: Magn. Reson. Med. 30:672-679 (1993).                
 Slice#2 Row#10 Col#12  PD_24_press_2_raw_act
 36 lines in following concentration table = NCONC+1
    Conc.  %SD /Cr+PCr  Metabolite                                         
 8.40E+03  30%  74.528 Ala                                                 
    0.000 999%   0.000 Asp                                                 
    0.000 999%   0.000 Cr                                                  
  112.697  42%   1.000 PCr                                                 
    0.000 999%   0.000 GABA                                                
   42.589 234%   0.378 Glc                                                 
  738.838  56%   6.556 Gln                                                 
    0.000 999%   0.000 Glu                                                 
   21.884  85%   0.194 GPC                                                 
    0.000 999%   0.000 PCh                                                 
  236.797  41%   2.101 GSH                                                 
    0.000 999%   0.000 Ins                                                 
    0.000 999%   0.000 Lac                                                 
  223.986  42%   1.987 NAA                                                 
    0.000 999%   0.000 NAAG                                                
   38.129  54%   0.338 Scyllo                                              
   41.023 388%   0.364 Tau                                                 
    0.000 999%   0.000 -CrCH2                                              
   21.884  85%   0.194 GPC+PCh                                             
  223.986  42%   1.987 NAA+NAAG                                            
  112.697  42%   1.000 Cr+PCr                                              
  738.838  56%   6.556 Glu+Gln                                             
 6.33E+04  10% 562.025 Lip13a                                              
 6.03E+03  13%  53.483 Lip13b                                              
 5.00E+03  21%  44.397 Lip09                                               
 8.76E+03  15%  77.697 MM09                                                
 1.01E+04  13%  89.633 Lip20                                               
 1.86E+04   9% 165.365 MM20                                                
 2.36E+04  13% 209.684 MM12                                                
 8.11E+04   8% 719.431 MM14                                                
 2.26E+04  18% 200.627 MM17                                                
 6.94E+04   9% 615.508 Lip13a+Lip13b                                       
 1.74E+05   5% 1.5E+03 MM14+Lip13a+Lip13b+MM12                             
 1.38E+04  14% 122.094 MM09+Lip09                                          
 2.87E+04   6% 254.998 MM20+Lip20                                          
   6 lines in following misc. output table
  FWHM = 0.092 ppm    S/N = 106                                            
  Data shift = 0.237 ppm                                                   
  Ph:  45 deg     231.6 deg/ppm                                            
  alphaB,S = 2.5E-01,   6.0E+01                                            
   10 spline knots.   Ns = 9(2)                                            
  ( 6) 4 infls.   ( 2) 2 extrs.                                            
  498 points on ppm-axis = NY
      4.000000     3.992357     3.984714     3.977070     3.969427     3.961784     3.954141     3.946497     3.938854     3.931211
      3.923568     3.915925     3.908281     3.900638     3.892995     3.885352     3.877708     3.870065     3.862422     3.854779
      3.847136     3.839492     3.831849     3.824206     3.816563     3.808919     3.801276     3.793633     3.785990     3.778347
      3.770703     3.763060     3.755417     3.747774     3.740130     3.732487     3.724844     3.717201     3.709558     3.701914
      3.694271     3.686628     3.678985     3.671341     3.663698     3.656055     3.648412     3.640769     3.633125     3.625482
      3.617839     3.610196     3.602552     3.594909     3.587266     3.579623     3.571980     3.564336     3.556693     3.549050
      3.541407     3.533763     3.526120     3.518477     3.510834     3.503191     3.495547     3.487904     3.480261     3.472618
      3.464974     3.457331     3.449688     3.442045     3.434402     3.426758     3.419115     3.411472     3.403829     3.396185
      3.388542     3.380899     3.373256     3.365613     3.357969     3.350326     3.342683     3.335040     3.327396     3.319753
      3.312110     3.304467     3.296824     3.289180     3.281537     3.273894     3.266251     3.258607     3.250964     3.243321
      3.235678     3.228034     3.220391     3.212748     3.205105     3.197462     3.189818     3.182175     3.174532     3.166889
      3.159245     3.151602     3.143959     3.136316     3.128673     3.121029     3.113386     3.105743     3.098100     3.090456
      3.082813     3.075170     3.067527     3.059884     3.052240     3.044597     3.036954     3.029311     3.021667     3.014024
      3.006381     2.998738     2.991095     2.983451     2.975808     2.968165     2.960522     2.952878     2.945235     2.937592
      2.929949     2.922306     2.914662     2.907019     2.899376     2.891733     2.884089     2.876446     2.868803     2.861160
      2.853517     2.845873     2.838230     2.830587     2.822944     2.815300     2.807657     2.800014     2.792371     2.784728
      2.777084     2.769441     2.761798     2.754155     2.746511     2.738868     2.731225     2.723582     2.715939     2.708295
      2.700652     2.693009     2.685366     2.677722     2.670079     2.662436     2.654793     2.647150     2.639506     2.631863
      2.624220     2.616577     2.608933     2.601290     2.593647     2.586004     2.578361     2.570717     2.563074     2.555431
      2.547788     2.540144     2.532501     2.524858     2.517215     2.509572     2.501928     2.494285     2.486642     2.478999
      2.471355     2.463712     2.456069     2.448426     2.440783     2.433139     2.425496     2.417853     2.410210     2.402566
      2.394923     2.387280     2.379637     2.371994     2.364350     2.356707     2.349064     2.341421     2.333777     2.326134
      2.318491     2.310848     2.303205     2.295561     2.287918     2.280275     2.272632     2.264988     2.257345     2.249702
      2.242059     2.234416     2.226772     2.219129     2.211486     2.203843     2.196199     2.188556     2.180913     2.173270
      2.165627     2.157983     2.150340     2.142697     2.135054     2.127410     2.119767     2.112124     2.104481     2.096838
      2.089194     2.081551     2.073908     2.066265     2.058621     2.050978     2.043335     2.035692     2.028049     2.020405
      2.012762     2.005119     1.997476     1.989833     1.982190     1.974546     1.966903     1.959260     1.951617     1.943974
      1.936331     1.928688     1.921045     1.913402     1.905759     1.898115     1.890472     1.882829     1.875186     1.867543
      1.859900     1.852257     1.844614     1.836971     1.829327     1.821684     1.814041     1.806398     1.798755     1.791112
      1.783469     1.775826     1.768183     1.760540     1.752896     1.745253     1.737610     1.729967     1.722324     1.714681
      1.707038     1.699395     1.691752     1.684108     1.676465     1.668822     1.661179     1.653536     1.645893     1.638250
      1.630607     1.622964     1.615321     1.607677     1.600034     1.592391     1.584748     1.577105     1.569462     1.561819
      1.554176     1.546533     1.538890     1.531246     1.523603     1.515960     1.508317     1.500674     1.493031     1.485388
      1.477745     1.470102     1.462458     1.454815     1.447172     1.439529     1.431886     1.424243     1.416600     1.408957
      1.401314     1.393671     1.386027     1.378384     1.370741     1.363098     1.355455     1.347812     1.340169     1.332526
      1.324883     1.317240     1.309596     1.301953     1.294310     1.286667     1.279024     1.271381     1.263738     1.256095
      1.248452     1.240808     1.233165     1.225522     1.217879     1.210236     1.202593     1.194950     1.187307     1.179664
      1.172021     1.164377     1.156734     1.149091     1.141448     1.133805     1.126162     1.118519     1.110876     1.103233
      1.095590     1.087946     1.080303     1.072660     1.065017     1.057374     1.049731     1.042088     1.034445     1.026802
      1.019158     1.011515     1.003872     0.996229     0.988586     0.980943     0.973300     0.965657     0.958014     0.950371
      0.942727     0.935084     0.927441     0.919798     0.912155     0.904512     0.896869     0.889226     0.881583     0.873940
      0.866296     0.858653     0.851010     0.843367     0.835724     0.828081     0.820438     0.812795     0.805152     0.797508
      0.789865     0.782222     0.774579     0.766936     0.759293     0.751650     0.744007     0.736364     0.728721     0.721077
      0.713434     0.705791     0.698148     0.690505     0.682862     0.675219     0.667576     0.659933     0.652290     0.644646
      0.637003     0.629360     0.621717     0.614074     0.606431     0.598788     0.591145     0.583502     0.575858     0.568215
      0.560572     0.552929     0.545286     0.537643     0.530000     0.522357     0.514714     0.507071     0.499427     0.491784
      0.484141     0.476498     0.468855     0.461212     0.453569     0.445925     0.438282     0.430639     0.422996     0.415353
      0.407710     0.400067     0.392424     0.384780     0.377137     0.369494     0.361851     0.354208     0.346565     0.338922
      0.331278     0.323635     0.315992     0.308349     0.300706     0.293063     0.285420     0.277777     0.270133     0.262490
      0.254847     0.247204     0.239561     0.231918     0.224275     0.216631     0.208988     0.201345
 NY phased data points follow
   1.68827E+01  1.91599E+01  1.88013E+01  1.43056E+01  1.57789E+01  1.36170E+01  1.47195E+01  1.44135E+01  1.35285E+01  1.23839E+01
   1.24153E+01  1.30372E+01  1.26710E+01  8.47176E+00  8.68954E+00  1.07336E+01  8.99132E+00  6.64600E+00  6.52804E+00  4.89176E+00
   5.00296E+00  4.67272E+00  4.07842E+00  5.10279E+00  3.05579E+00  2.34164E+00  2.49729E+00 -1.05697E+00 -9.30718E-01 -6.82647E-01
  -2.48186E+00 -3.98185E+00 -2.83091E+00 -6.25655E+00 -3.48065E+00 -8.55673E+00 -6.67676E+00 -6.90050E+00 -7.65753E+00 -8.32267E+00
  -8.87366E+00 -1.23491E+01 -1.04599E+01 -1.36951E+01 -1.43797E+01 -1.19454E+01 -1.46227E+01 -1.62676E+01 -1.44330E+01 -1.59240E+01
  -1.72380E+01 -1.64965E+01 -1.74035E+01 -1.66833E+01 -1.96905E+01 -2.08137E+01 -1.96493E+01 -1.91025E+01 -2.17481E+01 -1.93207E+01
  -2.24921E+01 -2.23241E+01 -2.58804E+01 -2.12637E+01 -2.43318E+01 -2.52332E+01 -2.36634E+01 -2.54969E+01 -2.38779E+01 -2.57254E+01
  -2.46511E+01 -2.70987E+01 -2.66972E+01 -2.87944E+01 -2.90866E+01 -2.80161E+01 -2.78768E+01 -2.84018E+01 -2.87586E+01 -2.78039E+01
  -2.96278E+01 -2.99413E+01 -3.07165E+01 -2.93126E+01 -2.72006E+01 -2.90389E+01 -2.92248E+01 -3.13039E+01 -2.78376E+01 -2.69209E+01
  -2.80021E+01 -2.78990E+01 -2.89012E+01 -2.86647E+01 -2.80339E+01 -2.89460E+01 -2.84714E+01 -2.96693E+01 -2.89803E+01 -2.82004E+01
  -2.83447E+01 -2.64149E+01 -2.53353E+01 -2.57750E+01 -2.54457E+01 -2.30266E+01 -2.49007E+01 -2.36170E+01 -2.13468E+01 -2.26822E+01
  -2.24066E+01 -2.18643E+01 -1.99855E+01 -1.98765E+01 -1.91394E+01 -1.83772E+01 -1.81726E+01 -1.69784E+01 -1.51810E+01 -1.66210E+01
  -1.67931E+01 -1.27206E+01 -1.37982E+01 -1.25109E+01 -9.47872E+00 -7.35198E+00 -1.06363E+01 -5.63329E+00 -5.97892E+00 -5.58159E+00
  -3.74389E+00 -2.90042E+00 -2.39751E+00  4.59198E-01 -9.50755E-02  8.65415E-02  1.17412E+00  3.89449E+00  5.88306E+00  4.39216E+00
   7.68556E+00  8.17148E+00  1.02974E+01  7.23838E+00  1.14379E+01  1.40436E+01  1.69103E+01  1.62765E+01  1.71358E+01  1.80745E+01
   2.21131E+01  2.11386E+01  2.26689E+01  2.54103E+01  2.51294E+01  2.60466E+01  2.90611E+01  2.91581E+01  3.02710E+01  3.00945E+01
   3.29448E+01  3.59402E+01  3.67131E+01  3.70650E+01  3.56204E+01  3.95138E+01  3.89121E+01  4.07547E+01  4.18514E+01  4.25341E+01
   4.50783E+01  4.33377E+01  4.58476E+01  4.49837E+01  4.43806E+01  4.81859E+01  4.57954E+01  4.81134E+01  4.67147E+01  5.02555E+01
   4.55302E+01  4.76345E+01  4.89901E+01  4.83285E+01  4.85537E+01  4.81133E+01  5.01154E+01  4.95497E+01  5.18623E+01  4.90992E+01
   4.80567E+01  4.82701E+01  4.85083E+01  4.94133E+01  4.91536E+01  5.11493E+01  5.05811E+01  4.83593E+01  4.81731E+01  5.11197E+01
   4.77786E+01  4.70572E+01  4.74972E+01  4.80212E+01  4.55394E+01  4.87101E+01  4.61120E+01  4.72851E+01  4.65257E+01  4.64679E+01
   4.53006E+01  4.48062E+01  4.35835E+01  4.32353E+01  4.23149E+01  4.23755E+01  4.08885E+01  3.84079E+01  3.82383E+01  3.36572E+01
   3.40756E+01  3.27369E+01  3.00312E+01  2.85526E+01  2.66603E+01  2.70284E+01  2.43748E+01  2.30278E+01  2.13461E+01  2.13275E+01
   1.87543E+01  1.51260E+01  1.40154E+01  7.14934E+00  3.12266E+00 -2.05304E+00 -1.42680E+00 -6.23448E+00 -7.24738E+00 -1.09686E+01
  -1.51241E+01 -1.89392E+01 -2.22727E+01 -2.41222E+01 -3.00733E+01 -3.39490E+01 -3.82575E+01 -4.39098E+01 -4.70730E+01 -5.28904E+01
  -6.07669E+01 -6.81548E+01 -7.41518E+01 -7.90505E+01 -8.62293E+01 -9.40740E+01 -9.93515E+01 -1.06718E+02 -1.12469E+02 -1.20479E+02
  -1.26832E+02 -1.32449E+02 -1.38118E+02 -1.46421E+02 -1.52087E+02 -1.58132E+02 -1.66184E+02 -1.73205E+02 -1.81433E+02 -1.87948E+02
  -1.92650E+02 -1.98654E+02 -2.08725E+02 -2.16081E+02 -2.19025E+02 -2.23578E+02 -2.29521E+02 -2.31524E+02 -2.34383E+02 -2.34124E+02
  -2.32400E+02 -2.27865E+02 -2.23170E+02 -2.16722E+02 -2.04986E+02 -1.95115E+02 -1.81646E+02 -1.67688E+02 -1.53101E+02 -1.36859E+02
  -1.21412E+02 -1.01115E+02 -8.21052E+01 -6.36154E+01 -3.92727E+01 -1.63638E+01  6.23653E+00  2.91908E+01  5.34666E+01  7.40668E+01
   9.61185E+01  1.17721E+02  1.37526E+02  1.59676E+02  1.76079E+02  1.93594E+02  2.09394E+02  2.19784E+02  2.32237E+02  2.38814E+02
   2.46762E+02  2.51688E+02  2.51881E+02  2.49077E+02  2.50005E+02  2.40493E+02  2.35970E+02  2.28904E+02  2.24543E+02  2.14219E+02
   2.04595E+02  1.94782E+02  1.89725E+02  1.82303E+02  1.73848E+02  1.63378E+02  1.55713E+02  1.49514E+02  1.39158E+02  1.32505E+02
   1.24982E+02  1.17128E+02  1.09985E+02  1.04905E+02  9.76307E+01  9.26575E+01  8.53175E+01  8.05895E+01  7.38552E+01  6.87898E+01
   6.38197E+01  5.87596E+01  4.87219E+01  4.75577E+01  4.22879E+01  3.63581E+01  3.33860E+01  3.00750E+01  2.38382E+01  1.94089E+01
   1.47920E+01  1.48734E+01  8.32209E+00  5.25580E+00  3.08298E+00 -2.97824E-01 -5.21020E+00 -8.55956E+00 -1.08255E+01 -1.36191E+01
  -1.65873E+01 -1.82277E+01 -2.27245E+01 -2.53727E+01 -3.15591E+01 -2.81561E+01 -3.29915E+01 -3.36685E+01 -3.61843E+01 -3.74985E+01
  -3.97896E+01 -4.02324E+01 -4.49839E+01 -4.27907E+01 -4.37395E+01 -4.22414E+01 -4.39518E+01 -4.74812E+01 -4.71496E+01 -5.04548E+01
  -5.11373E+01 -5.10304E+01 -5.08890E+01 -5.23101E+01 -5.08611E+01 -5.24865E+01 -5.38064E+01 -5.35919E+01 -5.30628E+01 -5.34157E+01
  -5.44622E+01 -5.54276E+01 -5.64119E+01 -5.25595E+01 -5.44571E+01 -5.33501E+01 -5.58491E+01 -5.40277E+01 -5.33909E+01 -5.63568E+01
  -5.37780E+01 -5.31773E+01 -5.14725E+01 -5.46429E+01 -5.17509E+01 -5.25197E+01 -5.15825E+01 -4.80695E+01 -5.18394E+01 -4.64838E+01
  -4.95009E+01 -4.72225E+01 -4.54227E+01 -4.71685E+01 -4.47199E+01 -4.36859E+01 -4.44321E+01 -4.37523E+01 -4.00610E+01 -4.22956E+01
  -3.96838E+01 -4.08599E+01 -3.80828E+01 -3.76462E+01 -3.46528E+01 -3.52668E+01 -3.23705E+01 -3.32568E+01 -3.12530E+01 -3.09426E+01
  -2.83952E+01 -2.86911E+01 -2.84983E+01 -2.46045E+01 -2.49273E+01 -2.13568E+01 -2.07381E+01 -2.02161E+01 -1.65108E+01 -1.39732E+01
  -1.40268E+01 -1.47245E+01 -1.08765E+01 -1.28008E+01 -8.13505E+00 -8.92034E+00 -8.10379E+00 -4.11792E+00 -6.33767E+00 -3.68348E+00
  -2.80782E+00  6.25703E-01 -4.35251E-01  2.86341E+00  2.41367E+00  3.96919E+00  5.29948E+00  7.33243E+00  9.03539E+00  9.44419E+00
   9.53383E+00  1.14660E+01  1.34367E+01  1.32929E+01  1.30867E+01  1.50598E+01  1.80245E+01  1.78392E+01  1.75456E+01  2.04095E+01
   2.14945E+01  2.15094E+01  2.14959E+01  2.44776E+01  2.25618E+01  2.10592E+01  2.48025E+01  2.54167E+01  2.49109E+01  2.69663E+01
   2.79930E+01  2.55582E+01  2.88829E+01  2.83405E+01  2.89342E+01  2.82558E+01  3.08704E+01  3.04219E+01  2.94696E+01  2.69120E+01
   2.89915E+01  2.91964E+01  3.02607E+01  2.92010E+01  2.70693E+01  2.91109E+01  3.06018E+01  2.80267E+01
 NY points of the fit to the data follow
   1.88131E+01  1.81110E+01  1.74890E+01  1.70337E+01  1.63837E+01  1.59735E+01  1.52611E+01  1.48124E+01  1.36646E+01  1.29214E+01
   1.16115E+01  1.11129E+01  9.77337E+00  8.97067E+00  7.55418E+00  7.40917E+00  6.63471E+00  6.44094E+00  5.51925E+00  5.54780E+00
   5.34211E+00  5.12665E+00  4.73901E+00  3.61035E+00  3.59031E+00  2.17116E+00  2.28190E+00 -1.80546E-01  3.37665E-01 -2.58067E+00
  -1.57047E+00 -4.51628E+00 -3.32752E+00 -6.17894E+00 -4.91848E+00 -7.71330E+00 -6.66480E+00 -8.89119E+00 -8.33701E+00 -9.64981E+00
  -9.58235E+00 -1.03049E+01 -1.06311E+01 -1.05793E+01 -1.14933E+01 -1.09453E+01 -1.25164E+01 -1.16316E+01 -1.33602E+01 -1.32425E+01
  -1.56662E+01 -1.58240E+01 -1.80281E+01 -1.83066E+01 -2.02530E+01 -2.08500E+01 -2.17778E+01 -2.18501E+01 -2.22856E+01 -2.23180E+01
  -2.25398E+01 -2.25270E+01 -2.26728E+01 -2.30272E+01 -2.34353E+01 -2.38483E+01 -2.42922E+01 -2.47022E+01 -2.51750E+01 -2.55649E+01
  -2.60794E+01 -2.64238E+01 -2.69127E+01 -2.72290E+01 -2.77469E+01 -2.80015E+01 -2.84096E+01 -2.86068E+01 -2.89503E+01 -2.90869E+01
  -2.92662E+01 -2.93449E+01 -2.93528E+01 -2.94096E+01 -2.93055E+01 -2.93857E+01 -2.91934E+01 -2.93335E+01 -2.90325E+01 -2.92110E+01
  -2.89219E+01 -2.91725E+01 -2.88485E+01 -2.90416E+01 -2.87155E+01 -2.88633E+01 -2.85340E+01 -2.85111E+01 -2.81953E+01 -2.79558E+01
  -2.76362E+01 -2.71711E+01 -2.68275E+01 -2.61405E+01 -2.57549E+01 -2.48735E+01 -2.44954E+01 -2.34870E+01 -2.30175E+01 -2.20250E+01
  -2.15798E+01 -2.06961E+01 -2.02363E+01 -1.94399E+01 -1.89715E+01 -1.83830E+01 -1.78115E+01 -1.71925E+01 -1.65013E+01 -1.58425E+01
  -1.49868E+01 -1.41326E+01 -1.31577E+01 -1.20534E+01 -1.09860E+01 -9.65471E+00 -8.61053E+00 -7.11336E+00 -6.12813E+00 -4.53049E+00
  -3.65988E+00 -2.11834E+00 -1.35424E+00  1.02476E-01  8.19039E-01  2.22474E+00  2.94651E+00  4.22614E+00  4.99739E+00  6.15738E+00
   7.06779E+00  8.23155E+00  9.34338E+00  1.05682E+01  1.18654E+01  1.31487E+01  1.45920E+01  1.59445E+01  1.75461E+01  1.90993E+01
   2.07316E+01  2.22379E+01  2.37976E+01  2.52031E+01  2.66717E+01  2.80167E+01  2.93678E+01  3.05501E+01  3.17634E+01  3.28045E+01
   3.38787E+01  3.48234E+01  3.57926E+01  3.66822E+01  3.75764E+01  3.83861E+01  3.91792E+01  3.99263E+01  4.06306E+01  4.13312E+01
   4.19483E+01  4.25995E+01  4.31368E+01  4.37500E+01  4.42158E+01  4.47679E+01  4.51822E+01  4.56761E+01  4.61013E+01  4.65475E+01
   4.70255E+01  4.74330E+01  4.79676E+01  4.82546E+01  4.88261E+01  4.90342E+01  4.96101E+01  4.96699E+01  5.01885E+01  5.01085E+01
   5.05055E+01  5.03829E+01  5.07077E+01  5.05512E+01  5.07952E+01  5.06639E+01  5.07630E+01  5.07395E+01  5.07558E+01  5.06955E+01
   5.04226E+01  5.04508E+01  4.99712E+01  4.98848E+01  4.90262E+01  4.88780E+01  4.77036E+01  4.75175E+01  4.61148E+01  4.58410E+01
   4.42316E+01  4.38331E+01  4.20613E+01  4.16109E+01  3.98171E+01  3.92278E+01  3.74233E+01  3.66900E+01  3.49151E+01  3.40404E+01
   3.23901E+01  3.13142E+01  2.97282E+01  2.84409E+01  2.68774E+01  2.51526E+01  2.33866E+01  2.14363E+01  1.94468E+01  1.71423E+01
   1.48928E+01  1.23643E+01  9.66252E+00  7.09572E+00  4.23285E+00  1.66676E+00 -1.43173E+00 -4.08987E+00 -7.50138E+00 -1.03770E+01
  -1.40706E+01 -1.72653E+01 -2.13803E+01 -2.50638E+01 -2.96891E+01 -3.39635E+01 -3.89338E+01 -4.38053E+01 -4.92778E+01 -5.47910E+01
  -6.04392E+01 -6.64750E+01 -7.24997E+01 -7.90229E+01 -8.51018E+01 -9.18383E+01 -9.79624E+01 -1.04939E+02 -1.11338E+02 -1.18387E+02
  -1.24959E+02 -1.32093E+02 -1.38788E+02 -1.45897E+02 -1.52933E+02 -1.60111E+02 -1.67315E+02 -1.74354E+02 -1.81489E+02 -1.88185E+02
  -1.95069E+02 -2.01236E+02 -2.07592E+02 -2.12899E+02 -2.18196E+02 -2.22253E+02 -2.25978E+02 -2.28319E+02 -2.29965E+02 -2.30069E+02
  -2.29113E+02 -2.26374E+02 -2.21940E+02 -2.15776E+02 -2.07797E+02 -1.97947E+02 -1.86203E+02 -1.72596E+02 -1.57199E+02 -1.40137E+02
  -1.21575E+02 -1.01722E+02 -8.08102E+01 -5.90913E+01 -3.68169E+01 -1.42324E+01  8.43977E+00  3.10017E+01  5.32890E+01  7.51616E+01
   9.65047E+01  1.17212E+02  1.37178E+02  1.56280E+02  1.74369E+02  1.91254E+02  2.06702E+02  2.20422E+02  2.32054E+02  2.41132E+02
   2.47348E+02  2.51251E+02  2.51866E+02  2.51675E+02  2.48133E+02  2.43438E+02  2.35819E+02  2.30344E+02  2.22380E+02  2.14632E+02
   2.04438E+02  1.96295E+02  1.88924E+02  1.80977E+02  1.73507E+02  1.62764E+02  1.57123E+02  1.46783E+02  1.41677E+02  1.30096E+02
   1.26721E+02  1.15153E+02  1.12240E+02  1.02326E+02  9.92023E+01  9.08302E+01  8.68606E+01  7.97995E+01  7.46107E+01  6.96593E+01
   6.19895E+01  5.89768E+01  5.03039E+01  4.88052E+01  4.00297E+01  3.96884E+01  3.07681E+01  3.05819E+01  2.13257E+01  2.18079E+01
   1.55186E+01  1.42805E+01  8.19789E+00  6.49257E+00  1.83251E+00 -1.99624E-01 -5.05142E+00 -8.76265E+00 -1.12573E+01 -1.35368E+01
  -1.60559E+01 -1.89255E+01 -2.20593E+01 -2.52705E+01 -2.83490E+01 -3.11182E+01 -3.34704E+01 -3.53775E+01 -3.68826E+01 -3.80791E+01
  -3.90834E+01 -4.00100E+01 -4.09525E+01 -4.19724E+01 -4.30960E+01 -4.43173E+01 -4.56056E+01 -4.69142E+01 -4.81903E+01 -4.93824E+01
  -5.04476E+01 -5.13554E+01 -5.20899E+01 -5.26498E+01 -5.30473E+01 -5.33050E+01 -5.34527E+01 -5.35237E+01 -5.35508E+01 -5.35634E+01
  -5.35847E+01 -5.36301E+01 -5.37067E+01 -5.38129E+01 -5.39397E+01 -5.40724E+01 -5.41921E+01 -5.42783E+01 -5.43106E+01 -5.42707E+01
  -5.41443E+01 -5.39214E+01 -5.35972E+01 -5.31724E+01 -5.26520E+01 -5.20455E+01 -5.13649E+01 -5.06244E+01 -4.98386E+01 -4.90217E+01
  -4.81865E+01 -4.73438E+01 -4.65015E+01 -4.56649E+01 -4.48362E+01 -4.40152E+01 -4.31992E+01 -4.23837E+01 -4.15628E+01 -4.07301E+01
  -3.98788E+01 -3.90022E+01 -3.80946E+01 -3.71508E+01 -3.61672E+01 -3.51412E+01 -3.40715E+01 -3.29579E+01 -3.18009E+01 -3.06016E+01
  -2.93620E+01 -2.80851E+01 -2.67741E+01 -2.54327E+01 -2.40649E+01 -2.26748E+01 -2.12664E+01 -1.98439E+01 -1.84109E+01 -1.69712E+01
  -1.55283E+01 -1.40854E+01 -1.26454E+01 -1.12111E+01 -9.78509E+00 -8.36953E+00 -6.96653E+00 -5.57797E+00 -4.20552E+00 -2.85071E+00
  -1.51491E+00 -1.99349E-01  1.09485E+00  2.36669E+00  3.61526E+00  4.83976E+00  6.03945E+00  7.21367E+00  8.36183E+00  9.48338E+00
   1.05778E+01  1.16448E+01  1.26838E+01  1.36945E+01  1.46765E+01  1.56297E+01  1.65537E+01  1.74483E+01  1.83132E+01  1.91483E+01
   1.99534E+01  2.07283E+01  2.14729E+01  2.21870E+01  2.28706E+01  2.35235E+01  2.41456E+01  2.47369E+01  2.52973E+01  2.58266E+01
   2.63250E+01  2.67922E+01  2.72283E+01  2.76333E+01  2.80070E+01  2.83495E+01  2.86608E+01  2.89408E+01  2.91895E+01  2.94070E+01
   2.95931E+01  2.97480E+01  2.98716E+01  2.99639E+01  3.00249E+01  3.00546E+01  3.00530E+01  3.00201E+01
 NY background values follow
     1.792E+01    1.707E+01    1.622E+01    1.538E+01    1.454E+01    1.371E+01    1.288E+01    1.205E+01    1.123E+01    1.041E+01
     9.601E+00    8.793E+00    7.990E+00    7.191E+00    6.397E+00    5.608E+00    4.823E+00    4.044E+00    3.269E+00    2.500E+00
     1.736E+00    9.765E-01    2.226E-01   -5.260E-01   -1.269E+00   -2.007E+00   -2.739E+00   -3.466E+00   -4.187E+00   -4.903E+00
    -5.612E+00   -6.316E+00   -7.014E+00   -7.707E+00   -8.393E+00   -9.073E+00   -9.747E+00   -1.041E+01   -1.108E+01   -1.173E+01
    -1.238E+01   -1.302E+01   -1.366E+01   -1.429E+01   -1.491E+01   -1.553E+01   -1.614E+01   -1.674E+01   -1.734E+01   -1.793E+01
    -1.851E+01   -1.908E+01   -1.965E+01   -2.021E+01   -2.076E+01   -2.131E+01   -2.185E+01   -2.238E+01   -2.290E+01   -2.342E+01
    -2.393E+01   -2.443E+01   -2.492E+01   -2.541E+01   -2.589E+01   -2.636E+01   -2.682E+01   -2.727E+01   -2.772E+01   -2.816E+01
    -2.859E+01   -2.901E+01   -2.942E+01   -2.983E+01   -3.022E+01   -3.061E+01   -3.098E+01   -3.135E+01   -3.170E+01   -3.204E+01
    -3.238E+01   -3.269E+01   -3.300E+01   -3.330E+01   -3.358E+01   -3.385E+01   -3.410E+01   -3.434E+01   -3.456E+01   -3.477E+01
    -3.497E+01   -3.514E+01   -3.531E+01   -3.545E+01   -3.558E+01   -3.569E+01   -3.578E+01   -3.585E+01   -3.591E+01   -3.594E+01
    -3.596E+01   -3.596E+01   -3.593E+01   -3.589E+01   -3.582E+01   -3.573E+01   -3.562E+01   -3.549E+01   -3.533E+01   -3.516E+01
    -3.495E+01   -3.473E+01   -3.448E+01   -3.420E+01   -3.390E+01   -3.357E+01   -3.322E+01   -3.284E+01   -3.244E+01   -3.200E+01
    -3.154E+01   -3.105E+01   -3.054E+01   -2.999E+01   -2.942E+01   -2.881E+01   -2.818E+01   -2.751E+01   -2.681E+01   -2.609E+01
    -2.533E+01   -2.454E+01   -2.371E+01   -2.285E+01   -2.196E+01   -2.104E+01   -2.008E+01   -1.909E+01   -1.806E+01   -1.700E+01
    -1.590E+01   -1.477E+01   -1.360E+01   -1.239E+01   -1.115E+01   -9.876E+00   -8.574E+00   -7.245E+00   -5.891E+00   -4.517E+00
    -3.123E+00   -1.713E+00   -2.893E-01    1.146E+00    2.589E+00    4.039E+00    5.493E+00    6.947E+00    8.399E+00    9.848E+00
     1.129E+01    1.272E+01    1.414E+01    1.555E+01    1.694E+01    1.831E+01    1.965E+01    2.098E+01    2.227E+01    2.354E+01
     2.477E+01    2.597E+01    2.713E+01    2.825E+01    2.933E+01    3.036E+01    3.134E+01    3.228E+01    3.316E+01    3.399E+01
     3.475E+01    3.546E+01    3.610E+01    3.668E+01    3.719E+01    3.763E+01    3.799E+01    3.828E+01    3.849E+01    3.862E+01
     3.867E+01    3.863E+01    3.850E+01    3.827E+01    3.796E+01    3.755E+01    3.703E+01    3.642E+01    3.570E+01    3.488E+01
     3.394E+01    3.290E+01    3.174E+01    3.046E+01    2.906E+01    2.754E+01    2.590E+01    2.413E+01    2.222E+01    2.019E+01
     1.802E+01    1.571E+01    1.326E+01    1.067E+01    7.936E+00    5.060E+00    2.045E+00   -1.102E+00   -4.380E+00   -7.783E+00
    -1.131E+01   -1.495E+01   -1.871E+01   -2.257E+01   -2.655E+01   -3.062E+01   -3.479E+01   -3.906E+01   -4.342E+01   -4.786E+01
    -5.238E+01   -5.699E+01   -6.167E+01   -6.641E+01   -7.123E+01   -7.610E+01   -8.104E+01   -8.603E+01   -9.107E+01   -9.616E+01
    -1.013E+02   -1.065E+02   -1.117E+02   -1.169E+02   -1.222E+02   -1.274E+02   -1.327E+02   -1.381E+02   -1.434E+02   -1.487E+02
    -1.541E+02   -1.594E+02   -1.648E+02   -1.701E+02   -1.754E+02   -1.807E+02   -1.860E+02   -1.912E+02   -1.964E+02   -2.016E+02
    -2.068E+02   -2.119E+02   -2.170E+02   -2.220E+02   -2.270E+02   -2.319E+02   -2.367E+02   -2.415E+02   -2.463E+02   -2.509E+02
    -2.555E+02   -2.600E+02   -2.644E+02   -2.687E+02   -2.730E+02   -2.771E+02   -2.811E+02   -2.851E+02   -2.889E+02   -2.926E+02
    -2.962E+02   -2.997E+02   -3.031E+02   -3.063E+02   -3.094E+02   -3.124E+02   -3.152E+02   -3.179E+02   -3.205E+02   -3.229E+02
    -3.252E+02   -3.274E+02   -3.295E+02   -3.314E+02   -3.332E+02   -3.349E+02   -3.365E+02   -3.380E+02   -3.393E+02   -3.406E+02
    -3.417E+02   -3.427E+02   -3.436E+02   -3.444E+02   -3.451E+02   -3.457E+02   -3.461E+02   -3.465E+02   -3.468E+02   -3.470E+02
    -3.470E+02   -3.470E+02   -3.469E+02   -3.467E+02   -3.464E+02   -3.460E+02   -3.455E+02   -3.450E+02   -3.443E+02   -3.436E+02
    -3.428E+02   -3.419E+02   -3.409E+02   -3.399E+02   -3.387E+02   -3.375E+02   -3.362E+02   -3.349E+02   -3.335E+02   -3.320E+02
    -3.304E+02   -3.288E+02   -3.271E+02   -3.253E+02   -3.235E+02   -3.216E+02   -3.197E+02   -3.177E+02   -3.157E+02   -3.136E+02
    -3.114E+02   -3.092E+02   -3.069E+02   -3.046E+02   -3.023E+02   -2.999E+02   -2.975E+02   -2.950E+02   -2.924E+02   -2.899E+02
    -2.873E+02   -2.846E+02   -2.820E+02   -2.793E+02   -2.765E+02   -2.738E+02   -2.710E+02   -2.681E+02   -2.653E+02   -2.624E+02
    -2.595E+02   -2.566E+02   -2.536E+02   -2.507E+02   -2.477E+02   -2.447E+02   -2.416E+02   -2.386E+02   -2.355E+02   -2.324E+02
    -2.293E+02   -2.262E+02   -2.231E+02   -2.199E+02   -2.168E+02   -2.136E+02   -2.104E+02   -2.072E+02   -2.040E+02   -2.008E+02
    -1.976E+02   -1.944E+02   -1.912E+02   -1.880E+02   -1.847E+02   -1.815E+02   -1.783E+02   -1.751E+02   -1.718E+02   -1.686E+02
    -1.654E+02   -1.622E+02   -1.589E+02   -1.557E+02   -1.525E+02   -1.493E+02   -1.462E+02   -1.430E+02   -1.398E+02   -1.367E+02
    -1.335E+02   -1.304E+02   -1.273E+02   -1.242E+02   -1.211E+02   -1.180E+02   -1.150E+02   -1.119E+02   -1.089E+02   -1.059E+02
    -1.030E+02   -1.000E+02   -9.709E+01   -9.419E+01   -9.132E+01   -8.847E+01   -8.565E+01   -8.286E+01   -8.010E+01   -7.736E+01
    -7.466E+01   -7.199E+01   -6.935E+01   -6.675E+01   -6.418E+01   -6.164E+01   -5.914E+01   -5.668E+01   -5.426E+01   -5.187E+01
    -4.953E+01   -4.721E+01   -4.494E+01   -4.270E+01   -4.050E+01   -3.834E+01   -3.621E+01   -3.412E+01   -3.207E+01   -3.005E+01
    -2.807E+01   -2.612E+01   -2.422E+01   -2.234E+01   -2.051E+01   -1.871E+01   -1.695E+01   -1.522E+01   -1.353E+01   -1.187E+01
    -1.025E+01   -8.668E+00   -7.119E+00   -5.606E+00   -4.129E+00   -2.687E+00   -1.280E+00    9.082E-02    1.427E+00    2.728E+00
     3.994E+00    5.224E+00    6.420E+00    7.581E+00    8.708E+00    9.799E+00    1.086E+01    1.188E+01    1.287E+01    1.382E+01
     1.474E+01    1.562E+01    1.647E+01    1.729E+01    1.807E+01    1.882E+01    1.953E+01    2.021E+01    2.086E+01    2.147E+01
     2.205E+01    2.260E+01    2.311E+01    2.359E+01    2.403E+01    2.445E+01    2.482E+01    2.517E+01    2.548E+01    2.576E+01
     2.601E+01    2.622E+01    2.640E+01    2.655E+01    2.666E+01    2.675E+01    2.680E+01    2.681E+01
 Ala      Conc. = 8.40E+03
