 LCModel (Version 6.3-1L) Copyright: S.W. Provencher.          Ref.: Magn. Reson. Med. 30:672-679 (1993).                
 Slice#3 Row#5 Col#2  PD_24_press_2_raw_act
 36 lines in following concentration table = NCONC+1
    Conc.  %SD /Cr+PCr  Metabolite                                         
    0.000 999%   0.000 Ala                                                 
  145.939 205% 8.9E-02 Asp                                                 
  495.903  92%   0.303 Cr                                                  
 1.14E+03  41%   0.697 PCr                                                 
    0.000 999%   0.000 GABA                                                
  357.326  55%   0.218 Glc                                                 
  647.875  84%   0.396 Gln                                                 
 1.25E+03  49%   0.762 Glu                                                 
  626.307  29%   0.382 GPC                                                 
   42.240 439% 2.6E-02 PCh                                                 
  540.182  26%   0.330 GSH                                                 
 1.74E+03  29%   1.063 Ins                                                 
    0.000 999%   0.000 Lac                                                 
 2.13E+03   5%   1.299 NAA                                                 
    0.000 999%   0.000 NAAG                                                
  259.622  17%   0.159 Scyllo                                              
 1.13E+03  26%   0.693 Tau                                                 
  700.320  28%   0.428 -CrCH2                                              
  668.547   6%   0.408 GPC+PCh                                             
 2.13E+03   5%   1.299 NAA+NAAG                                            
 1.64E+03   6%   1.000 Cr+PCr                                              
 1.90E+03  52%   1.158 Glu+Gln                                             
    0.000 999%   0.000 Lip13a                                              
    0.000 999%   0.000 Lip13b                                              
    0.000 999%   0.000 Lip09                                               
  543.503  34%   0.332 MM09                                                
    0.000 999%   0.000 Lip20                                               
  709.712  48%   0.433 MM20                                                
  156.448  62% 9.6E-02 MM12                                                
    0.000 999%   0.000 MM14                                                
 1.01E+03  16%   0.619 MM17                                                
    0.000 999%   0.000 Lip13a+Lip13b                                       
  156.448  62% 9.6E-02 MM14+Lip13a+Lip13b+MM12                             
  543.503  34%   0.332 MM09+Lip09                                          
  709.712  48%   0.433 MM20+Lip20                                          
   6 lines in following misc. output table
  FWHM = 0.069 ppm    S/N =   5                                            
  Data shift = 0.023 ppm                                                   
  Ph: -50 deg     -18.7 deg/ppm                                            
  alphaB,S = 1.0E+00,   1.8E+02                                            
   14 spline knots.   Ns = 8(1)                                            
  (14) 2 infls.   ( 9) 1 extrs.                                            
  498 points on ppm-axis = NY
      4.000000     3.992357     3.984714     3.977070     3.969427     3.961784     3.954141     3.946497     3.938854     3.931211
      3.923568     3.915925     3.908281     3.900638     3.892995     3.885352     3.877708     3.870065     3.862422     3.854779
      3.847136     3.839492     3.831849     3.824206     3.816563     3.808919     3.801276     3.793633     3.785990     3.778347
      3.770703     3.763060     3.755417     3.747774     3.740130     3.732487     3.724844     3.717201     3.709558     3.701914
      3.694271     3.686628     3.678985     3.671341     3.663698     3.656055     3.648412     3.640769     3.633125     3.625482
      3.617839     3.610196     3.602552     3.594909     3.587266     3.579623     3.571980     3.564336     3.556693     3.549050
      3.541407     3.533763     3.526120     3.518477     3.510834     3.503191     3.495547     3.487904     3.480261     3.472618
      3.464974     3.457331     3.449688     3.442045     3.434402     3.426758     3.419115     3.411472     3.403829     3.396185
      3.388542     3.380899     3.373256     3.365613     3.357969     3.350326     3.342683     3.335040     3.327396     3.319753
      3.312110     3.304467     3.296824     3.289180     3.281537     3.273894     3.266251     3.258607     3.250964     3.243321
      3.235678     3.228034     3.220391     3.212748     3.205105     3.197462     3.189818     3.182175     3.174532     3.166889
      3.159245     3.151602     3.143959     3.136316     3.128673     3.121029     3.113386     3.105743     3.098100     3.090456
      3.082813     3.075170     3.067527     3.059884     3.052240     3.044597     3.036954     3.029311     3.021667     3.014024
      3.006381     2.998738     2.991095     2.983451     2.975808     2.968165     2.960522     2.952878     2.945235     2.937592
      2.929949     2.922306     2.914662     2.907019     2.899376     2.891733     2.884089     2.876446     2.868803     2.861160
      2.853517     2.845873     2.838230     2.830587     2.822944     2.815300     2.807657     2.800014     2.792371     2.784728
      2.777084     2.769441     2.761798     2.754155     2.746511     2.738868     2.731225     2.723582     2.715939     2.708295
      2.700652     2.693009     2.685366     2.677722     2.670079     2.662436     2.654793     2.647150     2.639506     2.631863
      2.624220     2.616577     2.608933     2.601290     2.593647     2.586004     2.578361     2.570717     2.563074     2.555431
      2.547788     2.540144     2.532501     2.524858     2.517215     2.509572     2.501928     2.494285     2.486642     2.478999
      2.471355     2.463712     2.456069     2.448426     2.440783     2.433139     2.425496     2.417853     2.410210     2.402566
      2.394923     2.387280     2.379637     2.371994     2.364350     2.356707     2.349064     2.341421     2.333777     2.326134
      2.318491     2.310848     2.303205     2.295561     2.287918     2.280275     2.272632     2.264988     2.257345     2.249702
      2.242059     2.234416     2.226772     2.219129     2.211486     2.203843     2.196199     2.188556     2.180913     2.173270
      2.165627     2.157983     2.150340     2.142697     2.135054     2.127410     2.119767     2.112124     2.104481     2.096838
      2.089194     2.081551     2.073908     2.066265     2.058621     2.050978     2.043335     2.035692     2.028049     2.020405
      2.012762     2.005119     1.997476     1.989833     1.982190     1.974546     1.966903     1.959260     1.951617     1.943974
      1.936331     1.928688     1.921045     1.913402     1.905759     1.898115     1.890472     1.882829     1.875186     1.867543
      1.859900     1.852257     1.844614     1.836971     1.829327     1.821684     1.814041     1.806398     1.798755     1.791112
      1.783469     1.775826     1.768183     1.760540     1.752896     1.745253     1.737610     1.729967     1.722324     1.714681
      1.707038     1.699395     1.691752     1.684108     1.676465     1.668822     1.661179     1.653536     1.645893     1.638250
      1.630607     1.622964     1.615321     1.607677     1.600034     1.592391     1.584748     1.577105     1.569462     1.561819
      1.554176     1.546533     1.538890     1.531246     1.523603     1.515960     1.508317     1.500674     1.493031     1.485388
      1.477745     1.470102     1.462458     1.454815     1.447172     1.439529     1.431886     1.424243     1.416600     1.408957
      1.401314     1.393671     1.386027     1.378384     1.370741     1.363098     1.355455     1.347812     1.340169     1.332526
      1.324883     1.317240     1.309596     1.301953     1.294310     1.286667     1.279024     1.271381     1.263738     1.256095
      1.248452     1.240808     1.233165     1.225522     1.217879     1.210236     1.202593     1.194950     1.187307     1.179664
      1.172021     1.164377     1.156734     1.149091     1.141448     1.133805     1.126162     1.118519     1.110876     1.103233
      1.095590     1.087946     1.080303     1.072660     1.065017     1.057374     1.049731     1.042088     1.034445     1.026802
      1.019158     1.011515     1.003872     0.996229     0.988586     0.980943     0.973300     0.965657     0.958014     0.950371
      0.942727     0.935084     0.927441     0.919798     0.912155     0.904512     0.896869     0.889226     0.881583     0.873940
      0.866296     0.858653     0.851010     0.843367     0.835724     0.828081     0.820438     0.812795     0.805152     0.797508
      0.789865     0.782222     0.774579     0.766936     0.759293     0.751650     0.744007     0.736364     0.728721     0.721077
      0.713434     0.705791     0.698148     0.690505     0.682862     0.675219     0.667576     0.659933     0.652290     0.644646
      0.637003     0.629360     0.621717     0.614074     0.606431     0.598788     0.591145     0.583502     0.575858     0.568215
      0.560572     0.552929     0.545286     0.537643     0.530000     0.522357     0.514714     0.507071     0.499427     0.491784
      0.484141     0.476498     0.468855     0.461212     0.453569     0.445925     0.438282     0.430639     0.422996     0.415353
      0.407710     0.400067     0.392424     0.384780     0.377137     0.369494     0.361851     0.354208     0.346565     0.338922
      0.331278     0.323635     0.315992     0.308349     0.300706     0.293063     0.285420     0.277777     0.270133     0.262490
      0.254847     0.247204     0.239561     0.231918     0.224275     0.216631     0.208988     0.201345
 NY phased data points follow
  -1.46129E+02 -1.45586E+02 -1.50708E+02 -1.35378E+02 -1.36730E+02 -1.28413E+02 -1.24410E+02 -1.11055E+02 -1.19178E+02 -1.05875E+02
  -1.04289E+02 -9.89368E+01 -1.11178E+02 -1.09661E+02 -1.16147E+02 -1.16635E+02 -1.28455E+02 -1.17034E+02 -1.17810E+02 -1.16466E+02
  -1.30920E+02 -1.12082E+02 -1.28697E+02 -1.18190E+02 -1.13700E+02 -1.05781E+02 -1.18991E+02 -1.03544E+02 -1.07556E+02 -1.00965E+02
  -1.03904E+02 -9.96062E+01 -1.04448E+02 -1.00891E+02 -1.04082E+02 -9.85314E+01 -1.04054E+02 -8.89038E+01 -1.02500E+02 -1.03482E+02
  -1.03113E+02 -9.34439E+01 -9.79242E+01 -9.38582E+01 -9.50777E+01 -9.24559E+01 -9.11686E+01 -8.23029E+01 -9.54357E+01 -9.07176E+01
  -9.29004E+01 -9.15368E+01 -9.35540E+01 -8.43081E+01 -9.33356E+01 -8.71698E+01 -9.84412E+01 -9.16730E+01 -8.99881E+01 -9.07740E+01
  -9.19695E+01 -9.13643E+01 -9.19736E+01 -8.80698E+01 -9.40694E+01 -8.75540E+01 -9.29178E+01 -8.98210E+01 -8.12054E+01 -8.89579E+01
  -8.60492E+01 -7.86715E+01 -7.90969E+01 -7.28130E+01 -7.25433E+01 -7.25239E+01 -7.45702E+01 -7.13993E+01 -6.93655E+01 -7.34938E+01
  -6.96755E+01 -6.99917E+01 -6.56432E+01 -6.70030E+01 -7.24208E+01 -6.92608E+01 -6.38180E+01 -7.04949E+01 -6.31943E+01 -5.90394E+01
  -6.36356E+01 -6.22194E+01 -6.24769E+01 -6.75881E+01 -6.21560E+01 -6.26830E+01 -5.26747E+01 -4.63252E+01 -4.69532E+01 -3.36132E+01
  -3.37735E+01 -1.66130E+01 -2.00143E+01 -2.21992E+01 -2.70528E+01 -2.91958E+01 -3.26295E+01 -3.65665E+01 -3.76179E+01 -4.37999E+01
  -5.42418E+01 -5.25727E+01 -6.09838E+01 -5.45548E+01 -5.83567E+01 -5.82264E+01 -6.94248E+01 -6.09086E+01 -5.42347E+01 -5.26964E+01
  -5.26843E+01 -5.23511E+01 -5.13308E+01 -3.11295E+01 -3.02416E+01 -1.96627E+01 -2.27986E+01 -2.42442E+01 -9.76126E+00 -2.06764E+01
  -2.62607E+01 -3.24311E+01 -2.73647E+01 -3.95146E+01 -3.91057E+01 -5.48260E+01 -4.75343E+01 -4.95844E+01 -5.17386E+01 -5.36764E+01
  -5.41283E+01 -5.83006E+01 -5.67203E+01 -5.56774E+01 -5.57717E+01 -5.78395E+01 -5.27520E+01 -4.51778E+01 -5.48996E+01 -5.49154E+01
  -4.65450E+01 -4.47105E+01 -5.34093E+01 -5.01158E+01 -5.37880E+01 -5.19650E+01 -5.05082E+01 -6.01098E+01 -4.79651E+01 -4.86716E+01
  -5.00560E+01 -5.20562E+01 -5.12421E+01 -4.96441E+01 -4.43849E+01 -4.54515E+01 -4.13584E+01 -3.98731E+01 -5.00038E+01 -4.57762E+01
  -5.03255E+01 -5.15945E+01 -5.51363E+01 -4.88454E+01 -4.92985E+01 -5.36208E+01 -4.88484E+01 -4.65817E+01 -5.13978E+01 -4.65291E+01
  -4.99959E+01 -4.89955E+01 -4.48190E+01 -5.02788E+01 -4.77567E+01 -4.65619E+01 -5.28596E+01 -4.26196E+01 -3.75555E+01 -3.88916E+01
  -4.07859E+01 -3.91238E+01 -2.86101E+01 -2.82187E+01 -2.90941E+01 -3.20981E+01 -3.48963E+01 -3.31653E+01 -2.98056E+01 -3.48853E+01
  -3.10535E+01 -2.85417E+01 -3.29786E+01 -3.31961E+01 -2.29191E+01 -3.25128E+01 -3.23484E+01 -2.70691E+01 -2.93827E+01 -3.46968E+01
  -2.81452E+01 -2.87550E+01 -3.16976E+01 -2.67700E+01 -2.68648E+01 -2.19945E+01 -1.91662E+01 -2.33241E+01 -2.20949E+01 -2.79901E+01
  -2.78362E+01 -2.69062E+01 -3.09305E+01 -3.11309E+01 -3.24546E+01 -2.67574E+01 -2.26226E+01 -2.04742E+01 -2.29901E+01 -2.09867E+01
  -1.93655E+01 -1.99156E+01 -2.46506E+01 -2.40629E+01 -2.93771E+01 -3.07940E+01 -2.97756E+01 -1.89952E+01 -2.87984E+01 -2.18957E+01
  -1.87263E+01 -2.40726E+01 -2.16688E+01 -2.19289E+01 -2.95432E+01 -2.01136E+01 -2.33538E+01 -2.40652E+01 -1.97084E+01 -2.10427E+01
  -2.53409E+01 -1.54227E+01 -2.06420E+01 -1.13631E+01 -8.88007E+00 -1.99952E+00  3.63324E+00  1.76631E+01  2.98718E+01  3.10760E+01
   3.92862E+01  3.44833E+01  3.01713E+01  2.49342E+01  2.07601E+01  1.30337E+01  3.59127E+00  1.12561E+00 -7.51019E+00 -7.69879E+00
  -1.29713E+01 -1.48526E+01 -1.63474E+01 -1.62991E+01 -1.85421E+01 -2.59056E+01 -2.17443E+01 -9.60657E+00 -1.58477E+01 -1.80902E+01
  -2.47578E+01 -1.13017E+01 -1.72604E+01 -2.64041E+01 -1.35340E+01 -2.26241E+01 -1.55148E+01 -1.18631E+01 -1.80688E+01 -1.56901E+01
  -1.84465E+01 -1.10518E+01 -1.36937E+01 -1.34091E+01 -1.41358E+01 -1.06722E+01 -2.12883E+00 -1.44813E+01 -1.40185E+01 -1.03451E+01
  -6.22043E+00 -1.26717E+01 -6.17193E+00 -1.09772E+01 -6.44744E+00 -7.14229E+00  4.18584E+00  5.67001E-01  3.45967E-01 -6.31384E+00
   3.53470E+00 -2.48210E+00 -1.63767E+00 -9.14347E+00 -7.35709E+00 -7.68376E+00 -1.45534E+01 -1.53491E+01 -7.30426E+00 -1.45141E+01
  -8.93793E+00 -1.44425E+01 -1.48696E+01 -1.67230E+01 -1.79939E+01 -1.39350E+01 -8.07718E+00 -1.51440E+01 -4.62348E+00 -7.75188E+00
  -9.86952E+00 -1.12104E+01 -1.64132E+01 -1.64856E+01 -1.39056E+01 -1.73740E+01 -1.90023E+01 -1.67459E+01 -5.23999E+00 -2.24336E+01
  -1.20028E+01 -1.33107E+01 -1.49374E+01 -1.74424E+01 -1.52221E+01 -2.22756E+01 -2.27730E+01 -2.01951E+01 -1.65360E+01 -2.23154E+01
  -1.41556E+01 -1.86649E+01 -1.59237E+01 -2.03996E+01 -1.94241E+01 -1.85325E+01 -1.88915E+01 -1.33492E+01 -1.72435E+01 -1.83632E+01
  -1.17898E+01 -9.85210E+00 -9.44663E+00 -1.00535E+01 -7.76150E+00 -6.92397E+00 -6.83271E+00 -7.23425E+00  6.69687E-01 -5.93902E+00
  -7.00204E+00 -1.08546E+01 -6.19155E-01  5.29461E-02 -6.27046E+00 -8.91462E+00 -8.60241E+00 -2.50065E+00 -7.12383E+00 -9.01987E-01
  -1.09795E+00  1.98864E-01 -3.89723E+00 -8.59744E+00 -5.93871E+00 -1.20050E+01 -3.82886E+00 -6.25994E+00 -1.70387E-01 -8.79676E+00
  -1.12858E+01  2.46554E-01 -1.42896E+01 -9.69057E+00 -4.38536E+00 -2.15902E+00 -1.42180E+00 -9.62645E+00 -6.29746E+00 -6.96855E+00
  -6.15103E-01  4.43221E+00 -6.64551E+00 -9.09872E+00 -1.04991E+00 -2.37518E+00 -2.39228E+00 -4.02481E+00 -5.32441E+00 -9.98142E-01
  -5.78822E-01 -3.83754E+00 -1.60801E+00 -3.39004E+00 -7.20454E+00 -3.64570E+00 -1.28511E+01 -5.68382E+00  4.31638E-01 -1.06335E+01
  -3.92037E+00 -7.64332E+00 -7.11192E+00 -7.91446E+00 -8.40177E+00 -2.88467E+00 -4.10452E+00  1.06626E+00 -1.04719E+01 -6.35922E+00
  -4.32858E+00 -7.35882E+00 -1.54630E+00 -7.59773E+00 -7.58102E+00  4.65932E-01 -4.01787E+00 -5.99306E+00 -3.44792E+00 -5.33923E+00
  -4.21432E+00 -3.80318E+00 -2.57913E+00 -5.99920E+00 -1.10458E+00 -8.65889E+00 -3.28650E+00  4.07213E-01 -8.81865E+00 -6.94179E-01
  -8.99977E+00 -5.69613E+00  3.79820E+00 -2.34746E+00 -3.22017E+00 -2.63547E+00  8.77018E-01 -3.28762E+00  8.74147E-01  7.21226E-01
   1.50900E+00 -9.77957E+00 -1.18095E+00  3.89511E+00 -3.19787E+00 -8.83126E-01 -2.49446E+00 -3.08749E+00 -1.37470E+00  5.55795E-01
   6.69991E+00 -1.80518E-01  4.70637E+00  9.88293E-02 -3.44098E-01  4.70420E+00  8.01180E-03 -1.20768E+01 -2.31507E+00 -2.76298E+00
   8.13468E+00 -2.41879E+00 -3.48234E+00  4.32051E-01 -8.74963E-02  5.29961E+00 -1.04913E+00  1.73612E+00  2.15962E+00  8.72120E-01
  -2.76610E+00 -3.12406E+00 -7.68673E+00 -2.12857E+00 -1.85118E+00  6.52938E+00  3.54779E+00 -4.13441E-01
 NY points of the fit to the data follow
  -1.33328E+02 -1.33224E+02 -1.32359E+02 -1.30651E+02 -1.28303E+02 -1.25378E+02 -1.21933E+02 -1.18251E+02 -1.14750E+02 -1.11890E+02
  -1.10028E+02 -1.09266E+02 -1.09433E+02 -1.10177E+02 -1.11192E+02 -1.12325E+02 -1.13604E+02 -1.15076E+02 -1.16742E+02 -1.18113E+02
  -1.18640E+02 -1.18537E+02 -1.17886E+02 -1.16788E+02 -1.15305E+02 -1.13386E+02 -1.11002E+02 -1.08310E+02 -1.05630E+02 -1.03275E+02
  -1.01485E+02 -1.00415E+02 -1.00033E+02 -1.00184E+02 -1.00655E+02 -1.01270E+02 -1.01988E+02 -1.02799E+02 -1.03541E+02 -1.03809E+02
  -1.03206E+02 -1.01803E+02 -9.99030E+01 -9.76964E+01 -9.54591E+01 -9.35219E+01 -9.21582E+01 -9.14505E+01 -9.13406E+01 -9.17021E+01
  -9.22988E+01 -9.28772E+01 -9.32800E+01 -9.35006E+01 -9.36129E+01 -9.35620E+01 -9.31672E+01 -9.23559E+01 -9.12972E+01 -9.02314E+01
  -8.93409E+01 -8.86172E+01 -8.80018E+01 -8.74341E+01 -8.68254E+01 -8.61583E+01 -8.54976E+01 -8.48263E+01 -8.39784E+01 -8.28929E+01
  -8.16341E+01 -8.02853E+01 -7.90097E+01 -7.79998E+01 -7.73324E+01 -7.70048E+01 -7.69373E+01 -7.69417E+01 -7.66816E+01 -7.58245E+01
  -7.45551E+01 -7.30317E+01 -7.13290E+01 -6.96468E+01 -6.82044E+01 -6.70672E+01 -6.62974E+01 -6.60645E+01 -6.63218E+01 -6.69407E+01
  -6.77724E+01 -6.85972E+01 -6.92762E+01 -6.95943E+01 -6.85664E+01 -6.51177E+01 -5.94613E+01 -5.21598E+01 -4.39584E+01 -3.56310E+01
  -2.81833E+01 -2.26573E+01 -1.97665E+01 -1.97092E+01 -2.21097E+01 -2.61576E+01 -3.10323E+01 -3.63385E+01 -4.19431E+01 -4.77541E+01
  -5.36187E+01 -5.88039E+01 -6.19925E+01 -6.29923E+01 -6.32100E+01 -6.31984E+01 -6.30380E+01 -6.27076E+01 -6.18732E+01 -5.95874E+01
  -5.55049E+01 -5.01542E+01 -4.38038E+01 -3.67154E+01 -2.95829E+01 -2.34185E+01 -1.91319E+01 -1.72829E+01 -1.78700E+01 -2.03511E+01
  -2.39854E+01 -2.82235E+01 -3.28679E+01 -3.79392E+01 -4.33200E+01 -4.85464E+01 -5.26575E+01 -5.45131E+01 -5.46228E+01 -5.42434E+01
  -5.37571E+01 -5.32722E+01 -5.28040E+01 -5.23164E+01 -5.17933E+01 -5.13239E+01 -5.09863E+01 -5.07897E+01 -5.07167E+01 -5.07076E+01
  -5.06772E+01 -5.05912E+01 -5.04205E+01 -5.02310E+01 -5.00665E+01 -4.99197E+01 -4.97809E+01 -4.96278E+01 -4.94501E+01 -4.92388E+01
  -4.89650E+01 -4.86184E+01 -4.82242E+01 -4.78367E+01 -4.75087E+01 -4.72644E+01 -4.70833E+01 -4.69301E+01 -4.68024E+01 -4.67189E+01
  -4.66657E+01 -4.66725E+01 -4.67284E+01 -4.67795E+01 -4.67610E+01 -4.65925E+01 -4.63014E+01 -4.59697E+01 -4.56480E+01 -4.53711E+01
  -4.51180E+01 -4.48052E+01 -4.43730E+01 -4.37841E+01 -4.30213E+01 -4.21029E+01 -4.10803E+01 -3.99718E+01 -3.87807E+01 -3.76324E+01
  -3.67223E+01 -3.61538E+01 -3.58582E+01 -3.56927E+01 -3.55516E+01 -3.53706E+01 -3.50877E+01 -3.46587E+01 -3.40345E+01 -3.32074E+01
  -3.22612E+01 -3.13313E+01 -3.06516E+01 -3.03431E+01 -3.04082E+01 -3.08297E+01 -3.15054E+01 -3.22170E+01 -3.27082E+01 -3.28187E+01
  -3.24954E+01 -3.17658E+01 -3.07458E+01 -2.96568E+01 -2.87636E+01 -2.82698E+01 -2.82057E+01 -2.85037E+01 -2.90542E+01 -2.96987E+01
  -3.02978E+01 -3.06149E+01 -3.05322E+01 -3.01526E+01 -2.95625E+01 -2.87643E+01 -2.77639E+01 -2.67591E+01 -2.58947E+01 -2.51245E+01
  -2.43815E+01 -2.37310E+01 -2.32900E+01 -2.30072E+01 -2.27405E+01 -2.25265E+01 -2.24421E+01 -2.24792E+01 -2.26051E+01 -2.27895E+01
  -2.29666E+01 -2.30955E+01 -2.31511E+01 -2.30701E+01 -2.28455E+01 -2.25331E+01 -2.21815E+01 -2.17238E+01 -2.11037E+01 -2.03644E+01
  -1.95367E+01 -1.84672E+01 -1.62914E+01 -1.19510E+01 -5.93787E+00  1.31791E+00  9.66764E+00  1.84879E+01  2.65383E+01  3.24575E+01
   3.52664E+01  3.47343E+01  3.14122E+01  2.63259E+01  2.04391E+01  1.42250E+01  7.70316E+00  8.13896E-01 -6.20036E+00 -1.24532E+01
  -1.64174E+01 -1.76396E+01 -1.79113E+01 -1.79595E+01 -1.79163E+01 -1.78482E+01 -1.77871E+01 -1.77225E+01 -1.76562E+01 -1.75903E+01
  -1.75262E+01 -1.74661E+01 -1.74077E+01 -1.73345E+01 -1.72310E+01 -1.70944E+01 -1.69238E+01 -1.67157E+01 -1.64660E+01 -1.61720E+01
  -1.58331E+01 -1.54472E+01 -1.50080E+01 -1.45129E+01 -1.39621E+01 -1.33588E+01 -1.27091E+01 -1.20227E+01 -1.13130E+01 -1.05961E+01
  -9.89000E+00 -9.21487E+00 -8.59151E+00 -8.04002E+00 -7.57854E+00 -7.22276E+00 -6.98403E+00 -6.86907E+00 -6.87910E+00 -7.01040E+00
  -7.25397E+00 -7.59662E+00 -8.02110E+00 -8.50776E+00 -9.03571E+00 -9.58467E+00 -1.01351E+01 -1.06699E+01 -1.11742E+01 -1.16365E+01
  -1.20488E+01 -1.24063E+01 -1.27071E+01 -1.29519E+01 -1.31434E+01 -1.32857E+01 -1.33839E+01 -1.34439E+01 -1.34711E+01 -1.34711E+01
  -1.34488E+01 -1.34087E+01 -1.33546E+01 -1.32897E+01 -1.32166E+01 -1.31373E+01 -1.30531E+01 -1.29653E+01 -1.28746E+01 -1.27816E+01
  -1.26867E+01 -1.25899E+01 -1.24912E+01 -1.23909E+01 -1.22888E+01 -1.21850E+01 -1.20792E+01 -1.19715E+01 -1.18618E+01 -1.17502E+01
  -1.16367E+01 -1.15216E+01 -1.14049E+01 -1.12869E+01 -1.11678E+01 -1.10482E+01 -1.09284E+01 -1.08089E+01 -1.06901E+01 -1.05725E+01
  -1.04565E+01 -1.03427E+01 -1.02313E+01 -1.01226E+01 -1.00168E+01 -9.91407E+00 -9.81418E+00 -9.71710E+00 -9.62232E+00 -9.52940E+00
  -9.43759E+00 -9.34624E+00 -9.25437E+00 -9.16107E+00 -9.06510E+00 -8.96534E+00 -8.86047E+00 -8.74934E+00 -8.63053E+00 -8.50278E+00
  -8.36464E+00 -8.21492E+00 -8.05235E+00 -7.87597E+00 -7.68477E+00 -7.47819E+00 -7.25576E+00 -7.01767E+00 -6.76441E+00 -6.49721E+00
  -6.21771E+00 -5.92836E+00 -5.63213E+00 -5.33287E+00 -5.03479E+00 -4.74276E+00 -4.46171E+00 -4.19688E+00 -3.95324E+00 -3.73561E+00
  -3.54803E+00 -3.39390E+00 -3.27542E+00 -3.19388E+00 -3.14922E+00 -3.14041E+00 -3.16508E+00 -3.22001E+00 -3.30098E+00 -3.40339E+00
  -3.52212E+00 -3.65210E+00 -3.78817E+00 -3.92565E+00 -4.06017E+00 -4.18816E+00 -4.30656E+00 -4.41317E+00 -4.50624E+00 -4.58486E+00
  -4.64850E+00 -4.69734E+00 -4.73174E+00 -4.75252E+00 -4.76049E+00 -4.75677E+00 -4.74242E+00 -4.71864E+00 -4.68646E+00 -4.64696E+00
  -4.60096E+00 -4.54938E+00 -4.49293E+00 -4.43237E+00 -4.36818E+00 -4.30092E+00 -4.23091E+00 -4.15861E+00 -4.08426E+00 -4.00821E+00
  -3.93060E+00 -3.85167E+00 -3.77150E+00 -3.69031E+00 -3.60816E+00 -3.52524E+00 -3.44153E+00 -3.35716E+00 -3.27214E+00 -3.18660E+00
  -3.10054E+00 -3.01407E+00 -2.92713E+00 -2.83980E+00 -2.75207E+00 -2.66406E+00 -2.57573E+00 -2.48716E+00 -2.39828E+00 -2.30918E+00
  -2.21983E+00 -2.13034E+00 -2.04064E+00 -1.95080E+00 -1.86075E+00 -1.77059E+00 -1.68027E+00 -1.58988E+00 -1.49936E+00 -1.40875E+00
  -1.31799E+00 -1.22719E+00 -1.13629E+00 -1.04536E+00 -9.54334E-01 -8.63260E-01 -7.72088E-01 -6.80908E-01 -5.89671E-01 -4.98433E-01
  -4.07114E-01 -3.15775E-01 -2.24371E-01 -1.32987E-01 -4.15610E-02  4.98615E-02  1.41360E-01  2.32866E-01  3.24425E-01  4.15964E-01
   5.07558E-01  5.99169E-01  6.90874E-01  7.82607E-01  8.74419E-01  9.66258E-01  1.05822E+00  1.15027E+00
 NY background values follow
    -1.394E+02   -1.387E+02   -1.380E+02   -1.372E+02   -1.365E+02   -1.358E+02   -1.351E+02   -1.344E+02   -1.336E+02   -1.329E+02
    -1.322E+02   -1.315E+02   -1.307E+02   -1.300E+02   -1.293E+02   -1.286E+02   -1.279E+02   -1.272E+02   -1.264E+02   -1.257E+02
    -1.250E+02   -1.243E+02   -1.236E+02   -1.229E+02   -1.222E+02   -1.214E+02   -1.207E+02   -1.200E+02   -1.193E+02   -1.186E+02
    -1.179E+02   -1.172E+02   -1.165E+02   -1.158E+02   -1.151E+02   -1.144E+02   -1.137E+02   -1.130E+02   -1.123E+02   -1.116E+02
    -1.109E+02   -1.102E+02   -1.095E+02   -1.089E+02   -1.082E+02   -1.075E+02   -1.068E+02   -1.061E+02   -1.055E+02   -1.048E+02
    -1.041E+02   -1.034E+02   -1.028E+02   -1.021E+02   -1.014E+02   -1.008E+02   -1.001E+02   -9.946E+01   -9.881E+01   -9.816E+01
    -9.751E+01   -9.686E+01   -9.622E+01   -9.558E+01   -9.494E+01   -9.430E+01   -9.367E+01   -9.304E+01   -9.241E+01   -9.178E+01
    -9.116E+01   -9.054E+01   -8.992E+01   -8.931E+01   -8.870E+01   -8.809E+01   -8.749E+01   -8.689E+01   -8.629E+01   -8.569E+01
    -8.510E+01   -8.451E+01   -8.393E+01   -8.334E+01   -8.276E+01   -8.219E+01   -8.162E+01   -8.105E+01   -8.048E+01   -7.992E+01
    -7.936E+01   -7.881E+01   -7.826E+01   -7.771E+01   -7.717E+01   -7.663E+01   -7.609E+01   -7.556E+01   -7.503E+01   -7.450E+01
    -7.398E+01   -7.346E+01   -7.294E+01   -7.243E+01   -7.192E+01   -7.141E+01   -7.091E+01   -7.041E+01   -6.991E+01   -6.942E+01
    -6.893E+01   -6.844E+01   -6.796E+01   -6.748E+01   -6.700E+01   -6.652E+01   -6.605E+01   -6.558E+01   -6.512E+01   -6.466E+01
    -6.420E+01   -6.374E+01   -6.328E+01   -6.283E+01   -6.238E+01   -6.194E+01   -6.150E+01   -6.106E+01   -6.062E+01   -6.018E+01
    -5.975E+01   -5.932E+01   -5.890E+01   -5.847E+01   -5.805E+01   -5.763E+01   -5.721E+01   -5.680E+01   -5.639E+01   -5.598E+01
    -5.557E+01   -5.517E+01   -5.477E+01   -5.437E+01   -5.397E+01   -5.358E+01   -5.319E+01   -5.280E+01   -5.241E+01   -5.202E+01
    -5.164E+01   -5.126E+01   -5.088E+01   -5.050E+01   -5.013E+01   -4.976E+01   -4.939E+01   -4.902E+01   -4.866E+01   -4.829E+01
    -4.793E+01   -4.757E+01   -4.722E+01   -4.686E+01   -4.651E+01   -4.616E+01   -4.581E+01   -4.546E+01   -4.512E+01   -4.477E+01
    -4.443E+01   -4.409E+01   -4.376E+01   -4.342E+01   -4.309E+01   -4.276E+01   -4.243E+01   -4.210E+01   -4.177E+01   -4.145E+01
    -4.112E+01   -4.080E+01   -4.048E+01   -4.017E+01   -3.985E+01   -3.954E+01   -3.922E+01   -3.891E+01   -3.861E+01   -3.830E+01
    -3.799E+01   -3.769E+01   -3.739E+01   -3.709E+01   -3.679E+01   -3.650E+01   -3.620E+01   -3.591E+01   -3.562E+01   -3.533E+01
    -3.505E+01   -3.476E+01   -3.448E+01   -3.420E+01   -3.393E+01   -3.365E+01   -3.338E+01   -3.310E+01   -3.283E+01   -3.257E+01
    -3.230E+01   -3.204E+01   -3.178E+01   -3.152E+01   -3.126E+01   -3.101E+01   -3.076E+01   -3.050E+01   -3.026E+01   -3.001E+01
    -2.977E+01   -2.953E+01   -2.929E+01   -2.905E+01   -2.882E+01   -2.858E+01   -2.836E+01   -2.813E+01   -2.790E+01   -2.768E+01
    -2.746E+01   -2.724E+01   -2.703E+01   -2.681E+01   -2.660E+01   -2.639E+01   -2.618E+01   -2.598E+01   -2.578E+01   -2.558E+01
    -2.538E+01   -2.518E+01   -2.499E+01   -2.479E+01   -2.460E+01   -2.442E+01   -2.423E+01   -2.405E+01   -2.386E+01   -2.368E+01
    -2.350E+01   -2.333E+01   -2.315E+01   -2.298E+01   -2.281E+01   -2.264E+01   -2.247E+01   -2.231E+01   -2.214E+01   -2.198E+01
    -2.182E+01   -2.166E+01   -2.150E+01   -2.135E+01   -2.120E+01   -2.104E+01   -2.089E+01   -2.074E+01   -2.060E+01   -2.045E+01
    -2.031E+01   -2.017E+01   -2.002E+01   -1.988E+01   -1.975E+01   -1.961E+01   -1.948E+01   -1.934E+01   -1.921E+01   -1.908E+01
    -1.895E+01   -1.882E+01   -1.869E+01   -1.857E+01   -1.844E+01   -1.832E+01   -1.820E+01   -1.808E+01   -1.796E+01   -1.784E+01
    -1.772E+01   -1.761E+01   -1.749E+01   -1.738E+01   -1.727E+01   -1.716E+01   -1.705E+01   -1.694E+01   -1.683E+01   -1.672E+01
    -1.662E+01   -1.651E+01   -1.641E+01   -1.631E+01   -1.620E+01   -1.610E+01   -1.600E+01   -1.590E+01   -1.580E+01   -1.571E+01
    -1.561E+01   -1.551E+01   -1.542E+01   -1.532E+01   -1.523E+01   -1.514E+01   -1.505E+01   -1.495E+01   -1.486E+01   -1.477E+01
    -1.468E+01   -1.459E+01   -1.451E+01   -1.442E+01   -1.433E+01   -1.424E+01   -1.416E+01   -1.407E+01   -1.399E+01   -1.390E+01
    -1.382E+01   -1.373E+01   -1.365E+01   -1.356E+01   -1.348E+01   -1.340E+01   -1.332E+01   -1.323E+01   -1.315E+01   -1.307E+01
    -1.299E+01   -1.290E+01   -1.282E+01   -1.274E+01   -1.266E+01   -1.258E+01   -1.250E+01   -1.241E+01   -1.233E+01   -1.225E+01
    -1.217E+01   -1.209E+01   -1.200E+01   -1.192E+01   -1.184E+01   -1.176E+01   -1.167E+01   -1.159E+01   -1.151E+01   -1.142E+01
    -1.134E+01   -1.126E+01   -1.117E+01   -1.109E+01   -1.100E+01   -1.091E+01   -1.083E+01   -1.074E+01   -1.065E+01   -1.057E+01
    -1.048E+01   -1.039E+01   -1.030E+01   -1.021E+01   -1.013E+01   -1.004E+01   -9.948E+00   -9.858E+00   -9.768E+00   -9.678E+00
    -9.588E+00   -9.498E+00   -9.407E+00   -9.316E+00   -9.225E+00   -9.134E+00   -9.043E+00   -8.951E+00   -8.860E+00   -8.768E+00
    -8.676E+00   -8.584E+00   -8.492E+00   -8.400E+00   -8.307E+00   -8.215E+00   -8.122E+00   -8.030E+00   -7.937E+00   -7.845E+00
    -7.752E+00   -7.660E+00   -7.567E+00   -7.474E+00   -7.382E+00   -7.289E+00   -7.196E+00   -7.104E+00   -7.011E+00   -6.919E+00
    -6.826E+00   -6.734E+00   -6.642E+00   -6.549E+00   -6.457E+00   -6.365E+00   -6.273E+00   -6.180E+00   -6.088E+00   -5.996E+00
    -5.904E+00   -5.812E+00   -5.720E+00   -5.628E+00   -5.535E+00   -5.443E+00   -5.351E+00   -5.259E+00   -5.167E+00   -5.075E+00
    -4.983E+00   -4.891E+00   -4.799E+00   -4.707E+00   -4.615E+00   -4.523E+00   -4.431E+00   -4.339E+00   -4.247E+00   -4.155E+00
    -4.063E+00   -3.971E+00   -3.878E+00   -3.786E+00   -3.694E+00   -3.602E+00   -3.510E+00   -3.418E+00   -3.325E+00   -3.233E+00
    -3.141E+00   -3.048E+00   -2.956E+00   -2.863E+00   -2.771E+00   -2.678E+00   -2.586E+00   -2.493E+00   -2.401E+00   -2.308E+00
    -2.215E+00   -2.123E+00   -2.030E+00   -1.938E+00   -1.845E+00   -1.752E+00   -1.660E+00   -1.567E+00   -1.474E+00   -1.382E+00
    -1.289E+00   -1.197E+00   -1.104E+00   -1.012E+00   -9.191E-01   -8.267E-01   -7.343E-01   -6.419E-01   -5.496E-01   -4.573E-01
    -3.650E-01   -2.729E-01   -1.807E-01   -8.867E-02    3.328E-03    9.526E-02    1.871E-01    2.789E-01    3.706E-01    4.623E-01
     5.538E-01    6.453E-01    7.367E-01    8.280E-01    9.192E-01    1.010E+00    1.101E+00    1.192E+00
 Asp      Conc. = 1.46E+02
