 LCModel (Version 6.3-1L) Copyright: S.W. Provencher.          Ref.: Magn. Reson. Med. 30:672-679 (1993).                
 Slice#1 Row#9 Col#2  PD_24_press_2_raw_act
 36 lines in following concentration table = NCONC+1
    Conc.  %SD /Cr+PCr  Metabolite                                         
   52.929  86%   0.000 Ala                                                 
  526.294  16%   0.000 Asp                                                 
    0.000 999%   0.000 Cr                                                  
    0.000 999%   0.000 PCr                                                 
    0.000 999%   0.000 GABA                                                
    0.000 999%   0.000 Glc                                                 
    0.000 999%   0.000 Gln                                                 
  216.429  44%   0.000 Glu                                                 
   23.244  25%   0.000 GPC                                                 
    0.000 999%   0.000 PCh                                                 
    0.000 999%   0.000 GSH                                                 
   76.371  87%   0.000 Ins                                                 
    0.000 999%   0.000 Lac                                                 
  196.156  13%   0.000 NAA                                                 
  134.254  18%   0.000 NAAG                                                
   20.750  39%   0.000 Scyllo                                              
  190.799  43%   0.000 Tau                                                 
   35.770  73%   0.000 -CrCH2                                              
   23.244  25%   0.000 GPC+PCh                                             
  330.411   8%   0.000 NAA+NAAG                                            
    0.000 999%   0.000 Cr+PCr                                              
  216.429  44%   0.000 Glu+Gln                                             
    0.000 999%   0.000 Lip13a                                              
 2.92E+04   7%   0.000 Lip13b                                              
 7.81E+03  17%   0.000 Lip09                                               
 5.62E+03  15%   0.000 MM09                                                
    0.000 999%   0.000 Lip20                                               
    0.000 999%   0.000 MM20                                                
 1.49E+04  13%   0.000 MM12                                                
 4.42E+04   8%   0.000 MM14                                                
 2.14E+04   9%   0.000 MM17                                                
 2.92E+04   7%   0.000 Lip13a+Lip13b                                       
 8.84E+04   4%   0.000 MM14+Lip13a+Lip13b+MM12                             
 1.34E+04  11%   0.000 MM09+Lip09                                          
    0.000 999%   0.000 MM20+Lip20                                          
   6 lines in following misc. output table
  FWHM = 0.138 ppm    S/N =   8                                            
  Data shift = 0.268 ppm                                                   
  Ph:-131 deg     154.4 deg/ppm                                            
  alphaB,S = 5.0E-01,   2.8E+00                                            
   12 spline knots.   Ns = 9(2)                                            
   2 inflections.     2 extrema                                            
  498 points on ppm-axis = NY
      4.000000     3.992357     3.984714     3.977070     3.969427     3.961784     3.954141     3.946497     3.938854     3.931211
      3.923568     3.915925     3.908281     3.900638     3.892995     3.885352     3.877708     3.870065     3.862422     3.854779
      3.847136     3.839492     3.831849     3.824206     3.816563     3.808919     3.801276     3.793633     3.785990     3.778347
      3.770703     3.763060     3.755417     3.747774     3.740130     3.732487     3.724844     3.717201     3.709558     3.701914
      3.694271     3.686628     3.678985     3.671341     3.663698     3.656055     3.648412     3.640769     3.633125     3.625482
      3.617839     3.610196     3.602552     3.594909     3.587266     3.579623     3.571980     3.564336     3.556693     3.549050
      3.541407     3.533763     3.526120     3.518477     3.510834     3.503191     3.495547     3.487904     3.480261     3.472618
      3.464974     3.457331     3.449688     3.442045     3.434402     3.426758     3.419115     3.411472     3.403829     3.396185
      3.388542     3.380899     3.373256     3.365613     3.357969     3.350326     3.342683     3.335040     3.327396     3.319753
      3.312110     3.304467     3.296824     3.289180     3.281537     3.273894     3.266251     3.258607     3.250964     3.243321
      3.235678     3.228034     3.220391     3.212748     3.205105     3.197462     3.189818     3.182175     3.174532     3.166889
      3.159245     3.151602     3.143959     3.136316     3.128673     3.121029     3.113386     3.105743     3.098100     3.090456
      3.082813     3.075170     3.067527     3.059884     3.052240     3.044597     3.036954     3.029311     3.021667     3.014024
      3.006381     2.998738     2.991095     2.983451     2.975808     2.968165     2.960522     2.952878     2.945235     2.937592
      2.929949     2.922306     2.914662     2.907019     2.899376     2.891733     2.884089     2.876446     2.868803     2.861160
      2.853517     2.845873     2.838230     2.830587     2.822944     2.815300     2.807657     2.800014     2.792371     2.784728
      2.777084     2.769441     2.761798     2.754155     2.746511     2.738868     2.731225     2.723582     2.715939     2.708295
      2.700652     2.693009     2.685366     2.677722     2.670079     2.662436     2.654793     2.647150     2.639506     2.631863
      2.624220     2.616577     2.608933     2.601290     2.593647     2.586004     2.578361     2.570717     2.563074     2.555431
      2.547788     2.540144     2.532501     2.524858     2.517215     2.509572     2.501928     2.494285     2.486642     2.478999
      2.471355     2.463712     2.456069     2.448426     2.440783     2.433139     2.425496     2.417853     2.410210     2.402566
      2.394923     2.387280     2.379637     2.371994     2.364350     2.356707     2.349064     2.341421     2.333777     2.326134
      2.318491     2.310848     2.303205     2.295561     2.287918     2.280275     2.272632     2.264988     2.257345     2.249702
      2.242059     2.234416     2.226772     2.219129     2.211486     2.203843     2.196199     2.188556     2.180913     2.173270
      2.165627     2.157983     2.150340     2.142697     2.135054     2.127410     2.119767     2.112124     2.104481     2.096838
      2.089194     2.081551     2.073908     2.066265     2.058621     2.050978     2.043335     2.035692     2.028049     2.020405
      2.012762     2.005119     1.997476     1.989833     1.982190     1.974546     1.966903     1.959260     1.951617     1.943974
      1.936331     1.928688     1.921045     1.913402     1.905759     1.898115     1.890472     1.882829     1.875186     1.867543
      1.859900     1.852257     1.844614     1.836971     1.829327     1.821684     1.814041     1.806398     1.798755     1.791112
      1.783469     1.775826     1.768183     1.760540     1.752896     1.745253     1.737610     1.729967     1.722324     1.714681
      1.707038     1.699395     1.691752     1.684108     1.676465     1.668822     1.661179     1.653536     1.645893     1.638250
      1.630607     1.622964     1.615321     1.607677     1.600034     1.592391     1.584748     1.577105     1.569462     1.561819
      1.554176     1.546533     1.538890     1.531246     1.523603     1.515960     1.508317     1.500674     1.493031     1.485388
      1.477745     1.470102     1.462458     1.454815     1.447172     1.439529     1.431886     1.424243     1.416600     1.408957
      1.401314     1.393671     1.386027     1.378384     1.370741     1.363098     1.355455     1.347812     1.340169     1.332526
      1.324883     1.317240     1.309596     1.301953     1.294310     1.286667     1.279024     1.271381     1.263738     1.256095
      1.248452     1.240808     1.233165     1.225522     1.217879     1.210236     1.202593     1.194950     1.187307     1.179664
      1.172021     1.164377     1.156734     1.149091     1.141448     1.133805     1.126162     1.118519     1.110876     1.103233
      1.095590     1.087946     1.080303     1.072660     1.065017     1.057374     1.049731     1.042088     1.034445     1.026802
      1.019158     1.011515     1.003872     0.996229     0.988586     0.980943     0.973300     0.965657     0.958014     0.950371
      0.942727     0.935084     0.927441     0.919798     0.912155     0.904512     0.896869     0.889226     0.881583     0.873940
      0.866296     0.858653     0.851010     0.843367     0.835724     0.828081     0.820438     0.812795     0.805152     0.797508
      0.789865     0.782222     0.774579     0.766936     0.759293     0.751650     0.744007     0.736364     0.728721     0.721077
      0.713434     0.705791     0.698148     0.690505     0.682862     0.675219     0.667576     0.659933     0.652290     0.644646
      0.637003     0.629360     0.621717     0.614074     0.606431     0.598788     0.591145     0.583502     0.575858     0.568215
      0.560572     0.552929     0.545286     0.537643     0.530000     0.522357     0.514714     0.507071     0.499427     0.491784
      0.484141     0.476498     0.468855     0.461212     0.453569     0.445925     0.438282     0.430639     0.422996     0.415353
      0.407710     0.400067     0.392424     0.384780     0.377137     0.369494     0.361851     0.354208     0.346565     0.338922
      0.331278     0.323635     0.315992     0.308349     0.300706     0.293063     0.285420     0.277777     0.270133     0.262490
      0.254847     0.247204     0.239561     0.231918     0.224275     0.216631     0.208988     0.201345
 NY phased data points follow
   8.47364E+01  8.82870E+01  8.80548E+01  8.99445E+01  7.98821E+01  8.75922E+01  8.48741E+01  8.54072E+01  8.63062E+01  8.81780E+01
   8.51014E+01  9.19090E+01  8.44738E+01  8.79519E+01  8.49984E+01  8.87499E+01  8.79752E+01  8.76226E+01  8.63982E+01  8.63392E+01
   8.57167E+01  8.48650E+01  8.72920E+01  8.63334E+01  8.03950E+01  7.97176E+01  8.50234E+01  8.23581E+01  8.01945E+01  7.61827E+01
   7.61835E+01  7.66583E+01  7.23980E+01  7.36468E+01  7.40293E+01  7.28865E+01  7.00434E+01  7.46273E+01  7.26876E+01  6.86189E+01
   7.39138E+01  6.71479E+01  6.81512E+01  6.58238E+01  6.58158E+01  6.97947E+01  6.06472E+01  5.92713E+01  6.06613E+01  6.02596E+01
   6.18066E+01  5.74086E+01  5.69687E+01  5.28399E+01  5.52440E+01  5.12002E+01  5.09207E+01  4.94341E+01  5.04016E+01  5.15281E+01
   4.69369E+01  4.78606E+01  4.88309E+01  5.06724E+01  5.64109E+01  5.08965E+01  5.06254E+01  5.04487E+01  4.94418E+01  5.23577E+01
   4.72589E+01  5.15833E+01  5.03632E+01  4.55527E+01  4.64882E+01  3.88035E+01  3.85321E+01  3.94503E+01  3.84143E+01  3.83262E+01
   3.62492E+01  3.39218E+01  4.06056E+01  3.34337E+01  3.40434E+01  4.38317E+01  4.55300E+01  4.35277E+01  4.62453E+01  4.67323E+01
   4.67452E+01  4.03808E+01  3.90983E+01  3.68612E+01  3.90437E+01  3.68590E+01  4.37188E+01  3.55380E+01  3.55728E+01  2.69454E+01
   3.04358E+01  2.55642E+01  2.28764E+01  1.96479E+01  2.12604E+01  2.03007E+01  1.88005E+01  1.69489E+01  1.93649E+01  1.57152E+01
   2.09273E+01  1.59351E+01  8.42221E+00  1.03310E+01  1.43290E+01  1.00682E+01  1.43011E+01  5.70813E+00  1.24144E+01  6.35884E+00
   7.09721E+00  5.05607E+00  8.17206E+00  5.80506E+00  1.75803E+00 -2.12508E+00  4.98508E+00 -4.01504E-02 -1.74907E+00 -4.80464E+00
  -5.15395E+00 -5.69923E+00 -5.56577E+00 -5.73461E+00 -1.27380E+00 -9.65326E+00 -2.39594E+00 -8.85527E+00 -5.59944E+00 -5.06006E+00
  -7.51187E-01 -7.06271E+00 -5.53284E+00 -5.75468E+00 -1.21522E+00 -2.50188E-01  2.95974E-01 -4.30870E-01 -1.92496E-01 -2.90803E+00
   4.12486E+00 -2.76523E+00  3.86618E+00  1.06532E-01  3.58973E+00  1.71657E+00  3.15384E+00  1.53516E+00  6.00850E+00  2.88286E+00
   9.84784E+00  2.72182E+00  6.54980E+00 -1.06768E+00  1.07199E+01  5.27031E+00  9.69809E+00  6.12606E+00  8.96474E+00  5.54412E+00
   1.55330E+01  8.42650E+00  1.24411E+01  7.18841E+00  7.71589E+00 -6.27352E-02  6.40486E+00  2.66595E+00  4.57712E-01 -1.88880E+00
   1.85152E+00 -2.76992E+00 -3.05103E-01 -3.69545E+00 -5.10372E+00 -6.49872E+00 -8.68742E+00 -8.11133E+00 -1.30164E+01 -1.43644E+01
  -1.48071E+01 -1.43959E+01 -1.52183E+01 -1.80168E+01 -2.19882E+01 -2.13384E+01 -2.51893E+01 -2.44925E+01 -2.14705E+01 -2.45551E+01
  -2.73967E+01 -2.60624E+01 -2.20023E+01 -2.31011E+01 -2.15800E+01 -2.15856E+01 -1.85122E+01 -1.87653E+01 -1.85770E+01 -1.16711E+01
  -1.22793E+01 -1.50867E+01 -1.23942E+01 -1.25025E+01 -1.14330E+01 -1.24604E+01 -1.52607E+01 -1.89743E+01 -2.51462E+01 -3.10193E+01
  -4.00239E+01 -4.72058E+01 -5.35730E+01 -5.36326E+01 -5.84950E+01 -5.47045E+01 -4.74694E+01 -5.06652E+01 -5.39064E+01 -6.41621E+01
  -5.82474E+01 -5.69834E+01 -5.31849E+01 -4.89209E+01 -5.16803E+01 -4.41914E+01 -4.81211E+01 -4.59745E+01 -5.00983E+01 -4.60713E+01
  -4.19487E+01 -4.27526E+01 -4.52872E+01 -4.43754E+01 -4.46682E+01 -4.31236E+01 -4.36149E+01 -4.47449E+01 -3.61925E+01 -3.78232E+01
  -4.32208E+01 -4.24360E+01 -3.92686E+01 -4.19288E+01 -4.49464E+01 -4.51412E+01 -4.26686E+01 -4.72013E+01 -5.21424E+01 -5.66263E+01
  -5.79519E+01 -5.93447E+01 -6.68659E+01 -7.34023E+01 -7.82052E+01 -8.30890E+01 -8.92067E+01 -1.02501E+02 -1.18655E+02 -1.22106E+02
  -1.31248E+02 -1.42830E+02 -1.51429E+02 -1.59363E+02 -1.69827E+02 -1.75379E+02 -1.84192E+02 -1.88007E+02 -1.94927E+02 -1.96447E+02
  -1.93534E+02 -1.90004E+02 -1.84485E+02 -1.72427E+02 -1.59686E+02 -1.52218E+02 -1.39601E+02 -1.19272E+02 -1.14742E+02 -9.38429E+01
  -8.20797E+01 -6.98727E+01 -5.47191E+01 -3.69312E+01 -3.23614E+01 -1.95926E+01 -1.20096E+01 -2.85266E+00  3.30574E+00  1.00763E+01
   1.66487E+01  2.35707E+01  2.29124E+01  2.86064E+01  2.81725E+01  3.06113E+01  3.54195E+01  3.77432E+01  3.30646E+01  4.27396E+01
   3.73707E+01  4.32149E+01  3.92434E+01  4.54019E+01  4.45160E+01  4.42751E+01  4.91663E+01  4.95481E+01  4.86118E+01  4.89640E+01
   5.32712E+01  4.92354E+01  4.70354E+01  5.04386E+01  4.63240E+01  5.37122E+01  4.84760E+01  4.52227E+01  5.20126E+01  4.85440E+01
   4.91326E+01  5.42910E+01  5.00697E+01  5.07455E+01  5.50549E+01  5.53673E+01  5.29908E+01  5.52063E+01  5.40754E+01  6.00476E+01
   5.14297E+01  5.10260E+01  5.47580E+01  5.52733E+01  5.45522E+01  5.71346E+01  5.37374E+01  5.75325E+01  5.37980E+01  5.68382E+01
   5.58448E+01  5.57722E+01  5.65582E+01  6.21143E+01  5.62488E+01  5.68973E+01  5.57950E+01  5.96039E+01  5.48146E+01  5.38033E+01
   5.76320E+01  5.97985E+01  5.91748E+01  5.79274E+01  6.15937E+01  5.64855E+01  5.89328E+01  5.75688E+01  5.66851E+01  6.04440E+01
   5.77788E+01  6.14054E+01  5.96583E+01  6.09573E+01  5.67556E+01  5.95474E+01  5.82072E+01  5.85178E+01  5.49642E+01  5.66147E+01
   5.46110E+01  5.66694E+01  5.39820E+01  5.60398E+01  5.76679E+01  5.76830E+01  5.10429E+01  5.56087E+01  5.32344E+01  5.38407E+01
   4.91683E+01  5.12976E+01  4.62626E+01  4.97660E+01  5.06580E+01  5.07183E+01  4.46684E+01  4.41935E+01  4.33451E+01  4.30161E+01
   3.48852E+01  4.12326E+01  3.89033E+01  4.11191E+01  3.95431E+01  3.88836E+01  3.78577E+01  3.81982E+01  3.77446E+01  3.86636E+01
   3.02214E+01  3.33636E+01  3.41973E+01  3.13184E+01  2.91352E+01  2.95852E+01  3.21643E+01  2.63346E+01  3.01060E+01  2.63578E+01
   2.34375E+01  2.42641E+01  2.38631E+01  2.62170E+01  2.30923E+01  2.37074E+01  1.94843E+01  1.91929E+01  1.82340E+01  2.19587E+01
   1.78156E+01  1.88049E+01  1.87590E+01  1.53190E+01  1.20550E+01  1.27815E+01  1.39370E+01  1.51234E+01  9.65558E+00  1.10166E+01
   6.98631E+00  9.93633E+00  7.82836E+00  8.72304E+00  8.91688E+00  5.19567E-02  8.28211E+00  3.97434E+00  2.37001E+00  9.39098E-01
   1.86583E+00  8.08817E+00  2.05114E+00  2.96145E+00 -3.30436E+00 -1.46802E+00 -2.65817E-02  1.84515E+00 -7.57315E-01 -3.17660E+00
   9.86506E-01 -1.33013E+00 -1.48151E+00 -5.90289E+00 -1.87012E+00 -6.08764E+00 -7.38810E+00 -6.63560E+00 -6.71036E+00 -9.00376E+00
  -3.66944E+00 -9.34785E+00 -6.82804E+00 -5.12533E+00 -1.17732E+01 -1.27390E+01 -1.12432E+01 -9.52566E+00 -1.28108E+01 -7.41402E+00
  -1.41623E+01 -1.09053E+01 -1.24131E+01 -1.54563E+01 -1.18887E+01 -1.80229E+01 -1.49655E+01 -1.43927E+01 -1.50503E+01 -1.50570E+01
  -1.61990E+01 -1.59035E+01 -1.41713E+01 -1.56831E+01 -1.55407E+01 -2.10507E+01 -2.34424E+01 -2.18502E+01
 NY points of the fit to the data follow
   9.28346E+01  8.93224E+01  8.82040E+01  8.59608E+01  8.54563E+01  8.46786E+01  8.45265E+01  8.53213E+01  8.50873E+01  8.58402E+01
   8.43505E+01  8.49817E+01  8.29243E+01  8.39875E+01  8.23010E+01  8.41795E+01  8.38279E+01  8.54384E+01  8.46897E+01  8.64960E+01
   8.50353E+01  8.68188E+01  8.53894E+01  8.62223E+01  8.50544E+01  8.37068E+01  8.23986E+01  7.75647E+01  7.69990E+01  7.46843E+01
   7.58770E+01  7.67607E+01  7.65590E+01  7.60988E+01  7.52824E+01  7.41428E+01  7.27080E+01  6.82826E+01  6.65322E+01  6.24604E+01
   6.30340E+01  6.28567E+01  6.39568E+01  6.37223E+01  6.42692E+01  6.33856E+01  6.25175E+01  6.08470E+01  5.91293E+01  5.81898E+01
   5.68707E+01  5.76980E+01  5.64965E+01  5.77749E+01  5.66355E+01  5.69466E+01  5.45219E+01  5.56149E+01  5.48265E+01  5.46566E+01
   5.39741E+01  5.26333E+01  5.09427E+01  4.93347E+01  4.84603E+01  4.79163E+01  4.78568E+01  4.84142E+01  5.01668E+01  5.14223E+01
   5.11617E+01  5.14719E+01  5.00963E+01  4.97190E+01  4.83514E+01  4.69462E+01  4.48567E+01  4.27007E+01  4.07009E+01  3.87929E+01
   3.84662E+01  3.86922E+01  3.81375E+01  3.85644E+01  3.87613E+01  4.26103E+01  4.20555E+01  4.47034E+01  4.20756E+01  4.27088E+01
   4.02539E+01  3.93331E+01  3.77630E+01  3.75505E+01  3.66962E+01  3.71131E+01  3.71310E+01  3.52657E+01  3.35676E+01  3.07054E+01
   2.95303E+01  2.63846E+01  2.71492E+01  2.44014E+01  2.57295E+01  2.32869E+01  2.51503E+01  2.37922E+01  2.35886E+01  2.08984E+01
   2.05221E+01  1.75201E+01  1.68119E+01  1.28927E+01  1.10373E+01  6.81551E+00  5.76717E+00  3.38440E+00  3.13461E+00  3.83756E+00
   3.21065E+00  5.36504E+00  5.91020E+00  9.29104E+00  8.25092E+00  8.99853E+00  8.17722E+00  1.02383E+01  1.07521E+01  1.16882E+01
   1.18864E+01  1.15643E+01  1.14320E+01  1.03144E+01  9.84940E+00  8.84382E+00  8.09553E+00  7.27488E+00  6.55946E+00  5.84927E+00
   4.99257E+00  2.99608E+00  2.08223E+00  1.87103E-01 -9.03639E-01 -3.06044E+00 -4.75230E+00 -6.67291E+00 -6.20529E+00 -6.92990E+00
  -5.80783E+00 -6.16046E+00 -5.24431E+00 -5.09789E+00 -4.26427E+00 -4.22819E+00 -2.92453E+00 -3.40686E+00 -2.92372E+00 -3.98402E+00
  -4.43994E+00 -4.94281E+00 -6.25887E+00 -4.47302E+00 -4.96191E+00 -1.98706E+00  4.61526E-01  1.42615E+00  3.71453E+00  4.27450E+00
   5.92691E+00  6.64310E+00  7.34972E+00  7.47940E+00  5.80154E+00  5.41901E+00  4.02471E+00  3.08475E+00  1.51519E+00 -3.27471E-01
  -1.89160E+00 -3.30077E+00 -4.81150E+00 -6.76781E+00 -7.89523E+00 -9.27126E+00 -8.63464E+00 -8.48519E+00 -8.85635E+00 -8.98702E+00
  -9.98388E+00 -1.01106E+01 -1.12749E+01 -1.15962E+01 -1.29039E+01 -1.36833E+01 -1.61370E+01 -1.63737E+01 -1.66758E+01 -1.63615E+01
  -1.71846E+01 -1.76292E+01 -1.85449E+01 -1.96978E+01 -2.01858E+01 -2.30188E+01 -2.45088E+01 -2.65867E+01 -2.79389E+01 -2.86322E+01
  -3.00128E+01 -3.04071E+01 -3.27389E+01 -3.35214E+01 -3.48964E+01 -3.58365E+01 -3.73944E+01 -3.83307E+01 -3.98514E+01 -4.10153E+01
  -4.24309E+01 -4.32797E+01 -4.44209E+01 -4.51914E+01 -4.59017E+01 -4.69560E+01 -4.76018E+01 -4.90794E+01 -5.05594E+01 -5.24635E+01
  -5.44864E+01 -5.64783E+01 -5.81880E+01 -6.02281E+01 -6.07869E+01 -6.20964E+01 -6.16545E+01 -6.17080E+01 -5.52298E+01 -5.68171E+01
  -5.27214E+01 -5.83940E+01 -5.65210E+01 -5.18035E+01 -4.77231E+01 -4.20807E+01 -3.92253E+01 -3.68990E+01 -3.57578E+01 -3.75148E+01
  -3.82041E+01 -4.10689E+01 -4.20382E+01 -4.31823E+01 -4.38713E+01 -4.38543E+01 -4.50649E+01 -4.47185E+01 -4.81499E+01 -4.91269E+01
  -5.45776E+01 -5.77152E+01 -6.47835E+01 -7.01555E+01 -7.75677E+01 -8.35008E+01 -9.20697E+01 -9.95136E+01 -1.10508E+02 -1.18478E+02
  -1.30882E+02 -1.39789E+02 -1.50937E+02 -1.60500E+02 -1.66910E+02 -1.75103E+02 -1.74519E+02 -1.80060E+02 -1.82375E+02 -1.81553E+02
  -1.78922E+02 -1.67710E+02 -1.60332E+02 -1.55322E+02 -1.49276E+02 -1.43054E+02 -1.35463E+02 -1.26682E+02 -1.16632E+02 -1.05330E+02
  -9.29961E+01 -7.96030E+01 -6.56990E+01 -5.12766E+01 -3.70551E+01 -2.31295E+01 -1.03270E+01  1.41632E+00  1.15468E+01  2.03349E+01
   2.71984E+01  3.25994E+01  3.61954E+01  3.85675E+01  3.94806E+01  3.94830E+01  3.85751E+01  3.73707E+01  3.60354E+01  3.57490E+01
   3.50133E+01  3.42914E+01  3.42345E+01  3.38239E+01  3.45592E+01  3.46348E+01  3.55817E+01  3.67251E+01  4.00322E+01  4.22857E+01
   4.66945E+01  4.91971E+01  5.35176E+01  5.55391E+01  5.87346E+01  5.97065E+01  6.15264E+01  6.13446E+01  6.20027E+01  6.07875E+01
   6.04598E+01  5.86380E+01  5.77096E+01  5.56740E+01  5.44274E+01  5.25921E+01  5.12690E+01  4.97670E+01  4.83709E+01  4.73961E+01
   4.61716E+01  4.62540E+01  4.55468E+01  4.71145E+01  4.73726E+01  5.04443E+01  5.15792E+01  5.52490E+01  5.61672E+01  5.79539E+01
   5.75903E+01  5.88213E+01  5.77679E+01  5.83701E+01  5.74332E+01  5.78211E+01  5.85402E+01  5.89876E+01  5.92390E+01  5.93736E+01
   5.94496E+01  5.95161E+01  5.96069E+01  5.97474E+01  5.99465E+01  6.02042E+01  6.05057E+01  6.08297E+01  6.11441E+01  6.14162E+01
   6.16088E+01  6.16904E+01  6.16308E+01  6.14107E+01  6.10167E+01  6.04489E+01  5.97153E+01  5.88366E+01  5.78394E+01  5.67597E+01
   5.56348E+01  5.45068E+01  5.34129E+01  5.23895E+01  5.14632E+01  5.06552E+01  4.99742E+01  4.94220E+01  4.89875E+01  4.86543E+01
   4.83957E+01  4.81834E+01  4.79835E+01  4.77657E+01  4.74988E+01  4.71594E+01  4.67268E+01  4.61909E+01  4.55461E+01  4.47973E+01
   4.39532E+01  4.30306E+01  4.20478E+01  4.10285E+01  3.99940E+01  3.89679E+01  3.79687E+01  3.70140E+01  3.61149E+01  3.52806E+01
   3.45129E+01  3.38118E+01  3.31706E+01  3.25819E+01  3.20331E+01  3.15126E+01  3.10050E+01  3.04976E+01  2.99755E+01  2.94279E+01
   2.88426E+01  2.82125E+01  2.75298E+01  2.67918E+01  2.59950E+01  2.51409E+01  2.42303E+01  2.32681E+01  2.22580E+01  2.12070E+01
   2.01204E+01  1.90067E+01  1.78715E+01  1.67234E+01  1.55678E+01  1.44123E+01  1.32615E+01  1.21220E+01  1.09972E+01  9.89253E+00
   8.81002E+00  7.75366E+00  6.72457E+00  5.72573E+00  4.75731E+00  3.82140E+00  2.91736E+00  2.04664E+00  1.20814E+00  4.02906E-01
  -3.70522E-01 -1.11149E+00 -1.82168E+00 -2.50064E+00 -3.15008E+00 -3.76961E+00 -4.36107E+00 -4.92416E+00 -5.46072E+00 -5.97044E+00
  -6.45504E+00 -6.91419E+00 -7.34968E+00 -7.76119E+00 -8.15041E+00 -8.51693E+00 -8.86237E+00 -9.18632E+00 -9.49037E+00 -9.77414E+00
  -1.00391E+01 -1.02849E+01 -1.05128E+01 -1.07224E+01 -1.09151E+01 -1.10906E+01 -1.12501E+01 -1.13931E+01 -1.15210E+01 -1.16332E+01
  -1.17312E+01 -1.18143E+01 -1.18840E+01 -1.19397E+01 -1.19826E+01 -1.20125E+01 -1.20306E+01 -1.20365E+01 -1.20316E+01 -1.20157E+01
  -1.19901E+01 -1.19549E+01 -1.19118E+01 -1.18609E+01 -1.18044E+01 -1.17431E+01 -1.16801E+01 -1.16176E+01
 NY background values follow
     9.651E+01    9.587E+01    9.522E+01    9.456E+01    9.391E+01    9.326E+01    9.260E+01    9.195E+01    9.129E+01    9.064E+01
     8.998E+01    8.932E+01    8.866E+01    8.800E+01    8.734E+01    8.669E+01    8.603E+01    8.537E+01    8.471E+01    8.405E+01
     8.339E+01    8.273E+01    8.207E+01    8.142E+01    8.076E+01    8.010E+01    7.945E+01    7.879E+01    7.814E+01    7.749E+01
     7.683E+01    7.618E+01    7.553E+01    7.488E+01    7.424E+01    7.359E+01    7.295E+01    7.230E+01    7.166E+01    7.102E+01
     7.038E+01    6.975E+01    6.911E+01    6.848E+01    6.785E+01    6.722E+01    6.660E+01    6.597E+01    6.535E+01    6.473E+01
     6.412E+01    6.351E+01    6.289E+01    6.229E+01    6.168E+01    6.108E+01    6.048E+01    5.988E+01    5.929E+01    5.870E+01
     5.811E+01    5.753E+01    5.695E+01    5.638E+01    5.580E+01    5.523E+01    5.467E+01    5.411E+01    5.355E+01    5.300E+01
     5.245E+01    5.191E+01    5.137E+01    5.084E+01    5.031E+01    4.979E+01    4.927E+01    4.875E+01    4.824E+01    4.774E+01
     4.724E+01    4.674E+01    4.626E+01    4.577E+01    4.530E+01    4.482E+01    4.436E+01    4.390E+01    4.345E+01    4.300E+01
     4.256E+01    4.212E+01    4.169E+01    4.127E+01    4.085E+01    4.044E+01    4.004E+01    3.964E+01    3.925E+01    3.887E+01
     3.850E+01    3.813E+01    3.777E+01    3.741E+01    3.707E+01    3.673E+01    3.639E+01    3.607E+01    3.575E+01    3.544E+01
     3.514E+01    3.485E+01    3.456E+01    3.428E+01    3.401E+01    3.375E+01    3.349E+01    3.324E+01    3.299E+01    3.275E+01
     3.252E+01    3.229E+01    3.207E+01    3.185E+01    3.164E+01    3.143E+01    3.123E+01    3.103E+01    3.084E+01    3.065E+01
     3.046E+01    3.028E+01    3.009E+01    2.992E+01    2.974E+01    2.957E+01    2.940E+01    2.923E+01    2.906E+01    2.890E+01
     2.873E+01    2.857E+01    2.841E+01    2.824E+01    2.808E+01    2.792E+01    2.776E+01    2.760E+01    2.744E+01    2.728E+01
     2.711E+01    2.695E+01    2.679E+01    2.662E+01    2.645E+01    2.628E+01    2.611E+01    2.594E+01    2.576E+01    2.558E+01
     2.540E+01    2.522E+01    2.503E+01    2.484E+01    2.465E+01    2.445E+01    2.425E+01    2.404E+01    2.383E+01    2.362E+01
     2.340E+01    2.318E+01    2.295E+01    2.272E+01    2.248E+01    2.224E+01    2.199E+01    2.174E+01    2.149E+01    2.123E+01
     2.096E+01    2.069E+01    2.041E+01    2.013E+01    1.984E+01    1.954E+01    1.924E+01    1.894E+01    1.862E+01    1.831E+01
     1.798E+01    1.765E+01    1.731E+01    1.697E+01    1.662E+01    1.627E+01    1.590E+01    1.553E+01    1.516E+01    1.478E+01
     1.439E+01    1.399E+01    1.359E+01    1.318E+01    1.276E+01    1.233E+01    1.190E+01    1.146E+01    1.102E+01    1.056E+01
     1.010E+01    9.633E+00    9.157E+00    8.673E+00    8.181E+00    7.682E+00    7.174E+00    6.659E+00    6.137E+00    5.606E+00
     5.067E+00    4.520E+00    3.966E+00    3.403E+00    2.833E+00    2.256E+00    1.672E+00    1.081E+00    4.838E-01   -1.200E-01
    -7.298E-01   -1.345E+00   -1.966E+00   -2.593E+00   -3.225E+00   -3.861E+00   -4.502E+00   -5.147E+00   -5.797E+00   -6.451E+00
    -7.108E+00   -7.768E+00   -8.432E+00   -9.099E+00   -9.769E+00   -1.044E+01   -1.112E+01   -1.179E+01   -1.247E+01   -1.315E+01
    -1.383E+01   -1.452E+01   -1.520E+01   -1.589E+01   -1.657E+01   -1.726E+01   -1.795E+01   -1.863E+01   -1.932E+01   -2.000E+01
    -2.069E+01   -2.137E+01   -2.206E+01   -2.274E+01   -2.342E+01   -2.410E+01   -2.478E+01   -2.545E+01   -2.613E+01   -2.680E+01
    -2.747E+01   -2.813E+01   -2.880E+01   -2.946E+01   -3.011E+01   -3.077E+01   -3.142E+01   -3.206E+01   -3.271E+01   -3.334E+01
    -3.398E+01   -3.461E+01   -3.524E+01   -3.586E+01   -3.648E+01   -3.709E+01   -3.771E+01   -3.831E+01   -3.892E+01   -3.951E+01
    -4.011E+01   -4.070E+01   -4.129E+01   -4.187E+01   -4.244E+01   -4.302E+01   -4.359E+01   -4.415E+01   -4.471E+01   -4.527E+01
    -4.582E+01   -4.637E+01   -4.691E+01   -4.745E+01   -4.798E+01   -4.851E+01   -4.903E+01   -4.955E+01   -5.007E+01   -5.058E+01
    -5.108E+01   -5.158E+01   -5.208E+01   -5.257E+01   -5.306E+01   -5.354E+01   -5.402E+01   -5.449E+01   -5.495E+01   -5.542E+01
    -5.587E+01   -5.633E+01   -5.677E+01   -5.722E+01   -5.765E+01   -5.808E+01   -5.851E+01   -5.893E+01   -5.935E+01   -5.976E+01
    -6.017E+01   -6.057E+01   -6.097E+01   -6.136E+01   -6.174E+01   -6.212E+01   -6.250E+01   -6.287E+01   -6.323E+01   -6.359E+01
    -6.395E+01   -6.430E+01   -6.464E+01   -6.498E+01   -6.531E+01   -6.564E+01   -6.596E+01   -6.628E+01   -6.659E+01   -6.690E+01
    -6.720E+01   -6.749E+01   -6.778E+01   -6.807E+01   -6.835E+01   -6.862E+01   -6.889E+01   -6.916E+01   -6.941E+01   -6.967E+01
    -6.991E+01   -7.016E+01   -7.039E+01   -7.062E+01   -7.085E+01   -7.107E+01   -7.128E+01   -7.149E+01   -7.170E+01   -7.190E+01
    -7.209E+01   -7.228E+01   -7.246E+01   -7.263E+01   -7.281E+01   -7.297E+01   -7.313E+01   -7.329E+01   -7.343E+01   -7.358E+01
    -7.372E+01   -7.385E+01   -7.398E+01   -7.410E+01   -7.421E+01   -7.432E+01   -7.443E+01   -7.453E+01   -7.462E+01   -7.471E+01
    -7.479E+01   -7.487E+01   -7.494E+01   -7.500E+01   -7.506E+01   -7.512E+01   -7.517E+01   -7.521E+01   -7.525E+01   -7.528E+01
    -7.531E+01   -7.533E+01   -7.535E+01   -7.536E+01   -7.536E+01   -7.536E+01   -7.536E+01   -7.534E+01   -7.533E+01   -7.530E+01
    -7.528E+01   -7.524E+01   -7.520E+01   -7.516E+01   -7.511E+01   -7.505E+01   -7.499E+01   -7.493E+01   -7.485E+01   -7.478E+01
    -7.469E+01   -7.460E+01   -7.451E+01   -7.441E+01   -7.430E+01   -7.419E+01   -7.408E+01   -7.396E+01   -7.383E+01   -7.370E+01
    -7.356E+01   -7.341E+01   -7.326E+01   -7.311E+01   -7.295E+01   -7.278E+01   -7.261E+01   -7.244E+01   -7.225E+01   -7.207E+01
    -7.187E+01   -7.167E+01   -7.147E+01   -7.126E+01   -7.104E+01   -7.082E+01   -7.060E+01   -7.036E+01   -7.013E+01   -6.988E+01
    -6.964E+01   -6.938E+01   -6.912E+01   -6.886E+01   -6.859E+01   -6.831E+01   -6.803E+01   -6.774E+01   -6.745E+01   -6.715E+01
    -6.684E+01   -6.653E+01   -6.622E+01   -6.589E+01   -6.557E+01   -6.523E+01   -6.490E+01   -6.455E+01   -6.420E+01   -6.385E+01
    -6.349E+01   -6.312E+01   -6.275E+01   -6.237E+01   -6.199E+01   -6.160E+01   -6.120E+01   -6.080E+01   -6.039E+01   -5.998E+01
    -5.956E+01   -5.914E+01   -5.871E+01   -5.827E+01   -5.783E+01   -5.739E+01   -5.694E+01   -5.648E+01   -5.601E+01   -5.554E+01
    -5.507E+01   -5.459E+01   -5.410E+01   -5.361E+01   -5.311E+01   -5.261E+01   -5.210E+01   -5.158E+01
 Ala      Conc. = 5.29E+01
