 LCModel (Version 6.3-1L) Copyright: S.W. Provencher.          Ref.: Magn. Reson. Med. 30:672-679 (1993).                
 Slice#3 Row#10 Col#1  PD_24_press_2_raw_act
 36 lines in following concentration table = NCONC+1
    Conc.  %SD /Cr+PCr  Metabolite                                         
    0.000 999%   0.000 Ala                                                 
    0.000 999%   0.000 Asp                                                 
    0.000 999%   0.000 Cr                                                  
  144.835  10%   1.000 PCr                                                 
    0.000 999%   0.000 GABA                                                
    0.000 999%   0.000 Glc                                                 
    0.000 999%   0.000 Gln                                                 
  390.463  22%   2.696 Glu                                                 
    0.000 999%   0.000 GPC                                                 
   33.968  16%   0.235 PCh                                                 
    9.709 174% 6.7E-02 GSH                                                 
    0.000 999%   0.000 Ins                                                 
  150.732  32%   1.041 Lac                                                 
  531.142   8%   3.667 NAA                                                 
  210.695  16%   1.455 NAAG                                                
    9.534  62% 6.6E-02 Scyllo                                              
    0.000 999%   0.000 Tau                                                 
  103.743  25%   0.716 -CrCH2                                              
   33.968  16%   0.235 GPC+PCh                                             
  741.836   6%   5.122 NAA+NAAG                                            
  144.835  10%   1.000 Cr+PCr                                              
  390.463  22%   2.696 Glu+Gln                                             
 4.01E+04  10% 276.719 Lip13a                                              
    0.000 999%   0.000 Lip13b                                              
 3.44E+03  20%  23.749 Lip09                                               
 3.31E+03  16%  22.841 MM09                                                
 3.22E+04   6% 222.270+Lip20                                               
 5.48E+04   6% 378.098 MM20                                                
    0.000 999%   0.000 MM12                                                
 1.86E+04   9% 128.453 MM14                                                
 1.58E+04  11% 108.975 MM17                                                
 4.01E+04  10% 276.719 Lip13a+Lip13b                                       
 5.87E+04   7% 405.172 MM14+Lip13a+Lip13b+MM12                             
 6.75E+03  15%  46.590 MM09+Lip09                                          
 8.70E+04   3% 600.368 MM20+Lip20                                          
   6 lines in following misc. output table
  FWHM = 0.122 ppm    S/N =  33                                            
  Data shift = 0.290 ppm                                                   
  Ph:-129 deg     -11.3 deg/ppm                                            
  alphaB,S = 2.7E-01,   4.8E+00                                            
   11 spline knots.   Ns = 9(2)                                            
   8 inflections.     2 extrema                                            
  498 points on ppm-axis = NY
      4.000000     3.992357     3.984714     3.977070     3.969427     3.961784     3.954141     3.946497     3.938854     3.931211
      3.923568     3.915925     3.908281     3.900638     3.892995     3.885352     3.877708     3.870065     3.862422     3.854779
      3.847136     3.839492     3.831849     3.824206     3.816563     3.808919     3.801276     3.793633     3.785990     3.778347
      3.770703     3.763060     3.755417     3.747774     3.740130     3.732487     3.724844     3.717201     3.709558     3.701914
      3.694271     3.686628     3.678985     3.671341     3.663698     3.656055     3.648412     3.640769     3.633125     3.625482
      3.617839     3.610196     3.602552     3.594909     3.587266     3.579623     3.571980     3.564336     3.556693     3.549050
      3.541407     3.533763     3.526120     3.518477     3.510834     3.503191     3.495547     3.487904     3.480261     3.472618
      3.464974     3.457331     3.449688     3.442045     3.434402     3.426758     3.419115     3.411472     3.403829     3.396185
      3.388542     3.380899     3.373256     3.365613     3.357969     3.350326     3.342683     3.335040     3.327396     3.319753
      3.312110     3.304467     3.296824     3.289180     3.281537     3.273894     3.266251     3.258607     3.250964     3.243321
      3.235678     3.228034     3.220391     3.212748     3.205105     3.197462     3.189818     3.182175     3.174532     3.166889
      3.159245     3.151602     3.143959     3.136316     3.128673     3.121029     3.113386     3.105743     3.098100     3.090456
      3.082813     3.075170     3.067527     3.059884     3.052240     3.044597     3.036954     3.029311     3.021667     3.014024
      3.006381     2.998738     2.991095     2.983451     2.975808     2.968165     2.960522     2.952878     2.945235     2.937592
      2.929949     2.922306     2.914662     2.907019     2.899376     2.891733     2.884089     2.876446     2.868803     2.861160
      2.853517     2.845873     2.838230     2.830587     2.822944     2.815300     2.807657     2.800014     2.792371     2.784728
      2.777084     2.769441     2.761798     2.754155     2.746511     2.738868     2.731225     2.723582     2.715939     2.708295
      2.700652     2.693009     2.685366     2.677722     2.670079     2.662436     2.654793     2.647150     2.639506     2.631863
      2.624220     2.616577     2.608933     2.601290     2.593647     2.586004     2.578361     2.570717     2.563074     2.555431
      2.547788     2.540144     2.532501     2.524858     2.517215     2.509572     2.501928     2.494285     2.486642     2.478999
      2.471355     2.463712     2.456069     2.448426     2.440783     2.433139     2.425496     2.417853     2.410210     2.402566
      2.394923     2.387280     2.379637     2.371994     2.364350     2.356707     2.349064     2.341421     2.333777     2.326134
      2.318491     2.310848     2.303205     2.295561     2.287918     2.280275     2.272632     2.264988     2.257345     2.249702
      2.242059     2.234416     2.226772     2.219129     2.211486     2.203843     2.196199     2.188556     2.180913     2.173270
      2.165627     2.157983     2.150340     2.142697     2.135054     2.127410     2.119767     2.112124     2.104481     2.096838
      2.089194     2.081551     2.073908     2.066265     2.058621     2.050978     2.043335     2.035692     2.028049     2.020405
      2.012762     2.005119     1.997476     1.989833     1.982190     1.974546     1.966903     1.959260     1.951617     1.943974
      1.936331     1.928688     1.921045     1.913402     1.905759     1.898115     1.890472     1.882829     1.875186     1.867543
      1.859900     1.852257     1.844614     1.836971     1.829327     1.821684     1.814041     1.806398     1.798755     1.791112
      1.783469     1.775826     1.768183     1.760540     1.752896     1.745253     1.737610     1.729967     1.722324     1.714681
      1.707038     1.699395     1.691752     1.684108     1.676465     1.668822     1.661179     1.653536     1.645893     1.638250
      1.630607     1.622964     1.615321     1.607677     1.600034     1.592391     1.584748     1.577105     1.569462     1.561819
      1.554176     1.546533     1.538890     1.531246     1.523603     1.515960     1.508317     1.500674     1.493031     1.485388
      1.477745     1.470102     1.462458     1.454815     1.447172     1.439529     1.431886     1.424243     1.416600     1.408957
      1.401314     1.393671     1.386027     1.378384     1.370741     1.363098     1.355455     1.347812     1.340169     1.332526
      1.324883     1.317240     1.309596     1.301953     1.294310     1.286667     1.279024     1.271381     1.263738     1.256095
      1.248452     1.240808     1.233165     1.225522     1.217879     1.210236     1.202593     1.194950     1.187307     1.179664
      1.172021     1.164377     1.156734     1.149091     1.141448     1.133805     1.126162     1.118519     1.110876     1.103233
      1.095590     1.087946     1.080303     1.072660     1.065017     1.057374     1.049731     1.042088     1.034445     1.026802
      1.019158     1.011515     1.003872     0.996229     0.988586     0.980943     0.973300     0.965657     0.958014     0.950371
      0.942727     0.935084     0.927441     0.919798     0.912155     0.904512     0.896869     0.889226     0.881583     0.873940
      0.866296     0.858653     0.851010     0.843367     0.835724     0.828081     0.820438     0.812795     0.805152     0.797508
      0.789865     0.782222     0.774579     0.766936     0.759293     0.751650     0.744007     0.736364     0.728721     0.721077
      0.713434     0.705791     0.698148     0.690505     0.682862     0.675219     0.667576     0.659933     0.652290     0.644646
      0.637003     0.629360     0.621717     0.614074     0.606431     0.598788     0.591145     0.583502     0.575858     0.568215
      0.560572     0.552929     0.545286     0.537643     0.530000     0.522357     0.514714     0.507071     0.499427     0.491784
      0.484141     0.476498     0.468855     0.461212     0.453569     0.445925     0.438282     0.430639     0.422996     0.415353
      0.407710     0.400067     0.392424     0.384780     0.377137     0.369494     0.361851     0.354208     0.346565     0.338922
      0.331278     0.323635     0.315992     0.308349     0.300706     0.293063     0.285420     0.277777     0.270133     0.262490
      0.254847     0.247204     0.239561     0.231918     0.224275     0.216631     0.208988     0.201345
 NY phased data points follow
  -8.53794E+01 -8.31384E+01 -8.16598E+01 -8.29973E+01 -8.25905E+01 -7.93279E+01 -7.56841E+01 -7.42511E+01 -7.49133E+01 -7.71904E+01
  -7.15954E+01 -7.13627E+01 -7.23590E+01 -6.77177E+01 -6.96803E+01 -6.85572E+01 -6.85555E+01 -6.45791E+01 -6.28801E+01 -6.56414E+01
  -6.29537E+01 -6.27531E+01 -5.67359E+01 -5.96589E+01 -5.44716E+01 -5.88785E+01 -6.08710E+01 -5.79002E+01 -5.38371E+01 -5.61494E+01
  -5.12034E+01 -5.62191E+01 -5.21503E+01 -5.05437E+01 -4.73080E+01 -4.46516E+01 -4.84011E+01 -4.66370E+01 -4.30859E+01 -4.51365E+01
  -4.23120E+01 -4.28263E+01 -3.99707E+01 -3.96783E+01 -4.13031E+01 -3.59678E+01 -4.14158E+01 -3.89369E+01 -3.66857E+01 -3.49404E+01
  -3.34816E+01 -3.22407E+01 -3.24063E+01 -3.10373E+01 -3.30077E+01 -3.00372E+01 -3.21515E+01 -2.30927E+01 -2.72718E+01 -2.98318E+01
  -2.47874E+01 -2.49366E+01 -2.54733E+01 -2.27715E+01 -2.43016E+01 -1.91726E+01 -1.98454E+01 -1.79104E+01 -1.01933E+01 -1.65883E+01
  -1.52968E+01 -1.96399E+01 -1.59121E+01 -1.64821E+01 -1.49041E+01 -1.71805E+01 -1.67434E+01 -1.67930E+01 -1.48204E+01 -1.73686E+01
  -1.47509E+01 -1.39151E+01 -1.39677E+01 -1.50377E+01 -1.56659E+01 -1.37467E+01 -2.19380E+01 -2.03882E+01 -2.01421E+01 -1.96314E+01
  -1.68454E+01 -1.63448E+01 -1.25576E+01 -1.17936E+01 -1.55600E+01 -1.89814E+01 -2.09538E+01 -2.00407E+01 -1.93656E+01 -2.31548E+01
  -2.10542E+01 -2.07074E+01 -2.17413E+01 -2.00707E+01 -2.06569E+01 -1.73390E+01 -2.13291E+01 -1.82075E+01 -2.07626E+01 -1.93635E+01
  -1.58409E+01 -1.70881E+01 -1.40286E+01 -1.38542E+01 -1.21494E+01 -9.34380E+00 -8.85181E+00 -1.31909E+01 -5.47127E+00 -3.35930E+00
  -3.44279E+00 -2.78852E+00 -4.15217E+00 -2.03287E+00 -1.31328E+00  2.76855E+00  6.18557E+00  6.09553E+00  7.19506E+00  8.97248E+00
   1.07562E+01  8.52723E+00  1.31818E+01  1.44988E+01  1.58570E+01  1.81939E+01  1.27670E+01  1.45549E+01  1.50628E+01  1.55052E+01
   1.52073E+01  1.38349E+01  1.35255E+01  1.44648E+01  1.55696E+01  1.25669E+01  9.79135E+00  1.18336E+01  1.05754E+01  2.99898E+00
   4.08244E+00  1.83113E+00 -9.72415E-01 -3.57783E+00 -8.39475E+00 -1.25520E+01 -1.72208E+01 -2.11684E+01 -2.35168E+01 -2.60675E+01
  -2.80727E+01 -3.18224E+01 -3.79524E+01 -3.90471E+01 -4.61230E+01 -5.09037E+01 -5.40976E+01 -5.67176E+01 -6.48529E+01 -7.25005E+01
  -7.55196E+01 -8.10615E+01 -8.88298E+01 -9.47512E+01 -1.01965E+02 -1.06562E+02 -1.12720E+02 -1.22201E+02 -1.28415E+02 -1.35843E+02
  -1.40356E+02 -1.46651E+02 -1.55840E+02 -1.60186E+02 -1.69961E+02 -1.76947E+02 -1.82928E+02 -1.90552E+02 -1.92576E+02 -2.00920E+02
  -2.01443E+02 -2.07891E+02 -2.11985E+02 -2.13460E+02 -2.15479E+02 -2.19159E+02 -2.19374E+02 -2.23166E+02 -2.19148E+02 -2.23637E+02
  -2.23487E+02 -2.21364E+02 -2.23031E+02 -2.17960E+02 -2.18744E+02 -2.20108E+02 -2.16051E+02 -2.19912E+02 -2.15492E+02 -2.10325E+02
  -2.10806E+02 -2.08480E+02 -2.01495E+02 -1.99222E+02 -1.98963E+02 -1.92948E+02 -1.91459E+02 -1.86291E+02 -1.83598E+02 -1.76321E+02
  -1.73499E+02 -1.70856E+02 -1.61905E+02 -1.54663E+02 -1.44886E+02 -1.38408E+02 -1.41102E+02 -1.37131E+02 -1.31552E+02 -1.31569E+02
  -1.27825E+02 -1.22184E+02 -1.16849E+02 -1.13610E+02 -1.06676E+02 -1.02747E+02 -9.79260E+01 -9.03185E+01 -9.42637E+01 -8.81999E+01
  -8.07203E+01 -8.12644E+01 -7.24178E+01 -7.01102E+01 -6.71582E+01 -6.20201E+01 -6.52426E+01 -5.64835E+01 -5.47628E+01 -5.20981E+01
  -4.87375E+01 -4.97448E+01 -4.26160E+01 -3.98247E+01 -4.02657E+01 -3.74046E+01 -3.59164E+01 -3.30352E+01 -2.99870E+01 -2.84437E+01
  -2.79806E+01 -2.55374E+01 -2.91891E+01 -2.55971E+01 -3.18399E+01 -3.70410E+01 -3.77332E+01 -4.19118E+01 -5.25187E+01 -6.11172E+01
  -6.99460E+01 -7.88986E+01 -9.45966E+01 -1.12093E+02 -1.25007E+02 -1.39206E+02 -1.54778E+02 -1.68125E+02 -1.79927E+02 -1.94126E+02
  -2.06176E+02 -2.19294E+02 -2.27494E+02 -2.30139E+02 -2.33946E+02 -2.38052E+02 -2.36514E+02 -2.39172E+02 -2.31800E+02 -2.27996E+02
  -2.22449E+02 -2.18582E+02 -2.13882E+02 -2.07720E+02 -2.00076E+02 -1.96350E+02 -1.94214E+02 -1.86128E+02 -1.80204E+02 -1.74386E+02
  -1.67030E+02 -1.62883E+02 -1.57462E+02 -1.52502E+02 -1.45656E+02 -1.39240E+02 -1.36374E+02 -1.24835E+02 -1.24814E+02 -1.20099E+02
  -1.12708E+02 -1.06577E+02 -1.04666E+02 -1.01711E+02 -9.70348E+01 -9.28131E+01 -8.49192E+01 -8.47325E+01 -8.24436E+01 -7.79740E+01
  -7.79275E+01 -7.29781E+01 -7.36755E+01 -7.29832E+01 -7.07947E+01 -6.70658E+01 -6.44286E+01 -6.24598E+01 -6.17235E+01 -6.06586E+01
  -5.80187E+01 -5.85820E+01 -5.59208E+01 -5.60978E+01 -5.81215E+01 -5.67218E+01 -5.52843E+01 -5.42244E+01 -5.41134E+01 -5.54330E+01
  -5.40876E+01 -5.26262E+01 -5.21518E+01 -5.19733E+01 -5.09905E+01 -4.96297E+01 -4.69779E+01 -4.76325E+01 -5.03782E+01 -4.94190E+01
  -4.82415E+01 -4.76051E+01 -4.63833E+01 -4.45430E+01 -4.89167E+01 -4.71382E+01 -4.64485E+01 -4.41433E+01 -4.46027E+01 -4.44862E+01
  -4.06001E+01 -3.98385E+01 -3.93183E+01 -4.13075E+01 -3.88856E+01 -3.90727E+01 -3.73770E+01 -3.67476E+01 -3.81731E+01 -3.78143E+01
  -3.39157E+01 -3.78992E+01 -3.38055E+01 -3.60127E+01 -3.68955E+01 -4.00257E+01 -3.28609E+01 -3.04266E+01 -3.30745E+01 -3.47798E+01
  -2.91818E+01 -3.24680E+01 -3.65667E+01 -3.08289E+01 -2.89418E+01 -3.11164E+01 -3.10636E+01 -3.02192E+01 -2.91149E+01 -2.59186E+01
  -2.97696E+01 -2.72843E+01 -2.49028E+01 -2.80232E+01 -2.59062E+01 -2.91841E+01 -2.38149E+01 -2.63369E+01 -2.99071E+01 -2.53147E+01
  -2.50448E+01 -2.53821E+01 -2.25709E+01 -2.54789E+01 -2.81138E+01 -2.67728E+01 -2.26946E+01 -2.70798E+01 -2.36412E+01 -2.52183E+01
  -2.25235E+01 -2.35549E+01 -2.19753E+01 -2.45083E+01 -2.16957E+01 -2.30840E+01 -2.29432E+01 -2.47722E+01 -2.49093E+01 -2.15794E+01
  -2.11709E+01 -2.11030E+01 -2.23271E+01 -2.06611E+01 -2.12868E+01 -2.11915E+01 -1.72692E+01 -1.97006E+01 -1.99054E+01 -1.73681E+01
  -2.14460E+01 -1.92166E+01 -2.26967E+01 -1.82647E+01 -2.17045E+01 -1.97503E+01 -2.05923E+01 -1.76921E+01 -1.48142E+01 -1.99772E+01
  -1.48056E+01 -1.45368E+01 -1.95225E+01 -1.62179E+01 -1.43820E+01 -1.53328E+01 -1.45696E+01 -1.71791E+01 -1.95785E+01 -1.56042E+01
  -1.52390E+01 -1.47147E+01 -1.78114E+01 -1.68140E+01 -1.23759E+01 -1.38698E+01 -1.27522E+01 -1.46156E+01 -1.65445E+01 -1.31410E+01
  -1.49082E+01 -1.40667E+01 -1.36195E+01 -1.56935E+01 -1.34898E+01 -1.39746E+01 -1.34034E+01 -1.36755E+01 -1.33880E+01 -1.34655E+01
  -1.10926E+01 -1.05419E+01 -1.23308E+01 -1.61563E+01 -1.48005E+01 -1.08204E+01 -1.06542E+01 -1.74910E+01 -1.57320E+01 -1.21483E+01
  -1.43501E+01 -1.14204E+01 -1.19891E+01 -1.28017E+01 -1.56713E+01 -1.10044E+01 -1.17063E+01 -1.32795E+01 -1.23244E+01 -1.34096E+01
  -1.22553E+01 -1.30767E+01 -1.31199E+01 -1.22568E+01 -1.37234E+01 -1.17216E+01 -1.32952E+01 -1.38822E+01
 NY points of the fit to the data follow
  -8.26759E+01 -8.17828E+01 -8.16647E+01 -8.11249E+01 -8.07275E+01 -7.95576E+01 -7.83927E+01 -7.70915E+01 -7.56668E+01 -7.45800E+01
  -7.32084E+01 -7.20894E+01 -7.09452E+01 -6.97029E+01 -6.76315E+01 -6.67340E+01 -6.54702E+01 -6.50930E+01 -6.42893E+01 -6.33918E+01
  -6.27983E+01 -6.13019E+01 -5.97511E+01 -5.86386E+01 -5.77718E+01 -5.71036E+01 -5.68668E+01 -5.61989E+01 -5.70832E+01 -5.55951E+01
  -5.45726E+01 -5.34269E+01 -5.21644E+01 -5.11829E+01 -4.96665E+01 -4.91249E+01 -4.75961E+01 -4.71689E+01 -4.54193E+01 -4.49659E+01
  -4.28482E+01 -4.22020E+01 -3.99423E+01 -3.98383E+01 -3.79389E+01 -3.81481E+01 -3.68468E+01 -3.69381E+01 -3.55866E+01 -3.43959E+01
  -3.24724E+01 -3.17397E+01 -3.01535E+01 -3.01173E+01 -2.98429E+01 -2.99885E+01 -2.95178E+01 -2.85433E+01 -2.73294E+01 -2.60930E+01
  -2.46367E+01 -2.41091E+01 -2.35197E+01 -2.30117E+01 -2.23757E+01 -2.17004E+01 -2.10028E+01 -2.03689E+01 -2.01220E+01 -1.98495E+01
  -1.95323E+01 -1.92148E+01 -1.87862E+01 -1.84452E+01 -1.80718E+01 -1.78932E+01 -1.75978E+01 -1.74765E+01 -1.70536E+01 -1.68763E+01
  -1.63696E+01 -1.61180E+01 -1.54207E+01 -1.50007E+01 -1.41639E+01 -1.35607E+01 -1.27737E+01 -1.38800E+01 -1.54000E+01 -1.57794E+01
  -1.74026E+01 -1.69014E+01 -1.82938E+01 -1.76906E+01 -1.97271E+01 -1.92062E+01 -2.18247E+01 -2.06616E+01 -2.29975E+01 -2.14372E+01
  -2.30755E+01 -2.07085E+01 -2.12318E+01 -1.86042E+01 -1.82127E+01 -1.57388E+01 -1.48531E+01 -1.33432E+01 -1.45590E+01 -1.36899E+01
  -1.33120E+01 -1.18282E+01 -9.63082E+00 -8.93525E+00 -7.40982E+00 -7.70962E+00 -7.14274E+00 -8.07307E+00 -7.26157E+00 -7.20257E+00
  -5.39973E+00 -5.26796E+00 -2.64351E+00 -2.84934E+00 -6.87802E-01 -2.42956E+00 -1.96365E+00 -8.52354E-01  2.03157E+00  3.45158E+00
   7.13247E+00  8.41483E+00  1.28790E+01  1.34363E+01  1.65766E+01  1.60336E+01  1.80411E+01  1.67121E+01  1.70898E+01  1.55303E+01
   1.64191E+01  1.46155E+01  1.45503E+01  1.24341E+01  1.10805E+01  7.99072E+00  2.96370E+00  5.15538E-01 -7.90510E-01 -1.76409E+00
  -2.48313E+00 -3.26884E+00 -3.87436E+00 -5.07149E+00 -6.51417E+00 -8.24773E+00 -1.04447E+01 -1.26898E+01 -1.53941E+01 -1.82316E+01
  -2.19664E+01 -2.61156E+01 -3.08061E+01 -3.57316E+01 -4.06318E+01 -4.60714E+01 -5.19282E+01 -5.82586E+01 -6.48316E+01 -7.16721E+01
  -7.79581E+01 -8.53405E+01 -9.18881E+01 -9.96728E+01 -1.06539E+02 -1.14279E+02 -1.21142E+02 -1.28869E+02 -1.35508E+02 -1.43108E+02
  -1.49280E+02 -1.55897E+02 -1.61483E+02 -1.67567E+02 -1.73313E+02 -1.78556E+02 -1.84245E+02 -1.88435E+02 -1.93099E+02 -1.96536E+02
  -2.00299E+02 -2.02796E+02 -2.06367E+02 -2.07465E+02 -2.10119E+02 -2.10119E+02 -2.11614E+02 -2.11879E+02 -2.13807E+02 -2.15952E+02
  -2.17172E+02 -2.18007E+02 -2.17802E+02 -2.17713E+02 -2.16994E+02 -2.16131E+02 -2.13864E+02 -2.13520E+02 -2.11368E+02 -2.11199E+02
  -2.09263E+02 -2.07740E+02 -2.04782E+02 -2.01649E+02 -1.97583E+02 -1.93872E+02 -1.90009E+02 -1.86150E+02 -1.82400E+02 -1.77491E+02
  -1.73624E+02 -1.67632E+02 -1.63488E+02 -1.57016E+02 -1.53176E+02 -1.48200E+02 -1.44377E+02 -1.40590E+02 -1.37247E+02 -1.33740E+02
  -1.29880E+02 -1.25006E+02 -1.19783E+02 -1.14834E+02 -1.08547E+02 -1.04508E+02 -9.84559E+01 -9.65256E+01 -9.40154E+01 -8.80186E+01
  -8.16526E+01 -7.24010E+01 -6.69593E+01 -6.78958E+01 -6.54536E+01 -6.38860E+01 -6.20332E+01 -5.69568E+01 -5.40250E+01 -5.05597E+01
  -4.88109E+01 -4.69333E+01 -4.40034E+01 -4.06662E+01 -3.80994E+01 -3.62534E+01 -3.46584E+01 -3.18039E+01 -3.04463E+01 -2.82967E+01
  -2.77971E+01 -2.73784E+01 -2.70384E+01 -2.83350E+01 -3.12623E+01 -3.45573E+01 -3.99509E+01 -4.29831E+01 -5.20034E+01 -5.96601E+01
  -6.97123E+01 -8.03919E+01 -9.35798E+01 -1.08901E+02 -1.23814E+02 -1.36280E+02 -1.54733E+02 -1.65915E+02 -1.77908E+02 -1.91379E+02
  -2.05157E+02 -2.25984E+02 -2.32251E+02 -2.34456E+02 -2.34725E+02 -2.34697E+02 -2.33325E+02 -2.31722E+02 -2.29292E+02 -2.26483E+02
  -2.22958E+02 -2.19282E+02 -2.14928E+02 -2.10402E+02 -2.05314E+02 -2.00222E+02 -1.94364E+02 -1.88412E+02 -1.81992E+02 -1.75759E+02
  -1.69108E+02 -1.62761E+02 -1.56144E+02 -1.50039E+02 -1.43810E+02 -1.37982E+02 -1.32186E+02 -1.26842E+02 -1.21610E+02 -1.16842E+02
  -1.12239E+02 -1.08052E+02 -1.04136E+02 -1.00479E+02 -9.69589E+01 -9.36274E+01 -9.03796E+01 -8.72445E+01 -8.41634E+01 -8.11367E+01
  -7.82275E+01 -7.54123E+01 -7.27086E+01 -7.01532E+01 -6.77775E+01 -6.56376E+01 -6.37878E+01 -6.23354E+01 -6.14688E+01 -6.13816E+01
  -5.99803E+01 -5.86828E+01 -5.74835E+01 -5.60897E+01 -5.53942E+01 -5.42672E+01 -5.37963E+01 -5.44861E+01 -5.45398E+01 -5.44197E+01
  -5.42912E+01 -5.35067E+01 -5.29728E+01 -5.20261E+01 -5.16456E+01 -5.11698E+01 -5.09001E+01 -5.02252E+01 -4.96756E+01 -4.88021E+01
  -4.81491E+01 -4.68757E+01 -4.61283E+01 -4.48773E+01 -4.46112E+01 -4.42317E+01 -4.40071E+01 -4.36087E+01 -4.32854E+01 -4.26862E+01
  -4.18549E+01 -4.02207E+01 -3.97887E+01 -3.92334E+01 -3.92836E+01 -3.94649E+01 -3.96358E+01 -4.03300E+01 -3.88330E+01 -3.65439E+01
  -3.58064E+01 -3.46621E+01 -3.44205E+01 -3.43015E+01 -3.46356E+01 -3.66758E+01 -3.72251E+01 -3.71025E+01 -3.66643E+01 -3.60360E+01
  -3.52601E+01 -3.43882E+01 -3.34402E+01 -3.24593E+01 -3.14617E+01 -3.04879E+01 -2.95509E+01 -2.86865E+01 -2.79011E+01 -2.72217E+01
  -2.66444E+01 -2.61856E+01 -2.58306E+01 -2.55853E+01 -2.54255E+01 -2.53484E+01 -2.53237E+01 -2.53451E+01 -2.53813E+01 -2.54272E+01
  -2.54548E+01 -2.54636E+01 -2.54321E+01 -2.53671E+01 -2.52547E+01 -2.51087E+01 -2.49210E+01 -2.47103E+01 -2.44725E+01 -2.42285E+01
  -2.39750E+01 -2.37324E+01 -2.34953E+01 -2.32814E+01 -2.30822E+01 -2.29119E+01 -2.27585E+01 -2.26326E+01 -2.25190E+01 -2.24258E+01
  -2.23364E+01 -2.22574E+01 -2.21720E+01 -2.20869E+01 -2.19856E+01 -2.18759E+01 -2.17430E+01 -2.15966E+01 -2.14234E+01 -2.12344E+01
  -2.10183E+01 -2.07876E+01 -2.05324E+01 -2.02664E+01 -1.99804E+01 -1.96888E+01 -1.93826E+01 -1.90757E+01 -1.87588E+01 -1.84456E+01
  -1.81266E+01 -1.78151E+01 -1.75014E+01 -1.71986E+01 -1.68968E+01 -1.66086E+01 -1.63236E+01 -1.60539E+01 -1.57890E+01 -1.55409E+01
  -1.52988E+01 -1.50741E+01 -1.48559E+01 -1.46554E+01 -1.44615E+01 -1.42854E+01 -1.41158E+01 -1.39637E+01 -1.38175E+01 -1.36882E+01
  -1.35645E+01 -1.34570E+01 -1.33544E+01 -1.32672E+01 -1.31840E+01 -1.31152E+01 -1.30497E+01 -1.29978E+01 -1.29482E+01 -1.29111E+01
  -1.28753E+01 -1.28511E+01 -1.28273E+01 -1.28142E+01 -1.28003E+01 -1.27960E+01 -1.27901E+01 -1.27928E+01 -1.27930E+01 -1.28008E+01
  -1.28051E+01 -1.28160E+01 -1.28226E+01 -1.28349E+01 -1.28421E+01 -1.28541E+01 -1.28601E+01 -1.28702E+01 -1.28736E+01 -1.28806E+01
  -1.28803E+01 -1.28830E+01 -1.28780E+01 -1.28757E+01 -1.28659E+01 -1.28591E+01 -1.28452E+01 -1.28352E+01
 NY background values follow
    -4.034E+01   -3.949E+01   -3.864E+01   -3.778E+01   -3.691E+01   -3.603E+01   -3.515E+01   -3.426E+01   -3.337E+01   -3.247E+01
    -3.156E+01   -3.065E+01   -2.973E+01   -2.881E+01   -2.789E+01   -2.696E+01   -2.602E+01   -2.508E+01   -2.414E+01   -2.320E+01
    -2.225E+01   -2.130E+01   -2.035E+01   -1.939E+01   -1.844E+01   -1.748E+01   -1.652E+01   -1.557E+01   -1.461E+01   -1.365E+01
    -1.269E+01   -1.174E+01   -1.078E+01   -9.826E+00   -8.874E+00   -7.923E+00   -6.975E+00   -6.030E+00   -5.088E+00   -4.150E+00
    -3.215E+00   -2.285E+00   -1.359E+00   -4.384E-01    4.770E-01    1.387E+00    2.290E+00    3.188E+00    4.078E+00    4.961E+00
     5.837E+00    6.705E+00    7.564E+00    8.415E+00    9.256E+00    1.009E+01    1.091E+01    1.172E+01    1.252E+01    1.331E+01
     1.409E+01    1.486E+01    1.562E+01    1.636E+01    1.709E+01    1.780E+01    1.850E+01    1.918E+01    1.985E+01    2.050E+01
     2.114E+01    2.175E+01    2.234E+01    2.292E+01    2.347E+01    2.400E+01    2.451E+01    2.500E+01    2.546E+01    2.589E+01
     2.630E+01    2.669E+01    2.704E+01    2.737E+01    2.767E+01    2.793E+01    2.817E+01    2.838E+01    2.855E+01    2.869E+01
     2.879E+01    2.886E+01    2.889E+01    2.889E+01    2.885E+01    2.877E+01    2.865E+01    2.849E+01    2.829E+01    2.805E+01
     2.776E+01    2.743E+01    2.705E+01    2.663E+01    2.617E+01    2.565E+01    2.509E+01    2.448E+01    2.381E+01    2.310E+01
     2.233E+01    2.152E+01    2.064E+01    1.972E+01    1.873E+01    1.770E+01    1.660E+01    1.545E+01    1.423E+01    1.296E+01
     1.162E+01    1.023E+01    8.767E+00    7.243E+00    5.655E+00    4.002E+00    2.284E+00    5.015E-01   -1.344E+00   -3.251E+00
    -5.218E+00   -7.245E+00   -9.331E+00   -1.147E+01   -1.367E+01   -1.593E+01   -1.824E+01   -2.060E+01   -2.301E+01   -2.547E+01
    -2.798E+01   -3.054E+01   -3.315E+01   -3.580E+01   -3.850E+01   -4.123E+01   -4.401E+01   -4.683E+01   -4.969E+01   -5.259E+01
    -5.552E+01   -5.849E+01   -6.149E+01   -6.453E+01   -6.759E+01   -7.069E+01   -7.381E+01   -7.696E+01   -8.014E+01   -8.334E+01
    -8.656E+01   -8.980E+01   -9.307E+01   -9.635E+01   -9.965E+01   -1.030E+02   -1.063E+02   -1.096E+02   -1.130E+02   -1.163E+02
    -1.197E+02   -1.231E+02   -1.265E+02   -1.299E+02   -1.333E+02   -1.366E+02   -1.400E+02   -1.434E+02   -1.468E+02   -1.502E+02
    -1.535E+02   -1.569E+02   -1.603E+02   -1.636E+02   -1.669E+02   -1.702E+02   -1.735E+02   -1.768E+02   -1.801E+02   -1.833E+02
    -1.866E+02   -1.898E+02   -1.929E+02   -1.961E+02   -1.992E+02   -2.023E+02   -2.054E+02   -2.085E+02   -2.115E+02   -2.145E+02
    -2.175E+02   -2.204E+02   -2.233E+02   -2.262E+02   -2.290E+02   -2.319E+02   -2.346E+02   -2.374E+02   -2.401E+02   -2.428E+02
    -2.454E+02   -2.480E+02   -2.506E+02   -2.531E+02   -2.556E+02   -2.580E+02   -2.604E+02   -2.628E+02   -2.651E+02   -2.674E+02
    -2.696E+02   -2.718E+02   -2.739E+02   -2.760E+02   -2.780E+02   -2.800E+02   -2.820E+02   -2.838E+02   -2.857E+02   -2.875E+02
    -2.892E+02   -2.909E+02   -2.925E+02   -2.940E+02   -2.956E+02   -2.970E+02   -2.984E+02   -2.997E+02   -3.010E+02   -3.022E+02
    -3.034E+02   -3.045E+02   -3.055E+02   -3.065E+02   -3.074E+02   -3.082E+02   -3.090E+02   -3.097E+02   -3.103E+02   -3.109E+02
    -3.114E+02   -3.119E+02   -3.122E+02   -3.126E+02   -3.128E+02   -3.130E+02   -3.131E+02   -3.131E+02   -3.131E+02   -3.131E+02
    -3.129E+02   -3.127E+02   -3.125E+02   -3.122E+02   -3.118E+02   -3.114E+02   -3.109E+02   -3.104E+02   -3.098E+02   -3.091E+02
    -3.084E+02   -3.076E+02   -3.068E+02   -3.060E+02   -3.050E+02   -3.041E+02   -3.030E+02   -3.020E+02   -3.009E+02   -2.997E+02
    -2.985E+02   -2.972E+02   -2.959E+02   -2.946E+02   -2.932E+02   -2.917E+02   -2.902E+02   -2.887E+02   -2.871E+02   -2.855E+02
    -2.839E+02   -2.822E+02   -2.805E+02   -2.787E+02   -2.769E+02   -2.751E+02   -2.732E+02   -2.713E+02   -2.693E+02   -2.674E+02
    -2.653E+02   -2.633E+02   -2.612E+02   -2.591E+02   -2.570E+02   -2.548E+02   -2.526E+02   -2.504E+02   -2.482E+02   -2.459E+02
    -2.436E+02   -2.413E+02   -2.389E+02   -2.366E+02   -2.342E+02   -2.318E+02   -2.293E+02   -2.269E+02   -2.244E+02   -2.219E+02
    -2.194E+02   -2.169E+02   -2.143E+02   -2.118E+02   -2.092E+02   -2.066E+02   -2.040E+02   -2.014E+02   -1.988E+02   -1.962E+02
    -1.935E+02   -1.909E+02   -1.882E+02   -1.856E+02   -1.829E+02   -1.802E+02   -1.775E+02   -1.748E+02   -1.722E+02   -1.695E+02
    -1.668E+02   -1.641E+02   -1.614E+02   -1.587E+02   -1.560E+02   -1.533E+02   -1.506E+02   -1.479E+02   -1.452E+02   -1.425E+02
    -1.398E+02   -1.372E+02   -1.345E+02   -1.318E+02   -1.292E+02   -1.266E+02   -1.239E+02   -1.213E+02   -1.187E+02   -1.161E+02
    -1.135E+02   -1.109E+02   -1.084E+02   -1.058E+02   -1.033E+02   -1.008E+02   -9.828E+01   -9.580E+01   -9.333E+01   -9.088E+01
    -8.846E+01   -8.605E+01   -8.366E+01   -8.129E+01   -7.894E+01   -7.662E+01   -7.431E+01   -7.203E+01   -6.977E+01   -6.753E+01
    -6.532E+01   -6.313E+01   -6.096E+01   -5.882E+01   -5.670E+01   -5.460E+01   -5.253E+01   -5.049E+01   -4.847E+01   -4.647E+01
    -4.450E+01   -4.256E+01   -4.064E+01   -3.875E+01   -3.688E+01   -3.505E+01   -3.323E+01   -3.145E+01   -2.969E+01   -2.797E+01
    -2.626E+01   -2.459E+01   -2.295E+01   -2.133E+01   -1.974E+01   -1.819E+01   -1.666E+01   -1.516E+01   -1.369E+01   -1.224E+01
    -1.083E+01   -9.452E+00   -8.101E+00   -6.780E+00   -5.489E+00   -4.229E+00   -3.000E+00   -1.801E+00   -6.336E-01    5.028E-01
     1.608E+00    2.682E+00    3.724E+00    4.735E+00    5.714E+00    6.661E+00    7.577E+00    8.460E+00    9.311E+00    1.013E+01
     1.092E+01    1.167E+01    1.239E+01    1.308E+01    1.374E+01    1.437E+01    1.496E+01    1.552E+01    1.605E+01    1.655E+01
     1.702E+01    1.746E+01    1.788E+01    1.826E+01    1.862E+01    1.896E+01    1.927E+01    1.956E+01    1.982E+01    2.006E+01
     2.029E+01    2.048E+01    2.066E+01    2.083E+01    2.097E+01    2.109E+01    2.120E+01    2.129E+01    2.136E+01    2.142E+01
     2.147E+01    2.150E+01    2.152E+01    2.152E+01    2.152E+01    2.150E+01    2.148E+01    2.144E+01    2.139E+01    2.134E+01
     2.128E+01    2.121E+01    2.114E+01    2.105E+01    2.097E+01    2.088E+01    2.078E+01    2.068E+01    2.058E+01    2.048E+01
     2.037E+01    2.026E+01    2.016E+01    2.005E+01    1.994E+01    1.983E+01    1.973E+01    1.962E+01    1.952E+01    1.942E+01
     1.933E+01    1.923E+01    1.915E+01    1.906E+01    1.899E+01    1.891E+01    1.885E+01    1.879E+01
 PCr      Conc. = 1.45E+02
