 LCModel (Version 6.3-1L) Copyright: S.W. Provencher.          Ref.: Magn. Reson. Med. 30:672-679 (1993).                
 Slice#1 Row#8 Col#11  PD_24_press_2_raw_act
 36 lines in following concentration table = NCONC+1
    Conc.  %SD /Cr+PCr  Metabolite                                         
  183.693  45%   0.490 Ala                                                 
   61.401 193%   0.164 Asp                                                 
    0.000 999%   0.000 Cr                                                  
  374.537  13%   1.000 PCr                                                 
   25.730 292% 6.9E-02 GABA                                                
   38.050 187%   0.102 Glc                                                 
    0.000 999%   0.000 Gln                                                 
  832.488  24%   2.223 Glu                                                 
    0.000 999%   0.000 GPC                                                 
   38.810  34%   0.104 PCh                                                 
    0.000 999%   0.000 GSH                                                 
  146.121 116%   0.390 Ins                                                 
   85.908 104%   0.229 Lac                                                 
  639.508  21%   1.707 NAA                                                 
  848.883  15%   2.266 NAAG                                                
    0.000 999%   0.000 Scyllo                                              
    0.000 999%   0.000 Tau                                                 
  234.724  28%   0.627 -CrCH2                                              
   38.810  34%   0.104 GPC+PCh                                             
 1.49E+03   9%   3.974 NAA+NAAG                                            
  374.537  13%   1.000 Cr+PCr                                              
  832.488  24%   2.223 Glu+Gln                                             
 1.02E+04  17%  27.345 Lip13a                                              
    0.000 999%   0.000 Lip13b                                              
 1.19E+03  51%   3.164 Lip09                                               
 2.30E+03  25%   6.129 MM09                                                
 3.78E+03  13%  10.091+Lip20                                               
 2.70E+03  22%   7.198 MM20                                                
  743.596  50%   1.985 MM12                                                
 6.06E+03  16%  16.178 MM14                                                
    0.000 999%   0.000 MM17                                                
 1.02E+04  17%  27.345 Lip13a+Lip13b                                       
 1.70E+04   7%  45.508 MM14+Lip13a+Lip13b+MM12                             
 3.48E+03  12%   9.293 MM09+Lip09                                          
 6.48E+03   7%  17.289 MM20+Lip20                                          
   6 lines in following misc. output table
  FWHM = 0.061 ppm    S/N =  11                                            
  Data shift =-0.038 ppm                                                   
  Ph: 160 deg      60.9 deg/ppm                                            
  alphaB,S = 4.2E-01,   9.2E+01                                            
   14 spline knots.   Ns =10(1)                                            
  (14) 2 infls.   (14) 2 extrs.                                            
  498 points on ppm-axis = NY
      4.000000     3.992357     3.984714     3.977070     3.969427     3.961784     3.954141     3.946497     3.938854     3.931211
      3.923568     3.915925     3.908281     3.900638     3.892995     3.885352     3.877708     3.870065     3.862422     3.854779
      3.847136     3.839492     3.831849     3.824206     3.816563     3.808919     3.801276     3.793633     3.785990     3.778347
      3.770703     3.763060     3.755417     3.747774     3.740130     3.732487     3.724844     3.717201     3.709558     3.701914
      3.694271     3.686628     3.678985     3.671341     3.663698     3.656055     3.648412     3.640769     3.633125     3.625482
      3.617839     3.610196     3.602552     3.594909     3.587266     3.579623     3.571980     3.564336     3.556693     3.549050
      3.541407     3.533763     3.526120     3.518477     3.510834     3.503191     3.495547     3.487904     3.480261     3.472618
      3.464974     3.457331     3.449688     3.442045     3.434402     3.426758     3.419115     3.411472     3.403829     3.396185
      3.388542     3.380899     3.373256     3.365613     3.357969     3.350326     3.342683     3.335040     3.327396     3.319753
      3.312110     3.304467     3.296824     3.289180     3.281537     3.273894     3.266251     3.258607     3.250964     3.243321
      3.235678     3.228034     3.220391     3.212748     3.205105     3.197462     3.189818     3.182175     3.174532     3.166889
      3.159245     3.151602     3.143959     3.136316     3.128673     3.121029     3.113386     3.105743     3.098100     3.090456
      3.082813     3.075170     3.067527     3.059884     3.052240     3.044597     3.036954     3.029311     3.021667     3.014024
      3.006381     2.998738     2.991095     2.983451     2.975808     2.968165     2.960522     2.952878     2.945235     2.937592
      2.929949     2.922306     2.914662     2.907019     2.899376     2.891733     2.884089     2.876446     2.868803     2.861160
      2.853517     2.845873     2.838230     2.830587     2.822944     2.815300     2.807657     2.800014     2.792371     2.784728
      2.777084     2.769441     2.761798     2.754155     2.746511     2.738868     2.731225     2.723582     2.715939     2.708295
      2.700652     2.693009     2.685366     2.677722     2.670079     2.662436     2.654793     2.647150     2.639506     2.631863
      2.624220     2.616577     2.608933     2.601290     2.593647     2.586004     2.578361     2.570717     2.563074     2.555431
      2.547788     2.540144     2.532501     2.524858     2.517215     2.509572     2.501928     2.494285     2.486642     2.478999
      2.471355     2.463712     2.456069     2.448426     2.440783     2.433139     2.425496     2.417853     2.410210     2.402566
      2.394923     2.387280     2.379637     2.371994     2.364350     2.356707     2.349064     2.341421     2.333777     2.326134
      2.318491     2.310848     2.303205     2.295561     2.287918     2.280275     2.272632     2.264988     2.257345     2.249702
      2.242059     2.234416     2.226772     2.219129     2.211486     2.203843     2.196199     2.188556     2.180913     2.173270
      2.165627     2.157983     2.150340     2.142697     2.135054     2.127410     2.119767     2.112124     2.104481     2.096838
      2.089194     2.081551     2.073908     2.066265     2.058621     2.050978     2.043335     2.035692     2.028049     2.020405
      2.012762     2.005119     1.997476     1.989833     1.982190     1.974546     1.966903     1.959260     1.951617     1.943974
      1.936331     1.928688     1.921045     1.913402     1.905759     1.898115     1.890472     1.882829     1.875186     1.867543
      1.859900     1.852257     1.844614     1.836971     1.829327     1.821684     1.814041     1.806398     1.798755     1.791112
      1.783469     1.775826     1.768183     1.760540     1.752896     1.745253     1.737610     1.729967     1.722324     1.714681
      1.707038     1.699395     1.691752     1.684108     1.676465     1.668822     1.661179     1.653536     1.645893     1.638250
      1.630607     1.622964     1.615321     1.607677     1.600034     1.592391     1.584748     1.577105     1.569462     1.561819
      1.554176     1.546533     1.538890     1.531246     1.523603     1.515960     1.508317     1.500674     1.493031     1.485388
      1.477745     1.470102     1.462458     1.454815     1.447172     1.439529     1.431886     1.424243     1.416600     1.408957
      1.401314     1.393671     1.386027     1.378384     1.370741     1.363098     1.355455     1.347812     1.340169     1.332526
      1.324883     1.317240     1.309596     1.301953     1.294310     1.286667     1.279024     1.271381     1.263738     1.256095
      1.248452     1.240808     1.233165     1.225522     1.217879     1.210236     1.202593     1.194950     1.187307     1.179664
      1.172021     1.164377     1.156734     1.149091     1.141448     1.133805     1.126162     1.118519     1.110876     1.103233
      1.095590     1.087946     1.080303     1.072660     1.065017     1.057374     1.049731     1.042088     1.034445     1.026802
      1.019158     1.011515     1.003872     0.996229     0.988586     0.980943     0.973300     0.965657     0.958014     0.950371
      0.942727     0.935084     0.927441     0.919798     0.912155     0.904512     0.896869     0.889226     0.881583     0.873940
      0.866296     0.858653     0.851010     0.843367     0.835724     0.828081     0.820438     0.812795     0.805152     0.797508
      0.789865     0.782222     0.774579     0.766936     0.759293     0.751650     0.744007     0.736364     0.728721     0.721077
      0.713434     0.705791     0.698148     0.690505     0.682862     0.675219     0.667576     0.659933     0.652290     0.644646
      0.637003     0.629360     0.621717     0.614074     0.606431     0.598788     0.591145     0.583502     0.575858     0.568215
      0.560572     0.552929     0.545286     0.537643     0.530000     0.522357     0.514714     0.507071     0.499427     0.491784
      0.484141     0.476498     0.468855     0.461212     0.453569     0.445925     0.438282     0.430639     0.422996     0.415353
      0.407710     0.400067     0.392424     0.384780     0.377137     0.369494     0.361851     0.354208     0.346565     0.338922
      0.331278     0.323635     0.315992     0.308349     0.300706     0.293063     0.285420     0.277777     0.270133     0.262490
      0.254847     0.247204     0.239561     0.231918     0.224275     0.216631     0.208988     0.201345
 NY phased data points follow
  -2.50817E+00 -4.31726E-01 -3.38430E+00 -4.08535E+00 -1.75623E+00 -3.59668E+00 -4.79966E+00  2.96718E+00 -1.93231E+00 -4.97213E+00
  -2.24284E-01 -1.44547E+00 -6.11389E+00 -6.76642E-01 -5.03635E-01 -2.91331E+00 -3.66788E+00 -2.85726E+00  1.81951E+00 -2.94886E+00
  -2.01846E+00 -1.64355E+00 -6.27781E+00 -5.19065E+00 -2.06001E+00 -8.21972E-01 -6.13066E+00 -4.29706E+00 -5.70611E+00 -6.83444E+00
  -5.35701E+00 -3.96544E+00 -5.67941E+00 -8.09516E+00 -5.97808E+00 -3.18099E+00 -5.14297E+00 -6.86618E+00  1.19211E+00 -8.20553E+00
  -5.94224E+00 -1.58009E+00 -2.25064E-01 -3.04660E+00 -5.21862E+00 -7.50730E+00 -4.08272E+00 -4.80812E+00 -3.56320E+00 -2.65415E+00
  -5.33855E+00 -4.58536E+00 -5.37433E+00  5.79680E-02 -3.63048E+00 -4.19093E+00 -6.21539E+00 -5.91230E+00 -2.51742E+00 -4.24544E+00
  -5.44829E+00 -4.56832E+00 -3.56884E+00 -2.09730E+00 -5.93383E+00 -3.39535E+00 -3.76895E+00 -4.86086E+00 -5.25140E+00 -4.36672E+00
  -3.75758E+00 -7.11359E+00 -7.34860E+00 -4.93378E+00 -6.74732E+00 -2.61181E+00 -5.72424E+00 -7.52364E+00 -4.96531E+00 -5.23186E+00
  -4.38319E+00 -1.68692E+00 -5.15422E+00 -6.87830E+00 -1.07436E+01 -4.28439E+00 -5.22395E+00 -1.04990E+01 -6.08205E+00 -8.29640E+00
  -9.44284E+00 -5.88566E+00 -5.09371E+00 -3.15894E+00 -8.08049E+00 -5.26203E+00 -8.23052E+00 -9.13749E+00 -6.38605E+00 -1.01569E+01
  -1.01288E+01 -1.17259E+01 -8.12558E+00 -1.09723E+01 -5.84181E+00 -5.60058E+00  4.96231E-01  3.25940E+00 -5.39108E+00 -4.31362E+00
  -2.57305E-01 -3.51250E+00 -1.23160E+00 -7.31996E+00 -4.78857E+00 -1.30227E-01 -1.84936E+00 -7.78994E+00 -7.18587E+00 -7.84154E+00
  -8.64808E+00 -1.16927E+01 -6.49029E+00 -6.90003E+00 -7.60198E+00 -4.48413E+00 -8.44121E+00 -2.77805E+00  2.71784E+00  8.52744E-01
   4.83610E+00  1.06088E+01  8.71036E+00  9.01341E+00  1.11377E+01  7.05655E+00  1.31608E+01  7.71525E+00  4.77764E+00  4.24346E+00
   8.42645E-01 -3.24985E-02  1.93620E+00  3.11958E+00  1.92445E+00  2.19855E+00  2.04717E+00  4.48471E+00  7.09121E-01  5.60855E+00
   1.17049E+00  4.46828E-01 -1.23927E+00  1.98851E+00  4.74403E-01  1.88792E+00 -1.96018E+00 -1.33964E+00  1.64215E+00  1.18417E+00
   1.63959E+00  4.83620E+00  7.38956E-01  3.22261E+00  1.60454E+00  2.73240E+00  6.40071E-01 -2.57295E+00  1.97944E+00  3.64834E+00
   1.25528E+00  4.67789E-01 -1.58949E+00 -4.42586E+00 -2.53948E+00 -4.51900E+00 -9.07801E+00 -1.15181E+01 -5.68639E+00 -1.18738E+01
  -7.89796E+00 -9.25867E+00 -9.41607E+00 -9.59495E+00 -1.03751E+01 -1.04529E+01 -7.19314E+00 -8.01295E+00 -8.03052E+00 -9.59244E+00
  -6.09027E+00 -6.36605E+00 -1.01322E+01 -5.47524E+00 -3.32802E+00 -9.61494E+00 -6.19408E+00 -8.88649E+00 -1.10052E+01 -1.30193E+01
  -1.39308E+01 -9.43925E+00 -9.01252E+00 -8.08399E+00 -9.91379E+00 -1.18749E+01 -8.27409E+00 -4.23745E+00 -4.71365E+00 -5.92746E+00
  -9.28601E+00 -8.52538E+00 -5.74740E+00 -6.89592E+00 -6.08113E+00 -3.46296E-01 -2.38485E+00 -6.20370E-01  2.89938E+00  2.69710E-01
   2.60188E+00 -3.80596E+00 -6.64113E+00 -1.14208E+00 -6.23651E+00 -6.93035E+00 -7.45371E+00 -4.37797E+00 -3.59383E+00 -1.57066E+00
   5.19982E-01 -3.45845E+00  1.41437E-02  1.09538E+00  1.89878E+00  1.73839E+00  5.16421E-01  2.13282E+00  1.24817E+00  2.54401E+00
  -4.38362E-01  1.42898E+00  4.67709E+00  2.95889E-01 -1.52882E+00  3.46182E+00  4.13400E+00  1.94045E+00  3.67566E-01  1.49974E+00
   4.01481E+00  1.55879E+00  6.76892E+00  7.13425E+00  1.33842E+01  1.80502E+01  2.26080E+01  2.94034E+01  3.56134E+01  4.30126E+01
   4.73204E+01  5.58047E+01  5.89475E+01  5.96137E+01  5.02800E+01  4.47776E+01  3.39134E+01  2.49746E+01  1.86639E+01  7.00118E+00
  -1.32823E-01 -9.91135E-01 -2.09362E+00 -3.35578E+00 -4.24385E+00 -4.50767E+00 -6.95650E+00 -9.07780E+00 -9.53618E+00 -1.42068E+01
  -1.00037E+01 -1.38819E+01 -1.53865E+01 -1.64113E+01 -1.94017E+01 -1.92963E+01 -1.83216E+01 -2.09970E+01 -2.32872E+01 -2.41409E+01
  -2.11357E+01 -1.88997E+01 -2.21719E+01 -2.24845E+01 -2.30426E+01 -1.85446E+01 -2.00849E+01 -1.90614E+01 -1.90016E+01 -1.97082E+01
  -1.81340E+01 -1.65397E+01 -1.45970E+01 -1.20099E+01 -1.74665E+01 -1.37858E+01 -1.75058E+01 -1.22796E+01 -1.00468E+01 -8.79406E+00
  -6.64924E+00 -7.83053E+00 -5.51945E+00 -7.93157E+00 -2.77121E+00 -1.21552E+00 -2.09292E+00 -3.20156E+00  5.00803E+00  2.72120E-01
   7.71391E+00  8.63122E+00  1.02154E+01  1.30177E+01  1.59762E+01  1.65618E+01  1.80715E+01  1.83679E+01  2.26397E+01  2.17581E+01
   2.13045E+01  2.62868E+01  2.19502E+01  2.64733E+01  2.93070E+01  3.02826E+01  3.29172E+01  2.76921E+01  3.53047E+01  3.43668E+01
   3.32649E+01  3.62036E+01  3.51026E+01  3.15591E+01  3.08484E+01  2.88032E+01  2.73693E+01  3.16278E+01  2.78076E+01  2.59744E+01
   2.61742E+01  2.53197E+01  2.59870E+01  2.40384E+01  2.33504E+01  1.89110E+01  2.13073E+01  1.82085E+01  1.97867E+01  1.72647E+01
   1.93371E+01  1.95322E+01  2.16449E+01  1.79672E+01  1.26685E+01  1.73207E+01  1.47911E+01  1.42552E+01  1.50534E+01  1.63426E+01
   1.22424E+01  1.20623E+01  1.15014E+01  1.31293E+01  1.04403E+01  1.08562E+01  1.04367E+01  9.69853E+00  8.01245E+00  8.48137E+00
   8.47041E+00  7.47997E+00  7.92460E+00  1.15067E+01  8.59452E+00  8.42771E+00  9.68216E+00  7.61961E+00  1.07227E+01  1.28625E+01
   1.01118E+01  7.05677E+00  1.14322E+01  5.35885E+00  1.02837E+01  1.00185E+01  1.22162E+01  1.13090E+01  9.60604E+00  1.05350E+01
   6.27396E+00  7.37614E+00  1.08327E+01  1.26936E+01  7.87776E+00  5.98537E+00  5.01755E+00  5.81472E+00  6.36777E+00 -1.44441E+00
  -1.31506E+00 -4.77724E-01 -5.31983E+00 -4.31730E+00 -1.38968E+00 -2.95423E+00 -4.86240E+00 -5.87602E+00 -3.88003E+00 -9.36574E+00
  -2.44188E+00 -7.69335E+00 -8.96111E+00 -6.46242E+00 -1.20322E+01 -5.47816E+00 -1.14965E+01 -6.38752E+00 -9.68472E+00 -6.06877E+00
  -9.83143E+00 -1.04862E+01 -1.17300E+01 -5.78869E+00 -7.35011E+00 -7.63632E+00 -1.00340E+01 -9.36443E+00 -7.28871E+00 -1.09074E+01
  -8.59748E+00 -1.07968E+01 -8.15891E+00 -1.43789E+01 -1.01063E+01 -8.57564E+00 -1.08755E+01 -7.45982E+00 -9.52625E+00 -8.41001E+00
  -7.94480E+00 -8.65567E+00 -6.09053E+00 -8.36796E+00 -1.02831E+01 -6.32670E+00 -9.02243E+00 -7.19345E+00 -7.75639E+00 -7.08919E+00
  -7.92963E+00 -6.96696E+00 -9.73441E+00 -7.61755E+00 -7.63835E+00 -1.18663E+01 -6.30670E+00 -8.10051E+00 -7.14434E+00 -3.55465E+00
  -5.45558E+00 -7.02263E+00 -4.56079E+00 -5.90350E+00 -1.00194E+01 -5.27419E+00 -8.93933E+00 -7.60706E+00 -6.39716E+00 -3.33873E+00
  -3.94207E+00 -8.00076E+00 -8.80393E+00 -6.79937E+00 -8.54240E+00 -6.19822E+00 -6.69355E+00 -4.97916E+00 -8.19701E+00 -3.70662E+00
  -6.18645E+00 -3.31880E+00 -7.25248E+00 -5.27593E-01 -7.20129E+00 -1.16112E+01 -7.97201E+00 -6.94153E+00
 NY points of the fit to the data follow
  -2.13119E+00 -2.58011E+00 -3.19057E+00 -3.74901E+00 -4.13767E+00 -4.38225E+00 -4.53172E+00 -4.58196E+00 -4.49024E+00 -4.21769E+00
  -3.74736E+00 -3.11900E+00 -2.41102E+00 -1.76461E+00 -1.30000E+00 -1.01604E+00 -8.58718E-01 -8.40630E-01 -9.98717E-01 -1.41473E+00
  -2.04749E+00 -2.77211E+00 -3.22632E+00 -3.33028E+00 -3.40706E+00 -3.50235E+00 -3.60634E+00 -3.73183E+00 -3.89646E+00 -4.10183E+00
  -4.33641E+00 -4.53220E+00 -4.62417E+00 -4.56197E+00 -4.34155E+00 -3.99304E+00 -3.57180E+00 -3.17876E+00 -2.92371E+00 -2.91503E+00
  -3.21574E+00 -3.74669E+00 -4.38892E+00 -4.97025E+00 -5.27686E+00 -5.20221E+00 -4.82008E+00 -4.32304E+00 -3.87638E+00 -3.58519E+00
  -3.49876E+00 -3.56859E+00 -3.69727E+00 -3.85238E+00 -4.03973E+00 -4.27198E+00 -4.54079E+00 -4.80799E+00 -5.01357E+00 -5.10085E+00
  -5.06924E+00 -4.98134E+00 -4.90541E+00 -4.86974E+00 -4.87589E+00 -4.91399E+00 -4.97862E+00 -5.06466E+00 -5.16414E+00 -5.26734E+00
  -5.35820E+00 -5.40811E+00 -5.40313E+00 -5.35273E+00 -5.27797E+00 -5.20415E+00 -5.14489E+00 -5.10016E+00 -5.06880E+00 -5.05044E+00
  -5.05301E+00 -5.08014E+00 -5.13193E+00 -5.20344E+00 -5.28980E+00 -5.39587E+00 -5.52465E+00 -5.67077E+00 -5.82101E+00 -5.96209E+00
  -6.08486E+00 -6.18399E+00 -6.26265E+00 -6.36632E+00 -6.58594E+00 -6.84488E+00 -7.02027E+00 -7.05857E+00 -6.98375E+00 -6.83174E+00
  -6.59335E+00 -6.23568E+00 -5.71996E+00 -5.04306E+00 -4.25681E+00 -3.44840E+00 -2.71957E+00 -2.15799E+00 -1.79600E+00 -1.64431E+00
  -1.74471E+00 -2.13719E+00 -2.79746E+00 -3.59800E+00 -4.34485E+00 -4.83844E+00 -5.00644E+00 -5.13133E+00 -5.63690E+00 -6.49917E+00
  -7.30189E+00 -7.75138E+00 -7.78981E+00 -7.46974E+00 -6.77101E+00 -5.61108E+00 -3.90094E+00 -1.62159E+00  1.07957E+00  3.91356E+00
   6.52509E+00  8.58566E+00  9.93502E+00  1.05601E+01  1.03920E+01  9.29627E+00  7.27663E+00  4.64894E+00  2.00370E+00  1.42939E-02
  -8.37822E-01 -9.28002E-01 -7.92714E-01 -5.63658E-01 -2.62557E-01  1.06879E-01  5.05493E-01  8.90681E-01  1.23261E+00  1.51193E+00
   1.75988E+00  2.01898E+00  2.26770E+00  2.44942E+00  2.52302E+00  2.49115E+00  2.40678E+00  2.31242E+00  2.21313E+00  2.07791E+00
   1.88885E+00  1.62874E+00  1.26762E+00  8.18508E-01  3.01837E-01 -2.78743E-01 -9.33019E-01 -1.68312E+00 -2.49575E+00 -3.30589E+00
  -4.03836E+00 -4.66034E+00 -5.24529E+00 -5.84401E+00 -6.47535E+00 -7.13336E+00 -7.75130E+00 -8.25593E+00 -8.68273E+00 -9.09847E+00
  -9.55927E+00 -1.00830E+01 -1.06200E+01 -1.10205E+01 -1.11545E+01 -1.10580E+01 -1.08384E+01 -1.05994E+01 -1.03366E+01 -9.94175E+00
  -9.40957E+00 -8.83431E+00 -8.33171E+00 -8.00049E+00 -7.87016E+00 -7.89983E+00 -7.99057E+00 -8.09044E+00 -8.21494E+00 -8.32496E+00
  -8.34212E+00 -8.25233E+00 -8.07203E+00 -7.82712E+00 -7.59737E+00 -7.53366E+00 -7.78602E+00 -8.23431E+00 -8.72565E+00 -9.17448E+00
  -9.54763E+00 -9.72698E+00 -9.52218E+00 -8.91322E+00 -8.01897E+00 -6.92510E+00 -5.68102E+00 -4.42039E+00 -3.32643E+00 -2.60869E+00
  -2.37056E+00 -2.64112E+00 -3.35842E+00 -4.35502E+00 -5.39292E+00 -6.16924E+00 -6.37415E+00 -5.83839E+00 -4.57308E+00 -2.90860E+00
  -1.09294E+00  6.21797E-01  1.98997E+00  2.81025E+00  2.99486E+00  2.75738E+00  2.42436E+00  2.15461E+00  1.97972E+00  1.95116E+00
   2.08589E+00  2.37857E+00  2.76433E+00  3.15534E+00  3.58370E+00  3.94297E+00  3.59431E+00  2.72675E+00  2.23818E+00  2.50189E+00
   2.94730E+00  3.33077E+00  4.32112E+00  6.57128E+00  1.03484E+01  1.56522E+01  2.22756E+01  2.97256E+01  3.73496E+01  4.44635E+01
   5.04676E+01  5.47859E+01  5.66282E+01  5.51835E+01  5.03163E+01  4.28614E+01  3.41163E+01  2.53980E+01  1.77194E+01  1.05784E+01
   3.75392E+00 -1.79042E+00 -5.17161E+00 -6.95702E+00 -8.19140E+00 -9.14822E+00 -9.92340E+00 -1.06006E+01 -1.12014E+01 -1.17431E+01
  -1.22601E+01 -1.27668E+01 -1.32705E+01 -1.37506E+01 -1.41561E+01 -1.44455E+01 -1.46127E+01 -1.46896E+01 -1.47255E+01 -1.47630E+01
  -1.48091E+01 -1.48611E+01 -1.49178E+01 -1.49667E+01 -1.49850E+01 -1.49553E+01 -1.48764E+01 -1.47654E+01 -1.46284E+01 -1.44781E+01
  -1.43278E+01 -1.41808E+01 -1.40302E+01 -1.38567E+01 -1.36258E+01 -1.33207E+01 -1.29350E+01 -1.24621E+01 -1.18990E+01 -1.12471E+01
  -1.05105E+01 -9.69106E+00 -8.77540E+00 -7.74832E+00 -6.60380E+00 -5.34655E+00 -3.99917E+00 -2.50047E+00 -7.34555E-01  1.31686E+00
   3.60314E+00  6.06578E+00  8.67856E+00  1.14238E+01  1.41995E+01  1.68312E+01  1.92310E+01  2.13623E+01  2.31961E+01  2.46980E+01
   2.58727E+01  2.67706E+01  2.74428E+01  2.79549E+01  2.84072E+01  2.89181E+01  2.95721E+01  3.03575E+01  3.11991E+01  3.19412E+01
   3.24435E+01  3.26703E+01  3.25628E+01  3.20958E+01  3.13216E+01  3.03341E+01  2.93131E+01  2.83993E+01  2.75363E+01  2.66780E+01
   2.58019E+01  2.49151E+01  2.40461E+01  2.32208E+01  2.24624E+01  2.18020E+01  2.12772E+01  2.09129E+01  2.06950E+01  2.05681E+01
   2.04195E+01  2.01471E+01  1.97197E+01  1.91090E+01  1.83063E+01  1.73435E+01  1.62952E+01  1.52699E+01  1.43034E+01  1.33721E+01
   1.24728E+01  1.16121E+01  1.08003E+01  1.00487E+01  9.36837E+00  8.76966E+00  8.26164E+00  7.85171E+00  7.54528E+00  7.34555E+00
   7.25305E+00  7.26560E+00  7.37804E+00  7.58235E+00  7.86758E+00  8.22012E+00  8.62383E+00  9.06055E+00  9.51054E+00  9.95326E+00
   1.03680E+01  1.07347E+01  1.10345E+01  1.12507E+01  1.13695E+01  1.13800E+01  1.12752E+01  1.10518E+01  1.07101E+01  1.02541E+01
   9.69108E+00  9.03090E+00  8.28565E+00  7.46897E+00  6.59531E+00  5.67945E+00  4.73593E+00  3.77862E+00  2.82022E+00  1.87217E+00
   9.44309E-01  4.50064E-02 -8.18997E-01 -1.64239E+00 -2.42134E+00 -3.15325E+00 -3.83666E+00 -4.47102E+00 -5.05659E+00 -5.59425E+00
  -6.08550E+00 -6.53214E+00 -6.93636E+00 -7.30043E+00 -7.62683E+00 -7.91804E+00 -8.17663E+00 -8.40504E+00 -8.60571E+00 -8.78088E+00
  -8.93275E+00 -9.06333E+00 -9.17456E+00 -9.26818E+00 -9.34583E+00 -9.40893E+00 -9.45885E+00 -9.49679E+00 -9.52389E+00 -9.54112E+00
  -9.54938E+00 -9.54943E+00 -9.54204E+00 -9.52783E+00 -9.50743E+00 -9.48133E+00 -9.45001E+00 -9.41388E+00 -9.37335E+00 -9.32877E+00
  -9.28048E+00 -9.22873E+00 -9.17381E+00 -9.11592E+00 -9.05531E+00 -8.99215E+00 -8.92664E+00 -8.85890E+00 -8.78909E+00 -8.71732E+00
  -8.64375E+00 -8.56849E+00 -8.49164E+00 -8.41326E+00 -8.33348E+00 -8.25236E+00 -8.17001E+00 -8.08648E+00 -8.00184E+00 -7.91613E+00
  -7.82942E+00 -7.74178E+00 -7.65326E+00 -7.56390E+00 -7.47373E+00 -7.38279E+00 -7.29114E+00 -7.19881E+00 -7.10585E+00 -7.01225E+00
  -6.91808E+00 -6.82333E+00 -6.72807E+00 -6.63231E+00 -6.53609E+00 -6.43940E+00 -6.34228E+00 -6.24474E+00 -6.14683E+00 -6.04855E+00
  -5.94992E+00 -5.85093E+00 -5.75163E+00 -5.65202E+00 -5.55214E+00 -5.45198E+00 -5.35156E+00 -5.25088E+00
 NY background values follow
    -2.953E+00   -2.984E+00   -3.015E+00   -3.046E+00   -3.077E+00   -3.108E+00   -3.139E+00   -3.170E+00   -3.200E+00   -3.231E+00
    -3.261E+00   -3.292E+00   -3.322E+00   -3.353E+00   -3.383E+00   -3.413E+00   -3.443E+00   -3.473E+00   -3.503E+00   -3.533E+00
    -3.563E+00   -3.592E+00   -3.622E+00   -3.651E+00   -3.680E+00   -3.709E+00   -3.738E+00   -3.767E+00   -3.796E+00   -3.825E+00
    -3.853E+00   -3.882E+00   -3.910E+00   -3.938E+00   -3.966E+00   -3.994E+00   -4.022E+00   -4.049E+00   -4.077E+00   -4.104E+00
    -4.131E+00   -4.158E+00   -4.185E+00   -4.211E+00   -4.238E+00   -4.264E+00   -4.290E+00   -4.316E+00   -4.342E+00   -4.368E+00
    -4.393E+00   -4.418E+00   -4.443E+00   -4.468E+00   -4.493E+00   -4.518E+00   -4.542E+00   -4.566E+00   -4.590E+00   -4.614E+00
    -4.637E+00   -4.661E+00   -4.684E+00   -4.707E+00   -4.730E+00   -4.753E+00   -4.775E+00   -4.798E+00   -4.820E+00   -4.842E+00
    -4.864E+00   -4.885E+00   -4.906E+00   -4.928E+00   -4.949E+00   -4.969E+00   -4.990E+00   -5.011E+00   -5.031E+00   -5.051E+00
    -5.071E+00   -5.090E+00   -5.110E+00   -5.129E+00   -5.148E+00   -5.167E+00   -5.185E+00   -5.204E+00   -5.222E+00   -5.240E+00
    -5.258E+00   -5.275E+00   -5.293E+00   -5.310E+00   -5.327E+00   -5.344E+00   -5.361E+00   -5.378E+00   -5.395E+00   -5.411E+00
    -5.428E+00   -5.445E+00   -5.462E+00   -5.478E+00   -5.495E+00   -5.512E+00   -5.530E+00   -5.547E+00   -5.564E+00   -5.582E+00
    -5.600E+00   -5.618E+00   -5.636E+00   -5.655E+00   -5.674E+00   -5.693E+00   -5.713E+00   -5.733E+00   -5.754E+00   -5.774E+00
    -5.796E+00   -5.818E+00   -5.840E+00   -5.863E+00   -5.886E+00   -5.910E+00   -5.934E+00   -5.960E+00   -5.985E+00   -6.012E+00
    -6.039E+00   -6.066E+00   -6.095E+00   -6.124E+00   -6.154E+00   -6.185E+00   -6.216E+00   -6.249E+00   -6.282E+00   -6.316E+00
    -6.351E+00   -6.387E+00   -6.424E+00   -6.462E+00   -6.500E+00   -6.540E+00   -6.580E+00   -6.622E+00   -6.664E+00   -6.707E+00
    -6.752E+00   -6.797E+00   -6.844E+00   -6.891E+00   -6.940E+00   -6.989E+00   -7.040E+00   -7.092E+00   -7.145E+00   -7.199E+00
    -7.254E+00   -7.310E+00   -7.368E+00   -7.426E+00   -7.486E+00   -7.547E+00   -7.610E+00   -7.673E+00   -7.738E+00   -7.804E+00
    -7.871E+00   -7.940E+00   -8.009E+00   -8.081E+00   -8.153E+00   -8.227E+00   -8.302E+00   -8.379E+00   -8.456E+00   -8.536E+00
    -8.616E+00   -8.698E+00   -8.782E+00   -8.867E+00   -8.953E+00   -9.041E+00   -9.130E+00   -9.220E+00   -9.311E+00   -9.404E+00
    -9.498E+00   -9.593E+00   -9.689E+00   -9.786E+00   -9.885E+00   -9.984E+00   -1.009E+01   -1.019E+01   -1.029E+01   -1.039E+01
    -1.050E+01   -1.060E+01   -1.071E+01   -1.082E+01   -1.092E+01   -1.103E+01   -1.114E+01   -1.125E+01   -1.136E+01   -1.148E+01
    -1.159E+01   -1.170E+01   -1.182E+01   -1.193E+01   -1.205E+01   -1.216E+01   -1.228E+01   -1.239E+01   -1.251E+01   -1.263E+01
    -1.275E+01   -1.286E+01   -1.298E+01   -1.310E+01   -1.322E+01   -1.334E+01   -1.346E+01   -1.358E+01   -1.370E+01   -1.382E+01
    -1.394E+01   -1.406E+01   -1.418E+01   -1.431E+01   -1.443E+01   -1.455E+01   -1.467E+01   -1.479E+01   -1.491E+01   -1.503E+01
    -1.515E+01   -1.526E+01   -1.538E+01   -1.550E+01   -1.562E+01   -1.574E+01   -1.585E+01   -1.597E+01   -1.608E+01   -1.620E+01
    -1.631E+01   -1.642E+01   -1.653E+01   -1.665E+01   -1.676E+01   -1.686E+01   -1.697E+01   -1.708E+01   -1.718E+01   -1.729E+01
    -1.739E+01   -1.749E+01   -1.759E+01   -1.769E+01   -1.779E+01   -1.789E+01   -1.798E+01   -1.808E+01   -1.817E+01   -1.826E+01
    -1.835E+01   -1.843E+01   -1.852E+01   -1.860E+01   -1.868E+01   -1.876E+01   -1.884E+01   -1.892E+01   -1.899E+01   -1.906E+01
    -1.913E+01   -1.920E+01   -1.927E+01   -1.934E+01   -1.940E+01   -1.946E+01   -1.952E+01   -1.958E+01   -1.964E+01   -1.969E+01
    -1.974E+01   -1.980E+01   -1.984E+01   -1.989E+01   -1.994E+01   -1.998E+01   -2.002E+01   -2.006E+01   -2.010E+01   -2.014E+01
    -2.017E+01   -2.020E+01   -2.024E+01   -2.026E+01   -2.029E+01   -2.032E+01   -2.034E+01   -2.036E+01   -2.038E+01   -2.040E+01
    -2.041E+01   -2.043E+01   -2.044E+01   -2.045E+01   -2.046E+01   -2.046E+01   -2.047E+01   -2.047E+01   -2.047E+01   -2.047E+01
    -2.047E+01   -2.046E+01   -2.046E+01   -2.045E+01   -2.044E+01   -2.043E+01   -2.041E+01   -2.040E+01   -2.038E+01   -2.036E+01
    -2.034E+01   -2.032E+01   -2.030E+01   -2.027E+01   -2.024E+01   -2.022E+01   -2.019E+01   -2.015E+01   -2.012E+01   -2.009E+01
    -2.005E+01   -2.001E+01   -1.998E+01   -1.994E+01   -1.989E+01   -1.985E+01   -1.981E+01   -1.976E+01   -1.972E+01   -1.967E+01
    -1.962E+01   -1.957E+01   -1.952E+01   -1.947E+01   -1.941E+01   -1.936E+01   -1.930E+01   -1.924E+01   -1.919E+01   -1.913E+01
    -1.907E+01   -1.901E+01   -1.894E+01   -1.888E+01   -1.882E+01   -1.875E+01   -1.868E+01   -1.862E+01   -1.855E+01   -1.848E+01
    -1.841E+01   -1.834E+01   -1.827E+01   -1.820E+01   -1.812E+01   -1.805E+01   -1.797E+01   -1.790E+01   -1.782E+01   -1.774E+01
    -1.766E+01   -1.758E+01   -1.750E+01   -1.742E+01   -1.734E+01   -1.726E+01   -1.717E+01   -1.709E+01   -1.700E+01   -1.692E+01
    -1.683E+01   -1.674E+01   -1.666E+01   -1.657E+01   -1.648E+01   -1.639E+01   -1.629E+01   -1.620E+01   -1.611E+01   -1.602E+01
    -1.592E+01   -1.583E+01   -1.573E+01   -1.564E+01   -1.554E+01   -1.544E+01   -1.534E+01   -1.524E+01   -1.514E+01   -1.504E+01
    -1.494E+01   -1.484E+01   -1.474E+01   -1.464E+01   -1.453E+01   -1.443E+01   -1.433E+01   -1.422E+01   -1.412E+01   -1.401E+01
    -1.391E+01   -1.380E+01   -1.369E+01   -1.358E+01   -1.348E+01   -1.337E+01   -1.326E+01   -1.315E+01   -1.304E+01   -1.293E+01
    -1.282E+01   -1.271E+01   -1.260E+01   -1.249E+01   -1.238E+01   -1.227E+01   -1.216E+01   -1.205E+01   -1.193E+01   -1.182E+01
    -1.171E+01   -1.160E+01   -1.148E+01   -1.137E+01   -1.126E+01   -1.115E+01   -1.103E+01   -1.092E+01   -1.081E+01   -1.069E+01
    -1.058E+01   -1.047E+01   -1.035E+01   -1.024E+01   -1.013E+01   -1.001E+01   -9.901E+00   -9.787E+00   -9.674E+00   -9.561E+00
    -9.448E+00   -9.335E+00   -9.222E+00   -9.109E+00   -8.996E+00   -8.883E+00   -8.770E+00   -8.657E+00   -8.545E+00   -8.432E+00
    -8.319E+00   -8.206E+00   -8.094E+00   -7.981E+00   -7.869E+00   -7.756E+00   -7.644E+00   -7.531E+00   -7.419E+00   -7.307E+00
    -7.194E+00   -7.082E+00   -6.970E+00   -6.858E+00   -6.746E+00   -6.634E+00   -6.522E+00   -6.411E+00   -6.299E+00   -6.187E+00
    -6.076E+00   -5.964E+00   -5.853E+00   -5.741E+00   -5.630E+00   -5.519E+00   -5.408E+00   -5.297E+00
 Ala      Conc. = 1.84E+02
