 LCModel (Version 6.3-1L) Copyright: S.W. Provencher.          Ref.: Magn. Reson. Med. 30:672-679 (1993).                
 Slice#2 Row#2 Col#12  PD_24_press_2_raw_act
 36 lines in following concentration table = NCONC+1
    Conc.  %SD /Cr+PCr  Metabolite                                         
 1.96E+03  44%   2.735 Ala                                                 
   57.195  24% 8.0E-02 Asp                                                 
  715.249  23%   1.000 Cr                                                  
    0.000 999%   0.000 PCr                                                 
   34.377  24% 4.8E-02 GABA                                                
   34.351  24% 4.8E-02 Glc                                                 
 3.11E+04   8%  43.454 Gln                                                 
 2.85E+04  11%  39.847 Glu                                                 
  143.513  41%   0.201 GPC                                                 
    0.000 999%   0.000 PCh                                                 
    0.000 999%   0.000 GSH                                                 
 2.39E+03  34%   3.347 Ins                                                 
    0.000 999%   0.000 Lac                                                 
    0.000 999%   0.000 NAA                                                 
    0.000 999%   0.000 NAAG                                                
   11.433  24% 1.6E-02 Scyllo                                              
   57.224  24% 8.0E-02 Tau                                                 
   70.562  27% 9.9E-02 -CrCH2                                              
  143.513  41%   0.201 GPC+PCh                                             
    0.000 999%   0.000 NAA+NAAG                                            
  715.249  23%   1.000 Cr+PCr                                              
 5.96E+04   9%  83.300 Glu+Gln                                             
    0.000 999%   0.000 Lip13a                                              
    0.000 999%   0.000 Lip13b                                              
    0.000 999%   0.000 Lip09                                               
 7.89E+03   4%  11.024 MM09                                                
    0.000 999%   0.000 Lip20                                               
 1.18E+04   4%  16.536 MM20                                                
 2.37E+03   4%   3.307 MM12                                                
 5.91E+03   4%   8.269 MM14                                                
 2.96E+03   4%   4.135 MM17                                                
    0.000 999%   0.000 Lip13a+Lip13b                                       
 8.28E+03   4%  11.577 MM14+Lip13a+Lip13b+MM12                             
 7.89E+03   4%  11.024 MM09+Lip09                                          
 1.18E+04   4%  16.536 MM20+Lip20                                          
   6 lines in following misc. output table
  FWHM = 0.168 ppm    S/N =   5                                            
  Data shift = 0.115 ppm                                                   
  Ph:   8 deg     197.4 deg/ppm                                            
  alphaB,S = 2.3E+01,   4.0E+02                                            
    6 spline knots.   Ns = 9(2)                                            
  (13) 9 infls.   ( 1) 1 extrs.                                            
  498 points on ppm-axis = NY
      4.000000     3.992357     3.984714     3.977070     3.969427     3.961784     3.954141     3.946497     3.938854     3.931211
      3.923568     3.915925     3.908281     3.900638     3.892995     3.885352     3.877708     3.870065     3.862422     3.854779
      3.847136     3.839492     3.831849     3.824206     3.816563     3.808919     3.801276     3.793633     3.785990     3.778347
      3.770703     3.763060     3.755417     3.747774     3.740130     3.732487     3.724844     3.717201     3.709558     3.701914
      3.694271     3.686628     3.678985     3.671341     3.663698     3.656055     3.648412     3.640769     3.633125     3.625482
      3.617839     3.610196     3.602552     3.594909     3.587266     3.579623     3.571980     3.564336     3.556693     3.549050
      3.541407     3.533763     3.526120     3.518477     3.510834     3.503191     3.495547     3.487904     3.480261     3.472618
      3.464974     3.457331     3.449688     3.442045     3.434402     3.426758     3.419115     3.411472     3.403829     3.396185
      3.388542     3.380899     3.373256     3.365613     3.357969     3.350326     3.342683     3.335040     3.327396     3.319753
      3.312110     3.304467     3.296824     3.289180     3.281537     3.273894     3.266251     3.258607     3.250964     3.243321
      3.235678     3.228034     3.220391     3.212748     3.205105     3.197462     3.189818     3.182175     3.174532     3.166889
      3.159245     3.151602     3.143959     3.136316     3.128673     3.121029     3.113386     3.105743     3.098100     3.090456
      3.082813     3.075170     3.067527     3.059884     3.052240     3.044597     3.036954     3.029311     3.021667     3.014024
      3.006381     2.998738     2.991095     2.983451     2.975808     2.968165     2.960522     2.952878     2.945235     2.937592
      2.929949     2.922306     2.914662     2.907019     2.899376     2.891733     2.884089     2.876446     2.868803     2.861160
      2.853517     2.845873     2.838230     2.830587     2.822944     2.815300     2.807657     2.800014     2.792371     2.784728
      2.777084     2.769441     2.761798     2.754155     2.746511     2.738868     2.731225     2.723582     2.715939     2.708295
      2.700652     2.693009     2.685366     2.677722     2.670079     2.662436     2.654793     2.647150     2.639506     2.631863
      2.624220     2.616577     2.608933     2.601290     2.593647     2.586004     2.578361     2.570717     2.563074     2.555431
      2.547788     2.540144     2.532501     2.524858     2.517215     2.509572     2.501928     2.494285     2.486642     2.478999
      2.471355     2.463712     2.456069     2.448426     2.440783     2.433139     2.425496     2.417853     2.410210     2.402566
      2.394923     2.387280     2.379637     2.371994     2.364350     2.356707     2.349064     2.341421     2.333777     2.326134
      2.318491     2.310848     2.303205     2.295561     2.287918     2.280275     2.272632     2.264988     2.257345     2.249702
      2.242059     2.234416     2.226772     2.219129     2.211486     2.203843     2.196199     2.188556     2.180913     2.173270
      2.165627     2.157983     2.150340     2.142697     2.135054     2.127410     2.119767     2.112124     2.104481     2.096838
      2.089194     2.081551     2.073908     2.066265     2.058621     2.050978     2.043335     2.035692     2.028049     2.020405
      2.012762     2.005119     1.997476     1.989833     1.982190     1.974546     1.966903     1.959260     1.951617     1.943974
      1.936331     1.928688     1.921045     1.913402     1.905759     1.898115     1.890472     1.882829     1.875186     1.867543
      1.859900     1.852257     1.844614     1.836971     1.829327     1.821684     1.814041     1.806398     1.798755     1.791112
      1.783469     1.775826     1.768183     1.760540     1.752896     1.745253     1.737610     1.729967     1.722324     1.714681
      1.707038     1.699395     1.691752     1.684108     1.676465     1.668822     1.661179     1.653536     1.645893     1.638250
      1.630607     1.622964     1.615321     1.607677     1.600034     1.592391     1.584748     1.577105     1.569462     1.561819
      1.554176     1.546533     1.538890     1.531246     1.523603     1.515960     1.508317     1.500674     1.493031     1.485388
      1.477745     1.470102     1.462458     1.454815     1.447172     1.439529     1.431886     1.424243     1.416600     1.408957
      1.401314     1.393671     1.386027     1.378384     1.370741     1.363098     1.355455     1.347812     1.340169     1.332526
      1.324883     1.317240     1.309596     1.301953     1.294310     1.286667     1.279024     1.271381     1.263738     1.256095
      1.248452     1.240808     1.233165     1.225522     1.217879     1.210236     1.202593     1.194950     1.187307     1.179664
      1.172021     1.164377     1.156734     1.149091     1.141448     1.133805     1.126162     1.118519     1.110876     1.103233
      1.095590     1.087946     1.080303     1.072660     1.065017     1.057374     1.049731     1.042088     1.034445     1.026802
      1.019158     1.011515     1.003872     0.996229     0.988586     0.980943     0.973300     0.965657     0.958014     0.950371
      0.942727     0.935084     0.927441     0.919798     0.912155     0.904512     0.896869     0.889226     0.881583     0.873940
      0.866296     0.858653     0.851010     0.843367     0.835724     0.828081     0.820438     0.812795     0.805152     0.797508
      0.789865     0.782222     0.774579     0.766936     0.759293     0.751650     0.744007     0.736364     0.728721     0.721077
      0.713434     0.705791     0.698148     0.690505     0.682862     0.675219     0.667576     0.659933     0.652290     0.644646
      0.637003     0.629360     0.621717     0.614074     0.606431     0.598788     0.591145     0.583502     0.575858     0.568215
      0.560572     0.552929     0.545286     0.537643     0.530000     0.522357     0.514714     0.507071     0.499427     0.491784
      0.484141     0.476498     0.468855     0.461212     0.453569     0.445925     0.438282     0.430639     0.422996     0.415353
      0.407710     0.400067     0.392424     0.384780     0.377137     0.369494     0.361851     0.354208     0.346565     0.338922
      0.331278     0.323635     0.315992     0.308349     0.300706     0.293063     0.285420     0.277777     0.270133     0.262490
      0.254847     0.247204     0.239561     0.231918     0.224275     0.216631     0.208988     0.201345
 NY phased data points follow
   2.07006E+00  3.86400E+00  5.77073E+00  5.59005E+00  9.01007E+00 -6.23669E-01  8.80243E+00  7.24816E+00 -1.02029E+01  3.84588E+00
   2.08924E+00  6.34054E+00 -2.34621E-01  1.05956E+00 -3.54757E-01  3.55020E+00  4.80403E+00 -6.17878E+00  7.89711E+00  3.34450E+00
   4.97137E+00  4.97078E+00  5.16787E+00  6.40150E+00  7.26790E+00  9.91440E+00 -3.95213E+00  5.03663E+00 -1.81333E+00  7.73090E+00
   2.80631E-01  1.26149E-01  5.67734E+00  5.14809E+00 -2.35046E+00 -4.83789E-01 -3.89976E-01  2.50940E+00  4.32678E+00  1.36161E+00
   5.63317E+00 -4.49947E-01  4.92450E+00  3.12901E+00 -1.85286E+00 -1.68275E+00  2.19894E+00 -2.16323E-01  1.95479E+00 -1.35872E+00
  -3.87734E+00  5.57759E+00 -1.92534E-01  2.16792E-02  3.89866E+00  3.84762E+00  7.33038E-01 -1.02123E+00 -6.06861E+00  5.79253E+00
  -5.62039E-01 -8.03965E+00 -1.83977E+00  1.39151E+00 -4.74338E+00  9.02776E-01  4.00811E+00  2.87401E+00 -1.20766E+00 -2.75641E+00
  -1.33897E+00 -1.39795E+00 -2.59162E-01 -4.47043E+00  6.40548E+00 -1.44715E+00 -3.52961E+00 -3.94416E+00  2.02105E+00  2.09828E+00
  -2.94860E+00  6.91984E+00  3.45324E+00  9.92012E+00 -7.74159E-01  4.26484E+00  4.86479E-01  2.99807E+00 -1.17410E+00 -7.42095E+00
  -3.05519E+00 -3.18698E+00 -4.71101E+00  7.59753E-02  8.37627E-01  6.97881E+00 -1.17655E-01 -7.27614E+00 -1.10244E+00  6.47221E+00
  -1.74759E+00  3.84320E+00 -6.25270E+00  8.90727E-02  2.71272E+00  5.98825E+00  4.07567E+00  6.40274E+00  2.04615E+00  9.39022E+00
   4.02186E+00  5.85028E+00 -2.19535E+00  3.03781E+00 -2.63041E+00 -2.50611E+00  2.87488E-01  5.59852E-01 -6.04483E-01 -2.06423E+00
   6.32494E+00 -1.47204E+00  2.68532E-01  5.56529E+00  4.53920E+00  6.57523E+00 -7.20941E+00  2.52045E+00  3.55844E+00  6.51622E+00
   1.65389E+00  6.41749E+00  1.64780E+00  8.14084E+00  4.80992E+00 -3.52196E-01  5.09420E+00  7.06061E+00 -1.53978E+00  6.73656E+00
  -1.03943E+00  8.53706E-01  3.96253E+00  2.15616E+00  2.05863E+00  5.02597E+00  3.43114E+00  2.10548E+00 -3.13723E+00  1.57844E+00
   4.23091E+00  5.69006E+00  1.63263E+00  2.62218E+00 -3.08250E+00 -5.44958E+00 -3.63751E+00  3.42405E+00  5.26238E+00 -4.57816E+00
   6.17896E+00 -1.19586E+00  4.59728E+00 -3.47883E+00 -4.19455E-01  2.40675E+00  5.72742E-01  2.17202E+00  5.84738E-01  6.82301E+00
  -2.77611E+00  2.03636E+00  3.36121E+00  6.30634E+00  3.50068E+00 -3.26815E+00 -6.85946E+00 -2.41573E+00 -2.61316E+00  5.75716E+00
  -4.95516E+00  7.75097E-01 -2.72670E+00  5.84593E+00  3.03590E+00 -9.38600E-01  1.18044E+00  1.82952E+00  5.78890E+00 -2.84140E+00
  -6.40990E+00  4.14643E+00 -3.23069E+00  5.93747E-02 -7.90546E-01  6.32807E+00  1.36502E+00  2.70930E-01  1.96225E+00 -1.89166E+00
   2.87481E+00 -3.65820E+00 -2.32337E-01 -3.01634E+00  2.71890E-01 -1.73066E+00 -1.04212E+00 -6.55271E-01  3.24211E-01  5.85373E-02
  -1.29489E+00  1.31405E+00  4.92500E+00  4.42160E+00 -4.87054E-01  2.16851E+00  3.21279E-01 -1.29942E+00 -2.33317E+00  3.23586E+00
   1.93855E-01  1.34512E+00  6.18878E+00 -3.77462E+00  1.65244E+00 -4.54891E-01 -3.83730E+00 -2.90525E+00  7.15168E+00  7.24456E-01
   1.23309E+00 -3.39956E+00 -1.58705E+00 -5.37674E-01 -7.41712E-01  5.16799E+00 -4.53865E-01  4.54720E+00  4.14833E+00  1.06678E+00
   3.95391E+00 -3.34933E-01  3.39128E+00 -3.88797E-01  1.68618E+00 -3.35609E+00  1.99441E+00  1.18217E+00 -6.63428E+00 -8.07103E+00
  -8.33403E+00 -2.34769E+00 -1.07906E+00  2.50350E+00 -3.12946E+00  3.75847E+00 -1.38239E+00  1.80455E+00 -1.16925E+00 -2.11035E+00
  -2.12541E+00 -2.63773E+00  5.29125E+00  1.10118E+00  3.53567E+00 -1.60600E+00  3.83515E-01  1.55139E+00  9.25966E+00  3.17192E+00
   2.94172E+00  9.96968E+00  1.11643E+01  7.03881E+00  5.18578E+00  2.56136E+00  3.31579E+00  6.24516E+00  6.42025E+00  1.16383E+01
   7.55352E+00  8.73386E+00  5.57868E+00  1.19193E+01  1.01255E+01  1.51064E+01  1.39100E+01  1.01160E+01  1.14783E+01  1.60107E+01
   1.06331E+01  1.83149E+01  2.35172E+01  1.84513E+01  1.82390E+01  2.72699E+01  3.52122E+01  3.13615E+01  3.25081E+01  3.53118E+01
   3.40794E+01  3.84772E+01  4.75790E+01  4.69559E+01  4.99382E+01  5.06981E+01  5.59155E+01  5.27872E+01  5.08003E+01  5.21632E+01
   4.69024E+01  5.45279E+01  4.52423E+01  5.20330E+01  5.15820E+01  5.80895E+01  5.50593E+01  4.99649E+01  5.42602E+01  4.80217E+01
   4.70482E+01  5.37919E+01  4.67526E+01  5.27397E+01  5.16278E+01  4.64489E+01  5.00002E+01  4.39202E+01  3.62760E+01  4.44454E+01
   2.93664E+01  3.05430E+01  3.25511E+01  3.00319E+01  3.19065E+01  2.73525E+01  2.45878E+01  2.20178E+01  1.69622E+01  2.02039E+01
   1.81036E+01  1.32143E+01  1.83646E+01  1.52505E+01  1.30803E+01  1.76723E+01  1.56582E+01  1.38473E+01  9.29047E+00  1.13789E+01
   1.52209E+00  5.04254E+00  1.06053E+01  8.48361E+00  1.44758E+01  9.38529E+00  9.90006E+00  5.94473E+00 -1.01017E+00  4.70215E+00
   2.71264E+00  7.20778E-01  2.01841E+00  5.28301E+00 -3.96355E+00  4.14122E+00  1.74575E+00  8.84295E+00 -3.35466E+00 -1.39446E-01
  -1.96582E-01  1.62601E+00 -3.28176E+00  6.37885E-02 -1.30033E-01  1.35133E-01 -4.89629E+00  2.72976E+00 -4.39233E+00  4.91489E+00
  -5.20105E+00  2.29914E+00  6.75693E+00  1.11956E+00 -2.38274E-01 -5.35309E-01 -1.11696E-01  6.66256E-02  2.96069E+00 -7.02991E-01
  -4.35009E+00 -6.39256E+00  6.85436E-01 -1.27505E+00 -2.52570E-01 -4.01381E+00  9.45340E-01 -1.29536E-02 -2.15030E+00 -9.48573E-01
   1.27668E+00  4.06620E+00 -9.68418E-01  2.38732E+00 -4.45937E+00 -7.82658E-01  3.32273E+00  8.80764E+00 -1.89595E-01  1.31654E+00
  -9.09201E-01  4.30164E+00 -1.06302E+00  3.47754E+00  1.57365E+00  4.33665E+00 -9.01501E-01  1.45185E+00 -3.20918E-01 -2.25060E-01
  -6.69559E-01  5.76630E+00  2.45179E+00  4.06212E+00 -2.74612E+00  1.45512E+00  6.76648E+00 -3.12336E+00  2.71963E+00 -2.89941E-01
   4.91127E+00  5.08434E+00  4.25967E+00 -4.44930E-01  1.11363E-02 -1.11313E+00  2.95976E+00  5.83781E+00  4.93278E+00  1.40013E+00
   1.56242E+00  1.84337E+00  1.04431E+00  2.73984E+00  3.62646E-01 -8.11990E-01  9.65459E-01  1.12566E+00  4.86720E+00 -3.69426E+00
   1.25667E+01  2.86952E+00  6.86149E+00  1.43282E+01  1.69097E+00  6.75604E+00  5.48868E+00  8.61883E+00  3.45029E+00  4.65480E+00
   3.67276E+00  2.55543E+00  6.61561E+00 -6.35438E+00  8.11451E+00  4.40285E+00  9.77678E+00  7.45302E+00  6.83604E+00  2.37831E+00
   5.00081E+00  3.21224E+00  6.22021E+00  7.11369E+00  2.78533E+00  2.53728E+00  6.96679E+00  7.43491E+00 -2.50357E-01  3.63625E+00
   5.30719E-03  3.75879E+00  6.15922E+00  4.09383E+00  6.78510E+00  4.72112E+00  9.63030E+00  2.91571E+00  8.02297E+00  2.50373E+00
   1.25606E-01  5.81443E+00  5.65441E+00  7.30680E+00  5.58591E+00  2.69138E+00  6.27599E+00  8.49644E+00
 NY points of the fit to the data follow
   8.47215E-02  3.63742E-01  1.47872E+00  1.66339E+00  2.83815E+00  2.86046E+00  3.81554E+00  3.13946E+00  3.91145E+00  3.33388E+00
   3.78474E+00  4.41130E+00  5.21355E+00  7.12233E+00  7.25525E+00  8.61840E+00  7.32311E+00  8.27907E+00  5.71903E+00  7.55025E+00
   5.03471E+00  7.75492E+00  5.44002E+00  8.13774E+00  5.00695E+00  7.41389E+00  3.80915E+00  6.57173E+00  3.30770E+00  6.56264E+00
   3.51509E+00  6.54976E+00  3.28509E+00  5.81360E+00  2.19709E+00  4.72314E+00  1.41603E+00  4.08124E+00  1.02706E+00  3.39226E+00
  -2.25132E-02  2.07479E+00 -1.76607E+00  6.54850E-01 -2.72865E+00  3.63735E-01 -2.09798E+00  6.42095E-01 -2.19763E+00 -4.17516E-02
  -3.58747E+00 -2.14916E+00 -4.64941E+00 -2.36805E+00 -2.78261E+00 -9.98058E-01 -9.07222E-01 -1.22052E-01 -6.21183E-01 -1.06973E+00
  -1.25218E+00 -1.81794E+00 -1.24020E+00 -1.30058E+00 -4.66886E-01 -5.25866E-01  2.99968E-01  1.97108E-01  1.01935E+00  9.43399E-01
   1.76807E+00  1.52535E+00  2.15965E+00  1.80417E+00  2.32577E+00  1.91034E+00  2.33891E+00  1.86436E+00  2.22035E+00  1.71344E+00
   1.94481E+00  1.49972E+00  1.69110E+00  1.34509E+00  1.62137E+00  1.42814E+00  1.53263E+00  1.46416E+00  1.36354E+00  1.46533E+00
   1.21633E+00  1.55058E+00  1.13338E+00  1.70396E+00  1.12116E+00  1.90476E+00  1.08414E+00  2.01304E+00  1.01400E+00  2.06497E+00
   9.27731E-01  2.04640E+00  7.75553E-01  1.86692E+00  5.07789E-01  1.49390E+00  1.23537E-01  9.80341E-01 -1.30941E-01  9.28095E-01
  -1.41114E-01  9.40125E-01 -1.35347E-01  9.10629E-01 -9.37476E-02  1.05516E+00  1.56200E-01  1.54412E+00  7.03528E-01  2.32289E+00
   1.45151E+00  3.10462E+00  2.18296E+00  3.81157E+00  2.93013E+00  4.80136E+00  3.93489E+00  5.74988E+00  4.88431E+00  6.50552E+00
   5.65507E+00  6.99489E+00  6.18444E+00  7.22398E+00  6.47366E+00  7.15121E+00  6.45169E+00  6.69193E+00  6.01585E+00  5.87364E+00
   5.22011E+00  4.86091E+00  4.25296E+00  3.76272E+00  3.19771E+00  2.56402E+00  1.98501E+00  1.15595E+00  4.91240E-01 -6.36910E-02
  -5.66557E-01 -1.02646E+00 -1.45496E+00 -1.85781E+00 -2.23231E+00 -2.58597E+00 -2.91062E+00 -3.21960E+00 -3.49368E+00 -3.75288E+00
  -3.97718E+00 -4.19319E+00 -4.37174E+00 -4.54295E+00 -4.68000E+00 -4.81211E+00 -4.90701E+00 -4.98906E+00 -5.03120E+00 -5.06122E+00
  -5.02982E+00 -4.98413E+00 -4.86732E+00 -4.70969E+00 -4.42783E+00 -3.97611E+00 -3.33495E+00 -2.69984E+00 -1.52877E+00 -1.04614E+00
   2.35293E-01  3.06806E-01  1.28697E+00  3.16197E-01  9.31662E-01 -6.01373E-01  4.55990E-02 -2.14279E+00 -1.07447E+00 -3.27328E+00
  -9.70736E-01 -2.11149E+00  2.17955E+00  3.30408E-01  4.52409E+00  2.04314E+00  5.86022E+00  2.69953E+00  5.73896E+00  9.63274E-01
   4.43446E+00 -7.12150E-01  2.95585E+00 -2.11252E+00  1.71540E+00 -2.08355E+00  2.19515E+00 -1.62928E+00  2.10415E+00 -1.23664E+00
   1.66237E+00 -2.76757E-01  1.67055E+00  8.47101E-01  1.64187E+00  1.62688E+00  1.05598E+00  2.07474E+00  1.04432E+00  3.03511E+00
   6.82134E-01  3.00484E+00 -6.00324E-01  1.11160E+00 -3.25043E+00 -3.83675E-01 -4.17166E+00 -6.26991E-01 -4.72763E+00 -1.45932E+00
  -5.48767E+00 -2.20793E+00 -4.19026E+00 -6.53254E-02 -2.07186E+00  2.35648E+00  5.47617E-01  4.54471E+00  2.42340E+00  4.01319E+00
   7.48462E-01  2.30553E+00 -9.16500E-01  4.52028E-01 -2.64630E+00 -5.78457E-01 -1.92817E+00  8.51962E-02 -1.20957E+00  6.74001E-01
  -5.72444E-02  1.57919E+00  1.34211E+00  2.16020E+00  1.85208E+00  1.97362E+00  1.28622E+00  6.48982E-01  1.01660E+00  1.28733E+00
   2.22072E+00  2.59420E+00  3.39467E+00  2.73148E+00  2.35950E+00  1.46270E+00  1.43057E+00  9.24753E-01  1.14622E+00  9.55162E-01
   1.32425E+00  1.46944E+00  1.84919E+00  2.18775E+00  2.66028E+00  3.47840E+00  4.17401E+00  4.97460E+00  5.50772E+00  6.23540E+00
   6.42912E+00  7.12610E+00  7.84575E+00  8.81756E+00  9.84181E+00  1.08285E+01  1.21182E+01  1.31487E+01  1.43316E+01  1.55950E+01
   1.69253E+01  1.83208E+01  1.97577E+01  2.12849E+01  2.28204E+01  2.45218E+01  2.63563E+01  2.82877E+01  3.02679E+01  3.22847E+01
   3.43055E+01  3.63099E+01  3.82639E+01  4.01140E+01  4.19199E+01  4.36135E+01  4.52450E+01  4.67850E+01  4.83114E+01  4.95862E+01
   5.03989E+01  5.14071E+01  5.15649E+01  5.24060E+01  5.19937E+01  5.26707E+01  5.16659E+01  5.27087E+01  5.10211E+01  5.21851E+01
   4.97110E+01  5.08070E+01  4.76567E+01  4.87255E+01  4.49831E+01  4.59771E+01  4.17051E+01  4.24755E+01  3.78708E+01  3.82626E+01
   3.35762E+01  3.36392E+01  2.91716E+01  2.90184E+01  2.49967E+01  2.45977E+01  2.12064E+01  2.05668E+01  1.79872E+01  1.72343E+01
   1.55024E+01  1.47927E+01  1.37736E+01  1.30601E+01  1.25462E+01  1.17105E+01  1.15126E+01  1.06439E+01  1.07909E+01  1.03522E+01
   1.04291E+01  9.99270E+00  1.00229E+01  9.58452E+00  9.49055E+00  8.93762E+00  8.47707E+00  8.14950E+00  7.89388E+00  7.68999E+00
   7.51501E+00  7.36571E+00  7.22740E+00  7.10144E+00  6.97583E+00  6.85379E+00  6.72456E+00  6.59241E+00  6.44738E+00  6.29443E+00
   6.12426E+00  5.94239E+00  5.74019E+00  5.52380E+00  5.28526E+00  5.03126E+00  4.75455E+00  4.46233E+00  4.14808E+00  3.81950E+00
   3.47073E+00  3.10984E+00  2.73162E+00  2.34445E+00  1.94376E+00  1.53819E+00  1.12372E+00  7.09169E-01  2.91107E-01 -1.21468E-01
  -5.31414E-01 -9.29628E-01 -1.31843E+00 -1.68866E+00 -2.04214E+00 -2.36975E+00 -2.67290E+00 -2.94274E+00 -3.18048E+00 -3.37774E+00
  -3.53577E+00 -3.64698E+00 -3.71296E+00 -3.72730E+00 -3.69227E+00 -3.60293E+00 -3.46249E+00 -3.26776E+00 -3.02312E+00 -2.72725E+00
  -2.38574E+00 -1.99911E+00 -1.57399E+00 -1.11254E+00 -6.22173E-01 -1.06334E-01  4.27261E-01  9.74392E-01  1.52751E+00  2.08210E+00
   2.63129E+00  3.17075E+00  3.69472E+00  4.19943E+00  4.68052E+00  5.13493E+00  5.55988E+00  5.95316E+00  6.31350E+00  6.63951E+00
   6.93128E+00  7.18804E+00  7.41112E+00  7.60013E+00  7.75738E+00  7.88264E+00  7.97894E+00  8.04604E+00  8.08749E+00  8.10283E+00
   8.09599E+00  8.06617E+00  8.01752E+00  7.94884E+00  7.86446E+00  7.76270E+00  7.64801E+00  7.51826E+00  7.37796E+00  7.22458E+00
   7.06270E+00  6.88938E+00  6.70926E+00  6.51902E+00  6.32342E+00  6.11879E+00  5.90999E+00  5.69302E+00  5.47284E+00  5.24520E+00
   5.01518E+00  4.77830E+00  4.53972E+00  4.29475E+00  4.04869E+00  3.79665E+00  3.54405E+00  3.28586E+00  3.02758E+00  2.76404E+00
   2.50086E+00  2.23279E+00  1.96552E+00  1.69371E+00  1.42316E+00  1.14843E+00  8.75423E-01  5.98690E-01  3.24179E-01  4.64355E-02
  -2.28560E-01 -5.06217E-01 -7.80493E-01 -1.05673E+00 -1.32887E+00 -1.60215E+00 -1.87047E+00 -2.13891E+00 -2.40131E+00 -2.66254E+00
  -2.91638E+00 -3.16741E+00 -3.40924E+00 -3.64605E+00 -3.87113E+00 -4.08805E+00 -4.28958E+00 -4.47824E+00
 NY background values follow
    -5.093E+00   -4.968E+00   -4.842E+00   -4.713E+00   -4.583E+00   -4.450E+00   -4.317E+00   -4.181E+00   -4.045E+00   -3.908E+00
    -3.769E+00   -3.630E+00   -3.490E+00   -3.350E+00   -3.209E+00   -3.068E+00   -2.927E+00   -2.786E+00   -2.645E+00   -2.505E+00
    -2.365E+00   -2.226E+00   -2.087E+00   -1.949E+00   -1.813E+00   -1.677E+00   -1.543E+00   -1.410E+00   -1.279E+00   -1.149E+00
    -1.021E+00   -8.949E-01   -7.707E-01   -6.485E-01   -5.284E-01   -4.105E-01   -2.950E-01   -1.819E-01   -7.122E-02    3.683E-02
     1.422E-01    2.449E-01    3.448E-01    4.418E-01    5.359E-01    6.270E-01    7.151E-01    8.000E-01    8.819E-01    9.606E-01
     1.036E+00    1.108E+00    1.177E+00    1.243E+00    1.305E+00    1.364E+00    1.420E+00    1.472E+00    1.521E+00    1.567E+00
     1.609E+00    1.648E+00    1.683E+00    1.715E+00    1.744E+00    1.770E+00    1.792E+00    1.811E+00    1.827E+00    1.840E+00
     1.849E+00    1.856E+00    1.859E+00    1.860E+00    1.858E+00    1.852E+00    1.844E+00    1.834E+00    1.820E+00    1.804E+00
     1.786E+00    1.765E+00    1.741E+00    1.716E+00    1.688E+00    1.658E+00    1.626E+00    1.592E+00    1.556E+00    1.519E+00
     1.480E+00    1.439E+00    1.397E+00    1.353E+00    1.308E+00    1.262E+00    1.215E+00    1.167E+00    1.118E+00    1.069E+00
     1.018E+00    9.674E-01    9.161E-01    8.645E-01    8.127E-01    7.607E-01    7.088E-01    6.569E-01    6.052E-01    5.539E-01
     5.029E-01    4.525E-01    4.026E-01    3.535E-01    3.052E-01    2.578E-01    2.114E-01    1.661E-01    1.220E-01    7.917E-02
     3.771E-02   -2.285E-03   -4.074E-02   -7.757E-02   -1.127E-01   -1.460E-01   -1.775E-01   -2.070E-01   -2.346E-01   -2.600E-01
    -2.834E-01   -3.045E-01   -3.234E-01   -3.399E-01   -3.541E-01   -3.659E-01   -3.752E-01   -3.820E-01   -3.863E-01   -3.880E-01
    -3.871E-01   -3.835E-01   -3.773E-01   -3.684E-01   -3.568E-01   -3.425E-01   -3.254E-01   -3.056E-01   -2.831E-01   -2.578E-01
    -2.298E-01   -1.991E-01   -1.657E-01   -1.295E-01   -9.073E-02   -4.928E-02   -5.193E-03    4.149E-02    9.072E-02    1.425E-01
     1.967E-01    2.534E-01    3.125E-01    3.738E-01    4.375E-01    5.034E-01    5.714E-01    6.415E-01    7.137E-01    7.878E-01
     8.637E-01    9.415E-01    1.021E+00    1.102E+00    1.185E+00    1.269E+00    1.354E+00    1.441E+00    1.528E+00    1.617E+00
     1.707E+00    1.798E+00    1.889E+00    1.981E+00    2.074E+00    2.167E+00    2.260E+00    2.354E+00    2.447E+00    2.541E+00
     2.634E+00    2.727E+00    2.820E+00    2.912E+00    3.003E+00    3.094E+00    3.184E+00    3.272E+00    3.360E+00    3.446E+00
     3.531E+00    3.614E+00    3.696E+00    3.776E+00    3.854E+00    3.930E+00    4.004E+00    4.076E+00    4.145E+00    4.212E+00
     4.276E+00    4.337E+00    4.396E+00    4.452E+00    4.504E+00    4.554E+00    4.600E+00    4.643E+00    4.682E+00    4.718E+00
     4.750E+00    4.778E+00    4.803E+00    4.824E+00    4.840E+00    4.853E+00    4.861E+00    4.866E+00    4.866E+00    4.861E+00
     4.852E+00    4.839E+00    4.821E+00    4.798E+00    4.771E+00    4.740E+00    4.703E+00    4.662E+00    4.616E+00    4.565E+00
     4.509E+00    4.449E+00    4.383E+00    4.313E+00    4.238E+00    4.158E+00    4.073E+00    3.984E+00    3.889E+00    3.790E+00
     3.686E+00    3.578E+00    3.464E+00    3.346E+00    3.224E+00    3.096E+00    2.965E+00    2.828E+00    2.688E+00    2.543E+00
     2.394E+00    2.241E+00    2.083E+00    1.922E+00    1.757E+00    1.588E+00    1.415E+00    1.239E+00    1.059E+00    8.762E-01
     6.899E-01    5.005E-01    3.081E-01    1.129E-01   -8.512E-02   -2.857E-01   -4.887E-01   -6.939E-01   -9.013E-01   -1.111E+00
    -1.322E+00   -1.535E+00   -1.749E+00   -1.965E+00   -2.182E+00   -2.400E+00   -2.618E+00   -2.838E+00   -3.058E+00   -3.278E+00
    -3.498E+00   -3.718E+00   -3.938E+00   -4.157E+00   -4.376E+00   -4.594E+00   -4.811E+00   -5.026E+00   -5.241E+00   -5.453E+00
    -5.664E+00   -5.873E+00   -6.080E+00   -6.284E+00   -6.486E+00   -6.685E+00   -6.881E+00   -7.073E+00   -7.263E+00   -7.449E+00
    -7.631E+00   -7.809E+00   -7.983E+00   -8.153E+00   -8.319E+00   -8.479E+00   -8.635E+00   -8.786E+00   -8.932E+00   -9.073E+00
    -9.208E+00   -9.337E+00   -9.460E+00   -9.578E+00   -9.689E+00   -9.794E+00   -9.892E+00   -9.984E+00   -1.007E+01   -1.015E+01
    -1.022E+01   -1.028E+01   -1.034E+01   -1.039E+01   -1.043E+01   -1.047E+01   -1.049E+01   -1.051E+01   -1.053E+01   -1.053E+01
    -1.053E+01   -1.051E+01   -1.049E+01   -1.046E+01   -1.043E+01   -1.038E+01   -1.033E+01   -1.027E+01   -1.020E+01   -1.012E+01
    -1.003E+01   -9.935E+00   -9.831E+00   -9.719E+00   -9.599E+00   -9.470E+00   -9.332E+00   -9.187E+00   -9.033E+00   -8.871E+00
    -8.701E+00   -8.522E+00   -8.336E+00   -8.142E+00   -7.940E+00   -7.730E+00   -7.512E+00   -7.287E+00   -7.055E+00   -6.815E+00
    -6.568E+00   -6.314E+00   -6.053E+00   -5.785E+00   -5.511E+00   -5.230E+00   -4.942E+00   -4.649E+00   -4.350E+00   -4.045E+00
    -3.734E+00   -3.418E+00   -3.097E+00   -2.771E+00   -2.440E+00   -2.105E+00   -1.765E+00   -1.422E+00   -1.074E+00   -7.227E-01
    -3.682E-01   -1.052E-02    3.500E-01    7.131E-01    1.079E+00    1.446E+00    1.816E+00    2.186E+00    2.559E+00    2.932E+00
     3.306E+00    3.680E+00    4.054E+00    4.429E+00    4.802E+00    5.175E+00    5.548E+00    5.918E+00    6.288E+00    6.655E+00
     7.020E+00    7.382E+00    7.742E+00    8.099E+00    8.452E+00    8.802E+00    9.148E+00    9.489E+00    9.826E+00    1.016E+01
     1.048E+01    1.081E+01    1.112E+01    1.143E+01    1.174E+01    1.203E+01    1.232E+01    1.261E+01    1.288E+01    1.315E+01
     1.341E+01    1.366E+01    1.391E+01    1.414E+01    1.437E+01    1.458E+01    1.479E+01    1.499E+01    1.518E+01    1.536E+01
     1.553E+01    1.569E+01    1.583E+01    1.597E+01    1.610E+01    1.621E+01    1.632E+01    1.641E+01    1.649E+01    1.656E+01
     1.662E+01    1.666E+01    1.670E+01    1.672E+01    1.673E+01    1.673E+01    1.671E+01    1.668E+01    1.664E+01    1.659E+01
     1.652E+01    1.645E+01    1.636E+01    1.625E+01    1.614E+01    1.601E+01    1.587E+01    1.572E+01    1.555E+01    1.537E+01
     1.518E+01    1.498E+01    1.476E+01    1.453E+01    1.429E+01    1.404E+01    1.378E+01    1.350E+01    1.322E+01    1.292E+01
     1.261E+01    1.229E+01    1.195E+01    1.161E+01    1.126E+01    1.090E+01    1.052E+01    1.014E+01    9.744E+00    9.341E+00
     8.929E+00    8.507E+00    8.077E+00    7.639E+00    7.193E+00    6.738E+00    6.276E+00    5.807E+00
 Ala      Conc. = 1.96E+03
