 LCModel (Version 6.3-1L) Copyright: S.W. Provencher.          Ref.: Magn. Reson. Med. 30:672-679 (1993).                
 Slice#1 Row#2 Col#4  PD_24_press_2_raw_act
 36 lines in following concentration table = NCONC+1
    Conc.  %SD /Cr+PCr  Metabolite                                         
    1.942 999% 4.7E-03 Ala                                                 
   73.558 114%   0.176 Asp                                                 
    0.000 999%   0.000 Cr                                                  
  416.815  23%   1.000 PCr                                                 
   37.370 135% 9.0E-02 GABA                                                
   53.351  95%   0.128 Glc                                                 
  278.466 153%   0.668 Gln                                                 
 1.40E+03  35%   3.365 Glu                                                 
  163.717  22%   0.393 GPC                                                 
    0.000 999%   0.000 PCh                                                 
   59.319 222%   0.142 GSH                                                 
  861.955  47%   2.068 Ins                                                 
    0.000 999%   0.000 Lac                                                 
  537.888  26%   1.290 NAA                                                 
  111.153 139%   0.267 NAAG                                                
   20.118  81% 4.8E-02 Scyllo                                              
   61.619 135%   0.148 Tau                                                 
    0.000 999%   0.000 -CrCH2                                              
  163.717  22%   0.393 GPC+PCh                                             
  649.042  20%   1.557 NAA+NAAG                                            
  416.815  23%   1.000 Cr+PCr                                              
 1.68E+03  41%   4.033 Glu+Gln                                             
    0.000 999%   0.000 Lip13a                                              
  393.622  85%   0.944 Lip13b                                              
  105.715 210%   0.254 Lip09                                               
 1.67E+03  22%   3.998 MM09                                                
   60.618 211%   0.145 Lip20                                               
 1.63E+03  37%   3.913 MM20                                                
  494.619  52%   1.187 MM12                                                
 2.52E+03  24%   6.046 MM14                                                
 2.10E+03  21%   5.026 MM17                                                
  393.622 196%   0.944 Lip13a+Lip13b                                       
 3.41E+03  18%   8.177 MM14+Lip13a+Lip13b+MM12                             
 1.77E+03  16%   4.252 MM09+Lip09                                          
 1.69E+03  34%   4.058 MM20+Lip20                                          
   6 lines in following misc. output table
  FWHM = 0.054 ppm    S/N =   2                                            
  Data shift = 0.000 ppm                                                   
  Ph:  -6 deg      26.1 deg/ppm                                            
  alphaB,S = 8.5E+01,   5.1E+01                                            
   14 spline knots.   Ns = 6(1)                                            
   2 inflections.     1 extrema                                            
  498 points on ppm-axis = NY
      4.000000     3.992357     3.984714     3.977070     3.969427     3.961784     3.954141     3.946497     3.938854     3.931211
      3.923568     3.915925     3.908281     3.900638     3.892995     3.885352     3.877708     3.870065     3.862422     3.854779
      3.847136     3.839492     3.831849     3.824206     3.816563     3.808919     3.801276     3.793633     3.785990     3.778347
      3.770703     3.763060     3.755417     3.747774     3.740130     3.732487     3.724844     3.717201     3.709558     3.701914
      3.694271     3.686628     3.678985     3.671341     3.663698     3.656055     3.648412     3.640769     3.633125     3.625482
      3.617839     3.610196     3.602552     3.594909     3.587266     3.579623     3.571980     3.564336     3.556693     3.549050
      3.541407     3.533763     3.526120     3.518477     3.510834     3.503191     3.495547     3.487904     3.480261     3.472618
      3.464974     3.457331     3.449688     3.442045     3.434402     3.426758     3.419115     3.411472     3.403829     3.396185
      3.388542     3.380899     3.373256     3.365613     3.357969     3.350326     3.342683     3.335040     3.327396     3.319753
      3.312110     3.304467     3.296824     3.289180     3.281537     3.273894     3.266251     3.258607     3.250964     3.243321
      3.235678     3.228034     3.220391     3.212748     3.205105     3.197462     3.189818     3.182175     3.174532     3.166889
      3.159245     3.151602     3.143959     3.136316     3.128673     3.121029     3.113386     3.105743     3.098100     3.090456
      3.082813     3.075170     3.067527     3.059884     3.052240     3.044597     3.036954     3.029311     3.021667     3.014024
      3.006381     2.998738     2.991095     2.983451     2.975808     2.968165     2.960522     2.952878     2.945235     2.937592
      2.929949     2.922306     2.914662     2.907019     2.899376     2.891733     2.884089     2.876446     2.868803     2.861160
      2.853517     2.845873     2.838230     2.830587     2.822944     2.815300     2.807657     2.800014     2.792371     2.784728
      2.777084     2.769441     2.761798     2.754155     2.746511     2.738868     2.731225     2.723582     2.715939     2.708295
      2.700652     2.693009     2.685366     2.677722     2.670079     2.662436     2.654793     2.647150     2.639506     2.631863
      2.624220     2.616577     2.608933     2.601290     2.593647     2.586004     2.578361     2.570717     2.563074     2.555431
      2.547788     2.540144     2.532501     2.524858     2.517215     2.509572     2.501928     2.494285     2.486642     2.478999
      2.471355     2.463712     2.456069     2.448426     2.440783     2.433139     2.425496     2.417853     2.410210     2.402566
      2.394923     2.387280     2.379637     2.371994     2.364350     2.356707     2.349064     2.341421     2.333777     2.326134
      2.318491     2.310848     2.303205     2.295561     2.287918     2.280275     2.272632     2.264988     2.257345     2.249702
      2.242059     2.234416     2.226772     2.219129     2.211486     2.203843     2.196199     2.188556     2.180913     2.173270
      2.165627     2.157983     2.150340     2.142697     2.135054     2.127410     2.119767     2.112124     2.104481     2.096838
      2.089194     2.081551     2.073908     2.066265     2.058621     2.050978     2.043335     2.035692     2.028049     2.020405
      2.012762     2.005119     1.997476     1.989833     1.982190     1.974546     1.966903     1.959260     1.951617     1.943974
      1.936331     1.928688     1.921045     1.913402     1.905759     1.898115     1.890472     1.882829     1.875186     1.867543
      1.859900     1.852257     1.844614     1.836971     1.829327     1.821684     1.814041     1.806398     1.798755     1.791112
      1.783469     1.775826     1.768183     1.760540     1.752896     1.745253     1.737610     1.729967     1.722324     1.714681
      1.707038     1.699395     1.691752     1.684108     1.676465     1.668822     1.661179     1.653536     1.645893     1.638250
      1.630607     1.622964     1.615321     1.607677     1.600034     1.592391     1.584748     1.577105     1.569462     1.561819
      1.554176     1.546533     1.538890     1.531246     1.523603     1.515960     1.508317     1.500674     1.493031     1.485388
      1.477745     1.470102     1.462458     1.454815     1.447172     1.439529     1.431886     1.424243     1.416600     1.408957
      1.401314     1.393671     1.386027     1.378384     1.370741     1.363098     1.355455     1.347812     1.340169     1.332526
      1.324883     1.317240     1.309596     1.301953     1.294310     1.286667     1.279024     1.271381     1.263738     1.256095
      1.248452     1.240808     1.233165     1.225522     1.217879     1.210236     1.202593     1.194950     1.187307     1.179664
      1.172021     1.164377     1.156734     1.149091     1.141448     1.133805     1.126162     1.118519     1.110876     1.103233
      1.095590     1.087946     1.080303     1.072660     1.065017     1.057374     1.049731     1.042088     1.034445     1.026802
      1.019158     1.011515     1.003872     0.996229     0.988586     0.980943     0.973300     0.965657     0.958014     0.950371
      0.942727     0.935084     0.927441     0.919798     0.912155     0.904512     0.896869     0.889226     0.881583     0.873940
      0.866296     0.858653     0.851010     0.843367     0.835724     0.828081     0.820438     0.812795     0.805152     0.797508
      0.789865     0.782222     0.774579     0.766936     0.759293     0.751650     0.744007     0.736364     0.728721     0.721077
      0.713434     0.705791     0.698148     0.690505     0.682862     0.675219     0.667576     0.659933     0.652290     0.644646
      0.637003     0.629360     0.621717     0.614074     0.606431     0.598788     0.591145     0.583502     0.575858     0.568215
      0.560572     0.552929     0.545286     0.537643     0.530000     0.522357     0.514714     0.507071     0.499427     0.491784
      0.484141     0.476498     0.468855     0.461212     0.453569     0.445925     0.438282     0.430639     0.422996     0.415353
      0.407710     0.400067     0.392424     0.384780     0.377137     0.369494     0.361851     0.354208     0.346565     0.338922
      0.331278     0.323635     0.315992     0.308349     0.300706     0.293063     0.285420     0.277777     0.270133     0.262490
      0.254847     0.247204     0.239561     0.231918     0.224275     0.216631     0.208988     0.201345
 NY phased data points follow
   4.19734E+00  3.05068E+01  3.02134E+01  4.54358E+01  2.61757E+01  1.98117E+01  1.02344E+01  1.29939E+01  1.07880E+01  2.35845E+01
   4.90660E+01  3.71214E+01  8.97704E+00  1.94804E+01  1.78952E+01  2.40453E+01  1.24751E+01  1.36027E+01  2.32644E+01  2.15935E+01
   1.15698E+01  2.05866E+01  1.72634E+01  2.20273E+01  2.50575E+01  3.12149E+01  1.98783E+01  1.52154E+01  1.95934E+00  1.47465E+01
   5.26667E+00  1.85067E+01  2.24663E+01  2.87009E+01  1.98328E+01  2.34988E+01  1.53473E+01  2.15836E+01  1.08241E+01  3.07036E+01
   1.79106E+01  2.36170E+01  1.13322E+01  1.70514E+01  8.54594E+00  2.32813E+01  1.92254E+01  1.25036E+01  2.37573E+01  1.40653E+01
   1.77701E+01  1.42099E+01  8.56145E+00  1.35679E+01  5.02540E+00  1.61492E+01  1.66981E+01  2.22989E+01  2.60306E+01  1.42405E+01
   2.38518E+01  8.73674E+00  1.49297E+01  1.64173E+01  4.70703E+00  1.17006E+01  1.37334E+01  2.08476E+01  6.40628E+00  5.70479E+00
   1.37404E+01  6.32771E+00 -2.75122E+00  2.03697E+01  1.19430E+01  1.30795E+01  8.28548E+00  2.07432E+01  1.59103E+01  1.18807E+01
   1.00425E+01  2.42760E+01  9.67041E+00  2.19637E+01  1.57030E+01  2.18674E+01  1.21584E+01  7.78586E+00  7.38857E+00  1.50599E+01
   3.81346E+00  9.38513E+00  1.22444E+01  1.06977E+01  1.82558E+01  2.53958E+00  1.28807E+01  9.47019E+00  1.01724E+01  1.19216E+01
   1.27717E+01  8.32757E+00  2.84547E+01  2.29152E+01  2.53746E+01  2.16913E+01  2.41112E+01  2.42308E+01  1.68527E+01  1.66047E+01
   1.13681E+01  1.27347E+01 -1.08466E+00  1.73862E-01  2.72231E+00  1.61474E+01  6.51118E+00  1.42233E+01 -2.27622E+00  1.12973E+01
   6.94984E+00  1.18527E+01  1.21057E+01  6.89655E+00  9.41425E+00  1.97736E+01  1.95939E+01  2.01742E+01  2.41388E+01  2.36653E+01
   1.65160E+01  3.03066E+01  1.12306E+01  1.11017E+01  4.67014E+00  1.59155E+01  3.74255E-01  1.41499E+01 -6.71323E+00  1.12861E+00
  -2.55034E+00  1.06422E+01 -1.45766E+00  8.09184E+00  1.95111E+00  9.60104E+00  2.01754E+01 -3.52957E+00 -4.67662E-01  7.19682E+00
   4.18020E+00  1.39293E+01  1.73868E+01  1.39767E+01  1.71627E+01  7.29272E+00  1.17018E+01  3.52289E+00  1.12183E+01  3.93059E+00
   1.57942E+00  1.00534E+01  3.93062E+00  1.05830E+01  2.71791E+00  1.03990E+01  6.44819E+00  5.85003E+00  1.61632E+01 -1.89853E+00
  -5.48259E+00  1.73121E+00  8.37856E+00 -3.34893E+00  1.46573E+01  3.42742E+00  6.93951E+00 -7.79747E+00  6.41089E-01  3.22689E+00
   4.86247E+00 -4.20353E+00 -1.62238E+00  6.96275E+00 -6.08194E-01  1.15573E+01  3.72765E+00  9.95846E+00  1.04296E+01  4.57522E-01
  -2.93710E+00  6.95803E+00  1.25049E+01  1.34240E+00  6.43827E+00 -9.27014E-01  3.59883E+00  1.17131E+01  6.39428E+00  3.34618E+00
   2.95017E+00  1.42382E+00  1.67904E+01  6.87740E+00 -5.03786E-01  6.43877E+00  6.25603E+00  8.55874E+00 -2.88898E-01 -3.54986E+00
   1.35734E+01  3.12885E+01  1.10443E+01  5.09920E+00  8.94672E+00  8.31173E+00  1.47580E+01  6.74228E+00  2.50211E+01  3.34688E+00
   1.86723E+01  3.58260E+00 -2.43313E+00 -2.34592E+00  2.78769E+00  1.03562E+01  7.39648E+00  1.15223E+01  8.89682E+00  2.19184E+01
   1.54711E+01  1.59948E+01  1.99254E+01  4.14873E-02  1.85440E+01  8.31942E+00  1.00633E+01 -3.69031E+00 -7.53949E+00  1.16682E+00
   3.88441E+00  4.28802E+00  1.16996E+01  8.06523E+00  9.65719E+00  5.61798E+00  9.90937E+00  7.31989E+00  8.15015E+00  2.17606E+00
  -3.57524E+00  1.17362E+01  8.35007E+00  5.90539E+00  5.53142E+00  1.38559E+01  1.41939E+01  1.67491E+01  2.89451E+01  2.02927E+01
   3.31597E+01  3.51560E+01  2.32519E+01  1.97910E+01  1.86415E+01  1.65362E+01  2.89256E+00  1.11028E+01  1.26542E+01  1.48455E+01
   3.86053E+00  5.80820E+00  1.85814E+00  1.23000E+01  6.52817E+00  1.43250E+01 -2.06589E+00  1.32266E+01  5.82677E+00 -3.19089E+00
   1.20279E+01  2.09865E-01 -1.99088E+00 -5.21168E+00  9.02355E+00  7.36776E+00  4.71735E+00  5.50301E+00  6.30744E+00  2.32462E+00
   2.97575E+00  6.19668E+00 -6.09355E+00  4.88768E+00 -3.15151E+00  4.22932E+00  1.14574E+01  1.48049E+01  6.20071E+00  1.05749E+01
   1.01045E+01  1.09520E+01  1.24506E+01  1.00537E+01  5.53231E+00  1.22360E+01  6.60506E+00  1.39223E+01  1.64687E+01  2.23124E+01
   2.49718E+01  1.65187E+01  1.57767E+01  1.32696E+01  2.50131E+01  1.78798E+01  2.38424E+01  2.68476E+01  1.87925E+01  1.41226E+01
   1.29087E+01 -3.08131E-01  2.20487E+01  1.31280E+01  2.27281E+01  1.58614E+01  1.00092E+01  9.82308E+00  1.52576E+01  1.48038E+01
   1.59086E+01  1.94502E+01  1.04877E+01  8.64064E+00  1.44254E+01  1.65392E+01  1.03359E+01  1.12777E+01  1.05772E+01  1.14819E+01
   1.46843E+00  6.51742E+00  7.05885E+00  1.20492E+01  3.96768E+00  4.28722E+00  7.61206E+00  1.37329E+01  4.39662E+00  1.53549E+01
   8.90668E+00  1.39690E+01  1.00427E+01  6.48961E+00  9.28451E+00  1.17489E+01  1.17574E+01  1.11703E+01  5.32508E+00  6.32332E+00
  -4.76834E+00  2.50523E+00  2.33007E+00  2.17609E+00  6.59705E+00  6.41931E-01  2.16344E+00 -2.41711E+00  7.34799E+00  6.80556E+00
   2.64655E+00 -7.30324E+00  4.09464E+00  2.19242E+00 -1.10185E+01  2.59034E-01  4.43905E-01  3.52855E+00  2.04406E+00  6.98582E+00
   9.90376E+00  2.23681E+00  1.70019E+00 -6.93691E+00  3.90062E+00  4.49961E+00 -3.14120E-01  5.47647E+00  2.95917E+00 -1.26109E+01
   1.27441E+01  9.18996E+00 -2.85443E+00  7.70745E+00  5.83883E+00  1.94072E+00 -1.24887E+00  9.89021E+00  3.98161E+00  7.76394E-01
   1.73804E+01  9.05805E+00  7.24524E+00  9.38478E+00  1.59998E+01  1.91452E+01  7.44845E+00  4.23278E-01  1.07576E+01  6.11085E+00
   1.21951E+01 -2.16743E+00 -1.20262E+01 -3.83943E+00  3.03625E+00 -5.70350E-01  3.24922E+00  6.69346E+00  7.19465E+00  7.21875E+00
   2.01988E+01 -2.23728E+00 -1.80308E+00 -1.05264E+00  6.38717E+00 -3.63803E+00  1.37501E+01 -4.17428E+00 -7.63071E+00  6.26908E-01
  -3.17615E+00 -4.71289E+00  5.47427E-01 -1.26602E-01 -4.77658E-02  7.41332E+00  8.21893E+00 -4.94041E+00  4.22095E+00  2.28005E-01
  -4.87718E+00 -4.04421E+00  1.22728E+00 -4.23811E+00 -3.70072E+00 -1.60677E+00 -7.82764E+00 -8.43656E+00 -1.20856E+00 -1.22669E+01
   3.24189E+00 -5.96508E+00 -1.60055E+01 -7.42068E+00 -4.17751E-01  9.52569E-01 -9.85028E+00 -9.99356E+00 -1.34637E+01 -3.35772E+00
   3.63448E+00 -1.55504E+01 -1.04556E+01 -1.17294E+01 -5.71733E+00 -1.36604E+01 -1.53786E+01 -1.25119E+01 -2.41461E+01 -1.81830E+01
  -2.40162E+00  1.62683E+00 -6.71748E+00  2.97576E+00  6.72112E-01 -9.05357E+00 -8.08888E+00 -1.11087E+01 -2.13695E+00  1.33355E+00
  -1.05766E+00 -2.72633E+00 -2.79871E+00 -6.96943E+00 -1.92818E+01 -2.55578E+00 -8.36529E+00 -3.91796E+00 -1.30535E+01  2.97711E+00
  -1.40819E+01 -3.23577E+00 -1.97727E+01 -9.98187E+00 -5.74726E+00 -7.61334E+00 -1.00490E+01 -1.67285E+01
 NY points of the fit to the data follow
   1.74319E+01  1.70710E+01  1.69630E+01  1.73479E+01  1.81739E+01  1.91873E+01  2.04494E+01  2.20214E+01  2.36706E+01  2.49315E+01
   2.53565E+01  2.47790E+01  2.33785E+01  2.14957E+01  1.94522E+01  1.75834E+01  1.62597E+01  1.57366E+01  1.56806E+01  1.57228E+01
   1.58282E+01  1.59269E+01  1.59334E+01  1.59059E+01  1.58796E+01  1.57575E+01  1.55095E+01  1.52304E+01  1.51113E+01  1.53392E+01
   1.60022E+01  1.70261E+01  1.81420E+01  1.90059E+01  1.93232E+01  1.88181E+01  1.75438E+01  1.59803E+01  1.46036E+01  1.37018E+01
   1.35123E+01  1.40746E+01  1.51283E+01  1.62811E+01  1.73673E+01  1.84168E+01  1.93702E+01  2.00401E+01  2.02059E+01  1.96563E+01
   1.84731E+01  1.69199E+01  1.52576E+01  1.37852E+01  1.28348E+01  1.25952E+01  1.29217E+01  1.34778E+01  1.40626E+01  1.45855E+01
   1.49382E+01  1.50225E+01  1.48002E+01  1.43408E+01  1.37582E+01  1.31850E+01  1.27812E+01  1.26518E+01  1.27834E+01  1.30992E+01
   1.34992E+01  1.38496E+01  1.40687E+01  1.41247E+01  1.40321E+01  1.38412E+01  1.35816E+01  1.32776E+01  1.29486E+01  1.26607E+01
   1.24791E+01  1.23334E+01  1.21761E+01  1.20271E+01  1.18856E+01  1.16843E+01  1.13624E+01  1.09247E+01  1.04607E+01  1.00993E+01
   9.94778E+00  1.00155E+01  1.02620E+01  1.06507E+01  1.11065E+01  1.14931E+01  1.18309E+01  1.25126E+01  1.35941E+01  1.48455E+01
   1.65135E+01  1.88644E+01  2.16605E+01  2.41309E+01  2.54091E+01  2.50189E+01  2.31199E+01  2.02343E+01  1.68697E+01  1.35829E+01
   1.10653E+01  9.90461E+00  9.69516E+00  9.68739E+00  9.71512E+00  9.74844E+00  9.78737E+00  9.82761E+00  9.88163E+00  9.98821E+00
   1.02891E+01  1.11305E+01  1.23718E+01  1.38137E+01  1.56681E+01  1.80722E+01  2.06855E+01  2.27766E+01  2.36275E+01  2.29571E+01
   2.10214E+01  1.82923E+01  1.52069E+01  1.22672E+01  1.00799E+01  9.06434E+00  8.69854E+00  8.47494E+00  8.32966E+00  8.26062E+00
   8.25742E+00  8.29440E+00  8.33454E+00  8.34253E+00  8.30669E+00  8.22487E+00  8.10248E+00  7.95832E+00  7.80767E+00  7.65717E+00
   7.51383E+00  7.37543E+00  7.24614E+00  7.13114E+00  7.02618E+00  6.91684E+00  6.81025E+00  6.71060E+00  6.60086E+00  6.47198E+00
   6.31826E+00  6.16709E+00  6.05974E+00  6.01262E+00  6.00917E+00  6.01855E+00  6.01473E+00  5.97453E+00  5.87718E+00  5.71963E+00
   5.53202E+00  5.36107E+00  5.24074E+00  5.15286E+00  5.04757E+00  4.92030E+00  4.81284E+00  4.75709E+00  4.74929E+00  4.75973E+00
   4.76074E+00  4.75116E+00  4.76485E+00  4.80856E+00  4.85540E+00  4.92006E+00  5.04279E+00  5.22294E+00  5.43752E+00  5.65200E+00
   5.84077E+00  5.97596E+00  6.02460E+00  5.97113E+00  5.82093E+00  5.61395E+00  5.43700E+00  5.35927E+00  5.42328E+00  5.66351E+00
   6.07458E+00  6.55733E+00  7.03726E+00  7.41758E+00  7.50775E+00  7.23542E+00  6.59340E+00  5.59593E+00  4.40361E+00  3.33347E+00
   2.82509E+00  3.00085E+00  3.92765E+00  5.62754E+00  7.82669E+00  9.87101E+00  1.09915E+01  1.06901E+01  8.97994E+00  6.26686E+00
   2.99519E+00 -2.02793E-01 -2.45224E+00 -3.03803E+00 -1.79270E+00  5.55500E-01  3.29152E+00  5.93284E+00  8.05502E+00  9.27523E+00
   9.43670E+00  8.92387E+00  8.32812E+00  7.91725E+00  7.67464E+00  7.62800E+00  7.74994E+00  7.91638E+00  8.06810E+00  8.12154E+00
   8.02233E+00  7.81961E+00  7.64781E+00  7.60115E+00  7.68774E+00  7.92446E+00  8.27833E+00  8.65180E+00  8.91720E+00  9.05412E+00
   9.16749E+00  9.30433E+00  9.62920E+00  1.03736E+01  1.19215E+01  1.41729E+01  1.64983E+01  1.87947E+01  2.13201E+01  2.40463E+01
   2.64172E+01  2.76114E+01  2.70651E+01  2.49065E+01  2.16685E+01  1.76918E+01  1.34018E+01  9.66499E+00  7.36815E+00  6.31994E+00
   5.68106E+00  5.25837E+00  5.03160E+00  4.92946E+00  4.89743E+00  4.90200E+00  4.88275E+00  4.79983E+00  4.63436E+00  4.38879E+00
   4.09622E+00  3.82056E+00  3.60832E+00  3.46576E+00  3.38402E+00  3.35168E+00  3.36083E+00  3.40356E+00  3.47080E+00  3.56516E+00
   3.70282E+00  3.89646E+00  4.15388E+00  4.47939E+00  4.87765E+00  5.34962E+00  5.89363E+00  6.50893E+00  7.19362E+00  7.94342E+00
   8.75386E+00  9.61535E+00  1.05120E+01  1.14246E+01  1.23317E+01  1.32099E+01  1.40355E+01  1.47860E+01  1.54428E+01  1.59909E+01
   1.64191E+01  1.67212E+01  1.68955E+01  1.69453E+01  1.68792E+01  1.67102E+01  1.64552E+01  1.61334E+01  1.57655E+01  1.53720E+01
   1.49724E+01  1.45842E+01  1.42206E+01  1.38910E+01  1.36019E+01  1.33555E+01  1.31491E+01  1.29763E+01  1.28288E+01  1.26986E+01
   1.25776E+01  1.24559E+01  1.23243E+01  1.21747E+01  1.20004E+01  1.17949E+01  1.15507E+01  1.12628E+01  1.09313E+01  1.05599E+01
   1.01561E+01  9.73149E+00  9.30239E+00  8.89043E+00  8.52004E+00  8.21593E+00  8.00249E+00  7.89982E+00  7.91881E+00  8.05629E+00
   8.29160E+00  8.58587E+00  8.88497E+00  9.12637E+00  9.24885E+00  9.20315E+00  8.96101E+00  8.52029E+00  7.90490E+00  7.15952E+00
   6.34078E+00  5.50701E+00  4.70919E+00  3.98477E+00  3.35519E+00  2.82682E+00  2.39424E+00  2.04459E+00  1.76185E+00  1.53016E+00
   1.33590E+00  1.16872E+00  1.02165E+00  8.90684E-01  7.74239E-01  6.72487E-01  5.86819E-01  5.19441E-01  4.73095E-01  4.50865E-01
   4.56058E-01  4.92083E-01  5.62367E-01  6.70248E-01  8.18883E-01  1.01111E+00  1.24929E+00  1.53511E+00  1.86933E+00  2.25164E+00
   2.68037E+00  3.15233E+00  3.66264E+00  4.20460E+00  4.76969E+00  5.34762E+00  5.92659E+00  6.49351E+00  7.03447E+00  7.53519E+00
   7.98165E+00  8.36067E+00  8.66054E+00  8.87156E+00  8.98653E+00  9.00108E+00  8.91386E+00  8.72663E+00  8.44410E+00  8.07364E+00
   7.62485E+00  7.10909E+00  6.53885E+00  5.92722E+00  5.28730E+00  4.63164E+00  3.97187E+00  3.31830E+00  2.67977E+00  2.06347E+00
   1.47497E+00  9.18211E-01  3.95700E-01 -9.13616E-02 -5.42843E-01 -9.59492E-01 -1.34272E+00 -1.69444E+00 -2.01685E+00 -2.31234E+00
  -2.58331E+00 -2.83215E+00 -3.06114E+00 -3.27241E+00 -3.46795E+00 -3.64952E+00 -3.81873E+00 -3.97699E+00 -4.12556E+00 -4.26556E+00
  -4.39795E+00 -4.52357E+00 -4.64314E+00 -4.75731E+00 -4.86663E+00 -4.97162E+00 -5.07270E+00 -5.17023E+00 -5.26455E+00 -5.35595E+00
  -5.44470E+00 -5.53102E+00 -5.61512E+00 -5.69718E+00 -5.77734E+00 -5.85577E+00 -5.93259E+00 -6.00793E+00 -6.08189E+00 -6.15457E+00
  -6.22605E+00 -6.29642E+00 -6.36576E+00 -6.43414E+00 -6.50160E+00 -6.56820E+00 -6.63400E+00 -6.69905E+00 -6.76340E+00 -6.82708E+00
  -6.89013E+00 -6.95259E+00 -7.01448E+00 -7.07585E+00 -7.13671E+00 -7.19710E+00 -7.25702E+00 -7.31652E+00 -7.37561E+00 -7.43433E+00
  -7.49269E+00 -7.55070E+00 -7.60838E+00 -7.66575E+00 -7.72283E+00 -7.77965E+00 -7.83619E+00 -7.89249E+00 -7.94856E+00 -8.00440E+00
  -8.06005E+00 -8.11552E+00 -8.17081E+00 -8.22593E+00 -8.28090E+00 -8.33575E+00 -8.39049E+00 -8.44513E+00
 NY background values follow
     1.376E+01    1.371E+01    1.367E+01    1.363E+01    1.358E+01    1.354E+01    1.349E+01    1.345E+01    1.340E+01    1.336E+01
     1.331E+01    1.327E+01    1.322E+01    1.318E+01    1.314E+01    1.309E+01    1.305E+01    1.300E+01    1.296E+01    1.291E+01
     1.287E+01    1.282E+01    1.278E+01    1.273E+01    1.269E+01    1.264E+01    1.260E+01    1.255E+01    1.251E+01    1.246E+01
     1.242E+01    1.237E+01    1.233E+01    1.228E+01    1.224E+01    1.219E+01    1.215E+01    1.210E+01    1.206E+01    1.201E+01
     1.197E+01    1.192E+01    1.187E+01    1.183E+01    1.178E+01    1.174E+01    1.169E+01    1.165E+01    1.160E+01    1.156E+01
     1.151E+01    1.147E+01    1.142E+01    1.137E+01    1.133E+01    1.128E+01    1.124E+01    1.119E+01    1.115E+01    1.110E+01
     1.106E+01    1.101E+01    1.096E+01    1.092E+01    1.087E+01    1.083E+01    1.078E+01    1.074E+01    1.069E+01    1.064E+01
     1.060E+01    1.055E+01    1.051E+01    1.046E+01    1.041E+01    1.037E+01    1.032E+01    1.028E+01    1.023E+01    1.018E+01
     1.014E+01    1.009E+01    1.005E+01    1.000E+01    9.953E+00    9.907E+00    9.861E+00    9.815E+00    9.769E+00    9.723E+00
     9.676E+00    9.630E+00    9.584E+00    9.538E+00    9.491E+00    9.445E+00    9.399E+00    9.352E+00    9.306E+00    9.260E+00
     9.213E+00    9.167E+00    9.121E+00    9.074E+00    9.028E+00    8.981E+00    8.935E+00    8.888E+00    8.842E+00    8.795E+00
     8.749E+00    8.702E+00    8.656E+00    8.609E+00    8.562E+00    8.516E+00    8.469E+00    8.423E+00    8.376E+00    8.329E+00
     8.283E+00    8.236E+00    8.189E+00    8.143E+00    8.096E+00    8.049E+00    8.002E+00    7.956E+00    7.909E+00    7.862E+00
     7.815E+00    7.768E+00    7.722E+00    7.675E+00    7.628E+00    7.581E+00    7.534E+00    7.487E+00    7.440E+00    7.393E+00
     7.346E+00    7.300E+00    7.253E+00    7.206E+00    7.159E+00    7.112E+00    7.065E+00    7.018E+00    6.971E+00    6.924E+00
     6.877E+00    6.830E+00    6.782E+00    6.735E+00    6.688E+00    6.641E+00    6.594E+00    6.547E+00    6.500E+00    6.453E+00
     6.406E+00    6.358E+00    6.311E+00    6.264E+00    6.217E+00    6.170E+00    6.123E+00    6.075E+00    6.028E+00    5.981E+00
     5.934E+00    5.886E+00    5.839E+00    5.792E+00    5.745E+00    5.697E+00    5.650E+00    5.603E+00    5.555E+00    5.508E+00
     5.461E+00    5.413E+00    5.366E+00    5.319E+00    5.271E+00    5.224E+00    5.177E+00    5.129E+00    5.082E+00    5.035E+00
     4.987E+00    4.940E+00    4.892E+00    4.845E+00    4.797E+00    4.750E+00    4.703E+00    4.655E+00    4.608E+00    4.560E+00
     4.513E+00    4.465E+00    4.418E+00    4.370E+00    4.323E+00    4.275E+00    4.228E+00    4.180E+00    4.133E+00    4.085E+00
     4.038E+00    3.990E+00    3.943E+00    3.895E+00    3.848E+00    3.800E+00    3.753E+00    3.705E+00    3.657E+00    3.610E+00
     3.562E+00    3.515E+00    3.467E+00    3.420E+00    3.372E+00    3.324E+00    3.277E+00    3.229E+00    3.182E+00    3.134E+00
     3.086E+00    3.039E+00    2.991E+00    2.944E+00    2.896E+00    2.848E+00    2.801E+00    2.753E+00    2.705E+00    2.658E+00
     2.610E+00    2.563E+00    2.515E+00    2.467E+00    2.420E+00    2.372E+00    2.324E+00    2.277E+00    2.229E+00    2.181E+00
     2.134E+00    2.086E+00    2.038E+00    1.991E+00    1.943E+00    1.895E+00    1.848E+00    1.800E+00    1.752E+00    1.705E+00
     1.657E+00    1.609E+00    1.562E+00    1.514E+00    1.466E+00    1.419E+00    1.371E+00    1.324E+00    1.276E+00    1.228E+00
     1.181E+00    1.133E+00    1.085E+00    1.038E+00    9.899E-01    9.422E-01    8.946E-01    8.469E-01    7.993E-01    7.516E-01
     7.040E-01    6.563E-01    6.087E-01    5.610E-01    5.134E-01    4.657E-01    4.181E-01    3.705E-01    3.228E-01    2.752E-01
     2.276E-01    1.799E-01    1.323E-01    8.467E-02    3.705E-02   -1.057E-02   -5.818E-02   -1.058E-01   -1.534E-01   -2.010E-01
    -2.486E-01   -2.962E-01   -3.438E-01   -3.914E-01   -4.390E-01   -4.866E-01   -5.342E-01   -5.817E-01   -6.293E-01   -6.769E-01
    -7.244E-01   -7.720E-01   -8.195E-01   -8.671E-01   -9.146E-01   -9.622E-01   -1.010E+00   -1.057E+00   -1.105E+00   -1.152E+00
    -1.200E+00   -1.247E+00   -1.295E+00   -1.342E+00   -1.390E+00   -1.437E+00   -1.485E+00   -1.532E+00   -1.580E+00   -1.627E+00
    -1.675E+00   -1.722E+00   -1.770E+00   -1.817E+00   -1.864E+00   -1.912E+00   -1.959E+00   -2.007E+00   -2.054E+00   -2.101E+00
    -2.149E+00   -2.196E+00   -2.244E+00   -2.291E+00   -2.338E+00   -2.386E+00   -2.433E+00   -2.480E+00   -2.528E+00   -2.575E+00
    -2.622E+00   -2.670E+00   -2.717E+00   -2.764E+00   -2.812E+00   -2.859E+00   -2.906E+00   -2.953E+00   -3.001E+00   -3.048E+00
    -3.095E+00   -3.142E+00   -3.189E+00   -3.237E+00   -3.284E+00   -3.331E+00   -3.378E+00   -3.425E+00   -3.473E+00   -3.520E+00
    -3.567E+00   -3.614E+00   -3.661E+00   -3.708E+00   -3.755E+00   -3.802E+00   -3.849E+00   -3.896E+00   -3.944E+00   -3.991E+00
    -4.038E+00   -4.085E+00   -4.132E+00   -4.179E+00   -4.226E+00   -4.273E+00   -4.320E+00   -4.366E+00   -4.413E+00   -4.460E+00
    -4.507E+00   -4.554E+00   -4.601E+00   -4.648E+00   -4.695E+00   -4.742E+00   -4.788E+00   -4.835E+00   -4.882E+00   -4.929E+00
    -4.976E+00   -5.022E+00   -5.069E+00   -5.116E+00   -5.163E+00   -5.209E+00   -5.256E+00   -5.303E+00   -5.350E+00   -5.396E+00
    -5.443E+00   -5.490E+00   -5.536E+00   -5.583E+00   -5.629E+00   -5.676E+00   -5.723E+00   -5.769E+00   -5.816E+00   -5.862E+00
    -5.909E+00   -5.955E+00   -6.002E+00   -6.048E+00   -6.095E+00   -6.141E+00   -6.187E+00   -6.234E+00   -6.280E+00   -6.327E+00
    -6.373E+00   -6.419E+00   -6.466E+00   -6.512E+00   -6.558E+00   -6.605E+00   -6.651E+00   -6.697E+00   -6.743E+00   -6.790E+00
    -6.836E+00   -6.882E+00   -6.928E+00   -6.974E+00   -7.020E+00   -7.066E+00   -7.113E+00   -7.159E+00   -7.205E+00   -7.251E+00
    -7.297E+00   -7.343E+00   -7.389E+00   -7.435E+00   -7.481E+00   -7.527E+00   -7.573E+00   -7.619E+00   -7.664E+00   -7.710E+00
    -7.756E+00   -7.802E+00   -7.848E+00   -7.894E+00   -7.939E+00   -7.985E+00   -8.031E+00   -8.077E+00   -8.122E+00   -8.168E+00
    -8.214E+00   -8.259E+00   -8.305E+00   -8.350E+00   -8.396E+00   -8.442E+00   -8.487E+00   -8.533E+00   -8.578E+00   -8.624E+00
    -8.669E+00   -8.715E+00   -8.760E+00   -8.805E+00   -8.851E+00   -8.896E+00   -8.941E+00   -8.987E+00   -9.032E+00   -9.077E+00
    -9.123E+00   -9.168E+00   -9.213E+00   -9.258E+00   -9.303E+00   -9.349E+00   -9.394E+00   -9.439E+00
 Ala      Conc. = 1.94E+00
