 LCModel (Version 6.3-1L) Copyright: S.W. Provencher.          Ref.: Magn. Reson. Med. 30:672-679 (1993).                
 Slice#1 Row#10 Col#5  PD_24_press_2_raw_act
 36 lines in following concentration table = NCONC+1
    Conc.  %SD /Cr+PCr  Metabolite                                         
   73.021 167% 5.0E-02 Ala                                                 
  201.781 126%   0.139 Asp                                                 
 1.22E+03  17%   0.839 Cr                                                  
  233.537  93%   0.161 PCr                                                 
    0.000 999%   0.000 GABA                                                
    2.528 999% 1.7E-03 Glc                                                 
  508.440  48%   0.350 Gln                                                 
 1.23E+03  23%   0.847 Glu                                                 
  333.690   8%   0.230 GPC                                                 
    0.000 999%   0.000 PCh                                                 
  278.073  31%   0.191 GSH                                                 
 1.01E+03  31%   0.693 Ins                                                 
    0.000 999%   0.000 Lac                                                 
 2.21E+03   9%   1.523 NAA                                                 
  485.630  39%   0.334 NAAG                                                
   30.148 106% 2.1E-02 Scyllo                                              
    0.000 999%   0.000 Tau                                                 
  331.916  42%   0.228 -CrCH2                                              
  333.690   8%   0.230 GPC+PCh                                             
 2.70E+03   4%   1.857 NAA+NAAG                                            
 1.45E+03   6%   1.000 Cr+PCr                                              
 1.74E+03  22%   1.197 Glu+Gln                                             
 1.23E+04  18%   8.490 Lip13a                                              
    0.000 999%   0.000 Lip13b                                              
 2.36E+03  38%   1.622 Lip09                                               
 3.23E+03  24%   2.219 MM09                                                
 3.25E+03  21%   2.233 Lip20                                               
 8.32E+03  12%   5.726 MM20                                                
 1.05E+03  63%   0.725 MM12                                                
 7.25E+03  17%   4.986 MM14                                                
    0.000 999%   0.000 MM17                                                
 1.23E+04  18%   8.490 Lip13a+Lip13b                                       
 2.06E+04   8%  14.201 MM14+Lip13a+Lip13b+MM12                             
 5.58E+03  12%   3.841 MM09+Lip09                                          
 1.16E+04   8%   7.958 MM20+Lip20                                          
   6 lines in following misc. output table
  FWHM = 0.054 ppm    S/N =  14                                            
  Data shift = 0.023 ppm                                                   
  Ph:  37 deg      20.0 deg/ppm                                            
  alphaB,S = 3.8E-01,   5.1E+01                                            
   14 spline knots.   Ns = 7(1)                                            
  (10) 2 infls.   ( 7) 1 extrs.                                            
  498 points on ppm-axis = NY
      4.000000     3.992357     3.984714     3.977070     3.969427     3.961784     3.954141     3.946497     3.938854     3.931211
      3.923568     3.915925     3.908281     3.900638     3.892995     3.885352     3.877708     3.870065     3.862422     3.854779
      3.847136     3.839492     3.831849     3.824206     3.816563     3.808919     3.801276     3.793633     3.785990     3.778347
      3.770703     3.763060     3.755417     3.747774     3.740130     3.732487     3.724844     3.717201     3.709558     3.701914
      3.694271     3.686628     3.678985     3.671341     3.663698     3.656055     3.648412     3.640769     3.633125     3.625482
      3.617839     3.610196     3.602552     3.594909     3.587266     3.579623     3.571980     3.564336     3.556693     3.549050
      3.541407     3.533763     3.526120     3.518477     3.510834     3.503191     3.495547     3.487904     3.480261     3.472618
      3.464974     3.457331     3.449688     3.442045     3.434402     3.426758     3.419115     3.411472     3.403829     3.396185
      3.388542     3.380899     3.373256     3.365613     3.357969     3.350326     3.342683     3.335040     3.327396     3.319753
      3.312110     3.304467     3.296824     3.289180     3.281537     3.273894     3.266251     3.258607     3.250964     3.243321
      3.235678     3.228034     3.220391     3.212748     3.205105     3.197462     3.189818     3.182175     3.174532     3.166889
      3.159245     3.151602     3.143959     3.136316     3.128673     3.121029     3.113386     3.105743     3.098100     3.090456
      3.082813     3.075170     3.067527     3.059884     3.052240     3.044597     3.036954     3.029311     3.021667     3.014024
      3.006381     2.998738     2.991095     2.983451     2.975808     2.968165     2.960522     2.952878     2.945235     2.937592
      2.929949     2.922306     2.914662     2.907019     2.899376     2.891733     2.884089     2.876446     2.868803     2.861160
      2.853517     2.845873     2.838230     2.830587     2.822944     2.815300     2.807657     2.800014     2.792371     2.784728
      2.777084     2.769441     2.761798     2.754155     2.746511     2.738868     2.731225     2.723582     2.715939     2.708295
      2.700652     2.693009     2.685366     2.677722     2.670079     2.662436     2.654793     2.647150     2.639506     2.631863
      2.624220     2.616577     2.608933     2.601290     2.593647     2.586004     2.578361     2.570717     2.563074     2.555431
      2.547788     2.540144     2.532501     2.524858     2.517215     2.509572     2.501928     2.494285     2.486642     2.478999
      2.471355     2.463712     2.456069     2.448426     2.440783     2.433139     2.425496     2.417853     2.410210     2.402566
      2.394923     2.387280     2.379637     2.371994     2.364350     2.356707     2.349064     2.341421     2.333777     2.326134
      2.318491     2.310848     2.303205     2.295561     2.287918     2.280275     2.272632     2.264988     2.257345     2.249702
      2.242059     2.234416     2.226772     2.219129     2.211486     2.203843     2.196199     2.188556     2.180913     2.173270
      2.165627     2.157983     2.150340     2.142697     2.135054     2.127410     2.119767     2.112124     2.104481     2.096838
      2.089194     2.081551     2.073908     2.066265     2.058621     2.050978     2.043335     2.035692     2.028049     2.020405
      2.012762     2.005119     1.997476     1.989833     1.982190     1.974546     1.966903     1.959260     1.951617     1.943974
      1.936331     1.928688     1.921045     1.913402     1.905759     1.898115     1.890472     1.882829     1.875186     1.867543
      1.859900     1.852257     1.844614     1.836971     1.829327     1.821684     1.814041     1.806398     1.798755     1.791112
      1.783469     1.775826     1.768183     1.760540     1.752896     1.745253     1.737610     1.729967     1.722324     1.714681
      1.707038     1.699395     1.691752     1.684108     1.676465     1.668822     1.661179     1.653536     1.645893     1.638250
      1.630607     1.622964     1.615321     1.607677     1.600034     1.592391     1.584748     1.577105     1.569462     1.561819
      1.554176     1.546533     1.538890     1.531246     1.523603     1.515960     1.508317     1.500674     1.493031     1.485388
      1.477745     1.470102     1.462458     1.454815     1.447172     1.439529     1.431886     1.424243     1.416600     1.408957
      1.401314     1.393671     1.386027     1.378384     1.370741     1.363098     1.355455     1.347812     1.340169     1.332526
      1.324883     1.317240     1.309596     1.301953     1.294310     1.286667     1.279024     1.271381     1.263738     1.256095
      1.248452     1.240808     1.233165     1.225522     1.217879     1.210236     1.202593     1.194950     1.187307     1.179664
      1.172021     1.164377     1.156734     1.149091     1.141448     1.133805     1.126162     1.118519     1.110876     1.103233
      1.095590     1.087946     1.080303     1.072660     1.065017     1.057374     1.049731     1.042088     1.034445     1.026802
      1.019158     1.011515     1.003872     0.996229     0.988586     0.980943     0.973300     0.965657     0.958014     0.950371
      0.942727     0.935084     0.927441     0.919798     0.912155     0.904512     0.896869     0.889226     0.881583     0.873940
      0.866296     0.858653     0.851010     0.843367     0.835724     0.828081     0.820438     0.812795     0.805152     0.797508
      0.789865     0.782222     0.774579     0.766936     0.759293     0.751650     0.744007     0.736364     0.728721     0.721077
      0.713434     0.705791     0.698148     0.690505     0.682862     0.675219     0.667576     0.659933     0.652290     0.644646
      0.637003     0.629360     0.621717     0.614074     0.606431     0.598788     0.591145     0.583502     0.575858     0.568215
      0.560572     0.552929     0.545286     0.537643     0.530000     0.522357     0.514714     0.507071     0.499427     0.491784
      0.484141     0.476498     0.468855     0.461212     0.453569     0.445925     0.438282     0.430639     0.422996     0.415353
      0.407710     0.400067     0.392424     0.384780     0.377137     0.369494     0.361851     0.354208     0.346565     0.338922
      0.331278     0.323635     0.315992     0.308349     0.300706     0.293063     0.285420     0.277777     0.270133     0.262490
      0.254847     0.247204     0.239561     0.231918     0.224275     0.216631     0.208988     0.201345
 NY phased data points follow
   1.73106E+01  2.68291E+01  2.12357E+01  2.11776E+01  1.62139E+01  2.59950E+01  1.61266E+01  1.97528E+01  2.86628E+01  3.40258E+01
   3.97888E+01  4.28354E+01  4.19244E+01  4.98515E+01  4.15673E+01  4.36397E+01  3.33306E+01  3.05213E+01  2.53628E+01  2.37601E+01
   1.48709E+01  1.64442E+01  1.40842E+01  2.00733E+01  1.59338E+01  2.09090E+01  1.34626E+01  2.08156E+01  1.43395E+01  2.05762E+01
   1.61939E+01  2.38595E+01  2.30170E+01  2.31369E+01  2.12603E+01  1.50108E+01  1.36065E+01  1.85227E+01  1.54993E+01  2.15210E+01
   1.59312E+01  1.87301E+01  1.30029E+01  1.60294E+01  1.87375E+01  1.69753E+01  2.11782E+01  1.92551E+01  2.04579E+01  2.16162E+01
   1.06826E+01  2.28721E+01  1.07193E+01  1.58703E+01  1.25065E+01  1.57815E+01  8.66044E+00  1.28536E+01  1.45436E+01  1.73218E+01
   1.23625E+01  1.17226E+01  1.61386E+01  8.03063E+00  4.59047E+00  1.00068E+01  2.20191E+00  5.86977E+00  1.52369E+00  5.16631E+00
  -3.90890E+00  5.19423E+00 -3.68365E-01  8.33662E+00  1.91983E+00  7.08478E+00  2.30427E+00  2.17887E+00  6.48027E+00  1.42169E+00
   3.75952E+00 -1.07080E+00  1.22502E+00  2.29490E+00  1.52060E+00  3.43339E+00 -9.77535E-02  1.15422E+00  2.26145E+00 -1.52951E+00
  -1.22882E+00  3.80310E+00 -1.43796E+00  4.61220E+00  8.07670E-01 -3.60328E+00  7.74814E-02  4.25581E+00  3.65848E+00  1.73914E+00
   7.00367E+00  1.52235E+01  2.03153E+01  3.11172E+01  3.31882E+01  3.45597E+01  2.43717E+01  2.22105E+01  1.29790E+01  1.10987E+01
   4.48649E+00 -4.98465E-01 -3.12596E+00 -1.94234E+00 -5.56906E+00 -4.31933E+00 -2.56501E+00  1.85254E-01 -8.12713E+00 -2.96193E+00
  -4.09382E+00 -1.25857E+00 -4.50694E+00  6.48243E-01  1.33255E+01  2.81780E+01  4.00748E+01  5.11300E+01  4.99241E+01  4.73128E+01
   3.85179E+01  3.75746E+01  2.43424E+01  2.14586E+01  1.03383E+01  1.02720E+01  5.13953E+00  3.50907E+00  4.37253E+00  3.43566E-02
   4.33404E+00 -4.10643E+00  2.54092E+00  2.10837E+00 -3.73659E+00 -4.91580E-02 -5.03928E+00 -4.39913E+00  3.45036E+00 -6.25366E+00
  -4.38685E+00 -5.13228E+00 -5.85923E+00 -4.40423E+00 -8.07652E+00 -4.75498E+00 -1.25175E+01 -6.74280E+00 -6.39171E+00 -8.61425E+00
  -7.16564E+00 -7.22480E+00 -1.21793E+01 -6.65260E+00 -1.37968E+01 -1.13690E+01 -1.30551E+01 -1.31794E+01 -1.50200E+01 -1.82751E+01
  -2.19315E+01 -1.67773E+01 -2.26461E+01 -2.10306E+01 -2.54287E+01 -2.63153E+01 -2.99520E+01 -2.76887E+01 -2.24079E+01 -2.07406E+01
  -1.94403E+01 -2.31027E+01 -2.02447E+01 -1.64158E+01 -1.86979E+01 -1.82652E+01 -1.48651E+01 -1.38746E+01 -1.90049E+01 -1.78597E+01
  -1.70789E+01 -1.45732E+01 -1.86224E+01 -1.20306E+01 -1.90024E+01 -1.67790E+01 -1.89828E+01 -1.99960E+01 -2.03531E+01 -1.40895E+01
  -2.22519E+01 -1.42913E+01 -1.14058E+01 -9.05144E+00 -1.16281E+01 -7.89252E+00 -1.69421E+01 -1.08604E+01 -1.55040E+01 -1.32801E+01
  -1.70135E+01 -1.02899E+01 -1.04531E+01 -5.76702E+00  1.17186E+00 -8.94564E-01  1.34648E+00 -2.66806E+00 -2.00084E+00 -8.93853E+00
  -1.18562E+01 -1.33348E+01 -1.75992E+01 -8.39445E+00 -7.34677E+00 -3.96959E+00 -4.85976E+00 -1.51932E-01  7.56406E-01  2.39164E+00
  -6.15247E+00 -1.61199E+00 -3.30464E+00  9.33878E-01 -5.08605E+00 -1.36989E+00 -2.05032E+00 -2.26269E+00 -3.38609E+00 -2.14672E+00
  -5.72892E+00 -3.04451E+00 -1.26002E+01 -5.94482E+00 -6.18243E+00 -2.15784E+00 -2.70637E+00  6.78979E+00  1.58659E+00  5.03760E+00
   6.62108E+00  1.63719E+01  1.14940E+01  1.99543E+01  1.95518E+01  2.91337E+01  4.23458E+01  5.40563E+01  7.94241E+01  9.15243E+01
   9.37563E+01  8.30394E+01  6.49072E+01  4.67255E+01  2.75722E+01  7.98691E+00 -2.10383E+00 -4.55664E+00 -1.30914E+01 -1.23570E+01
  -1.66738E+01 -1.70615E+01 -1.90655E+01 -1.66786E+01 -1.71760E+01 -1.55152E+01 -2.06760E+01 -2.56947E+01 -2.51216E+01 -2.24773E+01
  -3.11142E+01 -3.04611E+01 -2.35609E+01 -2.83566E+01 -2.92469E+01 -3.28020E+01 -3.18231E+01 -3.85618E+01 -3.65377E+01 -4.06880E+01
  -4.09399E+01 -4.33993E+01 -4.45711E+01 -4.47477E+01 -4.46044E+01 -4.74266E+01 -4.81204E+01 -4.69376E+01 -4.85599E+01 -4.68496E+01
  -5.23657E+01 -5.21726E+01 -4.90671E+01 -4.39812E+01 -4.77764E+01 -4.62965E+01 -4.16536E+01 -3.65557E+01 -3.57339E+01 -2.68732E+01
  -2.79744E+01 -2.37051E+01 -2.41095E+01 -1.69046E+01 -1.82770E+01 -1.42953E+01 -1.30063E+01 -7.86710E+00 -1.13970E+01 -1.65662E+00
  -8.40217E+00 -1.52801E+00 -7.64210E+00  1.64931E+00  9.85207E-01  2.70263E+00  2.97777E+00  3.59087E+00  3.68962E+00  1.07675E+01
   5.04555E+00  1.06154E+01  8.06135E+00  1.06090E+01  1.05606E+01  1.13119E+01  9.82214E+00  9.10776E+00  8.28379E+00  6.01002E+00
   2.10620E+00  6.53182E+00  9.30862E+00  1.07978E+01  7.93256E+00  1.02545E+01  5.35480E+00  3.73047E+00  3.79727E+00  8.61599E+00
   7.99317E-01  6.08368E+00  7.75577E+00  1.05392E+01  7.33912E+00  6.54214E+00  4.62785E+00  4.68824E+00  4.77216E+00  5.01079E+00
  -1.72778E+00  3.81808E+00  2.26089E+00 -1.86136E+00 -9.96566E-01 -1.98118E+00 -5.92679E+00  8.36939E-01 -6.25074E+00 -4.62754E+00
  -4.61480E+00 -1.44747E+00 -1.20143E-01 -5.29732E+00 -2.10517E+00 -5.84689E+00 -7.33002E+00 -8.93690E+00 -4.06151E+00 -6.02072E+00
  -5.21324E+00 -1.04906E+01 -7.95863E+00 -7.69927E+00 -1.61169E+00 -7.91167E+00 -9.76122E+00 -1.02699E+01 -3.40663E+00 -9.88871E+00
  -3.71814E+00  4.86247E-01 -3.32206E+00 -1.45336E+00 -4.07602E+00 -1.44130E+00  2.77119E+00  1.50110E+00 -2.77844E+00  5.69710E+00
   2.35640E+00  3.66457E+00  7.93040E-01  2.80950E+00 -2.41910E+00 -5.75971E-01 -8.53217E-01 -7.74425E-01 -3.09234E+00 -1.30200E+00
  -7.52895E+00 -9.14124E+00 -4.34984E+00 -4.15737E+00 -8.22698E+00 -7.04135E+00 -1.33346E+01 -1.34150E+01 -1.57278E+01 -1.42975E+01
  -1.52130E+01 -1.09363E+01 -1.25787E+01 -1.35086E+01 -1.70760E+01 -1.79301E+01 -1.63959E+01 -1.64339E+01 -1.44775E+01 -1.73126E+01
  -1.41256E+01 -1.35953E+01 -1.43747E+01 -8.15240E+00 -1.86948E+01 -1.55774E+01 -1.57191E+01 -1.69119E+01 -1.58762E+01 -1.47304E+01
  -1.50695E+01 -1.65634E+01 -1.63568E+01 -1.50157E+01 -2.04463E+01 -1.93721E+01 -1.91271E+01 -1.92600E+01 -2.10828E+01 -1.40724E+01
  -1.82478E+01 -1.51208E+01 -1.95536E+01 -1.58909E+01 -1.59752E+01 -1.59685E+01 -2.03043E+01 -1.16044E+01 -1.65383E+01 -1.25048E+01
  -1.87655E+01 -1.60944E+01 -1.54940E+01 -1.51864E+01 -1.57369E+01 -1.26012E+01 -1.82896E+01 -1.47611E+01 -1.81474E+01 -1.73485E+01
  -1.61258E+01 -1.45982E+01 -1.83366E+01 -1.58532E+01 -1.60658E+01 -1.69775E+01 -1.63421E+01 -1.97209E+01 -1.96723E+01 -1.56972E+01
  -1.60420E+01 -1.87385E+01 -1.42579E+01 -1.43614E+01 -1.40792E+01 -1.40199E+01 -1.64405E+01 -1.20868E+01 -1.04586E+01 -1.48600E+01
  -1.08182E+01 -1.12217E+01 -1.69077E+01 -1.41023E+01 -1.27936E+01 -1.36382E+01 -1.32753E+01 -1.22501E+01
 NY points of the fit to the data follow
   2.24001E+01  2.17205E+01  2.13410E+01  2.11594E+01  2.09533E+01  2.06517E+01  2.04497E+01  2.14842E+01  2.50863E+01  3.12782E+01
   3.88146E+01  4.53576E+01  4.86372E+01  4.79923E+01  4.43905E+01  3.92765E+01  3.36440E+01  2.83958E+01  2.44371E+01  2.19225E+01
   2.02316E+01  1.92314E+01  1.87868E+01  1.81839E+01  1.72302E+01  1.62934E+01  1.59544E+01  1.67284E+01  1.86906E+01  2.12698E+01
   2.35575E+01  2.48082E+01  2.46990E+01  2.32240E+01  2.07591E+01  1.80737E+01  1.58942E+01  1.44396E+01  1.36200E+01  1.33523E+01
   1.33886E+01  1.35197E+01  1.38582E+01  1.47213E+01  1.61729E+01  1.79618E+01  1.95644E+01  2.02774E+01  1.97109E+01  1.81290E+01
   1.60714E+01  1.39106E+01  1.19284E+01  1.04362E+01  9.56656E+00  9.18970E+00  9.21989E+00  9.66262E+00  1.03081E+01  1.07964E+01
   1.08696E+01  1.04278E+01  9.57234E+00  8.51067E+00  7.47688E+00  6.68688E+00  6.23646E+00  6.11103E+00  6.23969E+00  6.51503E+00
   6.79724E+00  6.95716E+00  6.89208E+00  6.59926E+00  6.16137E+00  5.66194E+00  5.15546E+00  4.68752E+00  4.28965E+00  3.95128E+00
   3.65409E+00  3.47711E+00  3.43014E+00  3.39899E+00  3.21309E+00  2.71752E+00  1.89446E+00  9.16530E-01  5.68099E-02 -4.92879E-01
  -6.93922E-01 -5.67131E-01 -1.78064E-01  2.82039E-01  5.98039E-01  6.86351E-01  5.19595E-01  1.25529E-01  1.10729E-01  2.22895E+00
   7.58323E+00  1.57024E+01  2.47205E+01  3.15841E+01  3.39406E+01  3.16706E+01  2.64496E+01  1.99535E+01  1.32420E+01  7.50671E+00
   3.62346E+00  1.21851E+00 -4.63629E-01 -1.20420E+00 -1.30485E+00 -1.25928E+00 -1.17513E+00 -1.07006E+00 -9.36606E-01 -7.50286E-01
  -4.90399E-01 -6.51396E-02  1.26010E+00  5.38515E+00  1.37625E+01  2.57040E+01  3.85943E+01  4.84681E+01  5.21729E+01  4.94448E+01
   4.23509E+01  3.32216E+01  2.35732E+01  1.48126E+01  8.11980E+00  3.42613E+00  7.42282E-02 -1.79834E+00 -2.32382E+00 -2.28386E+00
  -2.02827E+00 -1.78435E+00 -1.66179E+00 -1.67563E+00 -1.83610E+00 -2.13416E+00 -2.52470E+00 -2.95858E+00 -3.39911E+00 -3.84437E+00
  -4.32220E+00 -4.81077E+00 -5.28419E+00 -5.68201E+00 -5.94124E+00 -6.12686E+00 -6.45359E+00 -7.08017E+00 -8.00624E+00 -9.00447E+00
  -9.72431E+00 -1.00299E+01 -1.00344E+01 -1.00219E+01 -1.02387E+01 -1.07563E+01 -1.15346E+01 -1.24370E+01 -1.32952E+01 -1.40154E+01
  -1.46419E+01 -1.53416E+01 -1.62308E+01 -1.71770E+01 -1.79070E+01 -1.82896E+01 -1.84018E+01 -1.84622E+01 -1.86731E+01 -1.89971E+01
  -1.92214E+01 -1.93177E+01 -1.94154E+01 -1.95003E+01 -1.94622E+01 -1.91831E+01 -1.84686E+01 -1.73012E+01 -1.59199E+01 -1.46628E+01
  -1.37972E+01 -1.34145E+01 -1.35475E+01 -1.41225E+01 -1.49417E+01 -1.58444E+01 -1.66897E+01 -1.71442E+01 -1.69528E+01 -1.60897E+01
  -1.47417E+01 -1.31697E+01 -1.17548E+01 -1.09457E+01 -1.11424E+01 -1.24738E+01 -1.46233E+01 -1.71947E+01 -1.96323E+01 -2.12439E+01
  -2.15082E+01 -2.01626E+01 -1.73980E+01 -1.38026E+01 -1.03100E+01 -7.97063E+00 -7.35649E+00 -8.43589E+00 -1.08793E+01 -1.40654E+01
  -1.69574E+01 -1.85327E+01 -1.83004E+01 -1.64945E+01 -1.37943E+01 -1.07622E+01 -8.02573E+00 -6.06045E+00 -5.07377E+00 -4.87193E+00
  -5.04472E+00 -5.29642E+00 -5.35789E+00 -4.99558E+00 -4.17881E+00 -3.02819E+00 -1.75039E+00 -7.50355E-01 -3.30512E-01 -4.28491E-01
  -8.08812E-01 -1.14372E+00 -1.05266E+00 -3.03125E-01  9.79425E-01  2.43400E+00  3.80118E+00  4.92314E+00  5.71484E+00  6.24362E+00
   7.01797E+00  8.90449E+00  1.21797E+01  1.63084E+01  2.13309E+01  2.96781E+01  4.28049E+01  5.98335E+01  7.74562E+01  8.93501E+01
   9.05553E+01  8.14142E+01  6.62300E+01  4.85472E+01  3.03714E+01  1.47160E+01  3.54230E+00 -4.30502E+00 -1.05820E+01 -1.44843E+01
  -1.67375E+01 -1.84767E+01 -1.99665E+01 -2.13237E+01 -2.26696E+01 -2.40527E+01 -2.54505E+01 -2.68313E+01 -2.81518E+01 -2.93648E+01
  -3.04399E+01 -3.13765E+01 -3.22041E+01 -3.29627E+01 -3.36776E+01 -3.43653E+01 -3.50397E+01 -3.56900E+01 -3.62875E+01 -3.68077E+01
  -3.72396E+01 -3.75893E+01 -3.78713E+01 -3.81035E+01 -3.83049E+01 -3.84825E+01 -3.86362E+01 -3.87547E+01 -3.88125E+01 -3.87892E+01
  -3.86755E+01 -3.84628E+01 -3.81465E+01 -3.77218E+01 -3.71834E+01 -3.65239E+01 -3.57302E+01 -3.47879E+01 -3.36857E+01 -3.24108E+01
  -3.09527E+01 -2.93059E+01 -2.74682E+01 -2.54425E+01 -2.32365E+01 -2.08636E+01 -1.83437E+01 -1.57030E+01 -1.29733E+01 -1.01915E+01
  -7.39644E+00 -4.61610E+00 -1.86497E+00  7.94862E-01  3.24884E+00  5.37053E+00  7.05081E+00  8.25712E+00  9.03982E+00  9.47733E+00
   9.66274E+00  9.70352E+00  9.70130E+00  9.71070E+00  9.68365E+00  9.52075E+00  9.17497E+00  8.64391E+00  7.97073E+00  7.21744E+00
   6.45161E+00  5.75739E+00  5.19204E+00  4.76141E+00  4.47724E+00  4.35131E+00  4.36306E+00  4.48996E+00  4.70828E+00  4.99169E+00
   5.31214E+00  5.64076E+00  5.94947E+00  6.21180E+00  6.40409E+00  6.50583E+00  6.50053E+00  6.37599E+00  6.12481E+00  5.74414E+00
   5.23556E+00  4.60449E+00  3.86008E+00  3.01454E+00  2.08304E+00  1.08259E+00  3.17542E-02 -1.05027E+00 -2.14370E+00 -3.22888E+00
  -4.28630E+00 -5.29745E+00 -6.24479E+00 -7.11233E+00 -7.88534E+00 -8.55081E+00 -9.09732E+00 -9.51566E+00 -9.79867E+00 -9.94163E+00
  -9.94198E+00 -9.79983E+00 -9.51787E+00 -9.10193E+00 -8.56074E+00 -7.90609E+00 -7.15250E+00 -6.31730E+00 -5.42027E+00 -4.48346E+00
  -3.53037E+00 -2.58545E+00 -1.67303E+00 -8.16938E-01 -3.94925E-02  6.39012E-01  1.20141E+00  1.63397E+00  1.92712E+00  2.07521E+00
   2.07682E+00  1.93439E+00  1.65421E+00  1.24568E+00  7.20957E-01  9.38991E-02 -6.20339E-01 -1.40614E+00 -2.24767E+00 -3.12969E+00
  -4.03780E+00 -4.95902E+00 -5.88172E+00 -6.79589E+00 -7.69278E+00 -8.56528E+00 -9.40755E+00 -1.02152E+01 -1.09849E+01 -1.17143E+01
  -1.24016E+01 -1.30459E+01 -1.36468E+01 -1.42047E+01 -1.47200E+01 -1.51937E+01 -1.56267E+01 -1.60204E+01 -1.63763E+01 -1.66964E+01
  -1.69821E+01 -1.72354E+01 -1.74579E+01 -1.76516E+01 -1.78184E+01 -1.79601E+01 -1.80784E+01 -1.81751E+01 -1.82517E+01 -1.83098E+01
  -1.83509E+01 -1.83765E+01 -1.83877E+01 -1.83858E+01 -1.83719E+01 -1.83471E+01 -1.83123E+01 -1.82687E+01 -1.82167E+01 -1.81574E+01
  -1.80912E+01 -1.80191E+01 -1.79416E+01 -1.78592E+01 -1.77723E+01 -1.76812E+01 -1.75864E+01 -1.74882E+01 -1.73868E+01 -1.72826E+01
  -1.71756E+01 -1.70661E+01 -1.69543E+01 -1.68406E+01 -1.67248E+01 -1.66072E+01 -1.64878E+01 -1.63669E+01 -1.62445E+01 -1.61207E+01
  -1.59957E+01 -1.58693E+01 -1.57416E+01 -1.56129E+01 -1.54831E+01 -1.53523E+01 -1.52204E+01 -1.50875E+01 -1.49536E+01 -1.48188E+01
  -1.46831E+01 -1.45465E+01 -1.44089E+01 -1.42703E+01 -1.41308E+01 -1.39905E+01 -1.38493E+01 -1.37071E+01 -1.35639E+01 -1.34197E+01
  -1.32746E+01 -1.31285E+01 -1.29814E+01 -1.28333E+01 -1.26840E+01 -1.25337E+01 -1.23823E+01 -1.22298E+01
 NY background values follow
     1.779E+01    1.759E+01    1.739E+01    1.718E+01    1.698E+01    1.677E+01    1.657E+01    1.637E+01    1.616E+01    1.596E+01
     1.576E+01    1.556E+01    1.535E+01    1.515E+01    1.495E+01    1.474E+01    1.454E+01    1.433E+01    1.413E+01    1.392E+01
     1.372E+01    1.351E+01    1.331E+01    1.310E+01    1.290E+01    1.269E+01    1.248E+01    1.227E+01    1.206E+01    1.185E+01
     1.164E+01    1.143E+01    1.122E+01    1.101E+01    1.080E+01    1.058E+01    1.037E+01    1.015E+01    9.935E+00    9.718E+00
     9.499E+00    9.279E+00    9.059E+00    8.837E+00    8.614E+00    8.390E+00    8.164E+00    7.938E+00    7.710E+00    7.482E+00
     7.252E+00    7.022E+00    6.790E+00    6.558E+00    6.325E+00    6.091E+00    5.857E+00    5.622E+00    5.386E+00    5.150E+00
     4.914E+00    4.677E+00    4.440E+00    4.203E+00    3.966E+00    3.728E+00    3.490E+00    3.253E+00    3.015E+00    2.777E+00
     2.540E+00    2.303E+00    2.066E+00    1.830E+00    1.593E+00    1.358E+00    1.122E+00    8.878E-01    6.537E-01    4.203E-01
     1.877E-01   -4.414E-02   -2.751E-01   -5.052E-01   -7.344E-01   -9.625E-01   -1.190E+00   -1.415E+00   -1.640E+00   -1.864E+00
    -2.086E+00   -2.307E+00   -2.526E+00   -2.744E+00   -2.961E+00   -3.176E+00   -3.390E+00   -3.603E+00   -3.815E+00   -4.026E+00
    -4.235E+00   -4.443E+00   -4.650E+00   -4.856E+00   -5.061E+00   -5.265E+00   -5.467E+00   -5.669E+00   -5.870E+00   -6.070E+00
    -6.269E+00   -6.466E+00   -6.663E+00   -6.860E+00   -7.055E+00   -7.249E+00   -7.443E+00   -7.636E+00   -7.828E+00   -8.019E+00
    -8.210E+00   -8.400E+00   -8.590E+00   -8.778E+00   -8.966E+00   -9.154E+00   -9.341E+00   -9.527E+00   -9.713E+00   -9.899E+00
    -1.008E+01   -1.027E+01   -1.045E+01   -1.064E+01   -1.082E+01   -1.100E+01   -1.118E+01   -1.137E+01   -1.155E+01   -1.173E+01
    -1.191E+01   -1.209E+01   -1.227E+01   -1.245E+01   -1.263E+01   -1.281E+01   -1.299E+01   -1.317E+01   -1.335E+01   -1.353E+01
    -1.371E+01   -1.388E+01   -1.406E+01   -1.424E+01   -1.441E+01   -1.459E+01   -1.476E+01   -1.494E+01   -1.511E+01   -1.528E+01
    -1.546E+01   -1.563E+01   -1.580E+01   -1.597E+01   -1.614E+01   -1.631E+01   -1.648E+01   -1.665E+01   -1.682E+01   -1.699E+01
    -1.716E+01   -1.732E+01   -1.749E+01   -1.766E+01   -1.782E+01   -1.799E+01   -1.815E+01   -1.831E+01   -1.848E+01   -1.864E+01
    -1.880E+01   -1.896E+01   -1.912E+01   -1.928E+01   -1.944E+01   -1.960E+01   -1.976E+01   -1.992E+01   -2.008E+01   -2.024E+01
    -2.040E+01   -2.056E+01   -2.072E+01   -2.089E+01   -2.105E+01   -2.121E+01   -2.138E+01   -2.155E+01   -2.172E+01   -2.189E+01
    -2.206E+01   -2.223E+01   -2.241E+01   -2.259E+01   -2.277E+01   -2.296E+01   -2.314E+01   -2.333E+01   -2.352E+01   -2.372E+01
    -2.392E+01   -2.412E+01   -2.433E+01   -2.454E+01   -2.475E+01   -2.497E+01   -2.519E+01   -2.541E+01   -2.564E+01   -2.588E+01
    -2.611E+01   -2.636E+01   -2.660E+01   -2.686E+01   -2.712E+01   -2.738E+01   -2.765E+01   -2.792E+01   -2.820E+01   -2.849E+01
    -2.878E+01   -2.907E+01   -2.937E+01   -2.967E+01   -2.998E+01   -3.029E+01   -3.060E+01   -3.092E+01   -3.124E+01   -3.156E+01
    -3.189E+01   -3.222E+01   -3.255E+01   -3.288E+01   -3.321E+01   -3.355E+01   -3.388E+01   -3.422E+01   -3.456E+01   -3.490E+01
    -3.523E+01   -3.557E+01   -3.591E+01   -3.625E+01   -3.659E+01   -3.692E+01   -3.726E+01   -3.759E+01   -3.792E+01   -3.825E+01
    -3.858E+01   -3.891E+01   -3.923E+01   -3.955E+01   -3.987E+01   -4.019E+01   -4.050E+01   -4.081E+01   -4.111E+01   -4.141E+01
    -4.171E+01   -4.200E+01   -4.229E+01   -4.257E+01   -4.285E+01   -4.312E+01   -4.339E+01   -4.365E+01   -4.390E+01   -4.416E+01
    -4.440E+01   -4.464E+01   -4.488E+01   -4.511E+01   -4.534E+01   -4.556E+01   -4.577E+01   -4.598E+01   -4.619E+01   -4.638E+01
    -4.658E+01   -4.676E+01   -4.694E+01   -4.712E+01   -4.729E+01   -4.745E+01   -4.761E+01   -4.776E+01   -4.790E+01   -4.804E+01
    -4.817E+01   -4.830E+01   -4.842E+01   -4.853E+01   -4.864E+01   -4.874E+01   -4.883E+01   -4.892E+01   -4.900E+01   -4.907E+01
    -4.914E+01   -4.920E+01   -4.925E+01   -4.930E+01   -4.934E+01   -4.937E+01   -4.940E+01   -4.941E+01   -4.942E+01   -4.943E+01
    -4.943E+01   -4.942E+01   -4.940E+01   -4.938E+01   -4.935E+01   -4.931E+01   -4.927E+01   -4.923E+01   -4.917E+01   -4.911E+01
    -4.905E+01   -4.898E+01   -4.890E+01   -4.882E+01   -4.873E+01   -4.864E+01   -4.854E+01   -4.844E+01   -4.833E+01   -4.822E+01
    -4.810E+01   -4.798E+01   -4.785E+01   -4.772E+01   -4.759E+01   -4.745E+01   -4.730E+01   -4.716E+01   -4.700E+01   -4.685E+01
    -4.669E+01   -4.653E+01   -4.636E+01   -4.619E+01   -4.602E+01   -4.585E+01   -4.567E+01   -4.549E+01   -4.530E+01   -4.512E+01
    -4.493E+01   -4.474E+01   -4.454E+01   -4.435E+01   -4.415E+01   -4.395E+01   -4.374E+01   -4.354E+01   -4.333E+01   -4.312E+01
    -4.291E+01   -4.270E+01   -4.248E+01   -4.226E+01   -4.205E+01   -4.182E+01   -4.160E+01   -4.138E+01   -4.115E+01   -4.093E+01
    -4.070E+01   -4.047E+01   -4.023E+01   -4.000E+01   -3.977E+01   -3.953E+01   -3.929E+01   -3.906E+01   -3.882E+01   -3.857E+01
    -3.833E+01   -3.809E+01   -3.785E+01   -3.760E+01   -3.736E+01   -3.711E+01   -3.686E+01   -3.661E+01   -3.636E+01   -3.612E+01
    -3.586E+01   -3.561E+01   -3.536E+01   -3.511E+01   -3.486E+01   -3.461E+01   -3.435E+01   -3.410E+01   -3.384E+01   -3.359E+01
    -3.334E+01   -3.308E+01   -3.283E+01   -3.257E+01   -3.232E+01   -3.206E+01   -3.181E+01   -3.156E+01   -3.130E+01   -3.105E+01
    -3.079E+01   -3.054E+01   -3.029E+01   -3.004E+01   -2.979E+01   -2.953E+01   -2.928E+01   -2.904E+01   -2.879E+01   -2.854E+01
    -2.829E+01   -2.804E+01   -2.780E+01   -2.755E+01   -2.731E+01   -2.707E+01   -2.683E+01   -2.659E+01   -2.635E+01   -2.611E+01
    -2.588E+01   -2.564E+01   -2.541E+01   -2.518E+01   -2.495E+01   -2.472E+01   -2.449E+01   -2.427E+01   -2.404E+01   -2.382E+01
    -2.360E+01   -2.338E+01   -2.317E+01   -2.296E+01   -2.274E+01   -2.253E+01   -2.233E+01   -2.212E+01   -2.191E+01   -2.171E+01
    -2.151E+01   -2.131E+01   -2.111E+01   -2.091E+01   -2.072E+01   -2.053E+01   -2.033E+01   -2.014E+01   -1.995E+01   -1.976E+01
    -1.957E+01   -1.938E+01   -1.920E+01   -1.901E+01   -1.883E+01   -1.864E+01   -1.846E+01   -1.828E+01   -1.810E+01   -1.791E+01
    -1.773E+01   -1.755E+01   -1.737E+01   -1.719E+01   -1.701E+01   -1.683E+01   -1.665E+01   -1.647E+01   -1.629E+01   -1.612E+01
    -1.594E+01   -1.576E+01   -1.558E+01   -1.540E+01   -1.522E+01   -1.504E+01   -1.485E+01   -1.467E+01
 Ala      Conc. = 7.30E+01
