 LCModel (Version 6.3-1L) Copyright: S.W. Provencher.          Ref.: Magn. Reson. Med. 30:672-679 (1993).                
 Slice#1 Row#8 Col#5  PD_24_press_2_raw_act
 36 lines in following concentration table = NCONC+1
    Conc.  %SD /Cr+PCr  Metabolite                                         
  126.755 177% 5.5E-02 Ala                                                 
    0.000 999%   0.000 Asp                                                 
 1.44E+03  19%   0.623 Cr                                                  
  873.288  31%   0.377 PCr                                                 
   94.314 255% 4.1E-02 GABA                                                
  116.068 201% 5.0E-02 Glc                                                 
 1.54E+03  29%   0.664 Gln                                                 
 2.67E+03  19%   1.153 Glu                                                 
  509.409   7%   0.220 GPC                                                 
    0.000 999%   0.000 PCh                                                 
  806.444  16%   0.348 GSH                                                 
 2.71E+03  14%   1.167 Ins                                                 
   12.302 999% 5.3E-03 Lac                                                 
 4.00E+03   3%   1.724 NAA                                                 
    0.000 999%   0.000 NAAG                                                
  143.174  29% 6.2E-02 Scyllo                                              
  355.616  82%   0.153 Tau                                                 
    0.000 999%   0.000 -CrCH2                                              
  509.409   7%   0.220 GPC+PCh                                             
 4.00E+03   3%   1.724 NAA+NAAG                                            
 2.32E+03   4%   1.000 Cr+PCr                                              
 4.21E+03  18%   1.817 Glu+Gln                                             
 2.93E+03  31%   1.265 Lip13a                                              
    0.000 999%   0.000 Lip13b                                              
  900.037  51%   0.388 Lip09                                               
 2.15E+03  23%   0.926 MM09                                                
  294.878 105%   0.127 Lip20                                               
 2.21E+03  26%   0.955 MM20                                                
  592.872  64%   0.256 MM12                                                
 1.54E+03  38%   0.666 MM14                                                
 1.69E+03  11%   0.727 MM17                                                
 2.93E+03  31%   1.265 Lip13a+Lip13b                                       
 5.07E+03  10%   2.187 MM14+Lip13a+Lip13b+MM12                             
 3.05E+03   9%   1.314 MM09+Lip09                                          
 2.51E+03  21%   1.082 MM20+Lip20                                          
   6 lines in following misc. output table
  FWHM = 0.046 ppm    S/N =  12                                            
  Data shift = 0.008 ppm                                                   
  Ph:  -3 deg       0.6 deg/ppm                                            
  alphaB,S = 4.3E+01,   3.0E+01                                            
   14 spline knots.   Ns = 8(1)                                            
   5 inflections.     1 extrema                                            
  498 points on ppm-axis = NY
      4.000000     3.992357     3.984714     3.977070     3.969427     3.961784     3.954141     3.946497     3.938854     3.931211
      3.923568     3.915925     3.908281     3.900638     3.892995     3.885352     3.877708     3.870065     3.862422     3.854779
      3.847136     3.839492     3.831849     3.824206     3.816563     3.808919     3.801276     3.793633     3.785990     3.778347
      3.770703     3.763060     3.755417     3.747774     3.740130     3.732487     3.724844     3.717201     3.709558     3.701914
      3.694271     3.686628     3.678985     3.671341     3.663698     3.656055     3.648412     3.640769     3.633125     3.625482
      3.617839     3.610196     3.602552     3.594909     3.587266     3.579623     3.571980     3.564336     3.556693     3.549050
      3.541407     3.533763     3.526120     3.518477     3.510834     3.503191     3.495547     3.487904     3.480261     3.472618
      3.464974     3.457331     3.449688     3.442045     3.434402     3.426758     3.419115     3.411472     3.403829     3.396185
      3.388542     3.380899     3.373256     3.365613     3.357969     3.350326     3.342683     3.335040     3.327396     3.319753
      3.312110     3.304467     3.296824     3.289180     3.281537     3.273894     3.266251     3.258607     3.250964     3.243321
      3.235678     3.228034     3.220391     3.212748     3.205105     3.197462     3.189818     3.182175     3.174532     3.166889
      3.159245     3.151602     3.143959     3.136316     3.128673     3.121029     3.113386     3.105743     3.098100     3.090456
      3.082813     3.075170     3.067527     3.059884     3.052240     3.044597     3.036954     3.029311     3.021667     3.014024
      3.006381     2.998738     2.991095     2.983451     2.975808     2.968165     2.960522     2.952878     2.945235     2.937592
      2.929949     2.922306     2.914662     2.907019     2.899376     2.891733     2.884089     2.876446     2.868803     2.861160
      2.853517     2.845873     2.838230     2.830587     2.822944     2.815300     2.807657     2.800014     2.792371     2.784728
      2.777084     2.769441     2.761798     2.754155     2.746511     2.738868     2.731225     2.723582     2.715939     2.708295
      2.700652     2.693009     2.685366     2.677722     2.670079     2.662436     2.654793     2.647150     2.639506     2.631863
      2.624220     2.616577     2.608933     2.601290     2.593647     2.586004     2.578361     2.570717     2.563074     2.555431
      2.547788     2.540144     2.532501     2.524858     2.517215     2.509572     2.501928     2.494285     2.486642     2.478999
      2.471355     2.463712     2.456069     2.448426     2.440783     2.433139     2.425496     2.417853     2.410210     2.402566
      2.394923     2.387280     2.379637     2.371994     2.364350     2.356707     2.349064     2.341421     2.333777     2.326134
      2.318491     2.310848     2.303205     2.295561     2.287918     2.280275     2.272632     2.264988     2.257345     2.249702
      2.242059     2.234416     2.226772     2.219129     2.211486     2.203843     2.196199     2.188556     2.180913     2.173270
      2.165627     2.157983     2.150340     2.142697     2.135054     2.127410     2.119767     2.112124     2.104481     2.096838
      2.089194     2.081551     2.073908     2.066265     2.058621     2.050978     2.043335     2.035692     2.028049     2.020405
      2.012762     2.005119     1.997476     1.989833     1.982190     1.974546     1.966903     1.959260     1.951617     1.943974
      1.936331     1.928688     1.921045     1.913402     1.905759     1.898115     1.890472     1.882829     1.875186     1.867543
      1.859900     1.852257     1.844614     1.836971     1.829327     1.821684     1.814041     1.806398     1.798755     1.791112
      1.783469     1.775826     1.768183     1.760540     1.752896     1.745253     1.737610     1.729967     1.722324     1.714681
      1.707038     1.699395     1.691752     1.684108     1.676465     1.668822     1.661179     1.653536     1.645893     1.638250
      1.630607     1.622964     1.615321     1.607677     1.600034     1.592391     1.584748     1.577105     1.569462     1.561819
      1.554176     1.546533     1.538890     1.531246     1.523603     1.515960     1.508317     1.500674     1.493031     1.485388
      1.477745     1.470102     1.462458     1.454815     1.447172     1.439529     1.431886     1.424243     1.416600     1.408957
      1.401314     1.393671     1.386027     1.378384     1.370741     1.363098     1.355455     1.347812     1.340169     1.332526
      1.324883     1.317240     1.309596     1.301953     1.294310     1.286667     1.279024     1.271381     1.263738     1.256095
      1.248452     1.240808     1.233165     1.225522     1.217879     1.210236     1.202593     1.194950     1.187307     1.179664
      1.172021     1.164377     1.156734     1.149091     1.141448     1.133805     1.126162     1.118519     1.110876     1.103233
      1.095590     1.087946     1.080303     1.072660     1.065017     1.057374     1.049731     1.042088     1.034445     1.026802
      1.019158     1.011515     1.003872     0.996229     0.988586     0.980943     0.973300     0.965657     0.958014     0.950371
      0.942727     0.935084     0.927441     0.919798     0.912155     0.904512     0.896869     0.889226     0.881583     0.873940
      0.866296     0.858653     0.851010     0.843367     0.835724     0.828081     0.820438     0.812795     0.805152     0.797508
      0.789865     0.782222     0.774579     0.766936     0.759293     0.751650     0.744007     0.736364     0.728721     0.721077
      0.713434     0.705791     0.698148     0.690505     0.682862     0.675219     0.667576     0.659933     0.652290     0.644646
      0.637003     0.629360     0.621717     0.614074     0.606431     0.598788     0.591145     0.583502     0.575858     0.568215
      0.560572     0.552929     0.545286     0.537643     0.530000     0.522357     0.514714     0.507071     0.499427     0.491784
      0.484141     0.476498     0.468855     0.461212     0.453569     0.445925     0.438282     0.430639     0.422996     0.415353
      0.407710     0.400067     0.392424     0.384780     0.377137     0.369494     0.361851     0.354208     0.346565     0.338922
      0.331278     0.323635     0.315992     0.308349     0.300706     0.293063     0.285420     0.277777     0.270133     0.262490
      0.254847     0.247204     0.239561     0.231918     0.224275     0.216631     0.208988     0.201345
 NY phased data points follow
   1.68040E+01  3.08245E+01  1.55696E+01  3.10008E+01  2.14455E+01  3.50819E+01  3.41026E+01  4.64438E+01  4.54611E+01  5.16567E+01
   4.92171E+01  5.87513E+01  4.88339E+01  4.41133E+01  3.86680E+01  4.43509E+01  3.65156E+01  3.63094E+01  2.82109E+01  3.38856E+01
   2.22062E+01  3.43269E+01  1.77803E+01  2.66835E+01  1.85328E+01  1.95175E+01  2.27682E+01  2.69267E+01  1.90658E+01  3.41239E+01
   2.44914E+01  2.95755E+01  3.09252E+01  2.80686E+01  2.38041E+01  2.15460E+01  1.47523E+01  2.15825E+01  1.53578E+01  2.37607E+01
   1.99407E+01  2.41672E+01  1.74868E+01  2.16941E+01  1.99574E+01  2.59882E+01  2.45522E+01  2.92119E+01  1.75986E+01  3.16664E+01
   1.63985E+01  2.56385E+01  1.37130E+01  2.41604E+01  2.49868E+01  2.63871E+01  2.03540E+01  2.30741E+01  1.51884E+01  2.66328E+01
   1.54090E+01  1.74831E+01  7.89555E+00  1.47929E+01  1.59243E+01  1.46599E+01  1.00802E+01  1.25448E+01  1.32506E+01  1.29047E+01
   1.04207E+01  1.35359E+01  5.79964E+00  1.30291E+01  4.59754E+00  2.83960E+01  5.45808E+00  1.73919E+01  1.65447E+01  6.68051E+00
   1.04531E+01  1.28609E+01  6.49120E+00  1.29692E+01  1.51381E+01  1.78734E+01  1.26458E+01  1.54316E+01  9.51961E+00  1.90859E+01
   1.35055E+01  1.62409E+01  5.77168E+00  2.01497E+01  2.61885E+00  7.47497E+00  1.19263E+01  1.89868E+01  2.36282E+01  2.62878E+01
   2.45351E+01  3.45918E+01  4.25636E+01  5.23370E+01  4.21871E+01  3.75701E+01  3.52187E+01  3.62367E+01  2.58745E+01  2.62472E+01
   2.41924E+01  2.07376E+01  2.01406E+01  2.03216E+01  1.03615E+01  1.26511E+01  1.13322E+01  1.21077E+01  1.35551E+01  1.83765E+01
   1.76377E+01  2.55844E+01  2.19954E+01  3.34532E+01  3.93894E+01  6.07256E+01  6.96626E+01  7.55293E+01  6.92507E+01  6.41892E+01
   4.78055E+01  3.42564E+01  3.07161E+01  3.16498E+01  2.89266E+01  2.96184E+01  1.10693E+01  2.52356E+01  1.52252E+01  1.21476E+01
   1.03769E+01  7.37201E+00  5.03791E+00  1.11085E+01  5.56098E+00  6.79873E+00  9.19049E+00  7.20367E+00  8.04848E+00  2.61487E+00
  -4.55641E-01  2.93276E-01  6.17459E+00  1.13469E+01 -1.92428E+00  9.62542E+00  9.73421E+00  1.21487E+01  1.05811E+01 -9.13756E-01
   8.74623E+00  1.18391E+01  2.36759E+00  9.86858E+00  1.05843E+00  6.49886E+00 -5.93549E+00  3.18667E+00 -7.03121E+00 -6.59764E+00
   3.98904E+00 -8.62085E-01 -9.46650E+00 -2.28056E+00 -1.04136E+01 -8.69578E+00 -1.00494E+01 -7.55949E+00 -4.27275E+00 -3.01100E+00
  -1.47080E+00  1.89418E+00  1.09145E+00 -4.78522E-01 -3.91772E+00  4.35681E+00 -2.51919E-01  6.67144E+00  1.84748E+00  4.98910E+00
   2.66018E+00  6.53350E+00  1.68271E+00  6.71040E+00 -6.48822E-01 -6.46922E+00 -3.34608E+00  5.64789E+00 -1.25251E+00  1.76365E+00
  -2.99447E+00  1.02078E+01  5.04341E+00  9.14352E+00  3.11860E+00  9.17825E+00  6.26520E+00  8.51468E+00  4.33064E+00  1.10628E+00
   3.37758E+00  8.10678E+00  1.20170E+01  1.92606E+01  1.54805E+01  1.41366E+01  2.11787E+01  1.48309E+01  6.38732E+00  1.38075E+01
   2.93294E+00  5.18833E+00 -1.17800E+00  1.13963E+00  8.00405E+00  7.48157E+00  1.41779E+01  1.06479E+01  5.84822E+00  1.00532E+01
   9.53954E+00  8.31356E+00  1.45466E+01  9.87110E+00  1.29032E+01  1.46648E+01  1.06155E+01  1.22809E+01  6.66239E+00  1.23420E+01
   4.09067E+00  8.58600E+00  1.02372E+01  1.12772E+01  6.99758E+00  1.23384E+01  1.84453E+01  2.14758E+01  1.35355E+01  2.17889E+01
   1.73961E+01  2.87304E+01  3.23831E+01  3.58113E+01  3.79093E+01  4.67253E+01  5.04511E+01  7.46145E+01  9.91434E+01  1.24952E+02
   1.45195E+02  1.26713E+02  1.06632E+02  8.69433E+01  6.36011E+01  6.26023E+01  4.54899E+01  4.61940E+01  3.00364E+01  2.42014E+01
   2.42549E+01  1.45086E+01  1.09841E+01  1.52796E+01  4.98827E+00  3.88576E+00  9.79829E+00  1.37812E+01 -3.64758E+00  6.46885E+00
   6.65417E+00  1.09625E+00  3.00286E+00  2.09316E+00  7.47464E+00  8.85701E+00  3.52245E+00  7.37068E+00  3.48503E+00  8.04894E+00
   8.15715E+00  9.29290E+00 -1.68414E+00  1.23122E+01  1.01000E+01  7.69311E+00  1.56514E+01  1.09934E+01  1.54301E+01  1.67938E+01
   1.61076E+01  2.07621E+01  1.57099E+01  1.92125E+01  1.88182E+01  1.69629E+01  2.28668E+01  2.47060E+01  2.00058E+01  2.11178E+01
   2.03535E+01  1.92760E+01  1.37519E+01  2.38710E+01  1.05632E+01  1.85130E+01  1.13321E+01  1.02728E+01  2.01318E+01  1.16811E+01
  -1.71785E+00  9.48236E+00  1.35273E+01  1.34584E+01  7.55381E+00  7.14725E-01  8.38277E+00  1.01698E+01  8.14276E+00  1.31791E+01
   1.55691E+01  1.12246E+01  8.94238E+00  4.60698E+00  1.84334E+01  8.60194E+00  1.51013E+01  2.42778E+01  1.50933E+01  2.12237E+01
   2.77080E+01  2.23813E+01  2.29095E+01  1.64483E+01  2.16793E+01  2.59797E+01  2.03591E+01  2.75410E+01  1.71326E+01  2.47522E+01
   2.77723E+01  2.31518E+01  2.45363E+01  2.61680E+01  1.97545E+01  2.15878E+01  1.53258E+01  2.48018E+01  1.49830E+01  3.06757E+01
   1.18635E+01  2.08617E+01  2.14422E+01  2.70792E+01  1.51237E+01  2.30081E+01  1.45721E+01  1.96540E+01  2.28430E+01  2.03196E+01
   1.46676E+01  1.15323E+01  1.37014E+01  9.56102E+00  9.66187E+00  1.01350E+01  7.88069E+00  1.06515E+01  8.66402E+00  1.82156E+01
   6.42620E+00  4.60506E+00  8.46582E+00  1.38692E+01  3.56791E+00  1.02940E+01  4.36488E+00  1.16773E+01  1.30954E+01  2.04498E+01
   1.17106E+01  1.47982E+01  1.18611E+01  1.90946E+01  1.30062E+01  1.89676E+01  2.30522E+01  1.87479E+01  2.41484E+01  2.11357E+01
   2.93124E+01  2.09213E+01  2.30701E+01  2.89297E+01  2.42030E+01  3.09005E+01  3.25816E+01  2.94482E+01  2.40368E+01  2.84756E+01
   2.31625E+01  2.76588E+01  2.25044E+01  2.55358E+01  1.98988E+01  1.72572E+01  1.98760E+01  1.21848E+01  1.38595E+01  2.44443E+01
   1.76315E+01  1.72112E+01  1.27026E+01  1.56136E+01  9.21647E+00  1.66897E+01  7.82513E+00  1.14172E+01  2.70446E+00  3.89405E+00
   5.17197E+00  3.19303E+00  9.02533E+00  3.42950E+00  3.95149E+00  8.43930E+00 -5.28099E-01  6.38017E+00 -7.01872E-01  2.28777E+00
   7.39747E+00  3.60893E-01  2.40524E+00  3.90808E+00  7.60885E+00  5.30985E+00  6.65806E+00  5.83888E+00  4.39199E+00  6.43251E+00
  -1.57644E+00 -1.24629E+00  3.61547E+00  5.51703E-02  2.66519E+00  5.48252E+00 -2.38907E-01  2.60077E+00  2.90724E+00  5.07033E+00
   2.55553E+00  6.10534E+00  3.34508E+00  2.02367E+00  6.70504E-01  6.20825E+00  2.93514E+00  5.58930E+00  1.04520E+00  2.97473E+00
   3.38051E+00  9.43020E+00  3.14344E+00  5.88505E+00  3.38898E+00  7.92916E+00  5.73689E+00  5.17199E+00  6.56056E+00 -8.00513E-02
   9.11531E+00  5.56121E+00  3.90263E+00  1.25560E+01  5.64468E+00  3.05594E+00  3.80311E+00  6.59811E+00  3.71978E+00  8.41443E+00
   1.15802E+01  8.40152E+00 -1.21956E+00 -5.75240E+00  4.75695E+00  1.96049E+00  6.41252E+00  1.78301E+00
 NY points of the fit to the data follow
   2.00665E+01  2.11608E+01  2.14094E+01  2.25451E+01  2.58852E+01  3.02261E+01  3.47284E+01  3.98723E+01  4.48434E+01  4.87841E+01
   5.18316E+01  5.36344E+01  5.15955E+01  4.61412E+01  4.03981E+01  3.52999E+01  3.13534E+01  2.87694E+01  2.57155E+01  2.36670E+01
   2.21027E+01  2.03609E+01  1.87426E+01  1.83720E+01  1.90032E+01  1.98486E+01  2.17416E+01  2.46885E+01  2.81838E+01  3.07476E+01
   3.12194E+01  3.07855E+01  2.93921E+01  2.65832E+01  2.32440E+01  2.01639E+01  1.79315E+01  1.69170E+01  1.61276E+01  1.68719E+01
   1.85068E+01  1.85558E+01  1.85231E+01  1.98581E+01  2.28052E+01  2.67809E+01  2.96539E+01  2.95269E+01  2.65081E+01  2.21095E+01
   1.84126E+01  1.65122E+01  1.59250E+01  1.59581E+01  1.60403E+01  1.57942E+01  1.49416E+01  1.46189E+01  1.56724E+01  1.68999E+01
   1.69233E+01  1.60924E+01  1.46722E+01  1.36353E+01  1.33720E+01  1.35646E+01  1.41970E+01  1.49210E+01  1.53500E+01  1.55082E+01
   1.56047E+01  1.57609E+01  1.58377E+01  1.58973E+01  1.60192E+01  1.58761E+01  1.52624E+01  1.46532E+01  1.43394E+01  1.41250E+01
   1.36176E+01  1.33492E+01  1.36270E+01  1.43710E+01  1.50062E+01  1.48668E+01  1.37138E+01  1.18921E+01  1.06717E+01  1.02210E+01
   1.03968E+01  1.10212E+01  1.14756E+01  1.16601E+01  1.18278E+01  1.28223E+01  1.63332E+01  1.85146E+01  1.96610E+01  2.16351E+01
   2.66275E+01  3.51786E+01  4.48143E+01  5.13308E+01  5.02742E+01  4.33459E+01  3.58715E+01  2.92681E+01  2.49638E+01  2.29838E+01
   2.17048E+01  2.00826E+01  1.74827E+01  1.23912E+01  9.51010E+00  9.13462E+00  9.39105E+00  9.94162E+00  1.17671E+01  1.58074E+01
   2.08254E+01  2.48416E+01  2.78870E+01  3.37476E+01  4.40106E+01  5.79376E+01  7.06200E+01  7.61767E+01  7.24415E+01  6.24176E+01
   5.15657E+01  4.28408E+01  3.63826E+01  3.17630E+01  2.73807E+01  2.25342E+01  1.66014E+01  1.11764E+01  8.47228E+00  8.79514E+00
   9.32707E+00  9.19677E+00  8.40754E+00  7.86134E+00  7.69726E+00  7.67448E+00  7.75017E+00  7.77092E+00  7.46811E+00  7.06749E+00
   6.49492E+00  6.08101E+00  5.79064E+00  5.37905E+00  5.20966E+00  5.28590E+00  5.40228E+00  5.39008E+00  4.70946E+00  3.64652E+00
   2.80575E+00  2.79320E+00  3.56905E+00  4.39585E+00  4.72265E+00  4.11061E+00  2.90551E+00  1.75896E+00  7.26779E-01  1.47727E-01
   4.17298E-01  4.03472E-01 -2.64902E-01 -1.58582E+00 -2.92152E+00 -3.25881E+00 -2.70431E+00 -1.87105E+00 -1.59307E+00 -2.05093E+00
  -2.33434E+00 -2.07351E+00 -1.48043E+00 -9.79839E-01 -6.22589E-01  3.01080E-02  1.22118E+00  3.06538E+00  5.36437E+00  7.25231E+00
   8.40121E+00  8.47193E+00  7.42705E+00  6.36471E+00  5.74119E+00  5.64459E+00  6.48270E+00  7.64726E+00  8.73382E+00  9.91976E+00
   1.12968E+01  1.25614E+01  1.29973E+01  1.35343E+01  1.30530E+01  1.09620E+01  7.89960E+00  4.57439E+00  2.28912E+00  8.56079E-01
   1.08320E+00  3.05767E+00  5.95331E+00  9.72039E+00  1.27973E+01  1.41058E+01  1.36114E+01  1.13363E+01  7.95040E+00  4.76132E+00
   1.40271E+00 -6.70200E-01  8.03711E-02  2.79422E+00  6.03033E+00  8.12596E+00  9.67588E+00  1.05351E+01  1.01923E+01  1.00274E+01
   1.01630E+01  1.12999E+01  1.29471E+01  1.38790E+01  1.39484E+01  1.37522E+01  1.40617E+01  1.42693E+01  1.39437E+01  1.32235E+01
   1.22564E+01  1.10123E+01  1.00134E+01  1.02066E+01  1.13689E+01  1.27922E+01  1.36250E+01  1.41025E+01  1.42743E+01  1.44669E+01
   1.51485E+01  1.79092E+01  2.83632E+01  4.00680E+01  4.32582E+01  4.65825E+01  5.50214E+01  7.36924E+01  1.00426E+02  1.26205E+02
   1.36354E+02  1.24765E+02  1.04290E+02  8.42341E+01  6.75209E+01  5.84452E+01  5.34502E+01  4.87944E+01  4.29795E+01  3.08548E+01
   1.65037E+01  1.19638E+01  1.08055E+01  1.02906E+01  9.99542E+00  9.82660E+00  9.46976E+00  9.03607E+00  8.61502E+00  8.24823E+00
   7.94028E+00  7.75923E+00  7.62109E+00  7.46051E+00  7.35364E+00  7.31417E+00  7.32529E+00  7.40936E+00  7.57923E+00  7.84957E+00
   8.23720E+00  8.70716E+00  9.27019E+00  9.93129E+00  1.06849E+01  1.15254E+01  1.24423E+01  1.34211E+01  1.44346E+01  1.54474E+01
   1.64346E+01  1.73647E+01  1.81989E+01  1.89077E+01  1.94602E+01  1.98344E+01  2.00168E+01  2.00027E+01  1.97969E+01  1.94115E+01
   1.88665E+01  1.81888E+01  1.74092E+01  1.65639E+01  1.56915E+01  1.48280E+01  1.40084E+01  1.32680E+01  1.26507E+01  1.21942E+01
   1.17482E+01  1.13532E+01  1.11501E+01  1.11472E+01  1.12951E+01  1.14313E+01  1.14028E+01  1.12588E+01  1.11520E+01  1.11623E+01
   1.13370E+01  1.17102E+01  1.23658E+01  1.32789E+01  1.43863E+01  1.54665E+01  1.62473E+01  1.69330E+01  1.76196E+01  1.82170E+01
   1.88156E+01  1.94310E+01  2.00544E+01  2.06813E+01  2.11803E+01  2.15210E+01  2.18737E+01  2.22169E+01  2.25235E+01  2.27955E+01
   2.30309E+01  2.32262E+01  2.33831E+01  2.34893E+01  2.35288E+01  2.34725E+01  2.32977E+01  2.30273E+01  2.26754E+01  2.22376E+01
   2.17267E+01  2.11506E+01  2.05167E+01  1.98347E+01  1.91011E+01  1.83360E+01  1.75637E+01  1.67923E+01  1.60305E+01  1.52877E+01
   1.45725E+01  1.38922E+01  1.32534E+01  1.26617E+01  1.21218E+01  1.16377E+01  1.12128E+01  1.08499E+01  1.05516E+01  1.03209E+01
   1.01607E+01  1.00741E+01  1.00647E+01  1.01363E+01  1.02930E+01  1.05393E+01  1.08797E+01  1.13183E+01  1.18581E+01  1.25011E+01
   1.32476E+01  1.40957E+01  1.50402E+01  1.60727E+01  1.71808E+01  1.83483E+01  1.95550E+01  2.07770E+01  2.19872E+01  2.31559E+01
   2.42522E+01  2.52454E+01  2.61062E+01  2.68080E+01  2.73283E+01  2.76502E+01  2.77627E+01  2.76620E+01  2.73511E+01  2.68401E+01
   2.61446E+01  2.52857E+01  2.42885E+01  2.31808E+01  2.19917E+01  2.07501E+01  1.94833E+01  1.82166E+01  1.69722E+01  1.57687E+01
   1.46209E+01  1.35397E+01  1.25322E+01  1.16026E+01  1.07520E+01  9.97948E+00  9.28203E+00  8.65532E+00  8.09417E+00  7.59303E+00
   7.14618E+00  6.74796E+00  6.39286E+00  6.07567E+00  5.79173E+00  5.53688E+00  5.30747E+00  5.10023E+00  4.91222E+00  4.74092E+00
   4.58421E+00  4.44035E+00  4.30781E+00  4.18521E+00  4.07130E+00  3.96506E+00  3.86570E+00  3.77254E+00  3.68494E+00  3.60230E+00
   3.52406E+00  3.44981E+00  3.37923E+00  3.31206E+00  3.24799E+00  3.18668E+00  3.12785E+00  3.07135E+00  3.01704E+00  2.96479E+00
   2.91438E+00  2.86563E+00  2.81841E+00  2.77266E+00  2.72836E+00  2.68538E+00  2.64355E+00  2.60277E+00  2.56297E+00  2.52418E+00
   2.48637E+00  2.44943E+00  2.41324E+00  2.37774E+00  2.34294E+00  2.30886E+00  2.27545E+00  2.24262E+00  2.21026E+00  2.17837E+00
   2.14699E+00  2.11612E+00  2.08572E+00  2.05566E+00  2.02590E+00  1.99647E+00  1.96740E+00  1.93870E+00  1.91026E+00  1.88200E+00
   1.85391E+00  1.82602E+00  1.79839E+00  1.77096E+00  1.74362E+00  1.71629E+00  1.68900E+00  1.66181E+00
 NY background values follow
     7.096E+00    7.083E+00    7.070E+00    7.057E+00    7.044E+00    7.031E+00    7.018E+00    7.005E+00    6.991E+00    6.978E+00
     6.965E+00    6.952E+00    6.939E+00    6.926E+00    6.913E+00    6.900E+00    6.886E+00    6.873E+00    6.860E+00    6.847E+00
     6.834E+00    6.821E+00    6.807E+00    6.794E+00    6.781E+00    6.768E+00    6.755E+00    6.742E+00    6.728E+00    6.715E+00
     6.702E+00    6.689E+00    6.675E+00    6.662E+00    6.649E+00    6.636E+00    6.623E+00    6.609E+00    6.596E+00    6.583E+00
     6.570E+00    6.556E+00    6.543E+00    6.530E+00    6.517E+00    6.503E+00    6.490E+00    6.477E+00    6.463E+00    6.450E+00
     6.437E+00    6.424E+00    6.410E+00    6.397E+00    6.384E+00    6.370E+00    6.357E+00    6.344E+00    6.330E+00    6.317E+00
     6.304E+00    6.290E+00    6.277E+00    6.264E+00    6.250E+00    6.237E+00    6.224E+00    6.210E+00    6.197E+00    6.184E+00
     6.170E+00    6.157E+00    6.144E+00    6.130E+00    6.117E+00    6.103E+00    6.090E+00    6.077E+00    6.063E+00    6.050E+00
     6.036E+00    6.023E+00    6.010E+00    5.996E+00    5.983E+00    5.969E+00    5.956E+00    5.943E+00    5.929E+00    5.916E+00
     5.902E+00    5.889E+00    5.875E+00    5.862E+00    5.848E+00    5.835E+00    5.822E+00    5.808E+00    5.795E+00    5.781E+00
     5.768E+00    5.754E+00    5.741E+00    5.727E+00    5.714E+00    5.700E+00    5.687E+00    5.673E+00    5.660E+00    5.646E+00
     5.633E+00    5.619E+00    5.606E+00    5.592E+00    5.579E+00    5.565E+00    5.552E+00    5.538E+00    5.525E+00    5.511E+00
     5.498E+00    5.484E+00    5.471E+00    5.457E+00    5.444E+00    5.430E+00    5.417E+00    5.403E+00    5.389E+00    5.376E+00
     5.362E+00    5.349E+00    5.335E+00    5.322E+00    5.308E+00    5.295E+00    5.281E+00    5.267E+00    5.254E+00    5.240E+00
     5.227E+00    5.213E+00    5.200E+00    5.186E+00    5.172E+00    5.159E+00    5.145E+00    5.132E+00    5.118E+00    5.104E+00
     5.091E+00    5.077E+00    5.064E+00    5.050E+00    5.036E+00    5.023E+00    5.009E+00    4.996E+00    4.982E+00    4.968E+00
     4.955E+00    4.941E+00    4.928E+00    4.914E+00    4.900E+00    4.887E+00    4.873E+00    4.859E+00    4.846E+00    4.832E+00
     4.819E+00    4.805E+00    4.791E+00    4.778E+00    4.764E+00    4.750E+00    4.737E+00    4.723E+00    4.709E+00    4.696E+00
     4.682E+00    4.668E+00    4.655E+00    4.641E+00    4.627E+00    4.614E+00    4.600E+00    4.587E+00    4.573E+00    4.559E+00
     4.546E+00    4.532E+00    4.518E+00    4.504E+00    4.491E+00    4.477E+00    4.463E+00    4.450E+00    4.436E+00    4.422E+00
     4.409E+00    4.395E+00    4.381E+00    4.368E+00    4.354E+00    4.340E+00    4.327E+00    4.313E+00    4.299E+00    4.286E+00
     4.272E+00    4.258E+00    4.245E+00    4.231E+00    4.217E+00    4.203E+00    4.190E+00    4.176E+00    4.162E+00    4.149E+00
     4.135E+00    4.121E+00    4.108E+00    4.094E+00    4.080E+00    4.066E+00    4.053E+00    4.039E+00    4.025E+00    4.012E+00
     3.998E+00    3.984E+00    3.970E+00    3.957E+00    3.943E+00    3.929E+00    3.916E+00    3.902E+00    3.888E+00    3.874E+00
     3.861E+00    3.847E+00    3.833E+00    3.819E+00    3.806E+00    3.792E+00    3.778E+00    3.765E+00    3.751E+00    3.737E+00
     3.723E+00    3.710E+00    3.696E+00    3.682E+00    3.668E+00    3.655E+00    3.641E+00    3.627E+00    3.614E+00    3.600E+00
     3.586E+00    3.572E+00    3.559E+00    3.545E+00    3.531E+00    3.517E+00    3.504E+00    3.490E+00    3.476E+00    3.462E+00
     3.449E+00    3.435E+00    3.421E+00    3.408E+00    3.394E+00    3.380E+00    3.366E+00    3.353E+00    3.339E+00    3.325E+00
     3.311E+00    3.298E+00    3.284E+00    3.270E+00    3.256E+00    3.243E+00    3.229E+00    3.215E+00    3.201E+00    3.188E+00
     3.174E+00    3.160E+00    3.146E+00    3.133E+00    3.119E+00    3.105E+00    3.091E+00    3.078E+00    3.064E+00    3.050E+00
     3.036E+00    3.023E+00    3.009E+00    2.995E+00    2.981E+00    2.968E+00    2.954E+00    2.940E+00    2.927E+00    2.913E+00
     2.899E+00    2.885E+00    2.872E+00    2.858E+00    2.844E+00    2.830E+00    2.817E+00    2.803E+00    2.789E+00    2.775E+00
     2.762E+00    2.748E+00    2.734E+00    2.720E+00    2.707E+00    2.693E+00    2.679E+00    2.665E+00    2.652E+00    2.638E+00
     2.624E+00    2.610E+00    2.597E+00    2.583E+00    2.569E+00    2.555E+00    2.542E+00    2.528E+00    2.514E+00    2.500E+00
     2.487E+00    2.473E+00    2.459E+00    2.446E+00    2.432E+00    2.418E+00    2.404E+00    2.391E+00    2.377E+00    2.363E+00
     2.349E+00    2.336E+00    2.322E+00    2.308E+00    2.294E+00    2.281E+00    2.267E+00    2.253E+00    2.240E+00    2.226E+00
     2.212E+00    2.198E+00    2.185E+00    2.171E+00    2.157E+00    2.143E+00    2.130E+00    2.116E+00    2.102E+00    2.089E+00
     2.075E+00    2.061E+00    2.047E+00    2.034E+00    2.020E+00    2.006E+00    1.992E+00    1.979E+00    1.965E+00    1.951E+00
     1.938E+00    1.924E+00    1.910E+00    1.896E+00    1.883E+00    1.869E+00    1.855E+00    1.842E+00    1.828E+00    1.814E+00
     1.800E+00    1.787E+00    1.773E+00    1.759E+00    1.746E+00    1.732E+00    1.718E+00    1.704E+00    1.691E+00    1.677E+00
     1.663E+00    1.650E+00    1.636E+00    1.622E+00    1.609E+00    1.595E+00    1.581E+00    1.567E+00    1.554E+00    1.540E+00
     1.526E+00    1.513E+00    1.499E+00    1.485E+00    1.472E+00    1.458E+00    1.444E+00    1.431E+00    1.417E+00    1.403E+00
     1.389E+00    1.376E+00    1.362E+00    1.348E+00    1.335E+00    1.321E+00    1.307E+00    1.294E+00    1.280E+00    1.266E+00
     1.253E+00    1.239E+00    1.225E+00    1.212E+00    1.198E+00    1.184E+00    1.171E+00    1.157E+00    1.143E+00    1.130E+00
     1.116E+00    1.102E+00    1.089E+00    1.075E+00    1.061E+00    1.048E+00    1.034E+00    1.020E+00    1.007E+00    9.931E-01
     9.795E-01    9.658E-01    9.522E-01    9.385E-01    9.249E-01    9.112E-01    8.976E-01    8.840E-01    8.703E-01    8.567E-01
     8.430E-01    8.294E-01    8.158E-01    8.021E-01    7.885E-01    7.749E-01    7.612E-01    7.476E-01    7.340E-01    7.204E-01
     7.067E-01    6.931E-01    6.795E-01    6.659E-01    6.523E-01    6.386E-01    6.250E-01    6.114E-01    5.978E-01    5.842E-01
     5.706E-01    5.570E-01    5.434E-01    5.298E-01    5.162E-01    5.026E-01    4.890E-01    4.754E-01    4.618E-01    4.482E-01
     4.346E-01    4.210E-01    4.074E-01    3.938E-01    3.802E-01    3.666E-01    3.531E-01    3.395E-01
 Ala      Conc. = 1.27E+02
