 LCModel (Version 6.3-1L) Copyright: S.W. Provencher.          Ref.: Magn. Reson. Med. 30:672-679 (1993).                
 Slice#2 Row#10 Col#4  PD_24_press_2_raw_act
 36 lines in following concentration table = NCONC+1
    Conc.  %SD /Cr+PCr  Metabolite                                         
  128.105  90%   0.110 Ala                                                 
    0.000 999%   0.000 Asp                                                 
  664.062  28%   0.568 Cr                                                  
  504.127  37%   0.432 PCr                                                 
    0.000 999%   0.000 GABA                                                
    0.000 999%   0.000 Glc                                                 
  536.401  43%   0.459 Gln                                                 
  504.092  49%   0.432 Glu                                                 
  393.702   6%   0.337 GPC                                                 
    0.000 999%   0.000 PCh                                                 
  622.798  12%   0.533 GSH                                                 
 1.22E+03  26%   1.045 Ins                                                 
    0.000 999%   0.000 Lac                                                 
 1.97E+03   5%   1.684 NAA                                                 
  185.714  60%   0.159 NAAG                                                
  108.012  26% 9.2E-02 Scyllo                                              
    0.000 999%   0.000 Tau                                                 
    0.000 999%   0.000 -CrCH2                                              
  393.702   6%   0.337 GPC+PCh                                             
 2.15E+03   4%   1.843 NAA+NAAG                                            
 1.17E+03   5%   1.000 Cr+PCr                                              
 1.04E+03  35%   0.891 Glu+Gln                                             
  639.237 107%   0.547 Lip13a                                              
   63.109 316% 5.4E-02 Lip13b                                              
    0.000 999%   0.000 Lip09                                               
 1.49E+03  16%   1.273 MM09                                                
   58.201 316% 5.0E-02 Lip20                                               
 1.70E+03  26%   1.459 MM20                                                
  456.033  36%   0.390 MM12                                                
 2.98E+03  13%   2.547 MM14                                                
 2.44E+03   8%   2.085+MM17                                                
  702.346  78%   0.601 Lip13a+Lip13b                                       
 4.13E+03  17%   3.539 MM14+Lip13a+Lip13b+MM12                             
 1.49E+03  16%   1.273 MM09+Lip09                                          
 1.76E+03  25%   1.509 MM20+Lip20                                          
   6 lines in following misc. output table
  FWHM = 0.046 ppm    S/N =  11                                            
  Data shift = 0.031 ppm                                                   
  Ph: -36 deg     -12.7 deg/ppm                                            
  alphaB,S = 6.0E-01,   2.6E+01                                            
   14 spline knots.   Ns = 8(1)                                            
  (15) 8 infls.   (11) 3 extrs.                                            
  498 points on ppm-axis = NY
      4.000000     3.992357     3.984714     3.977070     3.969427     3.961784     3.954141     3.946497     3.938854     3.931211
      3.923568     3.915925     3.908281     3.900638     3.892995     3.885352     3.877708     3.870065     3.862422     3.854779
      3.847136     3.839492     3.831849     3.824206     3.816563     3.808919     3.801276     3.793633     3.785990     3.778347
      3.770703     3.763060     3.755417     3.747774     3.740130     3.732487     3.724844     3.717201     3.709558     3.701914
      3.694271     3.686628     3.678985     3.671341     3.663698     3.656055     3.648412     3.640769     3.633125     3.625482
      3.617839     3.610196     3.602552     3.594909     3.587266     3.579623     3.571980     3.564336     3.556693     3.549050
      3.541407     3.533763     3.526120     3.518477     3.510834     3.503191     3.495547     3.487904     3.480261     3.472618
      3.464974     3.457331     3.449688     3.442045     3.434402     3.426758     3.419115     3.411472     3.403829     3.396185
      3.388542     3.380899     3.373256     3.365613     3.357969     3.350326     3.342683     3.335040     3.327396     3.319753
      3.312110     3.304467     3.296824     3.289180     3.281537     3.273894     3.266251     3.258607     3.250964     3.243321
      3.235678     3.228034     3.220391     3.212748     3.205105     3.197462     3.189818     3.182175     3.174532     3.166889
      3.159245     3.151602     3.143959     3.136316     3.128673     3.121029     3.113386     3.105743     3.098100     3.090456
      3.082813     3.075170     3.067527     3.059884     3.052240     3.044597     3.036954     3.029311     3.021667     3.014024
      3.006381     2.998738     2.991095     2.983451     2.975808     2.968165     2.960522     2.952878     2.945235     2.937592
      2.929949     2.922306     2.914662     2.907019     2.899376     2.891733     2.884089     2.876446     2.868803     2.861160
      2.853517     2.845873     2.838230     2.830587     2.822944     2.815300     2.807657     2.800014     2.792371     2.784728
      2.777084     2.769441     2.761798     2.754155     2.746511     2.738868     2.731225     2.723582     2.715939     2.708295
      2.700652     2.693009     2.685366     2.677722     2.670079     2.662436     2.654793     2.647150     2.639506     2.631863
      2.624220     2.616577     2.608933     2.601290     2.593647     2.586004     2.578361     2.570717     2.563074     2.555431
      2.547788     2.540144     2.532501     2.524858     2.517215     2.509572     2.501928     2.494285     2.486642     2.478999
      2.471355     2.463712     2.456069     2.448426     2.440783     2.433139     2.425496     2.417853     2.410210     2.402566
      2.394923     2.387280     2.379637     2.371994     2.364350     2.356707     2.349064     2.341421     2.333777     2.326134
      2.318491     2.310848     2.303205     2.295561     2.287918     2.280275     2.272632     2.264988     2.257345     2.249702
      2.242059     2.234416     2.226772     2.219129     2.211486     2.203843     2.196199     2.188556     2.180913     2.173270
      2.165627     2.157983     2.150340     2.142697     2.135054     2.127410     2.119767     2.112124     2.104481     2.096838
      2.089194     2.081551     2.073908     2.066265     2.058621     2.050978     2.043335     2.035692     2.028049     2.020405
      2.012762     2.005119     1.997476     1.989833     1.982190     1.974546     1.966903     1.959260     1.951617     1.943974
      1.936331     1.928688     1.921045     1.913402     1.905759     1.898115     1.890472     1.882829     1.875186     1.867543
      1.859900     1.852257     1.844614     1.836971     1.829327     1.821684     1.814041     1.806398     1.798755     1.791112
      1.783469     1.775826     1.768183     1.760540     1.752896     1.745253     1.737610     1.729967     1.722324     1.714681
      1.707038     1.699395     1.691752     1.684108     1.676465     1.668822     1.661179     1.653536     1.645893     1.638250
      1.630607     1.622964     1.615321     1.607677     1.600034     1.592391     1.584748     1.577105     1.569462     1.561819
      1.554176     1.546533     1.538890     1.531246     1.523603     1.515960     1.508317     1.500674     1.493031     1.485388
      1.477745     1.470102     1.462458     1.454815     1.447172     1.439529     1.431886     1.424243     1.416600     1.408957
      1.401314     1.393671     1.386027     1.378384     1.370741     1.363098     1.355455     1.347812     1.340169     1.332526
      1.324883     1.317240     1.309596     1.301953     1.294310     1.286667     1.279024     1.271381     1.263738     1.256095
      1.248452     1.240808     1.233165     1.225522     1.217879     1.210236     1.202593     1.194950     1.187307     1.179664
      1.172021     1.164377     1.156734     1.149091     1.141448     1.133805     1.126162     1.118519     1.110876     1.103233
      1.095590     1.087946     1.080303     1.072660     1.065017     1.057374     1.049731     1.042088     1.034445     1.026802
      1.019158     1.011515     1.003872     0.996229     0.988586     0.980943     0.973300     0.965657     0.958014     0.950371
      0.942727     0.935084     0.927441     0.919798     0.912155     0.904512     0.896869     0.889226     0.881583     0.873940
      0.866296     0.858653     0.851010     0.843367     0.835724     0.828081     0.820438     0.812795     0.805152     0.797508
      0.789865     0.782222     0.774579     0.766936     0.759293     0.751650     0.744007     0.736364     0.728721     0.721077
      0.713434     0.705791     0.698148     0.690505     0.682862     0.675219     0.667576     0.659933     0.652290     0.644646
      0.637003     0.629360     0.621717     0.614074     0.606431     0.598788     0.591145     0.583502     0.575858     0.568215
      0.560572     0.552929     0.545286     0.537643     0.530000     0.522357     0.514714     0.507071     0.499427     0.491784
      0.484141     0.476498     0.468855     0.461212     0.453569     0.445925     0.438282     0.430639     0.422996     0.415353
      0.407710     0.400067     0.392424     0.384780     0.377137     0.369494     0.361851     0.354208     0.346565     0.338922
      0.331278     0.323635     0.315992     0.308349     0.300706     0.293063     0.285420     0.277777     0.270133     0.262490
      0.254847     0.247204     0.239561     0.231918     0.224275     0.216631     0.208988     0.201345
 NY phased data points follow
  -3.51962E+02 -3.47515E+02 -3.42130E+02 -3.39510E+02 -3.28889E+02 -3.22309E+02 -3.14936E+02 -3.03519E+02 -2.96921E+02 -2.89864E+02
  -2.84846E+02 -2.82844E+02 -2.77636E+02 -2.79582E+02 -2.79265E+02 -2.84433E+02 -2.81582E+02 -2.78955E+02 -2.77136E+02 -2.76566E+02
  -2.70040E+02 -2.70895E+02 -2.66038E+02 -2.63269E+02 -2.56943E+02 -2.56549E+02 -2.49764E+02 -2.48216E+02 -2.40503E+02 -2.34581E+02
  -2.26716E+02 -2.27198E+02 -2.27498E+02 -2.22738E+02 -2.22475E+02 -2.18214E+02 -2.16682E+02 -2.10867E+02 -2.06339E+02 -2.06315E+02
  -2.02629E+02 -1.98364E+02 -1.97292E+02 -1.94401E+02 -1.91160E+02 -1.91081E+02 -1.85644E+02 -1.85071E+02 -1.85482E+02 -1.84658E+02
  -1.81319E+02 -1.81349E+02 -1.80409E+02 -1.79414E+02 -1.79724E+02 -1.76036E+02 -1.74254E+02 -1.72324E+02 -1.71632E+02 -1.69912E+02
  -1.67697E+02 -1.66980E+02 -1.69019E+02 -1.65992E+02 -1.64807E+02 -1.62669E+02 -1.61689E+02 -1.59326E+02 -1.56372E+02 -1.53633E+02
  -1.51656E+02 -1.51508E+02 -1.50207E+02 -1.45721E+02 -1.47547E+02 -1.44786E+02 -1.40476E+02 -1.40680E+02 -1.41957E+02 -1.38799E+02
  -1.38329E+02 -1.40241E+02 -1.30525E+02 -1.31034E+02 -1.33112E+02 -1.25685E+02 -1.25108E+02 -1.24916E+02 -1.24118E+02 -1.20658E+02
  -1.20404E+02 -1.18685E+02 -1.19361E+02 -1.13687E+02 -1.13755E+02 -1.12786E+02 -1.12772E+02 -1.09561E+02 -1.02359E+02 -9.76164E+01
  -9.13032E+01 -8.14074E+01 -7.64665E+01 -7.67312E+01 -7.77283E+01 -8.37127E+01 -8.86926E+01 -8.98553E+01 -9.30962E+01 -9.09487E+01
  -9.37638E+01 -8.93933E+01 -9.36209E+01 -9.20638E+01 -8.77183E+01 -8.83739E+01 -9.13732E+01 -9.34788E+01 -8.94781E+01 -8.38952E+01
  -8.61534E+01 -8.46311E+01 -8.01748E+01 -7.33044E+01 -6.32630E+01 -5.79564E+01 -5.06464E+01 -4.93789E+01 -4.40023E+01 -4.84099E+01
  -5.52912E+01 -6.16576E+01 -6.55819E+01 -6.90614E+01 -6.81295E+01 -7.40968E+01 -7.32440E+01 -7.54299E+01 -7.30018E+01 -7.05196E+01
  -7.10973E+01 -7.09410E+01 -6.88398E+01 -7.03030E+01 -7.10400E+01 -7.25452E+01 -6.95688E+01 -6.79184E+01 -7.10685E+01 -6.94928E+01
  -6.61953E+01 -7.06650E+01 -7.08373E+01 -6.66653E+01 -6.95294E+01 -6.47495E+01 -6.42716E+01 -6.26487E+01 -6.34320E+01 -6.39597E+01
  -6.41733E+01 -6.39666E+01 -6.69301E+01 -6.37477E+01 -6.18203E+01 -6.33349E+01 -6.18427E+01 -5.81999E+01 -5.79317E+01 -6.02642E+01
  -6.05645E+01 -6.42228E+01 -6.49745E+01 -6.63145E+01 -6.73583E+01 -6.34271E+01 -6.18838E+01 -6.56149E+01 -6.46739E+01 -6.24248E+01
  -6.12324E+01 -6.04315E+01 -5.90832E+01 -5.92681E+01 -5.86471E+01 -5.36230E+01 -5.95631E+01 -5.29602E+01 -4.96590E+01 -4.66178E+01
  -4.63635E+01 -4.65967E+01 -4.43302E+01 -4.57098E+01 -4.33742E+01 -4.30460E+01 -4.43633E+01 -4.27905E+01 -4.06403E+01 -4.17059E+01
  -4.65614E+01 -4.19130E+01 -3.92966E+01 -3.72458E+01 -3.76010E+01 -3.59959E+01 -3.76171E+01 -3.83557E+01 -3.66519E+01 -3.91386E+01
  -3.66484E+01 -3.33002E+01 -3.53820E+01 -3.40081E+01 -3.00274E+01 -2.60899E+01 -2.49274E+01 -2.58408E+01 -2.52961E+01 -2.87526E+01
  -2.85737E+01 -2.63210E+01 -2.48688E+01 -2.79234E+01 -2.65810E+01 -2.63584E+01 -2.21308E+01 -2.38295E+01 -2.30101E+01 -2.09995E+01
  -2.16669E+01 -2.26064E+01 -2.52707E+01 -2.26731E+01 -2.91912E+01 -2.11441E+01 -2.25250E+01 -2.14605E+01 -2.29577E+01 -2.51529E+01
  -2.59584E+01 -2.63949E+01 -2.56294E+01 -2.03005E+01 -2.21077E+01 -2.32017E+01 -1.92574E+01 -1.74335E+01 -1.76040E+01 -1.46680E+01
  -9.68045E+00 -8.99636E+00 -6.72772E+00  1.09462E-01 -3.46789E+00  2.93354E+00  9.34966E+00  2.35953E+01  2.92205E+01  4.16854E+01
   4.53289E+01  5.16871E+01  3.57903E+01  2.45294E+01  1.14887E+01  4.91522E+00  2.09026E+00 -7.77845E-01 -1.03845E+01 -1.29882E+01
  -1.34324E+01 -1.66262E+01 -1.49725E+01 -1.57930E+01 -1.58648E+01 -1.22162E+01 -1.49524E+01 -1.23181E+01 -1.50153E+01 -1.46144E+01
  -1.83590E+01 -1.07211E+01 -1.78122E+01 -1.60606E+01 -1.39094E+01 -1.48535E+01 -1.28641E+01 -1.62541E+01 -1.41921E+01 -1.39043E+01
  -1.77846E+01 -1.74183E+01 -1.18221E+01 -1.48913E+01 -1.16570E+01 -1.23229E+01 -1.49318E+01 -1.34895E+01 -9.57195E+00 -7.09876E+00
  -1.11943E+01 -9.39014E+00 -6.61546E+00 -1.35641E+00 -7.50555E-01  8.22984E-01 -8.79713E-01  6.22053E+00  9.61720E+00  1.17779E+01
   1.19335E+01  1.29394E+01  1.76233E+01  2.15589E+01  2.25574E+01  2.13175E+01  2.04872E+01  2.71176E+01  2.19941E+01  2.26943E+01
   2.00891E+01  1.99504E+01  2.23787E+01  2.79447E+01  1.82187E+01  2.30827E+01  2.24374E+01  2.15574E+01  2.16494E+01  1.84619E+01
   1.84889E+01  1.84061E+01  1.89511E+01  2.11247E+01  1.90695E+01  2.23661E+01  2.18080E+01  1.93371E+01  1.72724E+01  1.96608E+01
   1.05114E+01  1.38980E+01  1.76126E+01  1.32734E+01  1.28490E+01  1.28848E+01  1.13755E+01  1.39464E+01  1.34851E+01  1.43725E+01
   1.64585E+01  1.49093E+01  9.88697E+00  1.43544E+01  1.17893E+01  1.32182E+01  9.16096E+00  7.89975E+00  1.13391E+01  8.84416E+00
   9.13907E+00  9.43321E+00  9.03341E+00  1.15777E+01  9.34276E+00  1.16992E+01  7.75691E+00  7.89421E+00  1.02619E+01  8.39540E+00
   9.08421E+00  9.49659E+00  1.08124E+01  1.11535E+01  8.54290E+00  9.17075E+00  9.59587E+00  1.27907E+01  8.27911E+00  7.37276E+00
   7.90962E+00  8.77473E+00  9.81477E+00  7.28645E+00  1.07645E+01  9.14727E+00  1.01166E+01  9.72106E+00  7.79115E+00  1.02862E+01
   1.14268E+01  1.09094E+01  1.09819E+01  1.26368E+01  1.14948E+01  1.47544E+01  1.10369E+01  1.54622E+01  1.70063E+01  1.70486E+01
   1.67351E+01  1.60208E+01  1.88497E+01  1.80791E+01  1.63186E+01  1.88254E+01  1.49567E+01  2.00945E+01  1.92723E+01  1.99655E+01
   1.68673E+01  2.06229E+01  1.76417E+01  1.51525E+01  1.63351E+01  1.26934E+01  1.20630E+01  1.10485E+01  1.54014E+01  7.48160E+00
   9.87365E+00  1.09686E+01  1.63925E+01  9.95665E+00  1.01511E+01  1.14135E+01  9.13202E+00  1.37222E+01  9.32615E+00  1.10221E+01
   8.47558E+00  9.49062E+00  1.02396E+01  1.33403E+01  1.13899E+01  1.31999E+01  1.46440E+01  1.05988E+01  1.53010E+01  1.56017E+01
   1.22552E+01  1.50588E+01  1.20071E+01  8.64409E+00  9.54511E+00  1.33413E+01  1.10279E+01  1.25219E+01  1.38947E+01  1.23521E+01
   1.35817E+01  1.62232E+01  1.03785E+01  1.54420E+01  1.41226E+01  1.16762E+01  1.06630E+01  1.40133E+01  1.33462E+01  1.21996E+01
   1.33438E+01  1.29510E+01  8.51994E+00  1.41714E+01  9.91870E+00  1.12810E+01  1.10042E+01  1.10721E+01  1.35940E+01  1.18537E+01
   1.40028E+01  1.16447E+01  1.06858E+01  1.21245E+01  1.21909E+01  1.52551E+01  1.17822E+01  1.00301E+01  7.93197E+00  8.44591E+00
   1.03457E+01  1.00233E+01  1.38356E+01  6.54549E+00  1.25622E+01  1.03661E+01  1.28617E+01  1.03013E+01  9.31738E+00  1.34650E+01
   1.58245E+01  1.50335E+01  1.14541E+01  1.21973E+01  1.63888E+01  1.42062E+01  1.24333E+01  1.41832E+01
 NY points of the fit to the data follow
  -3.45519E+02 -3.41364E+02 -3.36828E+02 -3.32064E+02 -3.26830E+02 -3.21502E+02 -3.14762E+02 -3.06891E+02 -2.98984E+02 -2.91740E+02
  -2.85805E+02 -2.82019E+02 -2.80524E+02 -2.80794E+02 -2.81206E+02 -2.80603E+02 -2.79210E+02 -2.77391E+02 -2.75719E+02 -2.74088E+02
  -2.72041E+02 -2.69435E+02 -2.65551E+02 -2.62152E+02 -2.59668E+02 -2.56047E+02 -2.51002E+02 -2.45354E+02 -2.39407E+02 -2.33249E+02
  -2.27750E+02 -2.24049E+02 -2.22706E+02 -2.22645E+02 -2.22409E+02 -2.21301E+02 -2.19717E+02 -2.17921E+02 -2.15567E+02 -2.13271E+02
  -2.11149E+02 -2.08157E+02 -2.04143E+02 -1.99952E+02 -1.96047E+02 -1.92405E+02 -1.89262E+02 -1.87158E+02 -1.86376E+02 -1.86227E+02
  -1.85572E+02 -1.84181E+02 -1.82396E+02 -1.80531E+02 -1.78676E+02 -1.76623E+02 -1.74329E+02 -1.71926E+02 -1.69530E+02 -1.67479E+02
  -1.65880E+02 -1.64696E+02 -1.63626E+02 -1.62326E+02 -1.60834E+02 -1.59098E+02 -1.57112E+02 -1.55090E+02 -1.53169E+02 -1.51334E+02
  -1.49590E+02 -1.47931E+02 -1.46456E+02 -1.45166E+02 -1.43938E+02 -1.42693E+02 -1.41372E+02 -1.40079E+02 -1.38678E+02 -1.36923E+02
  -1.35803E+02 -1.34604E+02 -1.32865E+02 -1.30953E+02 -1.29153E+02 -1.27351E+02 -1.25688E+02 -1.24203E+02 -1.23350E+02 -1.22948E+02
  -1.22395E+02 -1.21455E+02 -1.20214E+02 -1.18739E+02 -1.15996E+02 -1.12432E+02 -1.11871E+02 -1.09624E+02 -1.03778E+02 -9.65105E+01
  -8.93218E+01 -8.22404E+01 -7.65644E+01 -7.40714E+01 -7.66008E+01 -8.22565E+01 -8.76254E+01 -9.08165E+01 -9.19271E+01 -9.27616E+01
  -9.43622E+01 -9.56015E+01 -9.64793E+01 -9.62893E+01 -9.55831E+01 -9.47504E+01 -9.38541E+01 -9.28209E+01 -9.11647E+01 -8.70603E+01
  -8.43774E+01 -8.35752E+01 -7.93381E+01 -7.21035E+01 -6.45753E+01 -5.71585E+01 -5.02891E+01 -4.57817E+01 -4.57197E+01 -5.03288E+01
  -5.66305E+01 -6.16040E+01 -6.41117E+01 -6.54425E+01 -6.77420E+01 -7.08662E+01 -7.35857E+01 -7.49394E+01 -7.44995E+01 -7.32628E+01
  -7.17958E+01 -7.05920E+01 -6.97698E+01 -6.93518E+01 -6.91352E+01 -6.89000E+01 -6.86327E+01 -6.83496E+01 -6.80308E+01 -6.78303E+01
  -6.76832E+01 -6.75545E+01 -6.73852E+01 -6.72649E+01 -6.69402E+01 -6.64193E+01 -6.59696E+01 -6.55684E+01 -6.54243E+01 -6.54128E+01
  -6.52300E+01 -6.49337E+01 -6.44962E+01 -6.38167E+01 -6.31184E+01 -6.26862E+01 -6.26687E+01 -6.29299E+01 -6.31112E+01 -6.29599E+01
  -6.24190E+01 -6.21148E+01 -6.21420E+01 -6.22406E+01 -6.21288E+01 -6.17814E+01 -6.13418E+01 -6.08532E+01 -6.01713E+01 -5.95362E+01
  -5.90006E+01 -5.85355E+01 -5.81014E+01 -5.73452E+01 -5.62919E+01 -5.52752E+01 -5.41939E+01 -5.27040E+01 -5.07367E+01 -4.85668E+01
  -4.69575E+01 -4.57647E+01 -4.51123E+01 -4.51770E+01 -4.55465E+01 -4.56406E+01 -4.52152E+01 -4.45517E+01 -4.36852E+01 -4.23072E+01
  -4.05236E+01 -3.88713E+01 -3.76592E+01 -3.65992E+01 -3.62106E+01 -3.65964E+01 -3.71769E+01 -3.76509E+01 -3.80486E+01 -3.82535E+01
  -3.79242E+01 -3.67922E+01 -3.52311E+01 -3.37898E+01 -3.24971E+01 -3.12305E+01 -3.00223E+01 -2.92854E+01 -2.94026E+01 -2.97674E+01
  -2.99240E+01 -2.97690E+01 -2.93024E+01 -2.86828E+01 -2.78000E+01 -2.65248E+01 -2.54182E+01 -2.48999E+01 -2.46991E+01 -2.43193E+01
  -2.39893E+01 -2.39763E+01 -2.37420E+01 -2.28582E+01 -2.18203E+01 -2.08765E+01 -2.00323E+01 -1.94796E+01 -1.93737E+01 -1.99457E+01
  -2.09145E+01 -2.17245E+01 -2.20282E+01 -2.17660E+01 -2.10555E+01 -2.00236E+01 -1.88897E+01 -1.77758E+01 -1.66647E+01 -1.61457E+01
  -1.55375E+01 -1.36690E+01 -7.92524E+00 -2.09697E+00 -1.82781E+00  2.59128E+00  1.25524E+01  2.29109E+01  3.19854E+01  4.06312E+01
   4.67904E+01  4.69264E+01  3.80511E+01  2.45545E+01  1.27610E+01  5.44422E+00  1.81768E+00 -1.92002E+00 -6.88582E+00 -1.09347E+01
  -1.40595E+01 -1.51560E+01 -1.55482E+01 -1.57442E+01 -1.58490E+01 -1.59081E+01 -1.59720E+01 -1.60275E+01 -1.60388E+01 -1.59971E+01
  -1.59182E+01 -1.58152E+01 -1.56906E+01 -1.55408E+01 -1.53649E+01 -1.51812E+01 -1.49872E+01 -1.47698E+01 -1.45191E+01 -1.42332E+01
  -1.39099E+01 -1.35455E+01 -1.31266E+01 -1.26562E+01 -1.21324E+01 -1.15422E+01 -1.08671E+01 -1.00886E+01 -9.19020E+00 -8.15930E+00
  -6.98034E+00 -5.64635E+00 -4.15544E+00 -2.51148E+00 -7.23961E-01  1.19240E+00  3.21611E+00  5.31560E+00  7.45454E+00  9.59022E+00
   1.16779E+01  1.36729E+01  1.55322E+01  1.72184E+01  1.87020E+01  1.99635E+01  2.09957E+01  2.18069E+01  2.24323E+01  2.28989E+01
   2.30211E+01  2.30099E+01  2.30643E+01  2.30166E+01  2.27638E+01  2.23548E+01  2.17954E+01  2.12162E+01  2.04698E+01  1.95271E+01
   1.88401E+01  1.85648E+01  1.85345E+01  1.85908E+01  1.86657E+01  1.87983E+01  1.88478E+01  1.86352E+01  1.81596E+01  1.75319E+01
   1.68976E+01  1.63185E+01  1.57151E+01  1.50718E+01  1.44286E+01  1.38175E+01  1.32908E+01  1.28397E+01  1.24585E+01  1.21441E+01
   1.18919E+01  1.16943E+01  1.15412E+01  1.14207E+01  1.13204E+01  1.12284E+01  1.11349E+01  1.10326E+01  1.09181E+01  1.07907E+01
   1.06522E+01  1.05057E+01  1.03547E+01  1.02025E+01  1.00519E+01  9.90461E+00  9.76131E+00  9.62220E+00  9.48726E+00  9.35663E+00
   9.23085E+00  9.11091E+00  8.99819E+00  8.89449E+00  8.80202E+00  8.72328E+00  8.66103E+00  8.61810E+00  8.59741E+00  8.60191E+00
   8.63471E+00  8.69898E+00  8.79791E+00  8.93460E+00  9.11200E+00  9.33283E+00  9.59951E+00  9.91390E+00  1.02771E+01  1.06890E+01
   1.11485E+01  1.16528E+01  1.21975E+01  1.27763E+01  1.33812E+01  1.40020E+01  1.46271E+01  1.52433E+01  1.58368E+01  1.63929E+01
   1.68975E+01  1.73370E+01  1.76997E+01  1.79757E+01  1.81583E+01  1.82434E+01  1.82306E+01  1.81225E+01  1.79249E+01  1.76463E+01
   1.72973E+01  1.68904E+01  1.64392E+01  1.59577E+01  1.54597E+01  1.49582E+01  1.44651E+01  1.39904E+01  1.35425E+01  1.31276E+01
   1.27505E+01  1.24138E+01  1.21188E+01  1.18652E+01  1.16517E+01  1.14764E+01  1.13364E+01  1.12289E+01  1.11505E+01  1.10980E+01
   1.10681E+01  1.10578E+01  1.10644E+01  1.10852E+01  1.11180E+01  1.11605E+01  1.12110E+01  1.12678E+01  1.13294E+01  1.13947E+01
   1.14624E+01  1.15315E+01  1.16012E+01  1.16706E+01  1.17390E+01  1.18057E+01  1.18701E+01  1.19317E+01  1.19899E+01  1.20442E+01
   1.20943E+01  1.21396E+01  1.21796E+01  1.22142E+01  1.22436E+01  1.22679E+01  1.22875E+01  1.23026E+01  1.23134E+01  1.23202E+01
   1.23234E+01  1.23231E+01  1.23197E+01  1.23135E+01  1.23047E+01  1.22937E+01  1.22808E+01  1.22663E+01  1.22505E+01  1.22337E+01
   1.22162E+01  1.21984E+01  1.21805E+01  1.21630E+01  1.21460E+01  1.21299E+01  1.21151E+01  1.21020E+01  1.20907E+01  1.20817E+01
   1.20752E+01  1.20716E+01  1.20713E+01  1.20745E+01  1.20816E+01  1.20930E+01  1.21088E+01  1.21296E+01  1.21556E+01  1.21873E+01
   1.22248E+01  1.22685E+01  1.23188E+01  1.23760E+01  1.24405E+01  1.25126E+01  1.25926E+01  1.26809E+01
 NY background values follow
    -3.474E+02   -3.437E+02   -3.401E+02   -3.364E+02   -3.328E+02   -3.292E+02   -3.255E+02   -3.219E+02   -3.184E+02   -3.148E+02
    -3.112E+02   -3.077E+02   -3.042E+02   -3.007E+02   -2.972E+02   -2.937E+02   -2.903E+02   -2.868E+02   -2.834E+02   -2.800E+02
    -2.767E+02   -2.733E+02   -2.700E+02   -2.668E+02   -2.635E+02   -2.603E+02   -2.571E+02   -2.539E+02   -2.508E+02   -2.477E+02
    -2.446E+02   -2.415E+02   -2.385E+02   -2.355E+02   -2.326E+02   -2.297E+02   -2.268E+02   -2.240E+02   -2.212E+02   -2.185E+02
    -2.157E+02   -2.131E+02   -2.104E+02   -2.078E+02   -2.053E+02   -2.028E+02   -2.003E+02   -1.979E+02   -1.956E+02   -1.932E+02
    -1.910E+02   -1.887E+02   -1.865E+02   -1.843E+02   -1.822E+02   -1.801E+02   -1.781E+02   -1.761E+02   -1.741E+02   -1.722E+02
    -1.703E+02   -1.684E+02   -1.665E+02   -1.647E+02   -1.629E+02   -1.612E+02   -1.595E+02   -1.578E+02   -1.561E+02   -1.545E+02
    -1.529E+02   -1.513E+02   -1.497E+02   -1.482E+02   -1.466E+02   -1.451E+02   -1.437E+02   -1.422E+02   -1.408E+02   -1.394E+02
    -1.380E+02   -1.366E+02   -1.352E+02   -1.338E+02   -1.325E+02   -1.312E+02   -1.299E+02   -1.286E+02   -1.273E+02   -1.260E+02
    -1.247E+02   -1.234E+02   -1.222E+02   -1.209E+02   -1.197E+02   -1.185E+02   -1.173E+02   -1.161E+02   -1.149E+02   -1.137E+02
    -1.125E+02   -1.113E+02   -1.101E+02   -1.090E+02   -1.079E+02   -1.067E+02   -1.056E+02   -1.045E+02   -1.034E+02   -1.023E+02
    -1.012E+02   -1.002E+02   -9.914E+01   -9.810E+01   -9.708E+01   -9.607E+01   -9.507E+01   -9.409E+01   -9.312E+01   -9.216E+01
    -9.122E+01   -9.029E+01   -8.937E+01   -8.847E+01   -8.758E+01   -8.671E+01   -8.586E+01   -8.501E+01   -8.419E+01   -8.337E+01
    -8.258E+01   -8.180E+01   -8.103E+01   -8.029E+01   -7.956E+01   -7.884E+01   -7.814E+01   -7.746E+01   -7.680E+01   -7.615E+01
    -7.551E+01   -7.489E+01   -7.428E+01   -7.369E+01   -7.311E+01   -7.254E+01   -7.198E+01   -7.143E+01   -7.089E+01   -7.036E+01
    -6.984E+01   -6.933E+01   -6.882E+01   -6.832E+01   -6.783E+01   -6.734E+01   -6.686E+01   -6.638E+01   -6.591E+01   -6.544E+01
    -6.497E+01   -6.451E+01   -6.404E+01   -6.358E+01   -6.311E+01   -6.265E+01   -6.218E+01   -6.172E+01   -6.125E+01   -6.077E+01
    -6.030E+01   -5.982E+01   -5.933E+01   -5.884E+01   -5.834E+01   -5.784E+01   -5.733E+01   -5.681E+01   -5.628E+01   -5.575E+01
    -5.520E+01   -5.465E+01   -5.408E+01   -5.350E+01   -5.292E+01   -5.232E+01   -5.172E+01   -5.111E+01   -5.049E+01   -4.987E+01
    -4.924E+01   -4.861E+01   -4.797E+01   -4.733E+01   -4.669E+01   -4.604E+01   -4.539E+01   -4.475E+01   -4.410E+01   -4.345E+01
    -4.280E+01   -4.216E+01   -4.152E+01   -4.088E+01   -4.024E+01   -3.961E+01   -3.899E+01   -3.837E+01   -3.776E+01   -3.715E+01
    -3.655E+01   -3.596E+01   -3.538E+01   -3.481E+01   -3.425E+01   -3.370E+01   -3.316E+01   -3.263E+01   -3.212E+01   -3.162E+01
    -3.114E+01   -3.067E+01   -3.021E+01   -2.977E+01   -2.935E+01   -2.895E+01   -2.856E+01   -2.820E+01   -2.785E+01   -2.752E+01
    -2.720E+01   -2.690E+01   -2.662E+01   -2.635E+01   -2.610E+01   -2.586E+01   -2.563E+01   -2.542E+01   -2.521E+01   -2.502E+01
    -2.484E+01   -2.467E+01   -2.450E+01   -2.435E+01   -2.420E+01   -2.406E+01   -2.393E+01   -2.380E+01   -2.368E+01   -2.356E+01
    -2.345E+01   -2.334E+01   -2.323E+01   -2.312E+01   -2.302E+01   -2.291E+01   -2.281E+01   -2.271E+01   -2.260E+01   -2.249E+01
    -2.238E+01   -2.227E+01   -2.215E+01   -2.203E+01   -2.190E+01   -2.177E+01   -2.163E+01   -2.148E+01   -2.133E+01   -2.116E+01
    -2.099E+01   -2.081E+01   -2.062E+01   -2.041E+01   -2.020E+01   -1.998E+01   -1.975E+01   -1.951E+01   -1.926E+01   -1.901E+01
    -1.874E+01   -1.847E+01   -1.819E+01   -1.791E+01   -1.761E+01   -1.732E+01   -1.701E+01   -1.670E+01   -1.639E+01   -1.607E+01
    -1.574E+01   -1.541E+01   -1.508E+01   -1.474E+01   -1.440E+01   -1.406E+01   -1.371E+01   -1.336E+01   -1.301E+01   -1.266E+01
    -1.231E+01   -1.195E+01   -1.160E+01   -1.124E+01   -1.088E+01   -1.053E+01   -1.017E+01   -9.820E+00   -9.467E+00   -9.115E+00
    -8.765E+00   -8.418E+00   -8.073E+00   -7.730E+00   -7.391E+00   -7.055E+00   -6.723E+00   -6.395E+00   -6.072E+00   -5.752E+00
    -5.437E+00   -5.126E+00   -4.820E+00   -4.518E+00   -4.220E+00   -3.927E+00   -3.638E+00   -3.354E+00   -3.074E+00   -2.799E+00
    -2.529E+00   -2.264E+00   -2.003E+00   -1.746E+00   -1.495E+00   -1.248E+00   -1.007E+00   -7.698E-01   -5.379E-01   -3.109E-01
    -8.896E-02    1.280E-01    3.398E-01    5.465E-01    7.481E-01    9.446E-01    1.136E+00    1.322E+00    1.502E+00    1.678E+00
     1.848E+00    2.012E+00    2.172E+00    2.325E+00    2.474E+00    2.616E+00    2.753E+00    2.885E+00    3.011E+00    3.131E+00
     3.245E+00    3.354E+00    3.457E+00    3.554E+00    3.646E+00    3.733E+00    3.815E+00    3.892E+00    3.965E+00    4.033E+00
     4.098E+00    4.159E+00    4.216E+00    4.270E+00    4.322E+00    4.370E+00    4.417E+00    4.461E+00    4.503E+00    4.543E+00
     4.582E+00    4.620E+00    4.657E+00    4.693E+00    4.729E+00    4.764E+00    4.800E+00    4.835E+00    4.872E+00    4.909E+00
     4.947E+00    4.987E+00    5.028E+00    5.070E+00    5.115E+00    5.162E+00    5.212E+00    5.265E+00    5.320E+00    5.379E+00
     5.441E+00    5.507E+00    5.577E+00    5.651E+00    5.730E+00    5.814E+00    5.902E+00    5.996E+00    6.095E+00    6.200E+00
     6.309E+00    6.422E+00    6.540E+00    6.661E+00    6.787E+00    6.916E+00    7.048E+00    7.182E+00    7.320E+00    7.459E+00
     7.601E+00    7.745E+00    7.890E+00    8.036E+00    8.183E+00    8.331E+00    8.479E+00    8.628E+00    8.776E+00    8.924E+00
     9.071E+00    9.218E+00    9.363E+00    9.506E+00    9.648E+00    9.788E+00    9.925E+00    1.006E+01    1.019E+01    1.032E+01
     1.045E+01    1.057E+01    1.069E+01    1.080E+01    1.091E+01    1.101E+01    1.111E+01    1.121E+01    1.130E+01    1.138E+01
     1.145E+01    1.152E+01    1.159E+01    1.164E+01    1.169E+01    1.174E+01    1.178E+01    1.181E+01    1.184E+01    1.186E+01
     1.188E+01    1.189E+01    1.190E+01    1.191E+01    1.191E+01    1.191E+01    1.191E+01    1.191E+01    1.190E+01    1.190E+01
     1.189E+01    1.188E+01    1.187E+01    1.186E+01    1.185E+01    1.185E+01    1.184E+01    1.183E+01    1.183E+01    1.183E+01
     1.183E+01    1.183E+01    1.184E+01    1.185E+01    1.186E+01    1.188E+01    1.190E+01    1.192E+01    1.195E+01    1.199E+01
     1.203E+01    1.208E+01    1.214E+01    1.220E+01    1.227E+01    1.234E+01    1.243E+01    1.252E+01
 Ala      Conc. = 1.28E+02
