 LCModel (Version 6.3-1L) Copyright: S.W. Provencher.          Ref.: Magn. Reson. Med. 30:672-679 (1993).                
 Slice#3 Row#5 Col#4  PD_24_press_2_raw_act
 36 lines in following concentration table = NCONC+1
    Conc.  %SD /Cr+PCr  Metabolite                                         
    0.000 999%   0.000 Ala                                                 
  283.209 142%   0.144 Asp                                                 
  143.689 291% 7.3E-02 Cr                                                  
 1.83E+03  23%   0.927 PCr                                                 
  202.676 131%   0.103 GABA                                                
  233.907 112%   0.119 Glc                                                 
  579.616  97%   0.294 Gln                                                 
 2.08E+03  31%   1.056 Glu                                                 
  963.097   6%   0.489 GPC                                                 
    0.000 999%   0.000 PCh                                                 
  712.001  24%   0.361 GSH                                                 
 1.75E+03  33%   0.890 Ins                                                 
    0.000 999%   0.000 Lac                                                 
 2.63E+03   8%   1.336 NAA                                                 
   44.626 461% 2.3E-02 NAAG                                                
  105.977  52% 5.4E-02 Scyllo                                              
  180.472 206% 9.2E-02 Tau                                                 
    0.000 999%   0.000 -CrCH2                                              
  963.097   6%   0.489 GPC+PCh                                             
 2.68E+03   5%   1.358 NAA+NAAG                                            
 1.97E+03   6%   1.000 Cr+PCr                                              
 2.66E+03  36%   1.350 Glu+Gln                                             
    0.000 999%   0.000 Lip13a                                              
    0.000 999%   0.000 Lip13b                                              
    0.000 999%   0.000 Lip09                                               
 2.77E+03  11%   1.404 MM09                                                
 1.52E-03 999% 7.7E-07 Lip20                                               
 4.18E+03  11%   2.121 MM20                                                
  801.546  13%   0.407 MM12                                                
 2.67E+03   9%   1.356 MM14                                                
 1.38E+03  12%   0.700 MM17                                                
    0.000 999%   0.000 Lip13a+Lip13b                                       
 3.47E+03   9%   1.762 MM14+Lip13a+Lip13b+MM12                             
 2.77E+03  11%   1.404 MM09+Lip09                                          
 4.18E+03  11%   2.121 MM20+Lip20                                          
   6 lines in following misc. output table
  FWHM = 0.076 ppm    S/N =   6                                            
  Data shift = 0.031 ppm                                                   
  Ph: -12 deg      -8.7 deg/ppm                                            
  alphaB,S = 1.0E+00,   2.0E+01                                            
   14 spline knots.   Ns = 8(1)                                            
  (14) 9 infls.   (14) 2 extrs.                                            
  498 points on ppm-axis = NY
      4.000000     3.992357     3.984714     3.977070     3.969427     3.961784     3.954141     3.946497     3.938854     3.931211
      3.923568     3.915925     3.908281     3.900638     3.892995     3.885352     3.877708     3.870065     3.862422     3.854779
      3.847136     3.839492     3.831849     3.824206     3.816563     3.808919     3.801276     3.793633     3.785990     3.778347
      3.770703     3.763060     3.755417     3.747774     3.740130     3.732487     3.724844     3.717201     3.709558     3.701914
      3.694271     3.686628     3.678985     3.671341     3.663698     3.656055     3.648412     3.640769     3.633125     3.625482
      3.617839     3.610196     3.602552     3.594909     3.587266     3.579623     3.571980     3.564336     3.556693     3.549050
      3.541407     3.533763     3.526120     3.518477     3.510834     3.503191     3.495547     3.487904     3.480261     3.472618
      3.464974     3.457331     3.449688     3.442045     3.434402     3.426758     3.419115     3.411472     3.403829     3.396185
      3.388542     3.380899     3.373256     3.365613     3.357969     3.350326     3.342683     3.335040     3.327396     3.319753
      3.312110     3.304467     3.296824     3.289180     3.281537     3.273894     3.266251     3.258607     3.250964     3.243321
      3.235678     3.228034     3.220391     3.212748     3.205105     3.197462     3.189818     3.182175     3.174532     3.166889
      3.159245     3.151602     3.143959     3.136316     3.128673     3.121029     3.113386     3.105743     3.098100     3.090456
      3.082813     3.075170     3.067527     3.059884     3.052240     3.044597     3.036954     3.029311     3.021667     3.014024
      3.006381     2.998738     2.991095     2.983451     2.975808     2.968165     2.960522     2.952878     2.945235     2.937592
      2.929949     2.922306     2.914662     2.907019     2.899376     2.891733     2.884089     2.876446     2.868803     2.861160
      2.853517     2.845873     2.838230     2.830587     2.822944     2.815300     2.807657     2.800014     2.792371     2.784728
      2.777084     2.769441     2.761798     2.754155     2.746511     2.738868     2.731225     2.723582     2.715939     2.708295
      2.700652     2.693009     2.685366     2.677722     2.670079     2.662436     2.654793     2.647150     2.639506     2.631863
      2.624220     2.616577     2.608933     2.601290     2.593647     2.586004     2.578361     2.570717     2.563074     2.555431
      2.547788     2.540144     2.532501     2.524858     2.517215     2.509572     2.501928     2.494285     2.486642     2.478999
      2.471355     2.463712     2.456069     2.448426     2.440783     2.433139     2.425496     2.417853     2.410210     2.402566
      2.394923     2.387280     2.379637     2.371994     2.364350     2.356707     2.349064     2.341421     2.333777     2.326134
      2.318491     2.310848     2.303205     2.295561     2.287918     2.280275     2.272632     2.264988     2.257345     2.249702
      2.242059     2.234416     2.226772     2.219129     2.211486     2.203843     2.196199     2.188556     2.180913     2.173270
      2.165627     2.157983     2.150340     2.142697     2.135054     2.127410     2.119767     2.112124     2.104481     2.096838
      2.089194     2.081551     2.073908     2.066265     2.058621     2.050978     2.043335     2.035692     2.028049     2.020405
      2.012762     2.005119     1.997476     1.989833     1.982190     1.974546     1.966903     1.959260     1.951617     1.943974
      1.936331     1.928688     1.921045     1.913402     1.905759     1.898115     1.890472     1.882829     1.875186     1.867543
      1.859900     1.852257     1.844614     1.836971     1.829327     1.821684     1.814041     1.806398     1.798755     1.791112
      1.783469     1.775826     1.768183     1.760540     1.752896     1.745253     1.737610     1.729967     1.722324     1.714681
      1.707038     1.699395     1.691752     1.684108     1.676465     1.668822     1.661179     1.653536     1.645893     1.638250
      1.630607     1.622964     1.615321     1.607677     1.600034     1.592391     1.584748     1.577105     1.569462     1.561819
      1.554176     1.546533     1.538890     1.531246     1.523603     1.515960     1.508317     1.500674     1.493031     1.485388
      1.477745     1.470102     1.462458     1.454815     1.447172     1.439529     1.431886     1.424243     1.416600     1.408957
      1.401314     1.393671     1.386027     1.378384     1.370741     1.363098     1.355455     1.347812     1.340169     1.332526
      1.324883     1.317240     1.309596     1.301953     1.294310     1.286667     1.279024     1.271381     1.263738     1.256095
      1.248452     1.240808     1.233165     1.225522     1.217879     1.210236     1.202593     1.194950     1.187307     1.179664
      1.172021     1.164377     1.156734     1.149091     1.141448     1.133805     1.126162     1.118519     1.110876     1.103233
      1.095590     1.087946     1.080303     1.072660     1.065017     1.057374     1.049731     1.042088     1.034445     1.026802
      1.019158     1.011515     1.003872     0.996229     0.988586     0.980943     0.973300     0.965657     0.958014     0.950371
      0.942727     0.935084     0.927441     0.919798     0.912155     0.904512     0.896869     0.889226     0.881583     0.873940
      0.866296     0.858653     0.851010     0.843367     0.835724     0.828081     0.820438     0.812795     0.805152     0.797508
      0.789865     0.782222     0.774579     0.766936     0.759293     0.751650     0.744007     0.736364     0.728721     0.721077
      0.713434     0.705791     0.698148     0.690505     0.682862     0.675219     0.667576     0.659933     0.652290     0.644646
      0.637003     0.629360     0.621717     0.614074     0.606431     0.598788     0.591145     0.583502     0.575858     0.568215
      0.560572     0.552929     0.545286     0.537643     0.530000     0.522357     0.514714     0.507071     0.499427     0.491784
      0.484141     0.476498     0.468855     0.461212     0.453569     0.445925     0.438282     0.430639     0.422996     0.415353
      0.407710     0.400067     0.392424     0.384780     0.377137     0.369494     0.361851     0.354208     0.346565     0.338922
      0.331278     0.323635     0.315992     0.308349     0.300706     0.293063     0.285420     0.277777     0.270133     0.262490
      0.254847     0.247204     0.239561     0.231918     0.224275     0.216631     0.208988     0.201345
 NY phased data points follow
  -2.95033E+01 -1.63806E+01 -1.41570E+01 -1.20119E+01 -4.71233E+00  8.87735E+00  1.07978E+01  3.05370E+01  2.98535E+01  3.87426E+01
   1.66301E+01  3.76997E+01  2.25527E+01  3.82248E+01  1.20422E+01  1.22300E+01 -4.57358E+00  1.12128E+01 -3.06931E+00 -8.27437E+00
  -1.03967E+01 -1.28813E+01 -1.19443E+01  4.33844E+00 -2.78643E+00  1.03227E+01  1.04432E+01  1.01239E+01 -3.29215E+00  7.17083E+00
  -6.34107E-01 -1.31941E+00  9.79552E+00  1.23417E+00 -1.15073E+01  4.11645E+00 -7.08392E+00  3.19550E+00 -3.45737E+00 -5.57146E+00
  -6.95130E+00  5.79030E+00 -9.35375E+00  5.50513E+00 -4.94237E+00  5.80920E+00  8.07809E-01  1.38624E+01  6.36029E-01  6.00293E+00
   8.45783E+00  6.12638E+00 -3.03110E+00  4.55070E+00 -2.49254E+00 -3.89705E+00  1.82766E+00 -5.32481E+00 -9.43958E+00 -7.06827E+00
  -8.40542E+00 -3.73451E+00 -1.39914E+01 -1.20533E+01 -1.00462E+01 -1.06606E+01 -1.95829E+01 -1.75459E+01 -1.52686E+01 -1.02143E+01
  -2.74933E+00 -3.08866E+00 -7.69886E+00 -2.11686E+01 -1.33863E+01 -5.69490E+00 -7.11702E+00 -1.15733E+01 -7.31971E+00  1.55116E+00
  -7.21032E+00 -1.14253E+01 -3.36411E+00  1.19725E+00 -1.34871E+01 -7.80264E+00 -7.14840E+00 -1.98621E+01 -7.58821E+00  5.69302E+00
  -5.55925E+00 -1.21629E+01 -1.95689E+01 -1.50311E+01 -1.62420E+01 -1.76824E+01 -6.29495E+00  1.84243E+00  5.66611E+00  4.08874E+01
   3.35655E+01  5.75694E+01  5.83747E+01  6.68010E+01  6.02743E+01  5.52196E+01  4.62417E+01  5.06898E+01  4.04045E+01  1.99902E+01
   1.82345E+01  9.32242E+00 -2.44007E+00  9.27481E-01 -5.41776E+00 -1.65717E+01 -1.45463E+01 -1.45837E+01 -1.96577E+01 -2.68865E+01
  -1.67717E+01 -5.77931E+00  3.99228E-01  7.98397E+00  1.75703E+01  4.47467E+01  4.60251E+01  4.53327E+01  3.98942E+01  5.58077E+01
   3.27520E+01  3.57516E+01  2.26979E+01  1.39151E+01  3.44331E+00  1.48841E+01 -1.08891E+01 -3.85718E+00 -7.13174E+00  1.87690E+00
  -1.09497E+01 -1.09036E+00 -8.67713E+00 -1.20023E+01 -1.71744E+01 -1.72699E+01 -6.75172E+00 -9.54231E+00 -1.66609E+01 -7.02075E+00
  -1.78119E+01 -1.68637E+01 -1.75147E+01 -8.20588E+00 -6.84720E+00 -1.93235E+01 -1.23352E+01 -1.23037E+01 -1.06720E+01 -1.10403E+01
  -2.00712E+01 -1.02613E+01 -1.51581E+01 -1.15744E+01 -1.61043E+01 -1.22523E+01 -1.24458E+01 -8.15708E+00 -1.41744E+01 -1.41437E+01
  -1.67211E+01 -1.49949E+01 -1.52201E+01 -1.12487E+01 -1.28733E+01 -1.56791E+01 -9.03717E+00 -2.61844E+01 -3.20049E+01 -1.76763E+01
  -1.59547E+01 -2.66593E+01 -2.74331E+01 -2.51592E+01 -1.44925E+01 -5.42821E+00 -2.51051E+01 -1.51057E+01 -1.35027E+01 -4.70902E+00
  -1.36761E+01 -2.98151E+00 -7.48675E+00 -4.94543E+00 -8.71069E+00 -9.57341E+00 -2.26233E+00 -4.76927E+00 -1.39234E+01  1.06755E+00
  -1.18333E+01 -1.12038E+00  5.45736E+00 -8.81360E+00 -9.91216E+00 -7.08691E+00 -6.15000E+00 -1.71619E+01 -2.23476E+01 -5.61349E+00
  -1.66263E+01 -1.37912E+01 -7.79207E+00 -4.09202E+00 -5.41751E+00  4.02436E-01 -3.16049E+00 -4.78636E+00 -4.64834E+00 -1.84923E+01
  -8.38402E+00 -3.85808E+00 -1.92918E+01 -1.03027E+01 -5.04182E+00 -4.85830E+00 -1.90875E+00 -4.19923E+00 -1.32297E+01 -2.23513E+00
  -2.82171E-01  2.27756E+00 -3.66031E-01 -1.08816E+00  1.51846E+00 -2.01808E+00 -4.23341E+00 -1.32557E+00 -1.46419E-01  2.04092E+00
  -1.09200E+01 -1.40588E+00 -1.01271E+01  1.12009E+01  2.24990E-01  1.40040E+00  1.20978E+01  4.17145E+00  3.16691E+00 -2.78519E-01
  -7.55040E+00 -3.37257E+00 -6.79089E+00 -1.43832E+01  5.44078E+00  1.36615E+01  3.35631E+01  4.69292E+01  5.99397E+01  7.02548E+01
   7.91868E+01  8.20156E+01  7.28177E+01  5.42576E+01  6.47741E+01  5.38353E+01  3.09501E+01  3.22518E+01  1.43326E+01  1.68371E+01
   6.14014E+00 -3.73147E-01 -7.64534E-01  1.08517E+00  1.04150E+01 -4.38475E+00  9.87948E+00  5.48829E+00  3.89171E+00 -7.75507E+00
   6.76499E+00  3.97709E+00  3.33644E+00  2.69967E+00  4.04505E+00 -5.24878E+00 -2.07725E+00  1.83716E+00 -3.33035E+00 -9.47177E-02
   3.35164E+00 -3.20574E+00 -1.31005E+01  4.25487E+00 -7.57481E+00 -3.49746E+00  1.64994E+00  6.45667E+00  6.78803E+00  2.34813E+00
   4.95984E-01  1.40369E+01  8.23617E+00  1.35210E+01  1.29626E+01  1.99957E+01  1.25885E+01  1.34925E+01  8.76600E+00  1.99723E+01
   6.53877E+00  2.79114E+01  2.29384E+01  1.98678E+01  2.06593E+01  2.22096E+01  2.48839E+01  2.07714E+01  2.38024E+01  2.58033E+01
   2.96215E+01  2.43613E+01  2.23137E+01  1.29171E+01  9.99545E+00  1.49835E+01  1.11611E+01  1.32990E+01  1.54378E+01 -3.51269E+00
   2.21720E+00  4.96019E+00  4.07591E+00 -1.13864E+00 -8.96179E+00 -3.51397E+00 -1.17972E+01  5.52285E-01 -9.04795E+00 -4.07142E+00
  -7.71940E+00 -5.57489E+00 -1.27658E+01 -4.78508E+00 -1.56043E+01 -2.40681E+01 -1.80029E+01 -1.52482E+01 -2.18043E+01 -2.60845E+01
  -1.36145E+01 -1.00654E+01 -8.56417E-01 -9.02087E+00 -5.34092E+00 -1.07200E+01 -8.51808E+00  2.43312E+00 -1.48784E+01 -7.30853E+00
  -8.40524E+00 -7.56969E+00 -8.98026E+00 -7.26078E+00 -1.91421E+01 -4.02664E+00 -2.00357E+01 -2.17403E+00 -1.53217E+01 -2.88225E+00
  -2.72625E+00 -1.43142E+01 -1.27523E+01 -9.52296E+00 -6.63039E+00 -1.93804E+01 -6.35987E+00 -9.00865E-01 -1.35422E+01 -1.12510E+01
  -3.59837E+00 -6.73195E+00 -5.36506E+00 -1.85086E+01 -9.96383E+00 -7.41251E+00  6.91625E-01 -7.62819E+00 -5.78416E+00 -6.84900E+00
  -1.46312E+01  1.79674E+00 -1.15244E+01 -2.14475E+00 -1.48137E+01 -1.32929E+01 -5.68258E+00 -6.04239E+00 -4.93035E+00  3.42989E+00
  -2.26114E+00 -2.24058E+00 -7.11794E+00 -6.61412E+00 -2.20873E+00  3.60614E+00 -3.20481E+00 -3.81334E+00 -1.26254E+00 -5.86397E+00
  -2.73773E+00  2.65301E+00  8.50315E+00  3.27331E+00  1.47533E+00 -6.16937E-01  2.52843E+00  9.57028E+00  1.35909E+01  7.80460E+00
   5.78748E+00  5.31315E+00  3.93611E+00  5.92017E-01 -1.67832E+00 -2.04361E+00 -4.23162E+00  6.83191E+00  8.12775E+00  3.17928E+00
   6.88344E+00  2.24865E+00  1.06027E+01  2.35309E+00 -3.63262E+00  5.64637E+00  4.56520E+00 -7.54169E-01  4.59695E+00 -1.65940E+00
   2.92518E+00  1.29757E+01  7.94110E+00  3.32181E+00  7.99555E-01  3.65309E+00  6.60299E-03  5.26203E+00  4.07763E+00  2.83592E+00
   5.64303E+00  4.67629E+00 -6.92485E+00 -9.14578E+00  3.90738E+00 -5.84260E+00 -2.94481E+00 -2.52662E+00 -1.15396E+00 -1.62015E+00
  -3.46888E+00  5.86766E+00 -9.59181E-02  1.02441E+01  2.31341E-01 -1.70150E+00 -5.57762E+00 -1.36989E+00 -1.54223E+00 -1.38705E+01
   8.42534E+00  3.84644E+00 -3.23640E-02  3.41290E+00  2.92010E+00  1.16048E+01  3.52519E+00  2.97714E+00 -4.09151E+00  1.21282E+01
   8.60450E+00  2.67977E+00  3.97514E+00  5.50443E+00  3.52379E+00 -4.58178E+00  3.76082E+00 -4.05050E+00  6.71227E+00 -6.88959E+00
   3.60835E+00  4.98111E+00  6.36632E+00  4.39391E+00  7.18484E+00  4.89572E+00  8.01050E+00  9.91465E+00
 NY points of the fit to the data follow
  -8.58470E+00 -1.24809E+01 -1.12407E+01 -5.05556E+00  1.35052E+00  9.19406E+00  1.68447E+01  2.38216E+01  2.85213E+01  3.00656E+01
   2.91422E+01  2.65569E+01  2.38378E+01  2.19885E+01  1.69243E+01  1.02805E+01  6.32343E+00  3.60594E+00 -1.70593E+00 -5.34532E+00
  -6.75684E+00 -9.08289E+00 -8.53003E+00 -6.69478E+00 -5.36447E+00 -3.26674E+00 -1.04914E+00  1.58055E+00  3.87839E+00  5.33336E+00
   5.72575E+00  5.40944E+00  4.92495E+00  4.74965E+00  2.28547E+00 -9.32824E-01 -1.91243E+00 -2.53900E+00 -5.38890E+00 -7.40985E+00
  -7.69706E+00 -6.68369E+00 -5.05093E+00 -2.96550E+00 -6.05886E-01  1.50426E+00  3.15932E+00  3.86658E+00  3.18403E+00  1.72055E+00
   7.43730E-01 -6.43707E-01 -2.80068E+00 -4.68213E+00 -5.76155E+00 -6.17463E+00 -6.51828E+00 -6.80539E+00 -6.71182E+00 -6.65724E+00
  -6.69515E+00 -7.19361E+00 -7.75930E+00 -8.12524E+00 -8.67697E+00 -9.07802E+00 -9.23206E+00 -9.23970E+00 -9.16546E+00 -8.90158E+00
  -8.42145E+00 -7.93269E+00 -7.44761E+00 -7.11762E+00 -7.03260E+00 -7.08062E+00 -7.20871E+00 -7.70593E+00 -8.74117E+00 -8.74241E+00
  -7.85612E+00 -7.48626E+00 -7.25837E+00 -7.07925E+00 -7.13367E+00 -7.52200E+00 -8.19217E+00 -8.99593E+00 -9.81956E+00 -1.02218E+01
  -1.00884E+01 -1.04751E+01 -1.11923E+01 -1.19415E+01 -1.56851E+01 -2.31328E+01 -1.64349E+01 -2.65483E+00  1.13399E+01  2.78339E+01
   4.30296E+01  5.68814E+01  6.49446E+01  6.63320E+01  6.21972E+01  5.55717E+01  5.02986E+01  4.61035E+01  3.36766E+01  2.00084E+01
   1.36191E+01  8.65958E+00 -1.78141E+00 -7.52550E+00 -8.99370E+00 -9.57373E+00 -9.96318E+00 -1.05075E+01 -1.30001E+01 -1.93779E+01
  -1.55526E+01 -5.50485E+00  4.32480E+00  1.61819E+01  2.73123E+01  3.82059E+01  4.60121E+01  4.87334E+01  4.68885E+01  4.27352E+01
   3.86171E+01  3.55715E+01  2.60963E+01  1.42829E+01  8.52067E+00  5.24887E+00 -2.39852E+00 -6.98229E+00 -8.06365E+00 -8.16161E+00
  -7.87537E+00 -7.85659E+00 -7.91729E+00 -7.67239E+00 -7.48643E+00 -7.59861E+00 -7.97103E+00 -8.54725E+00 -9.11065E+00 -9.70395E+00
  -1.03473E+01 -1.07377E+01 -1.08781E+01 -1.07976E+01 -1.10470E+01 -1.15460E+01 -1.21369E+01 -1.28786E+01 -1.31515E+01 -1.33382E+01
  -1.34947E+01 -1.34499E+01 -1.33241E+01 -1.31528E+01 -1.32427E+01 -1.35042E+01 -1.35418E+01 -1.34624E+01 -1.34185E+01 -1.37431E+01
  -1.45553E+01 -1.51882E+01 -1.55756E+01 -1.57879E+01 -1.63644E+01 -1.68186E+01 -1.68228E+01 -1.69099E+01 -1.69218E+01 -1.69217E+01
  -1.75618E+01 -1.81202E+01 -1.80447E+01 -1.78469E+01 -1.72892E+01 -1.61164E+01 -1.44637E+01 -1.28128E+01 -1.13358E+01 -1.03987E+01
  -1.00295E+01 -1.01202E+01 -1.02400E+01 -1.03725E+01 -1.08914E+01 -1.14465E+01 -1.15530E+01 -1.12320E+01 -1.05967E+01 -9.43038E+00
  -8.15428E+00 -6.69056E+00 -4.71194E+00 -4.14889E+00 -4.69509E+00 -5.34805E+00 -7.17181E+00 -9.55750E+00 -1.22032E+01 -1.31209E+01
  -1.22522E+01 -1.08881E+01 -8.70979E+00 -6.27611E+00 -3.84995E+00 -2.36425E+00 -3.15367E+00 -5.79842E+00 -8.25202E+00 -1.00176E+01
  -1.15790E+01 -1.32345E+01 -1.37079E+01 -1.25233E+01 -1.11779E+01 -1.08588E+01 -1.05643E+01 -9.42519E+00 -7.62698E+00 -6.18975E+00
  -5.00714E+00 -3.38496E+00 -1.46630E+00 -3.07869E-01 -1.06369E-01  4.07508E-01  9.48418E-02 -6.53624E-01 -1.29429E+00 -1.73452E+00
  -1.77908E+00 -1.58000E+00 -1.20007E+00 -4.86943E-01  4.02379E-01  9.42034E-01  1.01210E+00  1.04603E+00  1.51981E+00  2.22934E+00
   2.56027E+00  1.21953E+00 -5.66315E+00 -6.84287E+00  4.22478E+00  1.63291E+01  3.05839E+01  4.60128E+01  6.05278E+01  7.21419E+01
   7.74142E+01  7.66129E+01  7.12953E+01  6.54193E+01  6.21887E+01  5.42772E+01  3.92529E+01  2.89452E+01  2.43764E+01  1.53668E+01
   5.54579E+00  2.24574E+00  9.47964E-01  3.21532E-02 -6.61403E-01 -1.10735E+00 -1.61570E+00 -2.13715E+00 -2.63471E+00 -3.16667E+00
  -3.72001E+00 -4.20329E+00 -4.66822E+00 -5.13016E+00 -5.51166E+00 -5.82269E+00 -6.03189E+00 -6.14347E+00 -6.18555E+00 -6.14067E+00
  -5.98014E+00 -5.74772E+00 -5.44164E+00 -5.01548E+00 -4.46588E+00 -3.81468E+00 -3.04066E+00 -2.12203E+00 -1.08524E+00  5.80603E-02
   1.30762E+00  2.64044E+00  4.02425E+00  5.44534E+00  6.87639E+00  8.28972E+00  9.66015E+00  1.09660E+01  1.21865E+01  1.33007E+01
   1.42940E+01  1.51545E+01  1.58693E+01  1.64294E+01  1.68290E+01  1.70622E+01  1.71248E+01  1.70148E+01  1.67316E+01  1.62776E+01
   1.56578E+01  1.48803E+01  1.39567E+01  1.29019E+01  1.17339E+01  1.04738E+01  9.14461E+00  7.77120E+00  6.37854E+00  4.99123E+00
   3.63242E+00  2.32278E+00  1.08034E+00 -8.01620E-02 -1.14796E+00 -2.11589E+00 -2.98014E+00 -3.74007E+00 -4.39773E+00 -4.95738E+00
  -5.42502E+00 -5.80783E+00 -6.11354E+00 -6.34995E+00 -6.52482E+00 -6.64567E+00 -6.71943E+00 -6.75243E+00 -6.75033E+00 -6.71814E+00
  -6.66034E+00 -6.58103E+00 -6.48395E+00 -6.37252E+00 -6.24992E+00 -6.11922E+00 -5.98341E+00 -5.84553E+00 -5.70853E+00 -5.57518E+00
  -5.44810E+00 -5.32976E+00 -5.22242E+00 -5.12805E+00 -5.04821E+00 -4.98400E+00 -4.93598E+00 -4.90428E+00 -4.88858E+00 -4.88805E+00
  -4.90136E+00 -4.92670E+00 -4.96197E+00 -5.00480E+00 -5.05267E+00 -5.10292E+00 -5.15277E+00 -5.19940E+00 -5.24014E+00 -5.27245E+00
  -5.29390E+00 -5.30218E+00 -5.29505E+00 -5.27039E+00 -5.22624E+00 -5.16074E+00 -5.07205E+00 -4.95827E+00 -4.81748E+00 -4.64773E+00
  -4.44710E+00 -4.21362E+00 -3.94529E+00 -3.64010E+00 -3.29615E+00 -2.91175E+00 -2.48560E+00 -2.01677E+00 -1.50491E+00 -9.50354E-01
  -3.54381E-01  2.80646E-01  9.51150E-01  1.65229E+00  2.37795E+00  3.12063E+00  3.87155E+00  4.62069E+00  5.35713E+00  6.06927E+00
   6.74526E+00  7.37329E+00  7.94199E+00  8.44087E+00  8.86080E+00  9.19440E+00  9.43629E+00  9.58325E+00  9.63436E+00  9.59105E+00
   9.45703E+00  9.23811E+00  8.94186E+00  8.57723E+00  8.15417E+00  7.68334E+00  7.17563E+00  6.64182E+00  6.09220E+00  5.53626E+00
   4.98252E+00  4.43845E+00  3.91034E+00  3.40333E+00  2.92129E+00  2.46700E+00  2.04226E+00  1.64803E+00  1.28457E+00  9.51531E-01
   6.48016E-01  3.72783E-01  1.24378E-01 -9.87801E-02 -2.98354E-01 -4.76064E-01 -6.33637E-01 -7.72741E-01 -8.94923E-01 -1.00160E+00
  -1.09410E+00 -1.17370E+00 -1.24157E+00 -1.29878E+00 -1.34622E+00 -1.38471E+00 -1.41504E+00 -1.43792E+00 -1.45401E+00 -1.46388E+00
  -1.46799E+00 -1.46677E+00 -1.46066E+00 -1.45008E+00 -1.43540E+00 -1.41688E+00 -1.39478E+00 -1.36936E+00 -1.34087E+00 -1.30957E+00
  -1.27565E+00 -1.23925E+00 -1.20051E+00 -1.15960E+00 -1.11671E+00 -1.07197E+00 -1.02550E+00 -9.77363E-01 -9.27661E-01 -8.76524E-01
  -8.24087E-01 -7.70440E-01 -7.15621E-01 -6.59678E-01 -6.02699E-01 -5.44797E-01 -4.86068E-01 -4.26552E-01 -3.66267E-01 -3.05258E-01
  -2.43619E-01 -1.81452E-01 -1.18821E-01 -5.57398E-02  7.78096E-03  7.16729E-02  1.35825E-01  2.00144E-01
 NY background values follow
    -1.570E+01   -1.568E+01   -1.567E+01   -1.565E+01   -1.563E+01   -1.561E+01   -1.559E+01   -1.557E+01   -1.555E+01   -1.553E+01
    -1.552E+01   -1.550E+01   -1.548E+01   -1.546E+01   -1.544E+01   -1.542E+01   -1.540E+01   -1.539E+01   -1.537E+01   -1.535E+01
    -1.533E+01   -1.531E+01   -1.529E+01   -1.528E+01   -1.526E+01   -1.524E+01   -1.522E+01   -1.520E+01   -1.518E+01   -1.517E+01
    -1.515E+01   -1.513E+01   -1.511E+01   -1.510E+01   -1.508E+01   -1.506E+01   -1.504E+01   -1.502E+01   -1.501E+01   -1.499E+01
    -1.497E+01   -1.496E+01   -1.494E+01   -1.492E+01   -1.490E+01   -1.489E+01   -1.487E+01   -1.485E+01   -1.484E+01   -1.482E+01
    -1.480E+01   -1.479E+01   -1.477E+01   -1.475E+01   -1.474E+01   -1.472E+01   -1.470E+01   -1.469E+01   -1.467E+01   -1.466E+01
    -1.464E+01   -1.462E+01   -1.461E+01   -1.459E+01   -1.458E+01   -1.456E+01   -1.454E+01   -1.453E+01   -1.451E+01   -1.450E+01
    -1.448E+01   -1.446E+01   -1.445E+01   -1.443E+01   -1.442E+01   -1.440E+01   -1.439E+01   -1.437E+01   -1.435E+01   -1.434E+01
    -1.432E+01   -1.431E+01   -1.429E+01   -1.428E+01   -1.426E+01   -1.424E+01   -1.423E+01   -1.421E+01   -1.420E+01   -1.418E+01
    -1.417E+01   -1.415E+01   -1.413E+01   -1.412E+01   -1.410E+01   -1.409E+01   -1.407E+01   -1.406E+01   -1.404E+01   -1.402E+01
    -1.401E+01   -1.399E+01   -1.397E+01   -1.396E+01   -1.394E+01   -1.393E+01   -1.391E+01   -1.389E+01   -1.388E+01   -1.386E+01
    -1.384E+01   -1.383E+01   -1.381E+01   -1.379E+01   -1.378E+01   -1.376E+01   -1.374E+01   -1.373E+01   -1.371E+01   -1.369E+01
    -1.367E+01   -1.366E+01   -1.364E+01   -1.362E+01   -1.360E+01   -1.359E+01   -1.357E+01   -1.355E+01   -1.353E+01   -1.351E+01
    -1.350E+01   -1.348E+01   -1.346E+01   -1.344E+01   -1.342E+01   -1.340E+01   -1.339E+01   -1.337E+01   -1.335E+01   -1.333E+01
    -1.331E+01   -1.329E+01   -1.327E+01   -1.325E+01   -1.323E+01   -1.321E+01   -1.319E+01   -1.317E+01   -1.315E+01   -1.313E+01
    -1.311E+01   -1.309E+01   -1.307E+01   -1.305E+01   -1.303E+01   -1.301E+01   -1.299E+01   -1.297E+01   -1.295E+01   -1.293E+01
    -1.291E+01   -1.289E+01   -1.287E+01   -1.285E+01   -1.283E+01   -1.281E+01   -1.279E+01   -1.277E+01   -1.275E+01   -1.273E+01
    -1.271E+01   -1.269E+01   -1.266E+01   -1.264E+01   -1.262E+01   -1.260E+01   -1.258E+01   -1.256E+01   -1.254E+01   -1.252E+01
    -1.250E+01   -1.248E+01   -1.246E+01   -1.244E+01   -1.242E+01   -1.240E+01   -1.238E+01   -1.236E+01   -1.234E+01   -1.232E+01
    -1.230E+01   -1.228E+01   -1.226E+01   -1.224E+01   -1.222E+01   -1.220E+01   -1.218E+01   -1.216E+01   -1.214E+01   -1.212E+01
    -1.210E+01   -1.208E+01   -1.206E+01   -1.204E+01   -1.202E+01   -1.201E+01   -1.199E+01   -1.197E+01   -1.195E+01   -1.193E+01
    -1.191E+01   -1.190E+01   -1.188E+01   -1.186E+01   -1.184E+01   -1.182E+01   -1.181E+01   -1.179E+01   -1.177E+01   -1.176E+01
    -1.174E+01   -1.172E+01   -1.171E+01   -1.169E+01   -1.167E+01   -1.166E+01   -1.164E+01   -1.163E+01   -1.161E+01   -1.160E+01
    -1.158E+01   -1.157E+01   -1.155E+01   -1.154E+01   -1.152E+01   -1.151E+01   -1.150E+01   -1.148E+01   -1.147E+01   -1.145E+01
    -1.144E+01   -1.143E+01   -1.142E+01   -1.140E+01   -1.139E+01   -1.138E+01   -1.137E+01   -1.136E+01   -1.135E+01   -1.133E+01
    -1.132E+01   -1.131E+01   -1.130E+01   -1.129E+01   -1.128E+01   -1.127E+01   -1.126E+01   -1.125E+01   -1.124E+01   -1.124E+01
    -1.123E+01   -1.122E+01   -1.121E+01   -1.120E+01   -1.120E+01   -1.119E+01   -1.118E+01   -1.117E+01   -1.117E+01   -1.116E+01
    -1.115E+01   -1.115E+01   -1.114E+01   -1.114E+01   -1.113E+01   -1.113E+01   -1.112E+01   -1.112E+01   -1.112E+01   -1.111E+01
    -1.111E+01   -1.110E+01   -1.110E+01   -1.110E+01   -1.110E+01   -1.109E+01   -1.109E+01   -1.109E+01   -1.109E+01   -1.108E+01
    -1.108E+01   -1.108E+01   -1.108E+01   -1.108E+01   -1.108E+01   -1.107E+01   -1.107E+01   -1.107E+01   -1.107E+01   -1.107E+01
    -1.107E+01   -1.107E+01   -1.107E+01   -1.107E+01   -1.107E+01   -1.107E+01   -1.107E+01   -1.107E+01   -1.107E+01   -1.107E+01
    -1.107E+01   -1.107E+01   -1.107E+01   -1.107E+01   -1.107E+01   -1.107E+01   -1.107E+01   -1.107E+01   -1.107E+01   -1.107E+01
    -1.107E+01   -1.107E+01   -1.107E+01   -1.107E+01   -1.107E+01   -1.107E+01   -1.107E+01   -1.107E+01   -1.106E+01   -1.106E+01
    -1.106E+01   -1.106E+01   -1.106E+01   -1.105E+01   -1.105E+01   -1.105E+01   -1.105E+01   -1.104E+01   -1.104E+01   -1.103E+01
    -1.103E+01   -1.102E+01   -1.102E+01   -1.101E+01   -1.100E+01   -1.100E+01   -1.099E+01   -1.098E+01   -1.097E+01   -1.096E+01
    -1.095E+01   -1.094E+01   -1.093E+01   -1.091E+01   -1.090E+01   -1.089E+01   -1.087E+01   -1.086E+01   -1.084E+01   -1.083E+01
    -1.081E+01   -1.079E+01   -1.077E+01   -1.075E+01   -1.073E+01   -1.071E+01   -1.069E+01   -1.067E+01   -1.064E+01   -1.062E+01
    -1.059E+01   -1.056E+01   -1.054E+01   -1.051E+01   -1.048E+01   -1.045E+01   -1.042E+01   -1.039E+01   -1.036E+01   -1.032E+01
    -1.029E+01   -1.025E+01   -1.022E+01   -1.018E+01   -1.014E+01   -1.011E+01   -1.007E+01   -1.003E+01   -9.985E+00   -9.943E+00
    -9.900E+00   -9.857E+00   -9.813E+00   -9.767E+00   -9.721E+00   -9.674E+00   -9.626E+00   -9.578E+00   -9.528E+00   -9.478E+00
    -9.426E+00   -9.374E+00   -9.321E+00   -9.267E+00   -9.212E+00   -9.156E+00   -9.100E+00   -9.042E+00   -8.984E+00   -8.925E+00
    -8.865E+00   -8.804E+00   -8.742E+00   -8.679E+00   -8.616E+00   -8.552E+00   -8.487E+00   -8.421E+00   -8.355E+00   -8.288E+00
    -8.220E+00   -8.151E+00   -8.082E+00   -8.012E+00   -7.941E+00   -7.870E+00   -7.798E+00   -7.725E+00   -7.652E+00   -7.578E+00
    -7.504E+00   -7.429E+00   -7.354E+00   -7.278E+00   -7.201E+00   -7.124E+00   -7.046E+00   -6.968E+00   -6.890E+00   -6.811E+00
    -6.731E+00   -6.651E+00   -6.571E+00   -6.490E+00   -6.409E+00   -6.327E+00   -6.245E+00   -6.163E+00   -6.080E+00   -5.997E+00
    -5.914E+00   -5.830E+00   -5.746E+00   -5.662E+00   -5.577E+00   -5.492E+00   -5.407E+00   -5.322E+00   -5.236E+00   -5.150E+00
    -5.064E+00   -4.978E+00   -4.891E+00   -4.805E+00   -4.718E+00   -4.631E+00   -4.543E+00   -4.456E+00   -4.368E+00   -4.280E+00
    -4.193E+00   -4.104E+00   -4.016E+00   -3.928E+00   -3.839E+00   -3.751E+00   -3.662E+00   -3.573E+00   -3.484E+00   -3.396E+00
    -3.307E+00   -3.217E+00   -3.128E+00   -3.039E+00   -2.950E+00   -2.861E+00   -2.771E+00   -2.682E+00   -2.593E+00   -2.504E+00
    -2.414E+00   -2.325E+00   -2.236E+00   -2.147E+00   -2.057E+00   -1.968E+00   -1.879E+00   -1.790E+00
 Asp      Conc. = 2.83E+02
