 LCModel (Version 6.3-1L) Copyright: S.W. Provencher.          Ref.: Magn. Reson. Med. 30:672-679 (1993).                
 Slice#1 Row#5 Col#5  PD_24_press_2_raw_act
 36 lines in following concentration table = NCONC+1
    Conc.  %SD /Cr+PCr  Metabolite                                         
  509.219  78%   0.353 Ala                                                 
  283.694  99%   0.197 Asp                                                 
    0.000 999%   0.000 Cr                                                  
 1.44E+03  11%   1.000 PCr                                                 
   98.262 177% 6.8E-02 GABA                                                
  169.844 101%   0.118 Glc                                                 
  559.379 144%   0.388 Gln                                                 
  992.657  91%   0.689 Glu                                                 
    0.000 999%   0.000 GPC                                                 
  474.843  11%   0.330 PCh                                                 
    0.000 999%   0.000 GSH                                                 
    0.000 999%   0.000 Ins                                                 
    0.000 999%   0.000 Lac                                                 
 2.31E+03   8%   1.605 NAA                                                 
    0.000 999%   0.000 NAAG                                                
  121.636  39% 8.4E-02 Scyllo                                              
  454.733  60%   0.316 Tau                                                 
 1.27E+03  18%   0.880 -CrCH2                                              
  474.843  11%   0.330 GPC+PCh                                             
 2.31E+03   8%   1.605 NAA+NAAG                                            
 1.44E+03  11%   1.000 Cr+PCr                                              
 1.55E+03  89%   1.077 Glu+Gln                                             
 6.18E+03  18%   4.287 Lip13a                                              
    0.000 999%   0.000 Lip13b                                              
 1.02E+03  56%   0.711 Lip09                                               
 1.25E+03  43%   0.871 MM09                                                
 1.31E+03  34%   0.907 Lip20                                               
 2.18E+03  37%   1.510 MM20                                                
  385.982  71%   0.268 MM12                                                
 2.98E+03  16%   2.067 MM14                                                
    0.000 999%   0.000 MM17                                                
 6.18E+03  18%   4.287 Lip13a+Lip13b                                       
 9.54E+03   9%   6.621 MM14+Lip13a+Lip13b+MM12                             
 2.28E+03  17%   1.582 MM09+Lip09                                          
 3.48E+03  22%   2.417 MM20+Lip20                                          
   6 lines in following misc. output table
  FWHM = 0.076 ppm    S/N =   4                                            
  Data shift = 0.015 ppm                                                   
  Ph: -49 deg     -13.7 deg/ppm                                            
  alphaB,S = 2.7E+00,   5.1E+01                                            
   14 spline knots.   Ns = 9(1)                                            
  (13) 2 infls.   (12) 1 extrs.                                            
  498 points on ppm-axis = NY
      4.000000     3.992357     3.984714     3.977070     3.969427     3.961784     3.954141     3.946497     3.938854     3.931211
      3.923568     3.915925     3.908281     3.900638     3.892995     3.885352     3.877708     3.870065     3.862422     3.854779
      3.847136     3.839492     3.831849     3.824206     3.816563     3.808919     3.801276     3.793633     3.785990     3.778347
      3.770703     3.763060     3.755417     3.747774     3.740130     3.732487     3.724844     3.717201     3.709558     3.701914
      3.694271     3.686628     3.678985     3.671341     3.663698     3.656055     3.648412     3.640769     3.633125     3.625482
      3.617839     3.610196     3.602552     3.594909     3.587266     3.579623     3.571980     3.564336     3.556693     3.549050
      3.541407     3.533763     3.526120     3.518477     3.510834     3.503191     3.495547     3.487904     3.480261     3.472618
      3.464974     3.457331     3.449688     3.442045     3.434402     3.426758     3.419115     3.411472     3.403829     3.396185
      3.388542     3.380899     3.373256     3.365613     3.357969     3.350326     3.342683     3.335040     3.327396     3.319753
      3.312110     3.304467     3.296824     3.289180     3.281537     3.273894     3.266251     3.258607     3.250964     3.243321
      3.235678     3.228034     3.220391     3.212748     3.205105     3.197462     3.189818     3.182175     3.174532     3.166889
      3.159245     3.151602     3.143959     3.136316     3.128673     3.121029     3.113386     3.105743     3.098100     3.090456
      3.082813     3.075170     3.067527     3.059884     3.052240     3.044597     3.036954     3.029311     3.021667     3.014024
      3.006381     2.998738     2.991095     2.983451     2.975808     2.968165     2.960522     2.952878     2.945235     2.937592
      2.929949     2.922306     2.914662     2.907019     2.899376     2.891733     2.884089     2.876446     2.868803     2.861160
      2.853517     2.845873     2.838230     2.830587     2.822944     2.815300     2.807657     2.800014     2.792371     2.784728
      2.777084     2.769441     2.761798     2.754155     2.746511     2.738868     2.731225     2.723582     2.715939     2.708295
      2.700652     2.693009     2.685366     2.677722     2.670079     2.662436     2.654793     2.647150     2.639506     2.631863
      2.624220     2.616577     2.608933     2.601290     2.593647     2.586004     2.578361     2.570717     2.563074     2.555431
      2.547788     2.540144     2.532501     2.524858     2.517215     2.509572     2.501928     2.494285     2.486642     2.478999
      2.471355     2.463712     2.456069     2.448426     2.440783     2.433139     2.425496     2.417853     2.410210     2.402566
      2.394923     2.387280     2.379637     2.371994     2.364350     2.356707     2.349064     2.341421     2.333777     2.326134
      2.318491     2.310848     2.303205     2.295561     2.287918     2.280275     2.272632     2.264988     2.257345     2.249702
      2.242059     2.234416     2.226772     2.219129     2.211486     2.203843     2.196199     2.188556     2.180913     2.173270
      2.165627     2.157983     2.150340     2.142697     2.135054     2.127410     2.119767     2.112124     2.104481     2.096838
      2.089194     2.081551     2.073908     2.066265     2.058621     2.050978     2.043335     2.035692     2.028049     2.020405
      2.012762     2.005119     1.997476     1.989833     1.982190     1.974546     1.966903     1.959260     1.951617     1.943974
      1.936331     1.928688     1.921045     1.913402     1.905759     1.898115     1.890472     1.882829     1.875186     1.867543
      1.859900     1.852257     1.844614     1.836971     1.829327     1.821684     1.814041     1.806398     1.798755     1.791112
      1.783469     1.775826     1.768183     1.760540     1.752896     1.745253     1.737610     1.729967     1.722324     1.714681
      1.707038     1.699395     1.691752     1.684108     1.676465     1.668822     1.661179     1.653536     1.645893     1.638250
      1.630607     1.622964     1.615321     1.607677     1.600034     1.592391     1.584748     1.577105     1.569462     1.561819
      1.554176     1.546533     1.538890     1.531246     1.523603     1.515960     1.508317     1.500674     1.493031     1.485388
      1.477745     1.470102     1.462458     1.454815     1.447172     1.439529     1.431886     1.424243     1.416600     1.408957
      1.401314     1.393671     1.386027     1.378384     1.370741     1.363098     1.355455     1.347812     1.340169     1.332526
      1.324883     1.317240     1.309596     1.301953     1.294310     1.286667     1.279024     1.271381     1.263738     1.256095
      1.248452     1.240808     1.233165     1.225522     1.217879     1.210236     1.202593     1.194950     1.187307     1.179664
      1.172021     1.164377     1.156734     1.149091     1.141448     1.133805     1.126162     1.118519     1.110876     1.103233
      1.095590     1.087946     1.080303     1.072660     1.065017     1.057374     1.049731     1.042088     1.034445     1.026802
      1.019158     1.011515     1.003872     0.996229     0.988586     0.980943     0.973300     0.965657     0.958014     0.950371
      0.942727     0.935084     0.927441     0.919798     0.912155     0.904512     0.896869     0.889226     0.881583     0.873940
      0.866296     0.858653     0.851010     0.843367     0.835724     0.828081     0.820438     0.812795     0.805152     0.797508
      0.789865     0.782222     0.774579     0.766936     0.759293     0.751650     0.744007     0.736364     0.728721     0.721077
      0.713434     0.705791     0.698148     0.690505     0.682862     0.675219     0.667576     0.659933     0.652290     0.644646
      0.637003     0.629360     0.621717     0.614074     0.606431     0.598788     0.591145     0.583502     0.575858     0.568215
      0.560572     0.552929     0.545286     0.537643     0.530000     0.522357     0.514714     0.507071     0.499427     0.491784
      0.484141     0.476498     0.468855     0.461212     0.453569     0.445925     0.438282     0.430639     0.422996     0.415353
      0.407710     0.400067     0.392424     0.384780     0.377137     0.369494     0.361851     0.354208     0.346565     0.338922
      0.331278     0.323635     0.315992     0.308349     0.300706     0.293063     0.285420     0.277777     0.270133     0.262490
      0.254847     0.247204     0.239561     0.231918     0.224275     0.216631     0.208988     0.201345
 NY phased data points follow
  -7.22735E+01 -5.82138E+01 -6.01777E+01 -4.79773E+01 -4.46093E+01 -4.66570E+01 -4.78019E+01 -4.18640E+01 -2.35700E+01 -3.21489E+01
  -2.75000E+01 -2.62516E+01 -3.15798E+01 -3.02506E+01 -4.43338E+01 -3.12811E+01 -4.32041E+01 -3.50648E+01 -4.53877E+01 -4.93953E+01
  -4.84233E+01 -4.05487E+01 -3.14225E+01 -3.84943E+01 -4.50312E+01 -3.61542E+01 -3.25729E+01 -2.99220E+01 -3.96457E+01 -3.98909E+01
  -2.03469E+01 -2.74128E+01 -2.99289E+01 -2.77698E+01 -4.28982E+01 -3.35324E+01 -4.80833E+01 -2.53436E+01 -3.37026E+01 -1.94232E+01
  -3.06283E+01 -3.13574E+01 -1.92800E+01 -2.20025E+01 -3.09045E+01 -3.16000E+01 -3.58184E+01 -8.97095E+00 -3.65687E+01 -2.64460E+01
  -1.92124E+01 -2.08268E+01 -2.80345E+01 -3.07394E+01 -2.66516E+01 -2.52807E+01 -3.16016E+01 -1.94466E+01 -3.28823E+01 -3.39116E+01
  -1.75098E+01 -3.13736E+01 -3.74765E+01 -2.73599E+01 -4.21742E+01 -3.79429E+01 -4.35075E+01 -2.68474E+01 -3.17703E+01 -2.06842E+01
  -1.90514E+01 -3.05709E+01 -2.08256E+01 -2.02398E+01 -2.63392E+01 -1.54938E+01 -3.08328E+01 -2.21904E+01 -1.57289E+01 -2.54103E+01
  -2.03544E+01 -2.90200E+01 -8.78285E+00 -2.26777E+01 -2.07273E+01 -1.33875E+01 -7.07999E-01 -1.28126E+01 -1.89007E+01 -3.42784E+01
  -2.33100E+01 -1.59230E+01 -1.45126E+01 -7.08810E+00 -1.21448E+01 -7.96779E+00 -1.99993E+01 -5.03214E+00 -1.03394E+01  3.30049E+00
  -6.71385E+00  1.03344E+01 -6.43685E+00  1.42776E+01  1.90596E+01  1.50519E+01  2.07347E+01 -4.86174E+00  3.63224E+00 -1.24334E+01
  -1.14815E+01 -1.59112E+01 -2.48359E+01 -1.32770E+01 -2.42794E+01 -2.11924E+01 -2.16071E+01 -2.01916E+01 -2.16151E+01 -3.02791E+01
  -1.39015E+01 -8.51526E+00 -1.69006E+01  2.51930E+00  4.32865E+00  9.74823E+00  1.63956E+01  2.89189E+01  3.30414E+00  1.88322E+01
   2.01106E+01  1.89907E+01 -2.67232E+00  5.73944E+00 -2.58466E+01 -3.28587E+00 -1.55633E+01 -1.71293E+01 -9.52815E+00 -1.38239E+01
  -1.59040E+01 -2.26282E+01 -1.68817E+01 -1.60807E+01 -2.88708E+01 -2.21220E+01 -2.08831E+01 -9.16970E+00 -2.22203E+01 -1.92413E+01
  -1.99022E+01 -2.61065E+01 -2.50264E+01  8.45753E-01 -2.20520E+01 -1.26733E+01 -1.67418E+01 -1.72369E+01 -2.00195E+01 -1.00254E+01
  -2.82698E+01  1.88760E-01 -1.11602E+01 -3.28258E+01 -1.80713E+01 -1.17829E+01 -1.40149E+01 -1.94312E+01 -1.33933E+01 -1.08857E+01
  -8.08906E+00  1.27627E+00 -1.87231E+01 -1.76385E+01 -2.29284E+01 -2.69244E+01 -2.63861E+01 -1.78900E+01 -1.51936E+01 -2.58859E+01
  -1.42174E+01 -1.72723E+01 -2.41932E+01 -1.17949E+01 -1.85254E+01 -1.72584E+01 -1.77418E+01  2.82313E+00 -8.52655E+00 -7.25453E+00
  -1.33474E+01 -1.25289E+01 -2.63267E+01 -1.74749E+01 -5.30880E+00 -3.14454E+01 -2.07494E+01 -1.48587E+01 -1.62705E+01 -3.83129E+00
  -7.30510E+00 -1.12437E+01 -2.68110E+00 -1.63847E+00 -2.00970E+01 -1.79770E+01 -9.47449E-01 -1.29076E+01 -6.90519E+00 -1.53703E+01
  -2.00779E+01 -7.39342E-01 -4.51843E+00  3.91524E+00 -3.36408E+00  8.67506E+00 -3.77827E+00  1.55903E+00  4.06102E+00 -1.13836E+01
  -1.00782E+01 -1.74046E+01 -6.90046E+00 -7.33526E+00 -1.06798E+01 -8.65660E+00 -6.04013E-01 -9.65326E+00  3.85254E-01 -5.81989E+00
  -1.53168E+01  9.84371E+00 -1.62526E+01 -1.12915E+00 -1.33581E+01 -3.81007E+00  6.69948E-01 -1.20426E+00 -1.66896E+01  3.43796E+00
   9.84579E+00 -1.17976E+01 -4.66642E+00 -5.51714E+00 -6.64696E+00  2.04945E+00 -3.46292E+00 -5.61398E+00 -3.78056E+00  2.67215E+00
  -1.13641E+01  3.63323E+00  8.87592E-01  1.13985E+01  1.47235E+01  3.38608E+01  4.23109E+01  4.34125E+01  5.46105E+01  5.79810E+01
   5.55530E+01  5.58229E+01  5.79930E+01  6.01415E+01  4.13610E+01  3.91192E+01  2.26495E+01  9.56805E+00 -4.40965E-01  3.38073E+00
  -8.80984E+00  7.30812E+00  8.29585E+00  1.32635E+01 -3.31983E+00  3.63439E-01 -3.46210E+00  7.55697E+00 -6.16668E+00  1.21550E+01
  -6.55257E+00  4.61213E+00 -1.07766E+01 -1.01392E+01  3.58596E-01  5.86785E+00 -7.51514E+00 -7.58825E+00 -2.85460E+00 -8.27115E+00
  -9.93353E+00 -1.31455E+01 -1.17576E+01 -1.20569E+01 -2.26053E+01 -2.39741E+01 -1.16357E+01 -2.18348E+01 -2.29747E+01 -1.31953E+01
  -2.13101E+01 -2.24338E+01 -3.15667E+01 -2.09785E+01 -2.84375E+01 -1.25610E+01 -7.62770E+00 -1.25994E+01 -1.54334E+01 -1.45010E+00
   2.66736E+00  4.26586E-01 -1.33136E+01  1.00769E+01  8.02356E+00  3.29473E-01  1.33235E+01  1.50724E+01  8.09522E+00  2.25159E+01
   1.32388E+01  1.17408E+01  1.99419E+01  2.49361E+01  3.11547E+01  2.73377E+01  2.69479E+01  3.02421E+01  2.86123E+01  1.74318E+01
   1.86875E+01  2.72427E+01  2.14496E+01  2.26379E+01  1.24061E+01  2.75785E+01  6.57683E+00  7.80267E+00  1.58459E+01  1.31926E+01
   3.09951E+01  2.74732E+01  2.99011E+01  1.90966E+01  1.87115E+01  2.06923E+01  3.65222E+01  2.70736E+01  2.37332E+01  3.01529E+01
   3.74973E+01  3.47520E+01  2.08490E+01  3.43227E+01  2.40029E+01  2.88101E+01  3.34538E+01  2.65860E+01  2.54390E+01  2.57636E+01
   1.52787E+01  1.62122E+01  1.82727E+01  1.97734E+01  2.54847E+01  2.44454E+01  1.94055E+01  1.14027E+01  1.38185E+01  2.28816E+01
   1.39648E+01  4.69950E+00  1.40044E+01  1.26898E+01  2.54899E+01  3.24348E+00  3.73830E+00  6.93023E+00  2.35303E+01  8.17001E+00
   1.81189E+00  8.72122E+00 -1.37930E+00  9.22485E+00  1.11709E+01  8.08903E+00  1.43175E+01  2.36595E+01  8.18797E+00  7.60886E+00
   1.67323E+01 -5.64673E+00  1.16010E+01  2.11560E+01  8.65080E+00 -4.57487E+00 -1.10038E+01  1.78823E+01 -1.79956E+01  2.67920E+01
   3.29160E+00  8.25099E+00  8.86327E+00  1.84408E+01  8.84621E+00  1.64950E+01  2.41467E+01  2.41415E+01  2.44874E+01  2.98460E+01
   9.95879E+00  1.78216E+01  1.17772E+01  2.22818E+01  1.31152E+01  1.10779E+01  1.92522E+01  8.37427E+00  8.67584E+00  7.36219E+00
   6.18727E+00  1.03824E+00  7.67840E-01  1.40919E+01 -1.53525E-01  1.33961E+01  1.35959E+01 -5.96253E-01 -7.97480E+00  3.85431E+00
  -4.19631E+00  1.04755E+01  3.21518E+00 -1.62868E+01  6.25905E+00  3.32424E+00  9.02009E+00  1.17925E+01  4.72094E+00  9.88821E+00
   3.74063E+00 -7.75584E+00  4.14191E+00  8.62673E+00 -2.27498E+00  4.51905E+00  6.49619E+00 -5.82457E-01 -9.05756E+00 -2.02298E+00
   3.26662E+00  3.42847E+00  9.82258E+00  4.80783E+00  7.90247E+00  9.73090E-01  3.13927E+00 -4.87802E+00  5.34334E+00 -5.66843E+00
   3.88944E+00  7.64063E+00 -6.98345E-01  3.73958E+00  4.48067E+00  2.79406E+00  1.81122E+01  3.42174E+00 -4.32464E+00  5.68580E+00
  -3.49884E+00  1.20149E+01  7.53261E-01  1.44093E+00  4.95699E+00  6.43022E+00  4.97656E+00  3.08061E+00  7.57957E+00 -1.11314E+00
  -1.90303E-01  3.27703E+00  9.61795E+00  1.58800E+01 -8.72700E+00  8.08475E+00  1.02954E+01  1.15497E+01  8.53486E+00  9.00108E+00
   5.68208E+00  2.00080E+00  7.68794E+00  1.48769E+01  1.06090E+01  7.06056E+00  6.75201E+00  2.15075E+00
 NY points of the fit to the data follow
  -3.75466E+01 -3.85858E+01 -3.94364E+01 -3.96382E+01 -3.91692E+01 -3.83066E+01 -3.72570E+01 -3.59179E+01 -3.44773E+01 -3.34447E+01
  -3.26297E+01 -3.13082E+01 -2.97063E+01 -2.88603E+01 -2.89542E+01 -2.98485E+01 -3.13630E+01 -3.26535E+01 -3.33064E+01 -3.34432E+01
  -3.32958E+01 -3.30921E+01 -3.29759E+01 -3.29659E+01 -3.30112E+01 -3.30458E+01 -3.29767E+01 -3.27880E+01 -3.25821E+01 -3.24260E+01
  -3.22969E+01 -3.21231E+01 -3.18125E+01 -3.13381E+01 -3.07891E+01 -3.03577E+01 -3.01926E+01 -3.03463E+01 -3.07620E+01 -3.12526E+01
  -3.16219E+01 -3.17352E+01 -3.15986E+01 -3.13667E+01 -3.11657E+01 -3.10326E+01 -3.09566E+01 -3.08824E+01 -3.07614E+01 -3.05861E+01
  -3.03842E+01 -3.01779E+01 -2.99877E+01 -2.98172E+01 -2.96452E+01 -2.94768E+01 -2.93347E+01 -2.92155E+01 -2.91046E+01 -2.89823E+01
  -2.88393E+01 -2.86585E+01 -2.84519E+01 -2.82513E+01 -2.80726E+01 -2.79227E+01 -2.78041E+01 -2.76674E+01 -2.74454E+01 -2.71475E+01
  -2.68186E+01 -2.65122E+01 -2.62771E+01 -2.61064E+01 -2.59646E+01 -2.58472E+01 -2.57188E+01 -2.55542E+01 -2.52801E+01 -2.48100E+01
  -2.41541E+01 -2.33868E+01 -2.25615E+01 -2.16559E+01 -2.07124E+01 -1.99104E+01 -1.93888E+01 -1.91483E+01 -1.92240E+01 -1.97443E+01
  -2.06707E+01 -2.17193E+01 -2.26501E+01 -2.32647E+01 -2.33786E+01 -2.22506E+01 -1.90749E+01 -1.41547E+01 -8.33175E+00 -2.41659E+00
   3.10035E+00  7.77766E+00  1.09994E+01  1.26130E+01  1.31086E+01  1.25287E+01  1.00009E+01  5.13618E+00 -1.15969E+00 -7.73536E+00
  -1.34543E+01 -1.74374E+01 -1.97633E+01 -2.09178E+01 -2.13604E+01 -2.14614E+01 -2.14136E+01 -2.12622E+01 -2.09767E+01 -1.98085E+01
  -1.66901E+01 -1.17957E+01 -5.93509E+00  4.27552E-02  5.59148E+00  1.03801E+01  1.38634E+01  1.57766E+01  1.65697E+01  1.63549E+01
   1.41509E+01  9.35962E+00  2.89016E+00 -4.00147E+00 -1.01471E+01 -1.44965E+01 -1.70454E+01 -1.83082E+01 -1.87665E+01 -1.88456E+01
  -1.88010E+01 -1.87091E+01 -1.86045E+01 -1.85077E+01 -1.84236E+01 -1.83439E+01 -1.82550E+01 -1.81540E+01 -1.80533E+01 -1.79751E+01
  -1.79242E+01 -1.78829E+01 -1.78486E+01 -1.78671E+01 -1.79693E+01 -1.81436E+01 -1.83475E+01 -1.85033E+01 -1.85940E+01 -1.86384E+01
  -1.86456E+01 -1.86412E+01 -1.86517E+01 -1.86658E+01 -1.86387E+01 -1.85489E+01 -1.84312E+01 -1.83752E+01 -1.85190E+01 -1.88964E+01
  -1.93744E+01 -1.98208E+01 -2.01373E+01 -2.03448E+01 -2.05036E+01 -2.06039E+01 -2.06286E+01 -2.05866E+01 -2.04810E+01 -2.03061E+01
  -2.00528E+01 -1.97489E+01 -1.94305E+01 -1.90943E+01 -1.87082E+01 -1.82278E+01 -1.76597E+01 -1.70634E+01 -1.65176E+01 -1.59908E+01
  -1.54242E+01 -1.48639E+01 -1.44005E+01 -1.40673E+01 -1.38632E+01 -1.37282E+01 -1.35242E+01 -1.31554E+01 -1.26131E+01 -1.19992E+01
  -1.14589E+01 -1.10785E+01 -1.09588E+01 -1.11306E+01 -1.15169E+01 -1.20835E+01 -1.27959E+01 -1.35833E+01 -1.42283E+01 -1.45393E+01
  -1.44952E+01 -1.41386E+01 -1.34652E+01 -1.24921E+01 -1.14801E+01 -1.07292E+01 -1.02608E+01 -1.00248E+01 -1.00621E+01 -1.03844E+01
  -1.08835E+01 -1.13206E+01 -1.15011E+01 -1.13380E+01 -1.08083E+01 -9.89196E+00 -8.65604E+00 -7.33683E+00 -6.21856E+00 -5.44946E+00
  -5.04064E+00 -4.88256E+00 -4.81397E+00 -4.70333E+00 -4.45256E+00 -4.08234E+00 -3.66532E+00 -3.25669E+00 -2.85866E+00 -2.45167E+00
  -2.04510E+00 -1.66068E+00 -1.31257E+00 -1.05112E+00 -8.97107E-01 -7.49066E-01 -4.61649E-01  8.87065E-03  6.39973E-01  1.41752E+00
   2.26619E+00  3.19938E+00  5.47535E+00  1.06986E+01  1.85359E+01  2.76942E+01  3.68360E+01  4.51251E+01  5.20236E+01  5.66953E+01
   5.88524E+01  5.92824E+01  5.80879E+01  5.36868E+01  4.52605E+01  3.43018E+01  2.27597E+01  1.25258E+01  5.21618E+00  7.84552E-01
  -1.61077E+00 -2.76113E+00 -3.33067E+00 -3.70332E+00 -3.98458E+00 -4.20619E+00 -4.39875E+00 -4.59214E+00 -4.80056E+00 -5.02795E+00
  -5.26828E+00 -5.50361E+00 -5.71497E+00 -5.88817E+00 -6.01457E+00 -6.09606E+00 -6.14074E+00 -6.15646E+00 -6.15380E+00 -6.14261E+00
  -6.12686E+00 -6.10696E+00 -6.08211E+00 -6.05010E+00 -6.00776E+00 -5.95291E+00 -5.88383E+00 -5.79801E+00 -5.69305E+00 -5.56719E+00
  -5.41757E+00 -5.24095E+00 -5.03322E+00 -4.78890E+00 -4.50101E+00 -4.16152E+00 -3.76140E+00 -3.29094E+00 -2.73965E+00 -2.09696E+00
  -1.35231E+00 -4.95811E-01  4.81133E-01  1.58519E+00  2.82090E+00  4.19048E+00  5.69459E+00  7.33400E+00  9.11711E+00  1.11074E+01
   1.33405E+01  1.56090E+01  1.76734E+01  1.93780E+01  2.06555E+01  2.14778E+01  2.17685E+01  2.15424E+01  2.11190E+01  2.07062E+01
   2.02569E+01  1.97795E+01  1.94805E+01  1.95518E+01  2.00253E+01  2.08113E+01  2.17493E+01  2.27702E+01  2.37364E+01  2.43723E+01
   2.45607E+01  2.43831E+01  2.39680E+01  2.35593E+01  2.33496E+01  2.33949E+01  2.36812E+01  2.41536E+01  2.47400E+01  2.53809E+01
   2.60279E+01  2.66379E+01  2.71720E+01  2.75961E+01  2.78815E+01  2.80059E+01  2.79537E+01  2.77165E+01  2.72931E+01  2.66888E+01
   2.59154E+01  2.49895E+01  2.39322E+01  2.27674E+01  2.15209E+01  2.02190E+01  1.88879E+01  1.75520E+01  1.62340E+01  1.49538E+01
   1.37284E+01  1.25716E+01  1.14942E+01  1.05043E+01  9.60694E+00  8.80528E+00  8.10047E+00  7.49217E+00  6.97910E+00  6.55925E+00
   6.23031E+00  5.98981E+00  5.83545E+00  5.76515E+00  5.77718E+00  5.87003E+00  6.04245E+00  6.29310E+00  6.62058E+00  7.02294E+00
   7.49758E+00  8.04073E+00  8.64729E+00  9.31040E+00  1.00214E+01  1.07695E+01  1.15421E+01  1.23243E+01  1.30998E+01  1.38509E+01
   1.45592E+01  1.52064E+01  1.57749E+01  1.62484E+01  1.66129E+01  1.68576E+01  1.69749E+01  1.69613E+01  1.68171E+01  1.65469E+01
   1.61589E+01  1.56647E+01  1.50784E+01  1.44163E+01  1.36958E+01  1.29345E+01  1.21499E+01  1.13584E+01  1.05747E+01  9.81182E+00
   9.08034E+00  8.38863E+00  7.74288E+00  7.14705E+00  6.60327E+00  6.11193E+00  5.67214E+00  5.28188E+00  4.93844E+00  4.63852E+00
   4.37859E+00  4.15494E+00  3.96395E+00  3.80208E+00  3.66610E+00  3.55293E+00  3.45987E+00  3.38441E+00  3.32439E+00  3.27787E+00
   3.24322E+00  3.21894E+00  3.20379E+00  3.19665E+00  3.19659E+00  3.20277E+00  3.21454E+00  3.23124E+00  3.25236E+00  3.27741E+00
   3.30602E+00  3.33782E+00  3.37253E+00  3.40985E+00  3.44955E+00  3.49140E+00  3.53524E+00  3.58088E+00  3.62820E+00  3.67703E+00
   3.72728E+00  3.77880E+00  3.83154E+00  3.88538E+00  3.94027E+00  3.99610E+00  4.05283E+00  4.11037E+00  4.16872E+00  4.22778E+00
   4.28754E+00  4.34791E+00  4.40890E+00  4.47043E+00  4.53253E+00  4.59511E+00  4.65819E+00  4.72169E+00  4.78563E+00  4.84997E+00
   4.91471E+00  4.97981E+00  5.04526E+00  5.11103E+00  5.17714E+00  5.24355E+00  5.31028E+00  5.37729E+00  5.44458E+00  5.51213E+00
   5.57997E+00  5.64807E+00  5.71645E+00  5.78506E+00  5.85395E+00  5.92309E+00  5.99253E+00  6.06224E+00
 NY background values follow
    -3.742E+01   -3.731E+01   -3.719E+01   -3.707E+01   -3.695E+01   -3.684E+01   -3.672E+01   -3.660E+01   -3.648E+01   -3.637E+01
    -3.625E+01   -3.613E+01   -3.601E+01   -3.590E+01   -3.578E+01   -3.566E+01   -3.554E+01   -3.543E+01   -3.531E+01   -3.519E+01
    -3.507E+01   -3.496E+01   -3.484E+01   -3.472E+01   -3.460E+01   -3.449E+01   -3.437E+01   -3.425E+01   -3.414E+01   -3.402E+01
    -3.390E+01   -3.378E+01   -3.367E+01   -3.355E+01   -3.343E+01   -3.332E+01   -3.320E+01   -3.308E+01   -3.297E+01   -3.285E+01
    -3.274E+01   -3.262E+01   -3.250E+01   -3.239E+01   -3.227E+01   -3.215E+01   -3.204E+01   -3.192E+01   -3.181E+01   -3.169E+01
    -3.158E+01   -3.146E+01   -3.135E+01   -3.123E+01   -3.112E+01   -3.100E+01   -3.089E+01   -3.077E+01   -3.066E+01   -3.054E+01
    -3.043E+01   -3.031E+01   -3.020E+01   -3.008E+01   -2.997E+01   -2.986E+01   -2.974E+01   -2.963E+01   -2.952E+01   -2.940E+01
    -2.929E+01   -2.918E+01   -2.906E+01   -2.895E+01   -2.884E+01   -2.872E+01   -2.861E+01   -2.850E+01   -2.839E+01   -2.828E+01
    -2.816E+01   -2.805E+01   -2.794E+01   -2.783E+01   -2.772E+01   -2.761E+01   -2.750E+01   -2.739E+01   -2.727E+01   -2.716E+01
    -2.705E+01   -2.694E+01   -2.683E+01   -2.672E+01   -2.661E+01   -2.651E+01   -2.640E+01   -2.629E+01   -2.618E+01   -2.607E+01
    -2.596E+01   -2.585E+01   -2.574E+01   -2.564E+01   -2.553E+01   -2.542E+01   -2.531E+01   -2.521E+01   -2.510E+01   -2.499E+01
    -2.489E+01   -2.478E+01   -2.467E+01   -2.457E+01   -2.446E+01   -2.436E+01   -2.425E+01   -2.415E+01   -2.404E+01   -2.394E+01
    -2.383E+01   -2.373E+01   -2.362E+01   -2.352E+01   -2.341E+01   -2.331E+01   -2.321E+01   -2.310E+01   -2.300E+01   -2.290E+01
    -2.280E+01   -2.269E+01   -2.259E+01   -2.249E+01   -2.239E+01   -2.229E+01   -2.218E+01   -2.208E+01   -2.198E+01   -2.188E+01
    -2.178E+01   -2.168E+01   -2.158E+01   -2.148E+01   -2.138E+01   -2.128E+01   -2.118E+01   -2.108E+01   -2.098E+01   -2.088E+01
    -2.079E+01   -2.069E+01   -2.059E+01   -2.049E+01   -2.039E+01   -2.030E+01   -2.020E+01   -2.010E+01   -2.001E+01   -1.991E+01
    -1.981E+01   -1.972E+01   -1.962E+01   -1.953E+01   -1.943E+01   -1.934E+01   -1.924E+01   -1.915E+01   -1.905E+01   -1.896E+01
    -1.886E+01   -1.877E+01   -1.868E+01   -1.858E+01   -1.849E+01   -1.840E+01   -1.830E+01   -1.821E+01   -1.812E+01   -1.803E+01
    -1.794E+01   -1.784E+01   -1.775E+01   -1.766E+01   -1.757E+01   -1.748E+01   -1.739E+01   -1.730E+01   -1.721E+01   -1.712E+01
    -1.703E+01   -1.694E+01   -1.685E+01   -1.676E+01   -1.667E+01   -1.659E+01   -1.650E+01   -1.641E+01   -1.632E+01   -1.623E+01
    -1.615E+01   -1.606E+01   -1.597E+01   -1.589E+01   -1.580E+01   -1.571E+01   -1.563E+01   -1.554E+01   -1.546E+01   -1.537E+01
    -1.529E+01   -1.520E+01   -1.512E+01   -1.503E+01   -1.495E+01   -1.486E+01   -1.478E+01   -1.469E+01   -1.461E+01   -1.453E+01
    -1.444E+01   -1.436E+01   -1.428E+01   -1.419E+01   -1.411E+01   -1.403E+01   -1.395E+01   -1.387E+01   -1.378E+01   -1.370E+01
    -1.362E+01   -1.354E+01   -1.346E+01   -1.338E+01   -1.330E+01   -1.322E+01   -1.314E+01   -1.305E+01   -1.297E+01   -1.289E+01
    -1.281E+01   -1.274E+01   -1.266E+01   -1.258E+01   -1.250E+01   -1.242E+01   -1.234E+01   -1.226E+01   -1.218E+01   -1.210E+01
    -1.202E+01   -1.195E+01   -1.187E+01   -1.179E+01   -1.171E+01   -1.163E+01   -1.156E+01   -1.148E+01   -1.140E+01   -1.132E+01
    -1.125E+01   -1.117E+01   -1.109E+01   -1.102E+01   -1.094E+01   -1.086E+01   -1.079E+01   -1.071E+01   -1.063E+01   -1.056E+01
    -1.048E+01   -1.040E+01   -1.033E+01   -1.025E+01   -1.018E+01   -1.010E+01   -1.003E+01   -9.950E+00   -9.875E+00   -9.799E+00
    -9.724E+00   -9.649E+00   -9.573E+00   -9.498E+00   -9.423E+00   -9.348E+00   -9.273E+00   -9.198E+00   -9.123E+00   -9.049E+00
    -8.974E+00   -8.899E+00   -8.825E+00   -8.750E+00   -8.676E+00   -8.602E+00   -8.527E+00   -8.453E+00   -8.379E+00   -8.304E+00
    -8.230E+00   -8.156E+00   -8.082E+00   -8.008E+00   -7.934E+00   -7.860E+00   -7.786E+00   -7.712E+00   -7.639E+00   -7.565E+00
    -7.491E+00   -7.417E+00   -7.344E+00   -7.270E+00   -7.196E+00   -7.123E+00   -7.049E+00   -6.975E+00   -6.902E+00   -6.828E+00
    -6.755E+00   -6.681E+00   -6.608E+00   -6.534E+00   -6.461E+00   -6.388E+00   -6.314E+00   -6.241E+00   -6.168E+00   -6.094E+00
    -6.021E+00   -5.948E+00   -5.875E+00   -5.801E+00   -5.728E+00   -5.655E+00   -5.582E+00   -5.509E+00   -5.436E+00   -5.363E+00
    -5.290E+00   -5.216E+00   -5.143E+00   -5.070E+00   -4.998E+00   -4.925E+00   -4.852E+00   -4.779E+00   -4.706E+00   -4.633E+00
    -4.560E+00   -4.487E+00   -4.415E+00   -4.342E+00   -4.269E+00   -4.196E+00   -4.124E+00   -4.051E+00   -3.978E+00   -3.906E+00
    -3.833E+00   -3.761E+00   -3.688E+00   -3.616E+00   -3.543E+00   -3.471E+00   -3.398E+00   -3.326E+00   -3.253E+00   -3.181E+00
    -3.108E+00   -3.036E+00   -2.964E+00   -2.891E+00   -2.819E+00   -2.747E+00   -2.674E+00   -2.602E+00   -2.530E+00   -2.458E+00
    -2.385E+00   -2.313E+00   -2.241E+00   -2.169E+00   -2.097E+00   -2.024E+00   -1.952E+00   -1.880E+00   -1.808E+00   -1.736E+00
    -1.664E+00   -1.592E+00   -1.519E+00   -1.447E+00   -1.375E+00   -1.303E+00   -1.231E+00   -1.159E+00   -1.087E+00   -1.015E+00
    -9.426E-01   -8.705E-01   -7.984E-01   -7.263E-01   -6.542E-01   -5.821E-01   -5.100E-01   -4.379E-01   -3.658E-01   -2.937E-01
    -2.216E-01   -1.495E-01   -7.736E-02   -5.235E-03    6.689E-02    1.390E-01    2.112E-01    2.833E-01    3.555E-01    4.276E-01
     4.998E-01    5.719E-01    6.441E-01    7.163E-01    7.884E-01    8.606E-01    9.328E-01    1.005E+00    1.077E+00    1.149E+00
     1.222E+00    1.294E+00    1.366E+00    1.438E+00    1.511E+00    1.583E+00    1.655E+00    1.727E+00    1.800E+00    1.872E+00
     1.944E+00    2.016E+00    2.089E+00    2.161E+00    2.233E+00    2.306E+00    2.378E+00    2.450E+00    2.523E+00    2.595E+00
     2.667E+00    2.740E+00    2.812E+00    2.885E+00    2.957E+00    3.029E+00    3.102E+00    3.174E+00    3.247E+00    3.319E+00
     3.392E+00    3.464E+00    3.536E+00    3.609E+00    3.681E+00    3.754E+00    3.826E+00    3.899E+00    3.971E+00    4.044E+00
     4.116E+00    4.189E+00    4.261E+00    4.334E+00    4.407E+00    4.479E+00    4.552E+00    4.624E+00    4.697E+00    4.769E+00
     4.842E+00    4.914E+00    4.987E+00    5.059E+00    5.132E+00    5.205E+00    5.277E+00    5.350E+00    5.422E+00    5.495E+00
     5.567E+00    5.640E+00    5.712E+00    5.785E+00    5.857E+00    5.930E+00    6.003E+00    6.075E+00
 Ala      Conc. = 5.09E+02
