 LCModel (Version 6.3-1L) Copyright: S.W. Provencher.          Ref.: Magn. Reson. Med. 30:672-679 (1993).                
 Slice#3 Row#10 Col#3  PD_24_press_2_raw_act
 36 lines in following concentration table = NCONC+1
    Conc.  %SD /Cr+PCr  Metabolite                                         
   51.591 125%   0.267 Ala                                                 
   38.148 105%   0.197 Asp                                                 
  193.215  19%   1.000 Cr                                                  
    0.000 999%   0.000 PCr                                                 
   26.813  90%   0.139 GABA                                                
   17.951 136% 9.3E-02 Glc                                                 
  286.094  45%   1.481 Gln                                                 
  252.975  55%   1.309 Glu                                                 
   90.522  16%   0.469 GPC                                                 
    0.000 999%   0.000 PCh                                                 
  201.962  25%   1.045 GSH                                                 
  201.715  83%   1.044 Ins                                                 
    0.000 999%   0.000 Lac                                                 
  369.512  12%   1.912 NAA                                                 
    0.000 999%   0.000 NAAG                                                
   10.234  75% 5.3E-02 Scyllo                                              
   19.546 205%   0.101 Tau                                                 
    7.925 525% 4.1E-02 -CrCH2                                              
   90.522  16%   0.469 GPC+PCh                                             
  369.512  12%   1.912 NAA+NAAG                                            
  193.215  19%   1.000 Cr+PCr                                              
  539.070  34%   2.790 Glu+Gln                                             
 1.90E+03  22%   9.819 Lip13a                                              
    0.000 999%   0.000 Lip13b                                              
    0.000 999%   0.000 Lip09                                               
 1.13E+03  17%   5.826 MM09                                                
  399.010  49%   2.065 Lip20                                               
 2.00E+03  16%  10.355 MM20                                                
  346.454  28%   1.793 MM12                                                
 1.59E+03  10%   8.227 MM14                                                
    0.000 999%   0.000 MM17                                                
 1.90E+03  22%   9.819 Lip13a+Lip13b                                       
 3.83E+03  13%  19.839 MM14+Lip13a+Lip13b+MM12                             
 1.13E+03  17%   5.826 MM09+Lip09                                          
 2.40E+03  14%  12.420 MM20+Lip20                                          
   6 lines in following misc. output table
  FWHM = 0.038 ppm    S/N =   4                                            
  Data shift = 0.038 ppm                                                   
  Ph: -23 deg      -6.2 deg/ppm                                            
  alphaB,S = 5.7E-01,   2.6E+01                                            
   14 spline knots.   Ns = 5(1)                                            
  ( 9) 4 infls.   ( 8) 1 extrs.                                            
  498 points on ppm-axis = NY
      4.000000     3.992357     3.984714     3.977070     3.969427     3.961784     3.954141     3.946497     3.938854     3.931211
      3.923568     3.915925     3.908281     3.900638     3.892995     3.885352     3.877708     3.870065     3.862422     3.854779
      3.847136     3.839492     3.831849     3.824206     3.816563     3.808919     3.801276     3.793633     3.785990     3.778347
      3.770703     3.763060     3.755417     3.747774     3.740130     3.732487     3.724844     3.717201     3.709558     3.701914
      3.694271     3.686628     3.678985     3.671341     3.663698     3.656055     3.648412     3.640769     3.633125     3.625482
      3.617839     3.610196     3.602552     3.594909     3.587266     3.579623     3.571980     3.564336     3.556693     3.549050
      3.541407     3.533763     3.526120     3.518477     3.510834     3.503191     3.495547     3.487904     3.480261     3.472618
      3.464974     3.457331     3.449688     3.442045     3.434402     3.426758     3.419115     3.411472     3.403829     3.396185
      3.388542     3.380899     3.373256     3.365613     3.357969     3.350326     3.342683     3.335040     3.327396     3.319753
      3.312110     3.304467     3.296824     3.289180     3.281537     3.273894     3.266251     3.258607     3.250964     3.243321
      3.235678     3.228034     3.220391     3.212748     3.205105     3.197462     3.189818     3.182175     3.174532     3.166889
      3.159245     3.151602     3.143959     3.136316     3.128673     3.121029     3.113386     3.105743     3.098100     3.090456
      3.082813     3.075170     3.067527     3.059884     3.052240     3.044597     3.036954     3.029311     3.021667     3.014024
      3.006381     2.998738     2.991095     2.983451     2.975808     2.968165     2.960522     2.952878     2.945235     2.937592
      2.929949     2.922306     2.914662     2.907019     2.899376     2.891733     2.884089     2.876446     2.868803     2.861160
      2.853517     2.845873     2.838230     2.830587     2.822944     2.815300     2.807657     2.800014     2.792371     2.784728
      2.777084     2.769441     2.761798     2.754155     2.746511     2.738868     2.731225     2.723582     2.715939     2.708295
      2.700652     2.693009     2.685366     2.677722     2.670079     2.662436     2.654793     2.647150     2.639506     2.631863
      2.624220     2.616577     2.608933     2.601290     2.593647     2.586004     2.578361     2.570717     2.563074     2.555431
      2.547788     2.540144     2.532501     2.524858     2.517215     2.509572     2.501928     2.494285     2.486642     2.478999
      2.471355     2.463712     2.456069     2.448426     2.440783     2.433139     2.425496     2.417853     2.410210     2.402566
      2.394923     2.387280     2.379637     2.371994     2.364350     2.356707     2.349064     2.341421     2.333777     2.326134
      2.318491     2.310848     2.303205     2.295561     2.287918     2.280275     2.272632     2.264988     2.257345     2.249702
      2.242059     2.234416     2.226772     2.219129     2.211486     2.203843     2.196199     2.188556     2.180913     2.173270
      2.165627     2.157983     2.150340     2.142697     2.135054     2.127410     2.119767     2.112124     2.104481     2.096838
      2.089194     2.081551     2.073908     2.066265     2.058621     2.050978     2.043335     2.035692     2.028049     2.020405
      2.012762     2.005119     1.997476     1.989833     1.982190     1.974546     1.966903     1.959260     1.951617     1.943974
      1.936331     1.928688     1.921045     1.913402     1.905759     1.898115     1.890472     1.882829     1.875186     1.867543
      1.859900     1.852257     1.844614     1.836971     1.829327     1.821684     1.814041     1.806398     1.798755     1.791112
      1.783469     1.775826     1.768183     1.760540     1.752896     1.745253     1.737610     1.729967     1.722324     1.714681
      1.707038     1.699395     1.691752     1.684108     1.676465     1.668822     1.661179     1.653536     1.645893     1.638250
      1.630607     1.622964     1.615321     1.607677     1.600034     1.592391     1.584748     1.577105     1.569462     1.561819
      1.554176     1.546533     1.538890     1.531246     1.523603     1.515960     1.508317     1.500674     1.493031     1.485388
      1.477745     1.470102     1.462458     1.454815     1.447172     1.439529     1.431886     1.424243     1.416600     1.408957
      1.401314     1.393671     1.386027     1.378384     1.370741     1.363098     1.355455     1.347812     1.340169     1.332526
      1.324883     1.317240     1.309596     1.301953     1.294310     1.286667     1.279024     1.271381     1.263738     1.256095
      1.248452     1.240808     1.233165     1.225522     1.217879     1.210236     1.202593     1.194950     1.187307     1.179664
      1.172021     1.164377     1.156734     1.149091     1.141448     1.133805     1.126162     1.118519     1.110876     1.103233
      1.095590     1.087946     1.080303     1.072660     1.065017     1.057374     1.049731     1.042088     1.034445     1.026802
      1.019158     1.011515     1.003872     0.996229     0.988586     0.980943     0.973300     0.965657     0.958014     0.950371
      0.942727     0.935084     0.927441     0.919798     0.912155     0.904512     0.896869     0.889226     0.881583     0.873940
      0.866296     0.858653     0.851010     0.843367     0.835724     0.828081     0.820438     0.812795     0.805152     0.797508
      0.789865     0.782222     0.774579     0.766936     0.759293     0.751650     0.744007     0.736364     0.728721     0.721077
      0.713434     0.705791     0.698148     0.690505     0.682862     0.675219     0.667576     0.659933     0.652290     0.644646
      0.637003     0.629360     0.621717     0.614074     0.606431     0.598788     0.591145     0.583502     0.575858     0.568215
      0.560572     0.552929     0.545286     0.537643     0.530000     0.522357     0.514714     0.507071     0.499427     0.491784
      0.484141     0.476498     0.468855     0.461212     0.453569     0.445925     0.438282     0.430639     0.422996     0.415353
      0.407710     0.400067     0.392424     0.384780     0.377137     0.369494     0.361851     0.354208     0.346565     0.338922
      0.331278     0.323635     0.315992     0.308349     0.300706     0.293063     0.285420     0.277777     0.270133     0.262490
      0.254847     0.247204     0.239561     0.231918     0.224275     0.216631     0.208988     0.201345
 NY phased data points follow
  -3.57609E+02 -3.57658E+02 -3.50963E+02 -3.44611E+02 -3.39456E+02 -3.35168E+02 -3.32098E+02 -3.26656E+02 -3.24241E+02 -3.22400E+02
  -3.11408E+02 -3.05926E+02 -3.04050E+02 -3.00019E+02 -3.04871E+02 -3.02182E+02 -2.94757E+02 -2.92395E+02 -2.94546E+02 -2.88168E+02
  -2.87864E+02 -2.82621E+02 -2.81493E+02 -2.77717E+02 -2.73560E+02 -2.68489E+02 -2.64047E+02 -2.62639E+02 -2.62722E+02 -2.52622E+02
  -2.51230E+02 -2.48377E+02 -2.48880E+02 -2.44948E+02 -2.38998E+02 -2.37098E+02 -2.37648E+02 -2.28056E+02 -2.27733E+02 -2.25869E+02
  -2.24811E+02 -2.22449E+02 -2.22409E+02 -2.23790E+02 -2.20375E+02 -2.14206E+02 -2.14118E+02 -2.11058E+02 -2.08726E+02 -2.08578E+02
  -2.08410E+02 -2.07057E+02 -2.05165E+02 -2.07016E+02 -2.01231E+02 -2.05882E+02 -1.98328E+02 -1.94995E+02 -1.97048E+02 -1.96182E+02
  -1.92278E+02 -1.94874E+02 -1.91760E+02 -1.94497E+02 -1.90245E+02 -1.87680E+02 -1.83563E+02 -1.85331E+02 -1.80595E+02 -1.78506E+02
  -1.80641E+02 -1.76409E+02 -1.77638E+02 -1.73761E+02 -1.75768E+02 -1.72319E+02 -1.75708E+02 -1.68325E+02 -1.70035E+02 -1.70770E+02
  -1.69058E+02 -1.63029E+02 -1.60229E+02 -1.61280E+02 -1.60956E+02 -1.56087E+02 -1.57227E+02 -1.56884E+02 -1.56055E+02 -1.56686E+02
  -1.52643E+02 -1.52670E+02 -1.51068E+02 -1.43991E+02 -1.48445E+02 -1.43615E+02 -1.47217E+02 -1.48907E+02 -1.47417E+02 -1.45625E+02
  -1.42665E+02 -1.38664E+02 -1.34663E+02 -1.31426E+02 -1.26027E+02 -1.29359E+02 -1.29757E+02 -1.30569E+02 -1.30337E+02 -1.31857E+02
  -1.27922E+02 -1.29609E+02 -1.29446E+02 -1.25393E+02 -1.27810E+02 -1.26111E+02 -1.25478E+02 -1.24446E+02 -1.18363E+02 -1.18604E+02
  -1.23763E+02 -1.26132E+02 -1.29539E+02 -1.26019E+02 -1.17962E+02 -1.14337E+02 -1.14925E+02 -1.11058E+02 -1.06760E+02 -1.07606E+02
  -1.10564E+02 -1.11651E+02 -1.09057E+02 -1.10336E+02 -1.10240E+02 -1.06725E+02 -1.15801E+02 -1.12300E+02 -1.14179E+02 -1.09256E+02
  -1.09935E+02 -1.06147E+02 -1.07461E+02 -1.09953E+02 -1.08406E+02 -1.07942E+02 -1.08459E+02 -1.05498E+02 -1.04898E+02 -1.03833E+02
  -1.07819E+02 -1.04449E+02 -1.06287E+02 -1.09205E+02 -1.03080E+02 -1.02697E+02 -1.01000E+02 -1.02744E+02 -9.87361E+01 -1.03304E+02
  -9.93098E+01 -9.91947E+01 -1.01317E+02 -9.78963E+01 -9.61037E+01 -9.96825E+01 -9.26330E+01 -9.64913E+01 -9.26963E+01 -9.49129E+01
  -9.64645E+01 -9.28399E+01 -9.87398E+01 -1.04212E+02 -1.00457E+02 -9.93566E+01 -9.60366E+01 -9.72103E+01 -9.63423E+01 -9.52371E+01
  -9.50243E+01 -9.58370E+01 -9.60370E+01 -9.60165E+01 -9.24929E+01 -9.16330E+01 -9.25509E+01 -9.21069E+01 -9.03523E+01 -8.80551E+01
  -8.76375E+01 -8.76179E+01 -8.96295E+01 -8.65562E+01 -8.97975E+01 -8.07063E+01 -8.94633E+01 -8.33428E+01 -8.73881E+01 -8.70878E+01
  -8.34647E+01 -8.08937E+01 -7.73525E+01 -7.81758E+01 -8.13773E+01 -8.13752E+01 -7.84528E+01 -8.06289E+01 -8.13934E+01 -8.19758E+01
  -8.23389E+01 -8.26765E+01 -7.93454E+01 -7.43223E+01 -7.23986E+01 -7.38794E+01 -6.86354E+01 -7.08309E+01 -6.80346E+01 -6.84124E+01
  -7.08724E+01 -6.95308E+01 -7.20496E+01 -6.73449E+01 -6.94066E+01 -6.55383E+01 -6.82548E+01 -6.72446E+01 -6.52377E+01 -6.31344E+01
  -6.72387E+01 -6.25747E+01 -6.38437E+01 -6.35245E+01 -6.09287E+01 -5.94784E+01 -5.85651E+01 -5.84131E+01 -6.04961E+01 -5.61474E+01
  -5.90073E+01 -5.71462E+01 -5.28390E+01 -5.52394E+01 -5.07798E+01 -5.24924E+01 -5.68534E+01 -5.18714E+01 -5.00617E+01 -4.82294E+01
  -4.71948E+01 -4.50526E+01 -4.62940E+01 -4.81833E+01 -5.43739E+01 -5.26740E+01 -4.91789E+01 -4.61100E+01 -4.32855E+01 -3.68382E+01
  -2.88907E+01 -3.26237E+01 -3.63809E+01 -4.20698E+01 -4.51264E+01 -4.85945E+01 -4.39347E+01 -5.25359E+01 -5.37737E+01 -4.81293E+01
  -5.05915E+01 -4.99457E+01 -5.10748E+01 -4.86825E+01 -5.18046E+01 -4.89904E+01 -4.82949E+01 -5.03816E+01 -5.16334E+01 -5.20768E+01
  -4.62422E+01 -5.13368E+01 -4.70691E+01 -5.21483E+01 -5.03013E+01 -5.14319E+01 -4.81092E+01 -5.26644E+01 -4.91149E+01 -5.14642E+01
  -5.14748E+01 -5.30004E+01 -5.70466E+01 -5.31913E+01 -5.53665E+01 -5.65791E+01 -5.71317E+01 -5.71369E+01 -5.18823E+01 -5.78263E+01
  -5.62260E+01 -6.04730E+01 -5.77651E+01 -5.99636E+01 -5.29309E+01 -5.72043E+01 -5.86170E+01 -5.36496E+01 -5.81227E+01 -5.60090E+01
  -5.12056E+01 -5.65544E+01 -5.12376E+01 -5.42223E+01 -4.58355E+01 -4.63774E+01 -4.76558E+01 -4.67382E+01 -3.73528E+01 -4.66668E+01
  -4.17733E+01 -4.20367E+01 -3.50818E+01 -3.75095E+01 -4.05682E+01 -3.80650E+01 -3.95936E+01 -4.13414E+01 -3.98438E+01 -3.92818E+01
  -3.98294E+01 -3.84326E+01 -3.93818E+01 -3.62910E+01 -3.60926E+01 -4.23133E+01 -3.89418E+01 -3.80491E+01 -3.71319E+01 -4.36491E+01
  -4.28643E+01 -4.05663E+01 -3.77041E+01 -3.93154E+01 -3.97191E+01 -3.71287E+01 -3.59620E+01 -4.17979E+01 -3.56222E+01 -3.35857E+01
  -3.39305E+01 -3.71901E+01 -3.57008E+01 -3.64403E+01 -3.36325E+01 -3.59623E+01 -3.30476E+01 -3.90884E+01 -3.47882E+01 -3.49277E+01
  -3.65669E+01 -3.84505E+01 -3.52856E+01 -3.75827E+01 -3.46486E+01 -3.52566E+01 -3.88084E+01 -3.70892E+01 -4.23689E+01 -3.23703E+01
  -3.50605E+01 -3.20919E+01 -3.43987E+01 -3.21456E+01 -3.59884E+01 -3.53852E+01 -3.53084E+01 -3.80614E+01 -3.67283E+01 -3.88426E+01
  -3.64500E+01 -3.42467E+01 -3.31608E+01 -3.50486E+01 -3.50168E+01 -3.17852E+01 -3.52804E+01 -3.76636E+01 -3.44738E+01 -3.36468E+01
  -3.30704E+01 -3.14411E+01 -3.37187E+01 -3.16654E+01 -3.33673E+01 -3.45261E+01 -3.32687E+01 -2.86080E+01 -3.50217E+01 -3.22167E+01
  -3.10875E+01 -3.42764E+01 -3.07252E+01 -3.12262E+01 -3.29987E+01 -3.32259E+01 -3.25987E+01 -3.11188E+01 -3.24601E+01 -3.15906E+01
  -3.34112E+01 -3.31113E+01 -3.42458E+01 -3.70551E+01 -3.57246E+01 -3.32162E+01 -3.20661E+01 -3.28633E+01 -3.48070E+01 -3.67959E+01
  -3.01204E+01 -2.97821E+01 -3.84968E+01 -2.80983E+01 -2.99442E+01 -3.59538E+01 -3.28798E+01 -3.19253E+01 -3.42772E+01 -3.29110E+01
  -2.86004E+01 -2.97116E+01 -3.00163E+01 -2.98469E+01 -3.10067E+01 -3.04980E+01 -2.94943E+01 -3.06186E+01 -3.02693E+01 -2.88867E+01
  -3.04055E+01 -3.16236E+01 -3.38116E+01 -2.66696E+01 -3.51313E+01 -2.96974E+01 -2.74645E+01 -2.73685E+01 -3.14421E+01 -2.90440E+01
  -2.39781E+01 -2.96620E+01 -2.79990E+01 -2.78221E+01 -2.95555E+01 -3.06882E+01 -2.50736E+01 -2.42850E+01 -2.82304E+01 -2.47639E+01
  -2.86648E+01 -2.74381E+01 -2.44853E+01 -3.08819E+01 -2.54132E+01 -2.71577E+01 -2.71907E+01 -2.73320E+01 -2.91183E+01 -2.71001E+01
  -2.93523E+01 -2.53275E+01 -2.63789E+01 -2.78815E+01 -2.64716E+01 -2.59309E+01 -2.98638E+01 -2.68286E+01 -2.63398E+01 -2.78826E+01
  -2.77406E+01 -2.46229E+01 -2.81693E+01 -2.77515E+01 -2.79943E+01 -2.35267E+01 -2.42198E+01 -2.42071E+01 -3.01564E+01 -2.25690E+01
  -2.53029E+01 -2.34567E+01 -2.21114E+01 -2.30665E+01 -2.22304E+01 -2.22734E+01 -1.91720E+01 -2.25441E+01
 NY points of the fit to the data follow
  -3.51191E+02 -3.47884E+02 -3.44552E+02 -3.41157E+02 -3.37718E+02 -3.34291E+02 -3.30977E+02 -3.27548E+02 -3.23478E+02 -3.18753E+02
  -3.13727E+02 -3.09063E+02 -3.05447E+02 -3.02979E+02 -3.01037E+02 -2.98894E+02 -2.96453E+02 -2.94061E+02 -2.91579E+02 -2.88686E+02
  -2.85647E+02 -2.82576E+02 -2.79560E+02 -2.76692E+02 -2.74072E+02 -2.71629E+02 -2.68658E+02 -2.64869E+02 -2.60324E+02 -2.55405E+02
  -2.51008E+02 -2.47851E+02 -2.45818E+02 -2.44285E+02 -2.42916E+02 -2.41818E+02 -2.40713E+02 -2.38920E+02 -2.36692E+02 -2.34260E+02
  -2.31677E+02 -2.29113E+02 -2.26652E+02 -2.24212E+02 -2.21617E+02 -2.18914E+02 -2.16254E+02 -2.13786E+02 -2.11736E+02 -2.10146E+02
  -2.08746E+02 -2.07263E+02 -2.05697E+02 -2.04128E+02 -2.02498E+02 -2.00745E+02 -1.98918E+02 -1.97064E+02 -1.95174E+02 -1.93303E+02
  -1.91547E+02 -1.89989E+02 -1.88621E+02 -1.87328E+02 -1.86024E+02 -1.84669E+02 -1.83247E+02 -1.81784E+02 -1.80295E+02 -1.78795E+02
  -1.77317E+02 -1.75876E+02 -1.74484E+02 -1.73161E+02 -1.71896E+02 -1.70672E+02 -1.69475E+02 -1.68330E+02 -1.67229E+02 -1.66115E+02
  -1.64979E+02 -1.63840E+02 -1.62648E+02 -1.61374E+02 -1.60088E+02 -1.58882E+02 -1.57832E+02 -1.56953E+02 -1.56146E+02 -1.55257E+02
  -1.54215E+02 -1.53093E+02 -1.51972E+02 -1.50826E+02 -1.49674E+02 -1.48562E+02 -1.47507E+02 -1.46520E+02 -1.45676E+02 -1.44438E+02
  -1.41755E+02 -1.37697E+02 -1.33085E+02 -1.29263E+02 -1.27574E+02 -1.28208E+02 -1.29901E+02 -1.31173E+02 -1.31746E+02 -1.32248E+02
  -1.32474E+02 -1.31898E+02 -1.31047E+02 -1.30132E+02 -1.29197E+02 -1.28248E+02 -1.27314E+02 -1.26412E+02 -1.25540E+02 -1.24694E+02
  -1.23845E+02 -1.22976E+02 -1.22151E+02 -1.20883E+02 -1.18523E+02 -1.15258E+02 -1.11765E+02 -1.09087E+02 -1.08091E+02 -1.08621E+02
  -1.09561E+02 -1.10034E+02 -1.10212E+02 -1.10776E+02 -1.11530E+02 -1.12021E+02 -1.12255E+02 -1.12014E+02 -1.11258E+02 -1.10206E+02
  -1.09055E+02 -1.07994E+02 -1.07228E+02 -1.06732E+02 -1.06387E+02 -1.06110E+02 -1.05835E+02 -1.05571E+02 -1.05298E+02 -1.04986E+02
  -1.04674E+02 -1.04378E+02 -1.04078E+02 -1.03746E+02 -1.03377E+02 -1.02969E+02 -1.02528E+02 -1.02136E+02 -1.01846E+02 -1.01641E+02
  -1.01452E+02 -1.01160E+02 -1.00730E+02 -1.00209E+02 -9.97065E+01 -9.93118E+01 -9.90133E+01 -9.87395E+01 -9.84591E+01 -9.81515E+01
  -9.78303E+01 -9.75084E+01 -9.71933E+01 -9.69482E+01 -9.67401E+01 -9.64890E+01 -9.61200E+01 -9.56489E+01 -9.51682E+01 -9.47605E+01
  -9.44134E+01 -9.40467E+01 -9.36014E+01 -9.31759E+01 -9.28506E+01 -9.25242E+01 -9.20251E+01 -9.12019E+01 -9.00803E+01 -8.88483E+01
  -8.77667E+01 -8.70139E+01 -8.66390E+01 -8.65903E+01 -8.68083E+01 -8.70695E+01 -8.71529E+01 -8.68841E+01 -8.61081E+01 -8.48337E+01
  -8.33104E+01 -8.18189E+01 -8.04724E+01 -7.93496E+01 -7.85859E+01 -7.82352E+01 -7.83620E+01 -7.89554E+01 -7.96772E+01 -8.01503E+01
  -8.00462E+01 -7.92210E+01 -7.77378E+01 -7.58896E+01 -7.40643E+01 -7.24264E+01 -7.11183E+01 -7.04746E+01 -7.04492E+01 -7.06927E+01
  -7.09879E+01 -7.11303E+01 -7.09439E+01 -7.01992E+01 -6.89333E+01 -6.75139E+01 -6.62431E+01 -6.52729E+01 -6.46102E+01 -6.42108E+01
  -6.39843E+01 -6.36730E+01 -6.31216E+01 -6.23354E+01 -6.13629E+01 -6.03487E+01 -5.93339E+01 -5.82998E+01 -5.73752E+01 -5.68255E+01
  -5.66159E+01 -5.64990E+01 -5.63169E+01 -5.60523E+01 -5.54773E+01 -5.45134E+01 -5.34964E+01 -5.26692E+01 -5.19749E+01 -5.12771E+01
  -5.06714E+01 -5.01559E+01 -4.96599E+01 -4.91916E+01 -4.88728E+01 -4.88923E+01 -4.82816E+01 -4.56793E+01 -4.13339E+01 -3.64772E+01
  -3.30649E+01 -3.28318E+01 -3.57156E+01 -3.97186E+01 -4.28847E+01 -4.51528E+01 -4.74647E+01 -4.92167E+01 -4.98845E+01 -5.02727E+01
  -5.05915E+01 -5.08322E+01 -5.09883E+01 -5.10988E+01 -5.11849E+01 -5.12771E+01 -5.13996E+01 -5.15615E+01 -5.17511E+01 -5.19605E+01
  -5.21777E+01 -5.23821E+01 -5.25621E+01 -5.27139E+01 -5.28397E+01 -5.29487E+01 -5.30471E+01 -5.31388E+01 -5.32307E+01 -5.33204E+01
  -5.34061E+01 -5.34899E+01 -5.35711E+01 -5.36458E+01 -5.37122E+01 -5.37700E+01 -5.38181E+01 -5.38538E+01 -5.38765E+01 -5.38851E+01
  -5.38764E+01 -5.38478E+01 -5.37959E+01 -5.37163E+01 -5.36048E+01 -5.34565E+01 -5.32657E+01 -5.30266E+01 -5.27331E+01 -5.23798E+01
  -5.19618E+01 -5.14749E+01 -5.09166E+01 -5.02857E+01 -4.95830E+01 -4.88120E+01 -4.79783E+01 -4.70905E+01 -4.61600E+01 -4.52007E+01
  -4.42279E+01 -4.32583E+01 -4.22993E+01 -4.13070E+01 -4.03188E+01 -3.94630E+01 -3.88562E+01 -3.85725E+01 -3.85795E+01 -3.87334E+01
  -3.89165E+01 -3.90647E+01 -3.91380E+01 -3.91019E+01 -3.88834E+01 -3.85895E+01 -3.84196E+01 -3.84635E+01 -3.86649E+01 -3.88828E+01
  -3.90474E+01 -3.91946E+01 -3.92896E+01 -3.92693E+01 -3.91560E+01 -3.89671E+01 -3.87148E+01 -3.84106E+01 -3.80669E+01 -3.76967E+01
  -3.73130E+01 -3.69289E+01 -3.65564E+01 -3.62064E+01 -3.58885E+01 -3.56103E+01 -3.53778E+01 -3.51948E+01 -3.50632E+01 -3.49830E+01
  -3.49525E+01 -3.49688E+01 -3.50277E+01 -3.51235E+01 -3.52498E+01 -3.53996E+01 -3.55659E+01 -3.57421E+01 -3.59214E+01 -3.60976E+01
  -3.62652E+01 -3.64188E+01 -3.65541E+01 -3.66673E+01 -3.67548E+01 -3.68139E+01 -3.68423E+01 -3.68380E+01 -3.67997E+01 -3.67264E+01
  -3.66176E+01 -3.64730E+01 -3.62930E+01 -3.60785E+01 -3.58311E+01 -3.55528E+01 -3.52465E+01 -3.49156E+01 -3.45646E+01 -3.41987E+01
  -3.38236E+01 -3.34460E+01 -3.30726E+01 -3.27106E+01 -3.23675E+01 -3.20501E+01 -3.17652E+01 -3.15183E+01 -3.13143E+01 -3.11567E+01
  -3.10474E+01 -3.09871E+01 -3.09747E+01 -3.10077E+01 -3.10820E+01 -3.11925E+01 -3.13333E+01 -3.14976E+01 -3.16784E+01 -3.18689E+01
  -3.20627E+01 -3.22537E+01 -3.24364E+01 -3.26061E+01 -3.27588E+01 -3.28913E+01 -3.30017E+01 -3.30884E+01 -3.31509E+01 -3.31891E+01
  -3.32035E+01 -3.31950E+01 -3.31651E+01 -3.31150E+01 -3.30466E+01 -3.29613E+01 -3.28610E+01 -3.27472E+01 -3.26216E+01 -3.24857E+01
  -3.23409E+01 -3.21883E+01 -3.20293E+01 -3.18649E+01 -3.16961E+01 -3.15238E+01 -3.13489E+01 -3.11719E+01 -3.09937E+01 -3.08150E+01
  -3.06362E+01 -3.04579E+01 -3.02806E+01 -3.01049E+01 -2.99310E+01 -2.97595E+01 -2.95908E+01 -2.94253E+01 -2.92633E+01 -2.91052E+01
  -2.89513E+01 -2.88021E+01 -2.86578E+01 -2.85185E+01 -2.83841E+01 -2.82543E+01 -2.81288E+01 -2.80075E+01 -2.78900E+01 -2.77760E+01
  -2.76653E+01 -2.75575E+01 -2.74525E+01 -2.73499E+01 -2.72494E+01 -2.71507E+01 -2.70535E+01 -2.69576E+01 -2.68627E+01 -2.67684E+01
  -2.66745E+01 -2.65806E+01 -2.64865E+01 -2.63918E+01 -2.62964E+01 -2.61997E+01 -2.61016E+01 -2.60017E+01 -2.58998E+01 -2.57955E+01
  -2.56886E+01 -2.55787E+01 -2.54655E+01 -2.53487E+01 -2.52280E+01 -2.51031E+01 -2.49738E+01 -2.48396E+01 -2.47002E+01 -2.45554E+01
  -2.44049E+01 -2.42484E+01 -2.40855E+01 -2.39158E+01 -2.37392E+01 -2.35553E+01 -2.33639E+01 -2.31645E+01
 NY background values follow
    -3.515E+02   -3.481E+02   -3.447E+02   -3.414E+02   -3.380E+02   -3.347E+02   -3.313E+02   -3.280E+02   -3.247E+02   -3.215E+02
    -3.182E+02   -3.150E+02   -3.117E+02   -3.085E+02   -3.054E+02   -3.022E+02   -2.991E+02   -2.960E+02   -2.929E+02   -2.898E+02
    -2.868E+02   -2.837E+02   -2.808E+02   -2.778E+02   -2.749E+02   -2.720E+02   -2.691E+02   -2.662E+02   -2.634E+02   -2.606E+02
    -2.579E+02   -2.551E+02   -2.525E+02   -2.498E+02   -2.472E+02   -2.446E+02   -2.421E+02   -2.395E+02   -2.371E+02   -2.346E+02
    -2.322E+02   -2.299E+02   -2.276E+02   -2.253E+02   -2.231E+02   -2.209E+02   -2.187E+02   -2.166E+02   -2.145E+02   -2.125E+02
    -2.105E+02   -2.086E+02   -2.067E+02   -2.048E+02   -2.030E+02   -2.012E+02   -1.994E+02   -1.977E+02   -1.960E+02   -1.943E+02
    -1.927E+02   -1.911E+02   -1.895E+02   -1.880E+02   -1.865E+02   -1.850E+02   -1.835E+02   -1.821E+02   -1.807E+02   -1.793E+02
    -1.779E+02   -1.766E+02   -1.753E+02   -1.740E+02   -1.727E+02   -1.714E+02   -1.702E+02   -1.690E+02   -1.678E+02   -1.666E+02
    -1.654E+02   -1.642E+02   -1.631E+02   -1.619E+02   -1.608E+02   -1.597E+02   -1.586E+02   -1.575E+02   -1.564E+02   -1.553E+02
    -1.542E+02   -1.532E+02   -1.521E+02   -1.510E+02   -1.500E+02   -1.489E+02   -1.479E+02   -1.468E+02   -1.458E+02   -1.448E+02
    -1.437E+02   -1.427E+02   -1.417E+02   -1.407E+02   -1.397E+02   -1.388E+02   -1.378E+02   -1.368E+02   -1.359E+02   -1.349E+02
    -1.340E+02   -1.331E+02   -1.321E+02   -1.312E+02   -1.303E+02   -1.294E+02   -1.286E+02   -1.277E+02   -1.268E+02   -1.260E+02
    -1.252E+02   -1.243E+02   -1.235E+02   -1.227E+02   -1.220E+02   -1.212E+02   -1.204E+02   -1.197E+02   -1.189E+02   -1.182E+02
    -1.175E+02   -1.168E+02   -1.161E+02   -1.155E+02   -1.148E+02   -1.142E+02   -1.136E+02   -1.130E+02   -1.124E+02   -1.118E+02
    -1.113E+02   -1.107E+02   -1.102E+02   -1.097E+02   -1.091E+02   -1.086E+02   -1.081E+02   -1.077E+02   -1.072E+02   -1.067E+02
    -1.063E+02   -1.058E+02   -1.054E+02   -1.050E+02   -1.045E+02   -1.041E+02   -1.037E+02   -1.033E+02   -1.029E+02   -1.025E+02
    -1.021E+02   -1.017E+02   -1.013E+02   -1.009E+02   -1.005E+02   -1.001E+02   -9.976E+01   -9.937E+01   -9.898E+01   -9.859E+01
    -9.820E+01   -9.781E+01   -9.742E+01   -9.702E+01   -9.662E+01   -9.621E+01   -9.580E+01   -9.539E+01   -9.497E+01   -9.454E+01
    -9.411E+01   -9.367E+01   -9.322E+01   -9.276E+01   -9.230E+01   -9.183E+01   -9.136E+01   -9.088E+01   -9.039E+01   -8.990E+01
    -8.940E+01   -8.890E+01   -8.839E+01   -8.788E+01   -8.736E+01   -8.685E+01   -8.632E+01   -8.580E+01   -8.527E+01   -8.473E+01
    -8.420E+01   -8.366E+01   -8.312E+01   -8.258E+01   -8.204E+01   -8.150E+01   -8.095E+01   -8.041E+01   -7.986E+01   -7.932E+01
    -7.877E+01   -7.823E+01   -7.769E+01   -7.714E+01   -7.660E+01   -7.606E+01   -7.552E+01   -7.499E+01   -7.446E+01   -7.392E+01
    -7.340E+01   -7.287E+01   -7.235E+01   -7.183E+01   -7.132E+01   -7.081E+01   -7.031E+01   -6.981E+01   -6.931E+01   -6.882E+01
    -6.834E+01   -6.786E+01   -6.739E+01   -6.692E+01   -6.646E+01   -6.600E+01   -6.555E+01   -6.511E+01   -6.468E+01   -6.425E+01
    -6.383E+01   -6.341E+01   -6.301E+01   -6.261E+01   -6.222E+01   -6.183E+01   -6.146E+01   -6.109E+01   -6.073E+01   -6.038E+01
    -6.004E+01   -5.971E+01   -5.939E+01   -5.907E+01   -5.877E+01   -5.847E+01   -5.819E+01   -5.792E+01   -5.765E+01   -5.740E+01
    -5.715E+01   -5.692E+01   -5.670E+01   -5.649E+01   -5.629E+01   -5.610E+01   -5.592E+01   -5.576E+01   -5.561E+01   -5.547E+01
    -5.534E+01   -5.522E+01   -5.512E+01   -5.503E+01   -5.495E+01   -5.488E+01   -5.482E+01   -5.477E+01   -5.473E+01   -5.470E+01
    -5.468E+01   -5.466E+01   -5.466E+01   -5.466E+01   -5.466E+01   -5.467E+01   -5.469E+01   -5.471E+01   -5.474E+01   -5.476E+01
    -5.479E+01   -5.483E+01   -5.486E+01   -5.490E+01   -5.493E+01   -5.497E+01   -5.500E+01   -5.504E+01   -5.507E+01   -5.510E+01
    -5.513E+01   -5.515E+01   -5.517E+01   -5.519E+01   -5.520E+01   -5.521E+01   -5.520E+01   -5.520E+01   -5.518E+01   -5.516E+01
    -5.513E+01   -5.509E+01   -5.504E+01   -5.499E+01   -5.492E+01   -5.484E+01   -5.475E+01   -5.464E+01   -5.453E+01   -5.440E+01
    -5.426E+01   -5.411E+01   -5.395E+01   -5.379E+01   -5.361E+01   -5.342E+01   -5.322E+01   -5.302E+01   -5.281E+01   -5.259E+01
    -5.237E+01   -5.214E+01   -5.190E+01   -5.166E+01   -5.141E+01   -5.116E+01   -5.090E+01   -5.064E+01   -5.038E+01   -5.011E+01
    -4.985E+01   -4.958E+01   -4.930E+01   -4.903E+01   -4.876E+01   -4.848E+01   -4.821E+01   -4.794E+01   -4.767E+01   -4.740E+01
    -4.713E+01   -4.687E+01   -4.660E+01   -4.634E+01   -4.609E+01   -4.584E+01   -4.559E+01   -4.535E+01   -4.511E+01   -4.488E+01
    -4.466E+01   -4.444E+01   -4.423E+01   -4.403E+01   -4.384E+01   -4.365E+01   -4.347E+01   -4.329E+01   -4.312E+01   -4.295E+01
    -4.280E+01   -4.264E+01   -4.249E+01   -4.235E+01   -4.220E+01   -4.207E+01   -4.193E+01   -4.180E+01   -4.168E+01   -4.155E+01
    -4.143E+01   -4.131E+01   -4.119E+01   -4.107E+01   -4.096E+01   -4.084E+01   -4.073E+01   -4.061E+01   -4.050E+01   -4.039E+01
    -4.027E+01   -4.016E+01   -4.004E+01   -3.992E+01   -3.980E+01   -3.968E+01   -3.956E+01   -3.944E+01   -3.931E+01   -3.918E+01
    -3.904E+01   -3.890E+01   -3.876E+01   -3.862E+01   -3.846E+01   -3.831E+01   -3.815E+01   -3.798E+01   -3.781E+01   -3.764E+01
    -3.745E+01   -3.727E+01   -3.708E+01   -3.688E+01   -3.669E+01   -3.648E+01   -3.628E+01   -3.607E+01   -3.586E+01   -3.564E+01
    -3.543E+01   -3.521E+01   -3.499E+01   -3.477E+01   -3.455E+01   -3.432E+01   -3.410E+01   -3.387E+01   -3.364E+01   -3.342E+01
    -3.319E+01   -3.297E+01   -3.274E+01   -3.252E+01   -3.230E+01   -3.208E+01   -3.186E+01   -3.164E+01   -3.142E+01   -3.121E+01
    -3.100E+01   -3.079E+01   -3.059E+01   -3.039E+01   -3.019E+01   -3.000E+01   -2.981E+01   -2.963E+01   -2.945E+01   -2.928E+01
    -2.911E+01   -2.894E+01   -2.879E+01   -2.863E+01   -2.849E+01   -2.835E+01   -2.821E+01   -2.808E+01   -2.795E+01   -2.783E+01
    -2.771E+01   -2.760E+01   -2.749E+01   -2.738E+01   -2.727E+01   -2.716E+01   -2.706E+01   -2.696E+01   -2.686E+01   -2.676E+01
    -2.666E+01   -2.656E+01   -2.646E+01   -2.636E+01   -2.626E+01   -2.616E+01   -2.606E+01   -2.596E+01   -2.585E+01   -2.575E+01
    -2.564E+01   -2.552E+01   -2.541E+01   -2.529E+01   -2.516E+01   -2.504E+01   -2.491E+01   -2.477E+01   -2.463E+01   -2.448E+01
    -2.433E+01   -2.417E+01   -2.401E+01   -2.383E+01   -2.366E+01   -2.347E+01   -2.328E+01   -2.308E+01
 Ala      Conc. = 5.16E+01
