 LCModel (Version 6.3-1L) Copyright: S.W. Provencher.          Ref.: Magn. Reson. Med. 30:672-679 (1993).                
 Slice#1 Row#9 Col#1  PD_24_press_2_raw_act
 36 lines in following concentration table = NCONC+1
    Conc.  %SD /Cr+PCr  Metabolite                                         
    0.000 999%   0.000 Ala                                                 
  249.009 106%   0.828 Asp                                                 
  300.868  36%   1.000 Cr                                                  
    0.000 999%   0.000 PCr                                                 
    0.000 999%   0.000 GABA                                                
    0.000 999%   0.000 Glc                                                 
    0.000 999%   0.000 Gln                                                 
 2.98E+03  31%   9.908 Glu                                                 
   16.191 107% 5.4E-02 GPC                                                 
    0.000 999%   0.000 PCh                                                 
    0.000 999%   0.000 GSH                                                 
  615.007  43%   2.044 Ins                                                 
 1.09E+03  37%   3.610 Lac                                                 
 1.62E+03  31%   5.378 NAA                                                 
  474.021  37%   1.576 NAAG                                                
    0.000 999%   0.000 Scyllo                                              
  600.877  53%   1.997 Tau                                                 
  336.240  43%   1.118 -CrCH2                                              
   16.191 107% 5.4E-02 GPC+PCh                                             
 2.09E+03  29%   6.953 NAA+NAAG                                            
  300.868  36%   1.000 Cr+PCr                                              
 2.98E+03  31%   9.908 Glu+Gln                                             
 8.55E+04  16% 284.139 Lip13a                                              
    0.000 999%   0.000 Lip13b                                              
 2.45E+04  18%  81.313 Lip09                                               
 1.46E+04  16%  48.598 MM09                                                
 1.97E+04  15%  65.537 Lip20                                               
 8.63E+04   6% 286.969 MM20                                                
 1.08E+04  40%  35.944 MM12                                                
 6.36E+04  13% 211.358 MM14                                                
 2.41E+04  18%  80.209 MM17                                                
 8.55E+04  16% 284.139 Lip13a+Lip13b                                       
 1.60E+05   7% 531.441 MM14+Lip13a+Lip13b+MM12                             
 3.91E+04  12% 129.911 MM09+Lip09                                          
 1.06E+05   5% 352.506 MM20+Lip20                                          
   6 lines in following misc. output table
  FWHM = 0.107 ppm    S/N =  20                                            
  Data shift = 0.214 ppm                                                   
  Ph: -19 deg      38.5 deg/ppm                                            
  alphaB,S = 7.8E-01,   4.9E+00                                            
    6 spline knots.   Ns = 9(2)                                            
  ( 7) 2 infls.   ( 2) 2 extrs.                                            
  498 points on ppm-axis = NY
      4.000000     3.992357     3.984714     3.977070     3.969427     3.961784     3.954141     3.946497     3.938854     3.931211
      3.923568     3.915925     3.908281     3.900638     3.892995     3.885352     3.877708     3.870065     3.862422     3.854779
      3.847136     3.839492     3.831849     3.824206     3.816563     3.808919     3.801276     3.793633     3.785990     3.778347
      3.770703     3.763060     3.755417     3.747774     3.740130     3.732487     3.724844     3.717201     3.709558     3.701914
      3.694271     3.686628     3.678985     3.671341     3.663698     3.656055     3.648412     3.640769     3.633125     3.625482
      3.617839     3.610196     3.602552     3.594909     3.587266     3.579623     3.571980     3.564336     3.556693     3.549050
      3.541407     3.533763     3.526120     3.518477     3.510834     3.503191     3.495547     3.487904     3.480261     3.472618
      3.464974     3.457331     3.449688     3.442045     3.434402     3.426758     3.419115     3.411472     3.403829     3.396185
      3.388542     3.380899     3.373256     3.365613     3.357969     3.350326     3.342683     3.335040     3.327396     3.319753
      3.312110     3.304467     3.296824     3.289180     3.281537     3.273894     3.266251     3.258607     3.250964     3.243321
      3.235678     3.228034     3.220391     3.212748     3.205105     3.197462     3.189818     3.182175     3.174532     3.166889
      3.159245     3.151602     3.143959     3.136316     3.128673     3.121029     3.113386     3.105743     3.098100     3.090456
      3.082813     3.075170     3.067527     3.059884     3.052240     3.044597     3.036954     3.029311     3.021667     3.014024
      3.006381     2.998738     2.991095     2.983451     2.975808     2.968165     2.960522     2.952878     2.945235     2.937592
      2.929949     2.922306     2.914662     2.907019     2.899376     2.891733     2.884089     2.876446     2.868803     2.861160
      2.853517     2.845873     2.838230     2.830587     2.822944     2.815300     2.807657     2.800014     2.792371     2.784728
      2.777084     2.769441     2.761798     2.754155     2.746511     2.738868     2.731225     2.723582     2.715939     2.708295
      2.700652     2.693009     2.685366     2.677722     2.670079     2.662436     2.654793     2.647150     2.639506     2.631863
      2.624220     2.616577     2.608933     2.601290     2.593647     2.586004     2.578361     2.570717     2.563074     2.555431
      2.547788     2.540144     2.532501     2.524858     2.517215     2.509572     2.501928     2.494285     2.486642     2.478999
      2.471355     2.463712     2.456069     2.448426     2.440783     2.433139     2.425496     2.417853     2.410210     2.402566
      2.394923     2.387280     2.379637     2.371994     2.364350     2.356707     2.349064     2.341421     2.333777     2.326134
      2.318491     2.310848     2.303205     2.295561     2.287918     2.280275     2.272632     2.264988     2.257345     2.249702
      2.242059     2.234416     2.226772     2.219129     2.211486     2.203843     2.196199     2.188556     2.180913     2.173270
      2.165627     2.157983     2.150340     2.142697     2.135054     2.127410     2.119767     2.112124     2.104481     2.096838
      2.089194     2.081551     2.073908     2.066265     2.058621     2.050978     2.043335     2.035692     2.028049     2.020405
      2.012762     2.005119     1.997476     1.989833     1.982190     1.974546     1.966903     1.959260     1.951617     1.943974
      1.936331     1.928688     1.921045     1.913402     1.905759     1.898115     1.890472     1.882829     1.875186     1.867543
      1.859900     1.852257     1.844614     1.836971     1.829327     1.821684     1.814041     1.806398     1.798755     1.791112
      1.783469     1.775826     1.768183     1.760540     1.752896     1.745253     1.737610     1.729967     1.722324     1.714681
      1.707038     1.699395     1.691752     1.684108     1.676465     1.668822     1.661179     1.653536     1.645893     1.638250
      1.630607     1.622964     1.615321     1.607677     1.600034     1.592391     1.584748     1.577105     1.569462     1.561819
      1.554176     1.546533     1.538890     1.531246     1.523603     1.515960     1.508317     1.500674     1.493031     1.485388
      1.477745     1.470102     1.462458     1.454815     1.447172     1.439529     1.431886     1.424243     1.416600     1.408957
      1.401314     1.393671     1.386027     1.378384     1.370741     1.363098     1.355455     1.347812     1.340169     1.332526
      1.324883     1.317240     1.309596     1.301953     1.294310     1.286667     1.279024     1.271381     1.263738     1.256095
      1.248452     1.240808     1.233165     1.225522     1.217879     1.210236     1.202593     1.194950     1.187307     1.179664
      1.172021     1.164377     1.156734     1.149091     1.141448     1.133805     1.126162     1.118519     1.110876     1.103233
      1.095590     1.087946     1.080303     1.072660     1.065017     1.057374     1.049731     1.042088     1.034445     1.026802
      1.019158     1.011515     1.003872     0.996229     0.988586     0.980943     0.973300     0.965657     0.958014     0.950371
      0.942727     0.935084     0.927441     0.919798     0.912155     0.904512     0.896869     0.889226     0.881583     0.873940
      0.866296     0.858653     0.851010     0.843367     0.835724     0.828081     0.820438     0.812795     0.805152     0.797508
      0.789865     0.782222     0.774579     0.766936     0.759293     0.751650     0.744007     0.736364     0.728721     0.721077
      0.713434     0.705791     0.698148     0.690505     0.682862     0.675219     0.667576     0.659933     0.652290     0.644646
      0.637003     0.629360     0.621717     0.614074     0.606431     0.598788     0.591145     0.583502     0.575858     0.568215
      0.560572     0.552929     0.545286     0.537643     0.530000     0.522357     0.514714     0.507071     0.499427     0.491784
      0.484141     0.476498     0.468855     0.461212     0.453569     0.445925     0.438282     0.430639     0.422996     0.415353
      0.407710     0.400067     0.392424     0.384780     0.377137     0.369494     0.361851     0.354208     0.346565     0.338922
      0.331278     0.323635     0.315992     0.308349     0.300706     0.293063     0.285420     0.277777     0.270133     0.262490
      0.254847     0.247204     0.239561     0.231918     0.224275     0.216631     0.208988     0.201345
 NY phased data points follow
  -4.48497E+01 -4.21861E+01 -4.35760E+01 -4.23160E+01 -4.33641E+01 -3.64745E+01 -4.47674E+01 -4.06894E+01 -4.19790E+01 -4.39010E+01
  -3.90413E+01 -3.73118E+01 -4.23901E+01 -3.49950E+01 -3.87053E+01 -3.70541E+01 -3.69737E+01 -3.51813E+01 -3.15378E+01 -3.40472E+01
  -3.62226E+01 -3.24297E+01 -3.37680E+01 -3.47059E+01 -3.16482E+01 -3.05279E+01 -2.67460E+01 -2.77201E+01 -3.24626E+01 -2.58904E+01
  -3.19397E+01 -2.87930E+01 -2.62346E+01 -2.64585E+01 -2.90285E+01 -2.43337E+01 -2.56963E+01 -2.39729E+01 -2.52935E+01 -2.44722E+01
  -2.23087E+01 -2.09481E+01 -2.14534E+01 -2.27280E+01 -1.95292E+01 -2.15721E+01 -1.88747E+01 -2.06318E+01 -2.32080E+01 -2.32265E+01
  -2.08512E+01 -1.99371E+01 -2.31251E+01 -1.72870E+01 -1.69041E+01 -1.65900E+01 -1.29024E+01 -1.64006E+01 -1.47644E+01 -1.27426E+01
  -1.34199E+01 -1.24377E+01 -1.40502E+01 -1.84176E+01 -1.68032E+01 -1.21741E+01 -1.65258E+01 -1.36581E+01 -1.45593E+01 -9.22354E+00
  -1.35677E+01 -1.14913E+01 -1.35331E+01 -9.53461E+00 -1.02659E+01 -9.35361E+00 -1.50128E+01 -1.71979E+01 -1.90123E+01 -2.12058E+01
  -1.94544E+01 -2.39857E+01 -2.14729E+01 -1.85123E+01 -2.45259E+01 -2.16441E+01 -2.53471E+01 -2.17062E+01 -2.36764E+01 -2.63185E+01
  -2.72979E+01 -2.36700E+01 -2.62625E+01 -2.69661E+01 -2.01207E+01 -1.73364E+01 -2.06724E+01 -1.72964E+01 -1.48827E+01 -1.50663E+01
  -1.63382E+01 -1.60891E+01 -2.10569E+01 -2.02972E+01 -1.88351E+01 -1.87624E+01 -1.50640E+01 -1.17367E+01 -1.02974E+01 -9.11843E+00
  -1.14946E+01 -9.72738E+00 -6.26394E+00 -5.42567E+00 -9.13099E+00 -3.62292E+00 -2.70921E+00 -2.06362E+00 -7.37118E+00 -2.22899E+00
   7.18417E-01  3.22352E+00 -2.75611E+00  4.54887E-01  1.40625E+00  2.53017E+00  2.38381E+00  3.05963E+00  2.97853E+00  1.47077E+00
  -1.41556E+00  6.54317E-01 -2.21810E+00 -1.96452E+00 -8.62470E+00 -5.26935E+00 -5.12953E+00 -1.18267E+01 -1.23656E+01 -1.78631E+01
  -1.88186E+01 -2.83549E+01 -2.82575E+01 -3.26395E+01 -4.03515E+01 -4.16860E+01 -4.87955E+01 -5.27481E+01 -5.54307E+01 -6.08083E+01
  -6.35533E+01 -6.73463E+01 -7.05119E+01 -7.73805E+01 -8.08183E+01 -8.27284E+01 -8.82593E+01 -8.93100E+01 -9.48044E+01 -9.73353E+01
  -9.83480E+01 -9.92214E+01 -1.02212E+02 -1.08700E+02 -1.07157E+02 -1.13388E+02 -1.15429E+02 -1.16741E+02 -1.21406E+02 -1.20121E+02
  -1.26681E+02 -1.23395E+02 -1.29268E+02 -1.30186E+02 -1.35430E+02 -1.41662E+02 -1.43324E+02 -1.42800E+02 -1.52141E+02 -1.57841E+02
  -1.60598E+02 -1.67424E+02 -1.68629E+02 -1.69501E+02 -1.71380E+02 -1.74610E+02 -1.77715E+02 -1.79868E+02 -1.82311E+02 -1.84530E+02
  -1.91022E+02 -1.88434E+02 -1.92795E+02 -1.88277E+02 -1.84301E+02 -1.83284E+02 -1.81902E+02 -1.78962E+02 -1.75847E+02 -1.71706E+02
  -1.68052E+02 -1.64149E+02 -1.63702E+02 -1.61719E+02 -1.51599E+02 -1.48396E+02 -1.48182E+02 -1.44878E+02 -1.34532E+02 -1.36191E+02
  -1.31590E+02 -1.24386E+02 -1.25640E+02 -1.23134E+02 -1.17614E+02 -1.16345E+02 -1.13871E+02 -1.13450E+02 -1.10720E+02 -1.03706E+02
  -1.07298E+02 -1.01196E+02 -9.95386E+01 -9.98800E+01 -9.44729E+01 -8.84445E+01 -8.46542E+01 -7.79949E+01 -7.79217E+01 -7.09101E+01
  -6.77240E+01 -7.24010E+01 -6.96187E+01 -6.98966E+01 -7.42776E+01 -7.55647E+01 -7.80435E+01 -7.35519E+01 -7.21505E+01 -6.81284E+01
  -5.91333E+01 -6.27684E+01 -5.87246E+01 -5.69502E+01 -5.77572E+01 -5.41255E+01 -5.10924E+01 -5.25395E+01 -5.35947E+01 -5.49367E+01
  -5.59159E+01 -5.17604E+01 -5.15825E+01 -4.72842E+01 -5.39971E+01 -4.38978E+01 -4.78940E+01 -4.75967E+01 -4.55061E+01 -4.52867E+01
  -4.42042E+01 -4.58606E+01 -4.87963E+01 -4.82458E+01 -5.00448E+01 -5.24644E+01 -5.28991E+01 -6.18832E+01 -6.79149E+01 -7.34406E+01
  -8.27608E+01 -9.31688E+01 -1.04341E+02 -1.16392E+02 -1.34845E+02 -1.53538E+02 -1.70352E+02 -1.88063E+02 -2.08795E+02 -2.28461E+02
  -2.50425E+02 -2.68303E+02 -2.88853E+02 -3.09154E+02 -3.26794E+02 -3.33417E+02 -3.40601E+02 -3.47620E+02 -3.48656E+02 -3.41942E+02
  -3.35897E+02 -3.22872E+02 -3.10130E+02 -2.96492E+02 -2.74513E+02 -2.60701E+02 -2.46931E+02 -2.25211E+02 -2.14306E+02 -1.95384E+02
  -1.81406E+02 -1.64329E+02 -1.51955E+02 -1.39995E+02 -1.30386E+02 -1.22122E+02 -1.09449E+02 -1.01098E+02 -9.12722E+01 -8.69048E+01
  -7.80882E+01 -7.35994E+01 -6.63039E+01 -6.27020E+01 -5.47729E+01 -6.10511E+01 -5.13800E+01 -4.88639E+01 -4.60091E+01 -4.58751E+01
  -4.31653E+01 -3.48802E+01 -3.99453E+01 -3.52243E+01 -3.14109E+01 -3.00893E+01 -2.98305E+01 -2.44704E+01 -2.44713E+01 -2.84723E+01
  -2.42203E+01 -2.50605E+01 -2.27588E+01 -2.15030E+01 -2.27751E+01 -2.45059E+01 -2.45389E+01 -2.27941E+01 -2.63384E+01 -2.43263E+01
  -2.60614E+01 -2.72979E+01 -2.57221E+01 -2.19802E+01 -2.33287E+01 -2.68432E+01 -2.38561E+01 -2.42876E+01 -2.89176E+01 -2.77141E+01
  -2.55565E+01 -2.60960E+01 -2.52635E+01 -2.76049E+01 -2.58242E+01 -2.26947E+01 -2.56342E+01 -2.36651E+01 -2.26493E+01 -2.30591E+01
  -2.39780E+01 -1.90912E+01 -2.37588E+01 -2.04616E+01 -2.25704E+01 -1.84389E+01 -1.95057E+01 -1.99129E+01 -1.93094E+01 -2.04427E+01
  -1.79587E+01 -1.77398E+01 -1.73255E+01 -1.60360E+01 -1.32196E+01 -1.76719E+01 -2.16245E+01 -1.57379E+01 -1.69410E+01 -1.82338E+01
  -1.69106E+01 -1.36876E+01 -1.21633E+01 -1.92025E+01 -1.56310E+01 -1.40491E+01 -1.52738E+01 -1.36735E+01 -1.40174E+01 -1.09781E+01
  -1.51542E+01 -1.73419E+01 -1.33095E+01 -1.18571E+01 -1.77663E+01 -1.05287E+01 -1.31898E+01 -8.53965E+00 -1.21788E+01 -9.12989E+00
  -1.06735E+01 -1.16975E+01 -8.76321E+00 -1.09377E+01 -1.14991E+01 -1.17218E+01 -8.56312E+00 -9.14659E+00 -1.16960E+01 -1.22077E+01
  -1.32335E+01 -7.97414E+00 -1.09673E+01 -1.10158E+01 -9.87044E+00 -1.22111E+01 -1.15986E+01 -6.75322E+00 -9.17857E+00 -1.14845E+01
  -1.01334E+01 -8.21532E+00 -9.49152E+00 -1.04654E+01 -8.22054E+00 -1.01441E+01 -8.89316E+00 -4.73044E+00 -1.08353E+01 -4.66135E+00
  -7.33465E+00 -5.58853E+00 -4.92911E+00 -8.96044E+00 -5.02336E+00 -7.07571E+00 -8.77059E+00 -2.71097E+00 -6.61492E+00 -5.61697E+00
  -5.81951E+00 -5.65154E+00 -5.38942E+00 -7.35704E+00 -6.83898E+00 -7.10743E+00 -6.03193E+00 -5.97702E+00 -3.80713E+00 -4.20240E+00
  -5.88359E+00 -3.21046E+00 -1.08407E+00 -6.12042E+00 -8.42889E+00 -1.04529E+01 -4.71286E+00 -4.22713E+00 -9.61741E+00 -8.15837E+00
  -7.80870E+00 -9.22902E-01 -2.61923E+00 -2.45197E+00 -6.35328E+00 -4.53518E+00 -2.89704E+00 -6.91243E+00 -6.64829E+00 -2.31016E+00
  -3.68295E+00 -4.43694E+00 -3.06836E+00 -3.08338E+00 -4.18097E+00 -4.51206E+00 -4.17616E+00 -8.09591E+00 -4.08723E+00 -2.17834E+00
  -6.53565E+00 -3.21173E+00 -4.64318E+00 -8.34211E-01 -6.02484E+00 -5.22846E+00 -3.86264E+00 -6.14311E+00 -6.31849E+00 -5.81456E+00
  -2.93268E+00 -4.08374E+00 -5.92949E+00 -3.64342E+00 -6.24978E+00 -2.66961E+00 -6.62661E+00 -3.75151E+00
 NY points of the fit to the data follow
  -3.46890E+01 -3.23231E+01 -3.60621E+01 -3.24728E+01 -3.44974E+01 -3.23056E+01 -3.63028E+01 -3.47196E+01 -3.92230E+01 -3.82677E+01
  -4.13979E+01 -3.93243E+01 -4.24488E+01 -3.96741E+01 -4.22539E+01 -4.15276E+01 -4.34405E+01 -3.99625E+01 -3.85896E+01 -3.49006E+01
  -3.25466E+01 -2.90888E+01 -2.85794E+01 -2.88289E+01 -2.73347E+01 -2.75293E+01 -2.39244E+01 -2.40138E+01 -2.10181E+01 -2.45762E+01
  -2.69178E+01 -3.14623E+01 -2.72039E+01 -2.72642E+01 -2.41733E+01 -2.56497E+01 -2.33043E+01 -2.43060E+01 -2.16913E+01 -2.24930E+01
  -2.04886E+01 -2.19630E+01 -1.99849E+01 -2.07488E+01 -1.95888E+01 -2.03290E+01 -2.01661E+01 -2.07440E+01 -1.88696E+01 -1.54710E+01
  -1.77046E+01 -1.70545E+01 -2.09601E+01 -2.34412E+01 -2.71341E+01 -2.61185E+01 -2.45097E+01 -2.14400E+01 -1.95085E+01 -1.68743E+01
  -1.82278E+01 -2.09083E+01 -2.12952E+01 -2.27899E+01 -2.27970E+01 -2.38386E+01 -2.41590E+01 -2.48682E+01 -2.31501E+01 -2.07720E+01
  -1.88308E+01 -1.74416E+01 -1.68635E+01 -1.60388E+01 -1.61146E+01 -1.46468E+01 -1.53554E+01 -1.45648E+01 -1.65136E+01 -1.65923E+01
  -1.97019E+01 -1.83149E+01 -1.96308E+01 -1.84402E+01 -2.04060E+01 -1.98502E+01 -2.23103E+01 -2.21260E+01 -2.29228E+01 -2.40699E+01
  -2.30798E+01 -2.43566E+01 -2.38775E+01 -2.48438E+01 -2.37541E+01 -2.61065E+01 -2.29306E+01 -2.21660E+01 -1.88069E+01 -1.81325E+01
  -1.54521E+01 -1.58654E+01 -1.42827E+01 -1.37275E+01 -1.20011E+01 -1.08131E+01 -9.17405E+00 -8.05566E+00 -9.05403E+00 -1.16966E+01
  -1.09427E+01 -1.11067E+01 -9.72128E+00 -8.07544E+00 -6.70384E+00 -6.58079E+00 -6.01644E+00 -5.60747E+00 -5.78367E+00 -4.40199E+00
  -2.33563E+00 -1.64984E+00 -7.83484E-01  3.03791E-02  1.49133E+00  1.61438E+00  2.27059E+00  1.90192E+00  8.22325E-01  1.06416E+00
  -4.19755E-01  1.26775E-01 -2.47688E+00 -2.20941E+00 -5.69497E+00 -5.29016E+00 -9.44482E+00 -9.41661E+00 -1.48468E+01 -1.60472E+01
  -2.22972E+01 -2.43196E+01 -2.95818E+01 -3.12335E+01 -3.74715E+01 -4.15408E+01 -4.92686E+01 -5.72559E+01 -5.89347E+01 -6.05146E+01
  -6.18559E+01 -6.39640E+01 -6.58431E+01 -6.88648E+01 -7.09436E+01 -7.41954E+01 -7.63124E+01 -7.95383E+01 -8.18285E+01 -8.60965E+01
  -8.95434E+01 -9.37101E+01 -9.68352E+01 -1.00462E+02 -1.04452E+02 -1.08773E+02 -1.13942E+02 -1.17588E+02 -1.22267E+02 -1.25164E+02
  -1.30786E+02 -1.34074E+02 -1.39662E+02 -1.42540E+02 -1.47406E+02 -1.49468E+02 -1.54649E+02 -1.56760E+02 -1.61663E+02 -1.63467E+02
  -1.66164E+02 -1.66989E+02 -1.69816E+02 -1.71387E+02 -1.73893E+02 -1.76428E+02 -1.77483E+02 -1.78745E+02 -1.78827E+02 -1.79546E+02
  -1.77651E+02 -1.78348E+02 -1.76266E+02 -1.73803E+02 -1.71271E+02 -1.67780E+02 -1.66673E+02 -1.66804E+02 -1.70111E+02 -1.73998E+02
  -1.71590E+02 -1.69824E+02 -1.65457E+02 -1.63364E+02 -1.56925E+02 -1.51170E+02 -1.42692E+02 -1.41080E+02 -1.37569E+02 -1.36980E+02
  -1.33833E+02 -1.32324E+02 -1.28671E+02 -1.26925E+02 -1.23630E+02 -1.21516E+02 -1.19927E+02 -1.18219E+02 -1.16685E+02 -1.15205E+02
  -1.14012E+02 -1.11891E+02 -1.11007E+02 -1.07370E+02 -1.05844E+02 -1.00214E+02 -9.69086E+01 -9.36566E+01 -9.08014E+01 -8.73795E+01
  -8.47037E+01 -8.05990E+01 -7.63300E+01 -7.20447E+01 -6.80244E+01 -6.87071E+01 -6.58428E+01 -7.41044E+01 -6.82536E+01 -6.09984E+01
  -5.22731E+01 -4.37076E+01 -5.20774E+01 -4.76610E+01 -4.61605E+01 -4.75079E+01 -5.04670E+01 -5.04243E+01 -5.53741E+01 -5.69909E+01
  -5.75832E+01 -5.73038E+01 -5.30740E+01 -5.11988E+01 -4.78857E+01 -4.79054E+01 -4.54059E+01 -4.75639E+01 -4.41532E+01 -4.56873E+01
  -4.29145E+01 -4.48202E+01 -4.37138E+01 -4.89702E+01 -4.65289E+01 -5.40216E+01 -5.58881E+01 -6.45964E+01 -6.74766E+01 -7.59996E+01
  -8.23695E+01 -8.75652E+01 -9.92630E+01 -1.08840E+02 -1.32311E+02 -1.48459E+02 -1.78344E+02 -1.86413E+02 -2.14097E+02 -2.27489E+02
  -2.72080E+02 -2.95274E+02 -3.03309E+02 -3.10600E+02 -3.13609E+02 -3.18248E+02 -3.18588E+02 -3.18793E+02 -3.17915E+02 -3.15663E+02
  -3.11797E+02 -3.06430E+02 -2.99597E+02 -2.90818E+02 -2.81247E+02 -2.70177E+02 -2.57399E+02 -2.42853E+02 -2.27290E+02 -2.10695E+02
  -1.93562E+02 -1.76122E+02 -1.58790E+02 -1.42559E+02 -1.27100E+02 -1.13210E+02 -1.00789E+02 -9.03321E+01 -8.15635E+01 -7.47966E+01
  -6.95257E+01 -6.59796E+01 -6.35986E+01 -6.21271E+01 -6.11136E+01 -6.03213E+01 -5.93428E+01 -5.80086E+01 -5.60699E+01 -5.34386E+01
  -5.02134E+01 -4.63638E+01 -4.20843E+01 -3.75126E+01 -3.29532E+01 -2.86382E+01 -2.49583E+01 -2.24052E+01 -2.22203E+01 -2.59097E+01
  -2.34618E+01 -2.15810E+01 -1.95139E+01 -1.76080E+01 -1.67712E+01 -1.51960E+01 -1.34608E+01 -1.84709E+01 -2.08332E+01 -2.42354E+01
  -2.64123E+01 -2.87073E+01 -2.98379E+01 -3.25800E+01 -3.36410E+01 -3.45149E+01 -3.50297E+01 -3.42440E+01 -3.39056E+01 -3.29131E+01
  -3.17456E+01 -2.93310E+01 -2.80193E+01 -2.46671E+01 -2.27373E+01 -1.86769E+01 -1.67890E+01 -1.41978E+01 -1.39558E+01 -1.32445E+01
  -1.38329E+01 -1.49123E+01 -1.57247E+01 -1.60646E+01 -1.78716E+01 -2.03312E+01 -2.34445E+01 -3.05758E+01 -2.82942E+01 -2.26199E+01
  -2.02625E+01 -1.55336E+01 -1.26213E+01 -9.29979E+00 -6.50090E+00 -1.47407E+01 -2.01129E+01 -2.31413E+01 -2.48829E+01 -2.56894E+01
  -2.57863E+01 -2.52664E+01 -2.42670E+01 -2.28513E+01 -2.11502E+01 -1.92293E+01 -1.72226E+01 -1.51941E+01 -1.32687E+01 -1.14926E+01
  -9.96650E+00 -8.70736E+00 -7.78255E+00 -7.17341E+00 -6.90991E+00 -6.93729E+00 -7.25323E+00 -7.77657E+00 -8.48571E+00 -9.28687E+00
  -1.01524E+01 -1.09892E+01 -1.17768E+01 -1.24357E+01 -1.29631E+01 -1.32992E+01 -1.34618E+01 -1.34119E+01 -1.31875E+01 -1.27681E+01
  -1.22076E+01 -1.14983E+01 -1.07026E+01 -9.81865E+00 -8.91189E+00 -7.98074E+00 -7.08831E+00 -6.22811E+00 -5.45651E+00 -4.75931E+00
  -4.18489E+00 -3.71080E+00 -3.37679E+00 -3.15168E+00 -3.06718E+00 -3.08533E+00 -3.23201E+00 -3.46450E+00 -3.80462E+00 -4.20639E+00
  -4.68944E+00 -5.20711E+00 -5.77907E+00 -6.35934E+00 -6.96854E+00 -7.56223E+00 -8.16269E+00 -8.72823E+00 -9.28367E+00 -9.78974E+00
  -1.02733E+01 -1.06975E+01 -1.10914E+01 -1.14203E+01 -1.17153E+01 -1.19435E+01 -1.21369E+01 -1.22639E+01 -1.23578E+01 -1.23880E+01
  -1.23885E+01 -1.23294E+01 -1.22447E+01 -1.21048E+01 -1.19442E+01 -1.17338E+01 -1.15079E+01 -1.12371E+01 -1.09558E+01 -1.06346E+01
  -1.03078E+01 -9.94634E+00 -9.58381E+00 -9.19097E+00 -8.80127E+00 -8.38553E+00 -7.97705E+00 -7.54652E+00 -7.12683E+00 -6.68846E+00
  -6.26412E+00 -5.82443E+00 -5.40188E+00 -4.96696E+00 -4.55169E+00 -4.12658E+00 -3.72349E+00 -3.31300E+00 -2.92677E+00 -2.53528E+00
  -2.16971E+00 -1.80065E+00 -1.45913E+00 -1.11584E+00 -8.01508E-01 -4.86635E-01 -2.01708E-01  8.26942E-02  3.36334E-01  5.88661E-01
   8.09825E-01  1.02950E+00  1.21819E+00  1.40560E+00  1.56292E+00  1.72031E+00  1.84992E+00  1.98284E+00
 NY background values follow
    -1.216E+02   -1.216E+02   -1.216E+02   -1.215E+02   -1.215E+02   -1.214E+02   -1.213E+02   -1.213E+02   -1.212E+02   -1.211E+02
    -1.211E+02   -1.210E+02   -1.209E+02   -1.209E+02   -1.208E+02   -1.207E+02   -1.207E+02   -1.206E+02   -1.205E+02   -1.204E+02
    -1.204E+02   -1.203E+02   -1.202E+02   -1.202E+02   -1.201E+02   -1.200E+02   -1.200E+02   -1.199E+02   -1.199E+02   -1.198E+02
    -1.198E+02   -1.197E+02   -1.197E+02   -1.197E+02   -1.196E+02   -1.196E+02   -1.196E+02   -1.196E+02   -1.196E+02   -1.196E+02
    -1.196E+02   -1.196E+02   -1.196E+02   -1.196E+02   -1.196E+02   -1.197E+02   -1.197E+02   -1.197E+02   -1.198E+02   -1.199E+02
    -1.199E+02   -1.200E+02   -1.201E+02   -1.202E+02   -1.203E+02   -1.204E+02   -1.205E+02   -1.207E+02   -1.208E+02   -1.209E+02
    -1.211E+02   -1.213E+02   -1.214E+02   -1.216E+02   -1.218E+02   -1.220E+02   -1.223E+02   -1.225E+02   -1.227E+02   -1.230E+02
    -1.233E+02   -1.235E+02   -1.238E+02   -1.241E+02   -1.244E+02   -1.247E+02   -1.251E+02   -1.254E+02   -1.258E+02   -1.262E+02
    -1.265E+02   -1.269E+02   -1.274E+02   -1.278E+02   -1.282E+02   -1.287E+02   -1.291E+02   -1.296E+02   -1.301E+02   -1.306E+02
    -1.311E+02   -1.317E+02   -1.322E+02   -1.328E+02   -1.333E+02   -1.339E+02   -1.345E+02   -1.351E+02   -1.358E+02   -1.364E+02
    -1.371E+02   -1.378E+02   -1.384E+02   -1.392E+02   -1.399E+02   -1.406E+02   -1.414E+02   -1.421E+02   -1.429E+02   -1.437E+02
    -1.445E+02   -1.453E+02   -1.462E+02   -1.471E+02   -1.479E+02   -1.488E+02   -1.497E+02   -1.506E+02   -1.516E+02   -1.525E+02
    -1.535E+02   -1.545E+02   -1.555E+02   -1.565E+02   -1.575E+02   -1.586E+02   -1.596E+02   -1.607E+02   -1.618E+02   -1.629E+02
    -1.641E+02   -1.652E+02   -1.664E+02   -1.676E+02   -1.687E+02   -1.700E+02   -1.712E+02   -1.724E+02   -1.737E+02   -1.750E+02
    -1.762E+02   -1.775E+02   -1.789E+02   -1.802E+02   -1.816E+02   -1.829E+02   -1.843E+02   -1.857E+02   -1.871E+02   -1.886E+02
    -1.900E+02   -1.915E+02   -1.930E+02   -1.945E+02   -1.960E+02   -1.975E+02   -1.990E+02   -2.006E+02   -2.022E+02   -2.038E+02
    -2.054E+02   -2.070E+02   -2.086E+02   -2.103E+02   -2.120E+02   -2.136E+02   -2.153E+02   -2.171E+02   -2.188E+02   -2.205E+02
    -2.223E+02   -2.240E+02   -2.258E+02   -2.276E+02   -2.294E+02   -2.313E+02   -2.331E+02   -2.349E+02   -2.368E+02   -2.387E+02
    -2.405E+02   -2.424E+02   -2.443E+02   -2.462E+02   -2.482E+02   -2.501E+02   -2.520E+02   -2.540E+02   -2.559E+02   -2.579E+02
    -2.599E+02   -2.618E+02   -2.638E+02   -2.658E+02   -2.678E+02   -2.698E+02   -2.718E+02   -2.738E+02   -2.758E+02   -2.779E+02
    -2.799E+02   -2.819E+02   -2.839E+02   -2.860E+02   -2.880E+02   -2.900E+02   -2.921E+02   -2.941E+02   -2.961E+02   -2.982E+02
    -3.002E+02   -3.023E+02   -3.043E+02   -3.063E+02   -3.084E+02   -3.104E+02   -3.124E+02   -3.145E+02   -3.165E+02   -3.185E+02
    -3.205E+02   -3.225E+02   -3.245E+02   -3.265E+02   -3.285E+02   -3.305E+02   -3.325E+02   -3.344E+02   -3.364E+02   -3.384E+02
    -3.403E+02   -3.422E+02   -3.442E+02   -3.461E+02   -3.480E+02   -3.499E+02   -3.518E+02   -3.536E+02   -3.555E+02   -3.573E+02
    -3.592E+02   -3.610E+02   -3.628E+02   -3.646E+02   -3.664E+02   -3.681E+02   -3.699E+02   -3.716E+02   -3.733E+02   -3.750E+02
    -3.767E+02   -3.784E+02   -3.800E+02   -3.817E+02   -3.833E+02   -3.849E+02   -3.864E+02   -3.880E+02   -3.895E+02   -3.910E+02
    -3.925E+02   -3.940E+02   -3.954E+02   -3.968E+02   -3.982E+02   -3.996E+02   -4.009E+02   -4.023E+02   -4.036E+02   -4.048E+02
    -4.061E+02   -4.073E+02   -4.085E+02   -4.097E+02   -4.108E+02   -4.119E+02   -4.130E+02   -4.141E+02   -4.151E+02   -4.161E+02
    -4.171E+02   -4.180E+02   -4.189E+02   -4.198E+02   -4.206E+02   -4.214E+02   -4.222E+02   -4.230E+02   -4.237E+02   -4.244E+02
    -4.250E+02   -4.256E+02   -4.262E+02   -4.268E+02   -4.273E+02   -4.277E+02   -4.282E+02   -4.286E+02   -4.290E+02   -4.293E+02
    -4.296E+02   -4.298E+02   -4.301E+02   -4.302E+02   -4.304E+02   -4.305E+02   -4.306E+02   -4.306E+02   -4.306E+02   -4.305E+02
    -4.304E+02   -4.303E+02   -4.301E+02   -4.299E+02   -4.296E+02   -4.293E+02   -4.290E+02   -4.286E+02   -4.282E+02   -4.277E+02
    -4.272E+02   -4.266E+02   -4.260E+02   -4.254E+02   -4.247E+02   -4.239E+02   -4.232E+02   -4.223E+02   -4.215E+02   -4.206E+02
    -4.196E+02   -4.186E+02   -4.175E+02   -4.164E+02   -4.153E+02   -4.141E+02   -4.129E+02   -4.116E+02   -4.103E+02   -4.089E+02
    -4.075E+02   -4.061E+02   -4.046E+02   -4.031E+02   -4.015E+02   -3.999E+02   -3.983E+02   -3.966E+02   -3.949E+02   -3.931E+02
    -3.914E+02   -3.896E+02   -3.877E+02   -3.858E+02   -3.839E+02   -3.820E+02   -3.800E+02   -3.780E+02   -3.760E+02   -3.739E+02
    -3.718E+02   -3.697E+02   -3.676E+02   -3.654E+02   -3.632E+02   -3.610E+02   -3.587E+02   -3.565E+02   -3.542E+02   -3.519E+02
    -3.496E+02   -3.472E+02   -3.448E+02   -3.424E+02   -3.400E+02   -3.376E+02   -3.352E+02   -3.327E+02   -3.302E+02   -3.277E+02
    -3.252E+02   -3.227E+02   -3.202E+02   -3.176E+02   -3.151E+02   -3.125E+02   -3.099E+02   -3.073E+02   -3.047E+02   -3.021E+02
    -2.995E+02   -2.969E+02   -2.942E+02   -2.916E+02   -2.890E+02   -2.863E+02   -2.837E+02   -2.810E+02   -2.784E+02   -2.757E+02
    -2.730E+02   -2.704E+02   -2.677E+02   -2.650E+02   -2.624E+02   -2.597E+02   -2.571E+02   -2.544E+02   -2.517E+02   -2.491E+02
    -2.464E+02   -2.438E+02   -2.412E+02   -2.385E+02   -2.359E+02   -2.333E+02   -2.307E+02   -2.281E+02   -2.255E+02   -2.229E+02
    -2.203E+02   -2.178E+02   -2.152E+02   -2.127E+02   -2.101E+02   -2.076E+02   -2.051E+02   -2.026E+02   -2.002E+02   -1.977E+02
    -1.952E+02   -1.928E+02   -1.904E+02   -1.880E+02   -1.856E+02   -1.832E+02   -1.809E+02   -1.786E+02   -1.762E+02   -1.740E+02
    -1.717E+02   -1.694E+02   -1.672E+02   -1.650E+02   -1.628E+02   -1.606E+02   -1.585E+02   -1.563E+02   -1.542E+02   -1.522E+02
    -1.501E+02   -1.481E+02   -1.461E+02   -1.441E+02   -1.421E+02   -1.402E+02   -1.383E+02   -1.364E+02   -1.345E+02   -1.327E+02
    -1.309E+02   -1.291E+02   -1.274E+02   -1.257E+02   -1.240E+02   -1.223E+02   -1.207E+02   -1.191E+02   -1.175E+02   -1.159E+02
    -1.144E+02   -1.129E+02   -1.115E+02   -1.100E+02   -1.086E+02   -1.073E+02   -1.059E+02   -1.046E+02   -1.034E+02   -1.021E+02
    -1.009E+02   -9.972E+01   -9.857E+01   -9.745E+01   -9.636E+01   -9.531E+01   -9.429E+01   -9.330E+01   -9.234E+01   -9.142E+01
    -9.053E+01   -8.967E+01   -8.884E+01   -8.805E+01   -8.729E+01   -8.656E+01   -8.586E+01   -8.520E+01
 Asp      Conc. = 2.49E+02
