 LCModel (Version 6.3-1L) Copyright: S.W. Provencher.          Ref.: Magn. Reson. Med. 30:672-679 (1993).                
 Slice#1 Row#9 Col#12  PD_24_press_2_raw_act
 36 lines in following concentration table = NCONC+1
    Conc.  %SD /Cr+PCr  Metabolite                                         
  165.882  50%   0.814 Ala                                                 
   16.034 503% 7.9E-02 Asp                                                 
  203.664  25%   1.000 Cr                                                  
    0.000 999%   0.000 PCr                                                 
  733.090  30%   3.600+GABA                                                
    0.000 999%   0.000 Glc                                                 
    0.000 999%   0.000 Gln                                                 
 1.80E+03  25%   8.845 Glu                                                 
    3.412 225% 1.7E-02 GPC                                                 
  106.131  24%   0.521 PCh                                                 
    0.000 999%   0.000 GSH                                                 
  196.138  62%   0.963 Ins                                                 
    0.000 999%   0.000 Lac                                                 
    0.000 999%   0.000 NAA                                                 
   59.080  76%   0.290 NAAG                                                
  119.170  27%   0.585 Scyllo                                              
  868.174  29%   4.263 Tau                                                 
   90.520  40%   0.444 -CrCH2                                              
  109.543  24%   0.538 GPC+PCh                                             
   59.080  76%   0.290 NAA+NAAG                                            
  203.664  25%   1.000 Cr+PCr                                              
 1.80E+03  25%   8.845 Glu+Gln                                             
 3.95E+04  29% 193.884 Lip13a                                              
 1.63E+03 128%   8.021 Lip13b                                              
 1.19E+04  25%  58.620 Lip09                                               
 6.29E+04   8% 309.008 MM09                                                
 7.41E+03  22%  36.400 Lip20                                               
 9.48E+04   8% 465.235 MM20                                                
 1.89E+04   8%  92.620 MM12                                                
 4.70E+04   8% 230.528 MM14                                                
 2.36E+04   8% 115.859 MM17                                                
 4.11E+04  26% 201.905 Lip13a+Lip13b                                       
 1.07E+05  11% 525.054 MM14+Lip13a+Lip13b+MM12                             
 7.49E+04   7% 367.629 MM09+Lip09                                          
 1.02E+05   7% 501.635 MM20+Lip20                                          
   6 lines in following misc. output table
  FWHM = 0.107 ppm    S/N =  29                                            
  Data shift = 0.466 ppm                                                   
  Ph:-106 deg      96.4 deg/ppm                                            
  alphaB,S = 4.2E-01,   6.4E+00                                            
    8 spline knots.   Ns = 9(2)                                            
  (11) 6 infls.   ( 2) 2 extrs.                                            
  498 points on ppm-axis = NY
      4.000000     3.992357     3.984714     3.977070     3.969427     3.961784     3.954141     3.946497     3.938854     3.931211
      3.923568     3.915925     3.908281     3.900638     3.892995     3.885352     3.877708     3.870065     3.862422     3.854779
      3.847136     3.839492     3.831849     3.824206     3.816563     3.808919     3.801276     3.793633     3.785990     3.778347
      3.770703     3.763060     3.755417     3.747774     3.740130     3.732487     3.724844     3.717201     3.709558     3.701914
      3.694271     3.686628     3.678985     3.671341     3.663698     3.656055     3.648412     3.640769     3.633125     3.625482
      3.617839     3.610196     3.602552     3.594909     3.587266     3.579623     3.571980     3.564336     3.556693     3.549050
      3.541407     3.533763     3.526120     3.518477     3.510834     3.503191     3.495547     3.487904     3.480261     3.472618
      3.464974     3.457331     3.449688     3.442045     3.434402     3.426758     3.419115     3.411472     3.403829     3.396185
      3.388542     3.380899     3.373256     3.365613     3.357969     3.350326     3.342683     3.335040     3.327396     3.319753
      3.312110     3.304467     3.296824     3.289180     3.281537     3.273894     3.266251     3.258607     3.250964     3.243321
      3.235678     3.228034     3.220391     3.212748     3.205105     3.197462     3.189818     3.182175     3.174532     3.166889
      3.159245     3.151602     3.143959     3.136316     3.128673     3.121029     3.113386     3.105743     3.098100     3.090456
      3.082813     3.075170     3.067527     3.059884     3.052240     3.044597     3.036954     3.029311     3.021667     3.014024
      3.006381     2.998738     2.991095     2.983451     2.975808     2.968165     2.960522     2.952878     2.945235     2.937592
      2.929949     2.922306     2.914662     2.907019     2.899376     2.891733     2.884089     2.876446     2.868803     2.861160
      2.853517     2.845873     2.838230     2.830587     2.822944     2.815300     2.807657     2.800014     2.792371     2.784728
      2.777084     2.769441     2.761798     2.754155     2.746511     2.738868     2.731225     2.723582     2.715939     2.708295
      2.700652     2.693009     2.685366     2.677722     2.670079     2.662436     2.654793     2.647150     2.639506     2.631863
      2.624220     2.616577     2.608933     2.601290     2.593647     2.586004     2.578361     2.570717     2.563074     2.555431
      2.547788     2.540144     2.532501     2.524858     2.517215     2.509572     2.501928     2.494285     2.486642     2.478999
      2.471355     2.463712     2.456069     2.448426     2.440783     2.433139     2.425496     2.417853     2.410210     2.402566
      2.394923     2.387280     2.379637     2.371994     2.364350     2.356707     2.349064     2.341421     2.333777     2.326134
      2.318491     2.310848     2.303205     2.295561     2.287918     2.280275     2.272632     2.264988     2.257345     2.249702
      2.242059     2.234416     2.226772     2.219129     2.211486     2.203843     2.196199     2.188556     2.180913     2.173270
      2.165627     2.157983     2.150340     2.142697     2.135054     2.127410     2.119767     2.112124     2.104481     2.096838
      2.089194     2.081551     2.073908     2.066265     2.058621     2.050978     2.043335     2.035692     2.028049     2.020405
      2.012762     2.005119     1.997476     1.989833     1.982190     1.974546     1.966903     1.959260     1.951617     1.943974
      1.936331     1.928688     1.921045     1.913402     1.905759     1.898115     1.890472     1.882829     1.875186     1.867543
      1.859900     1.852257     1.844614     1.836971     1.829327     1.821684     1.814041     1.806398     1.798755     1.791112
      1.783469     1.775826     1.768183     1.760540     1.752896     1.745253     1.737610     1.729967     1.722324     1.714681
      1.707038     1.699395     1.691752     1.684108     1.676465     1.668822     1.661179     1.653536     1.645893     1.638250
      1.630607     1.622964     1.615321     1.607677     1.600034     1.592391     1.584748     1.577105     1.569462     1.561819
      1.554176     1.546533     1.538890     1.531246     1.523603     1.515960     1.508317     1.500674     1.493031     1.485388
      1.477745     1.470102     1.462458     1.454815     1.447172     1.439529     1.431886     1.424243     1.416600     1.408957
      1.401314     1.393671     1.386027     1.378384     1.370741     1.363098     1.355455     1.347812     1.340169     1.332526
      1.324883     1.317240     1.309596     1.301953     1.294310     1.286667     1.279024     1.271381     1.263738     1.256095
      1.248452     1.240808     1.233165     1.225522     1.217879     1.210236     1.202593     1.194950     1.187307     1.179664
      1.172021     1.164377     1.156734     1.149091     1.141448     1.133805     1.126162     1.118519     1.110876     1.103233
      1.095590     1.087946     1.080303     1.072660     1.065017     1.057374     1.049731     1.042088     1.034445     1.026802
      1.019158     1.011515     1.003872     0.996229     0.988586     0.980943     0.973300     0.965657     0.958014     0.950371
      0.942727     0.935084     0.927441     0.919798     0.912155     0.904512     0.896869     0.889226     0.881583     0.873940
      0.866296     0.858653     0.851010     0.843367     0.835724     0.828081     0.820438     0.812795     0.805152     0.797508
      0.789865     0.782222     0.774579     0.766936     0.759293     0.751650     0.744007     0.736364     0.728721     0.721077
      0.713434     0.705791     0.698148     0.690505     0.682862     0.675219     0.667576     0.659933     0.652290     0.644646
      0.637003     0.629360     0.621717     0.614074     0.606431     0.598788     0.591145     0.583502     0.575858     0.568215
      0.560572     0.552929     0.545286     0.537643     0.530000     0.522357     0.514714     0.507071     0.499427     0.491784
      0.484141     0.476498     0.468855     0.461212     0.453569     0.445925     0.438282     0.430639     0.422996     0.415353
      0.407710     0.400067     0.392424     0.384780     0.377137     0.369494     0.361851     0.354208     0.346565     0.338922
      0.331278     0.323635     0.315992     0.308349     0.300706     0.293063     0.285420     0.277777     0.270133     0.262490
      0.254847     0.247204     0.239561     0.231918     0.224275     0.216631     0.208988     0.201345
 NY phased data points follow
  -5.63407E+00 -7.65375E+00 -4.98766E+00 -7.13171E+00 -5.13616E+00 -5.41694E+00 -7.33550E+00 -7.37044E+00 -7.01730E+00 -7.89350E+00
  -1.04074E+01 -1.10539E+01 -8.30171E+00 -9.53070E+00 -1.32198E+01 -1.04470E+01 -8.73631E+00 -1.14463E+01 -1.33947E+01 -1.07442E+01
  -1.00712E+01 -1.14817E+01 -1.27475E+01 -1.10435E+01 -1.42239E+01 -1.31153E+01 -1.50833E+01 -1.16192E+01 -1.68292E+01 -1.53107E+01
  -9.48707E+00 -1.66739E+01 -1.52585E+01 -1.23848E+01 -1.43086E+01 -1.72796E+01 -1.67024E+01 -1.91542E+01 -1.77883E+01 -1.65706E+01
  -1.60438E+01 -1.59596E+01 -1.45030E+01 -1.67540E+01 -1.82332E+01 -2.34805E+01 -1.97667E+01 -2.00018E+01 -2.31360E+01 -2.40939E+01
  -2.15916E+01 -2.29033E+01 -2.51834E+01 -2.25530E+01 -2.27790E+01 -2.27603E+01 -2.62833E+01 -2.34249E+01 -2.23992E+01 -2.34554E+01
  -2.53862E+01 -2.42686E+01 -2.35485E+01 -2.32248E+01 -2.36123E+01 -2.53819E+01 -2.35237E+01 -2.38346E+01 -2.72865E+01 -2.95831E+01
  -3.02586E+01 -2.98303E+01 -2.89635E+01 -2.77292E+01 -3.01779E+01 -3.03566E+01 -3.33449E+01 -3.38818E+01 -3.24358E+01 -3.32822E+01
  -3.21956E+01 -3.29904E+01 -3.38828E+01 -3.32836E+01 -3.41273E+01 -3.21448E+01 -3.68436E+01 -3.64188E+01 -3.14388E+01 -3.33103E+01
  -3.77113E+01 -3.72307E+01 -3.55942E+01 -3.72527E+01 -3.84711E+01 -3.53776E+01 -3.52287E+01 -3.81713E+01 -3.83620E+01 -4.18315E+01
  -3.79427E+01 -3.93673E+01 -4.22315E+01 -3.78370E+01 -3.69704E+01 -3.84353E+01 -3.84396E+01 -4.15412E+01 -4.23891E+01 -4.08354E+01
  -4.03851E+01 -4.19112E+01 -4.28065E+01 -4.32051E+01 -4.49380E+01 -4.30596E+01 -4.30527E+01 -4.51711E+01 -4.30089E+01 -4.48304E+01
  -4.69773E+01 -4.44969E+01 -4.50254E+01 -4.56262E+01 -4.53452E+01 -4.53563E+01 -4.49727E+01 -4.33410E+01 -4.70831E+01 -4.67364E+01
  -4.77564E+01 -4.47283E+01 -4.92465E+01 -5.06363E+01 -5.13722E+01 -5.03892E+01 -4.81663E+01 -5.08514E+01 -4.96882E+01 -5.15057E+01
  -5.19184E+01 -4.94962E+01 -5.25186E+01 -5.41832E+01 -5.22070E+01 -5.25542E+01 -5.32325E+01 -5.29730E+01 -5.19036E+01 -5.11810E+01
  -5.22140E+01 -5.18843E+01 -5.31574E+01 -5.14587E+01 -5.24828E+01 -5.38165E+01 -5.62834E+01 -5.55125E+01 -5.26232E+01 -5.30466E+01
  -5.53483E+01 -5.27638E+01 -5.63631E+01 -5.73861E+01 -5.62536E+01 -5.36702E+01 -5.58658E+01 -5.65683E+01 -5.58215E+01 -5.59501E+01
  -5.64099E+01 -5.71934E+01 -5.44787E+01 -5.43840E+01 -5.47347E+01 -5.49584E+01 -5.41320E+01 -5.39134E+01 -5.45934E+01 -5.70631E+01
  -5.47528E+01 -5.39657E+01 -5.07747E+01 -5.21936E+01 -5.20165E+01 -5.18453E+01 -5.42594E+01 -4.92402E+01 -5.06440E+01 -4.94491E+01
  -4.98437E+01 -4.85899E+01 -4.53598E+01 -4.49738E+01 -4.37125E+01 -4.56801E+01 -4.60150E+01 -4.53917E+01 -4.56748E+01 -4.51796E+01
  -4.51511E+01 -4.63364E+01 -4.53094E+01 -4.06239E+01 -3.96052E+01 -3.35942E+01 -3.11726E+01 -3.08083E+01 -2.71856E+01 -2.45382E+01
  -2.31286E+01 -1.87621E+01 -1.53741E+01 -1.30510E+01 -8.96230E+00 -1.81510E+00  2.82131E+00  1.06308E+01  1.94934E+01  3.20436E+01
   4.29117E+01  6.02320E+01  7.28691E+01  8.55937E+01  1.03959E+02  1.20320E+02  1.36474E+02  1.52207E+02  1.64988E+02  1.74684E+02
   1.91456E+02  1.99740E+02  2.06081E+02  2.12946E+02  2.25858E+02  2.33038E+02  2.38971E+02  2.48940E+02  2.55948E+02  2.63565E+02
   2.71157E+02  2.78493E+02  2.84698E+02  2.93445E+02  2.99002E+02  3.00766E+02  3.04691E+02  3.04618E+02  3.03222E+02  3.03129E+02
   3.00727E+02  2.94781E+02  2.95422E+02  2.80183E+02  2.75064E+02  2.63506E+02  2.51862E+02  2.39584E+02  2.29752E+02  2.14398E+02
   2.02081E+02  1.89887E+02  1.73379E+02  1.61072E+02  1.46254E+02  1.30618E+02  1.18757E+02  1.06927E+02  9.57731E+01  8.52329E+01
   7.59425E+01  6.31572E+01  5.70132E+01  4.98704E+01  3.77644E+01  3.51062E+01  3.15838E+01  2.50548E+01  2.11285E+01  2.08498E+01
   1.60291E+01  1.02387E+01  9.34577E+00  7.49188E+00  7.37290E+00  3.53292E+00  3.21433E+00  2.37307E+00  4.75887E+00 -5.54521E-01
  -1.18243E+00  1.84176E-01 -7.94548E-01 -1.43981E+00 -2.30417E+00 -3.11908E+00 -2.80133E+00 -2.55851E+00 -4.12227E+00 -6.24948E+00
  -6.01487E+00 -9.26446E+00 -1.01317E+01 -7.27320E+00 -9.77172E+00 -1.02015E+01 -1.09446E+01 -1.09769E+01 -1.03336E+01 -1.42451E+01
  -1.33214E+01 -1.65861E+01 -1.63139E+01 -1.71766E+01 -1.63124E+01 -1.87533E+01 -1.89418E+01 -2.26408E+01 -2.20172E+01 -2.58804E+01
  -2.52815E+01 -2.69425E+01 -2.46611E+01 -2.69605E+01 -2.77865E+01 -2.86710E+01 -3.15298E+01 -3.45100E+01 -3.45825E+01 -3.37440E+01
  -3.33177E+01 -3.56015E+01 -3.55654E+01 -3.70010E+01 -3.81930E+01 -3.81688E+01 -4.03464E+01 -3.96160E+01 -3.90969E+01 -3.85124E+01
  -4.10825E+01 -4.28496E+01 -4.17487E+01 -4.29884E+01 -4.25515E+01 -4.10780E+01 -4.32463E+01 -4.59838E+01 -4.89265E+01 -4.88838E+01
  -4.80845E+01 -4.82641E+01 -4.65801E+01 -5.01590E+01 -4.96747E+01 -5.03467E+01 -5.28805E+01 -5.25709E+01 -5.36446E+01 -5.14679E+01
  -5.57741E+01 -5.37265E+01 -5.65152E+01 -5.61514E+01 -5.46732E+01 -5.81380E+01 -6.13536E+01 -5.98933E+01 -6.03469E+01 -6.00959E+01
  -6.12060E+01 -6.52573E+01 -6.16862E+01 -6.37029E+01 -6.26044E+01 -6.52911E+01 -6.39158E+01 -5.98931E+01 -6.41067E+01 -6.33456E+01
  -6.42544E+01 -6.44656E+01 -6.45898E+01 -6.36023E+01 -6.46778E+01 -6.42282E+01 -6.28842E+01 -6.20111E+01 -6.24505E+01 -6.28572E+01
  -6.20935E+01 -6.40510E+01 -6.36543E+01 -6.24254E+01 -6.28510E+01 -6.21430E+01 -6.23724E+01 -6.40049E+01 -6.18222E+01 -5.98078E+01
  -6.00735E+01 -5.83588E+01 -5.94190E+01 -6.00656E+01 -5.97576E+01 -6.11636E+01 -5.22476E+01 -5.91053E+01 -5.74479E+01 -5.63110E+01
  -5.20329E+01 -5.35499E+01 -5.28750E+01 -5.28357E+01 -5.33551E+01 -5.26976E+01 -5.30015E+01 -5.34571E+01 -4.95170E+01 -4.79400E+01
  -5.08638E+01 -4.92341E+01 -5.00221E+01 -4.70204E+01 -4.81733E+01 -4.49057E+01 -4.53087E+01 -4.31796E+01 -4.50696E+01 -4.34302E+01
  -4.47416E+01 -4.03537E+01 -4.01610E+01 -4.06905E+01 -3.76831E+01 -3.73900E+01 -3.55161E+01 -3.83536E+01 -3.37844E+01 -3.48086E+01
  -3.28030E+01 -3.53509E+01 -3.37693E+01 -2.89945E+01 -2.79017E+01 -2.91816E+01 -2.84080E+01 -2.59645E+01 -2.52182E+01 -2.50373E+01
  -2.45843E+01 -2.41930E+01 -2.06168E+01 -1.85957E+01 -2.20746E+01 -2.08120E+01 -1.95436E+01 -1.99437E+01 -1.62357E+01 -1.56946E+01
  -1.98387E+01 -1.62952E+01 -1.76475E+01 -1.42861E+01 -1.64200E+01 -1.47181E+01 -1.49534E+01 -1.36805E+01 -1.12135E+01 -1.15913E+01
  -1.22329E+01 -9.80980E+00 -1.32319E+01 -9.14264E+00 -6.96813E+00 -7.31216E+00 -5.04750E+00 -4.46947E+00 -7.06344E+00 -5.93269E+00
  -5.53046E+00 -1.44137E+00 -3.80448E+00 -1.49792E+00 -1.92908E+00 -4.37173E+00 -2.09255E+00  5.92804E-02 -1.04441E+00  1.68395E-01
   4.11518E-01  9.03109E-02  1.20032E+00  8.33137E-01  3.70930E+00  1.38252E+00  1.27303E+00  3.10725E+00
 NY points of the fit to the data follow
  -6.27337E+00 -7.62720E+00 -5.77858E+00 -7.23216E+00 -4.98514E+00 -6.20155E+00 -3.54471E+00 -5.25385E+00 -6.75859E+00 -9.62657E+00
  -1.12904E+01 -1.27961E+01 -1.29137E+01 -1.02581E+01 -1.02751E+01 -8.50203E+00 -1.11131E+01 -9.83284E+00 -1.43555E+01 -1.22322E+01
  -1.35434E+01 -1.01133E+01 -1.24036E+01 -1.03986E+01 -1.27452E+01 -1.10403E+01 -1.18198E+01 -9.94757E+00 -9.23428E+00 -9.15032E+00
  -8.69165E+00 -1.01264E+01 -1.02727E+01 -1.26805E+01 -1.22153E+01 -1.49022E+01 -1.38402E+01 -1.63275E+01 -1.56440E+01 -1.82147E+01
  -1.82404E+01 -2.06197E+01 -2.08085E+01 -2.22675E+01 -2.15346E+01 -2.28417E+01 -2.47053E+01 -2.62065E+01 -2.64026E+01 -2.71230E+01
  -2.54792E+01 -2.34833E+01 -2.34902E+01 -2.31484E+01 -2.41050E+01 -2.45821E+01 -2.58108E+01 -2.10007E+01 -2.03558E+01 -1.75892E+01
  -2.01046E+01 -1.93998E+01 -2.38806E+01 -2.16279E+01 -2.50278E+01 -2.39198E+01 -2.84886E+01 -2.89734E+01 -3.29782E+01 -3.46009E+01
  -3.62467E+01 -3.06917E+01 -3.09650E+01 -3.00389E+01 -2.97944E+01 -3.16679E+01 -3.24322E+01 -3.28622E+01 -3.21712E+01 -3.26315E+01
  -2.75589E+01 -2.84313E+01 -2.84314E+01 -3.03054E+01 -3.13698E+01 -3.51992E+01 -3.70041E+01 -4.04763E+01 -4.44540E+01 -4.37002E+01
  -3.98884E+01 -4.01195E+01 -4.01890E+01 -4.16203E+01 -4.03698E+01 -3.67263E+01 -3.40433E+01 -3.39918E+01 -3.35189E+01 -3.72242E+01
  -3.67033E+01 -3.83729E+01 -3.81320E+01 -4.01080E+01 -3.97139E+01 -4.06730E+01 -3.65730E+01 -4.12705E+01 -4.09113E+01 -4.06466E+01
  -3.91138E+01 -4.41768E+01 -4.35657E+01 -4.98393E+01 -4.91596E+01 -5.09471E+01 -5.01393E+01 -4.93532E+01 -4.52468E+01 -4.23240E+01
  -4.12189E+01 -3.83659E+01 -3.85380E+01 -3.71894E+01 -3.98773E+01 -3.81473E+01 -4.20698E+01 -3.94292E+01 -3.95717E+01 -3.89792E+01
  -4.54024E+01 -4.66802E+01 -5.15779E+01 -5.25282E+01 -5.60375E+01 -5.55175E+01 -5.63887E+01 -5.64170E+01 -5.43136E+01 -5.36496E+01
  -5.25742E+01 -5.17552E+01 -4.94448E+01 -4.72319E+01 -4.18052E+01 -4.30747E+01 -4.34469E+01 -4.45158E+01 -4.54666E+01 -4.75284E+01
  -4.93022E+01 -5.13403E+01 -5.27727E+01 -5.24183E+01 -5.39721E+01 -5.36720E+01 -5.33054E+01 -5.28251E+01 -5.26352E+01 -5.23401E+01
  -5.23257E+01 -5.22903E+01 -5.24942E+01 -5.27395E+01 -5.31381E+01 -5.36255E+01 -5.40586E+01 -5.47207E+01 -5.52598E+01 -5.60488E+01
  -5.65871E+01 -5.74338E+01 -5.78951E+01 -5.86490E+01 -5.89720E+01 -5.96731E+01 -5.98211E+01 -6.02829E+01 -6.01512E+01 -6.02912E+01
  -5.99966E+01 -5.98269E+01 -5.91840E+01 -5.86019E+01 -5.75257E+01 -5.62345E+01 -5.45847E+01 -5.39945E+01 -5.29921E+01 -5.23326E+01
  -5.36303E+01 -5.29904E+01 -5.39615E+01 -5.19073E+01 -5.10765E+01 -4.59762E+01 -4.00220E+01 -3.65274E+01 -3.45668E+01 -3.31550E+01
  -3.19259E+01 -3.27877E+01 -3.32939E+01 -3.49981E+01 -3.13113E+01 -3.08956E+01 -2.77057E+01 -2.76219E+01 -2.46614E+01 -2.69090E+01
  -2.40798E+01 -2.27180E+01 -1.77042E+01 -1.44725E+01 -9.31233E+00 -3.51728E+00  3.63404E+00  1.33505E+01  2.28402E+01  3.64247E+01
   4.70271E+01  6.14086E+01  7.24880E+01  8.64177E+01  9.95314E+01  1.15050E+02  1.29288E+02  1.43245E+02  1.57580E+02  1.69113E+02
   1.82602E+02  1.91825E+02  2.05381E+02  2.14226E+02  2.29557E+02  2.34850E+02  2.44390E+02  2.49369E+02  2.57642E+02  2.60690E+02
   2.67707E+02  2.73293E+02  2.83677E+02  2.92127E+02  2.99117E+02  3.03952E+02  3.06000E+02  3.07124E+02  3.04438E+02  3.04417E+02
   3.00526E+02  2.96918E+02  2.89001E+02  2.82664E+02  2.72672E+02  2.65084E+02  2.53165E+02  2.42632E+02  2.28341E+02  2.15996E+02
   2.00391E+02  1.86848E+02  1.71394E+02  1.58529E+02  1.43965E+02  1.31482E+02  1.17802E+02  1.06621E+02  9.33292E+01  8.23764E+01
   7.13587E+01  6.30763E+01  5.45231E+01  4.75592E+01  4.07369E+01  3.50361E+01  2.99320E+01  2.42909E+01  2.08492E+01  1.78033E+01
   1.57511E+01  1.34409E+01  1.20688E+01  9.48302E+00  7.69999E+00  6.49740E+00  4.76477E+00  2.92192E+00  2.50106E+00  1.45657E+00
   1.12173E+00  9.20713E-01  8.54290E-01  9.27965E-01  4.24188E-01 -8.21424E-01 -2.30211E+00 -3.51826E+00 -5.49926E+00 -6.94475E+00
  -8.72105E+00 -9.90666E+00 -1.10251E+01 -1.14460E+01 -1.24323E+01 -1.29045E+01 -1.35154E+01 -1.36210E+01 -1.38241E+01 -1.29430E+01
  -1.17530E+01 -1.34909E+01 -1.36103E+01 -1.55517E+01 -1.55469E+01 -1.80819E+01 -1.85437E+01 -2.23412E+01 -2.07118E+01 -2.34980E+01
  -2.28146E+01 -2.59427E+01 -2.55406E+01 -2.85789E+01 -2.82010E+01 -3.07330E+01 -3.09581E+01 -3.24747E+01 -3.33007E+01 -3.37640E+01
  -3.48967E+01 -3.44746E+01 -3.60186E+01 -3.44676E+01 -3.65550E+01 -3.50014E+01 -3.78219E+01 -3.66948E+01 -3.98573E+01 -3.86937E+01
  -4.18490E+01 -4.14070E+01 -4.39945E+01 -4.40123E+01 -4.59144E+01 -4.58020E+01 -4.69643E+01 -4.65608E+01 -4.62346E+01 -4.74828E+01
  -4.78465E+01 -4.83115E+01 -4.84332E+01 -4.91420E+01 -4.97504E+01 -5.09208E+01 -5.02675E+01 -5.05778E+01 -5.14729E+01 -5.25713E+01
  -5.36816E+01 -5.47052E+01 -5.55834E+01 -5.63061E+01 -5.68795E+01 -5.73379E+01 -5.77133E+01 -5.80503E+01 -5.83788E+01 -5.87341E+01
  -5.91320E+01 -5.95917E+01 -6.01126E+01 -6.06993E+01 -6.13386E+01 -6.20247E+01 -6.27359E+01 -6.34600E+01 -6.41708E+01 -6.48537E+01
  -6.54821E+01 -6.60424E+01 -6.65109E+01 -6.68783E+01 -6.71259E+01 -6.72504E+01 -6.72403E+01 -6.70993E+01 -6.68229E+01 -6.64224E+01
  -6.58994E+01 -6.52712E+01 -6.45451E+01 -6.37421E+01 -6.28728E+01 -6.19605E+01 -6.10163E+01 -6.00637E+01 -5.91130E+01 -5.81865E+01
  -5.72947E+01 -5.64581E+01 -5.56827E+01 -5.49841E+01 -5.43630E+01 -5.38293E+01 -5.33780E+01 -5.30135E+01 -5.27252E+01 -5.25124E+01
  -5.23598E+01 -5.22626E+01 -5.22018E+01 -5.21697E+01 -5.21449E+01 -5.21184E+01 -5.20684E+01 -5.19856E+01 -5.18495E+01 -5.16523E+01
  -5.13760E+01 -5.10161E+01 -5.05583E+01 -5.00022E+01 -4.93386E+01 -4.85720E+01 -4.76987E+01 -4.67286E+01 -4.56631E+01 -4.45175E+01
  -4.32979E+01 -4.20237E+01 -4.07046E+01 -3.93628E+01 -3.80094E+01 -3.66676E+01 -3.53483E+01 -3.40734E+01 -3.28514E+01 -3.17007E+01
  -3.06256E+01 -2.96401E+01 -2.87430E+01 -2.79426E+01 -2.72325E+01 -2.66150E+01 -2.60786E+01 -2.56213E+01 -2.52274E+01 -2.48914E+01
  -2.45957E+01 -2.43331E+01 -2.40851E+01 -2.38449E+01 -2.35949E+01 -2.33298E+01 -2.30342E+01 -2.27053E+01 -2.23305E+01 -2.19098E+01
  -2.14339E+01 -2.09056E+01 -2.03183E+01 -1.96777E+01 -1.89797E+01 -1.82321E+01 -1.74325E+01 -1.65904E+01 -1.57048E+01 -1.47862E+01
  -1.38343E+01 -1.28605E+01 -1.18646E+01 -1.08582E+01 -9.84136E+00 -8.82560E+00 -7.81102E+00 -6.80882E+00 -5.81885E+00 -4.85203E+00
  -3.90796E+00 -2.99724E+00 -2.11925E+00 -1.28412E+00 -4.90884E-01  2.50565E-01  9.41488E-01  1.57226E+00  2.14447E+00  2.64888E+00
   3.08735E+00  3.45093E+00  3.74172E+00  3.95114E+00  4.08186E+00  4.12600E+00  4.08726E+00  3.95934E+00
 NY background values follow
    -1.954E+01   -1.890E+01   -1.831E+01   -1.777E+01   -1.728E+01   -1.684E+01   -1.645E+01   -1.611E+01   -1.581E+01   -1.555E+01
    -1.535E+01   -1.518E+01   -1.506E+01   -1.498E+01   -1.495E+01   -1.495E+01   -1.500E+01   -1.508E+01   -1.521E+01   -1.537E+01
    -1.557E+01   -1.581E+01   -1.608E+01   -1.638E+01   -1.672E+01   -1.710E+01   -1.751E+01   -1.794E+01   -1.841E+01   -1.891E+01
    -1.944E+01   -2.000E+01   -2.059E+01   -2.120E+01   -2.184E+01   -2.251E+01   -2.320E+01   -2.391E+01   -2.465E+01   -2.541E+01
    -2.620E+01   -2.700E+01   -2.783E+01   -2.867E+01   -2.953E+01   -3.041E+01   -3.131E+01   -3.223E+01   -3.316E+01   -3.410E+01
    -3.506E+01   -3.603E+01   -3.702E+01   -3.801E+01   -3.902E+01   -4.004E+01   -4.107E+01   -4.211E+01   -4.315E+01   -4.420E+01
    -4.526E+01   -4.632E+01   -4.739E+01   -4.847E+01   -4.954E+01   -5.062E+01   -5.170E+01   -5.278E+01   -5.387E+01   -5.495E+01
    -5.603E+01   -5.711E+01   -5.818E+01   -5.925E+01   -6.032E+01   -6.138E+01   -6.244E+01   -6.349E+01   -6.453E+01   -6.556E+01
    -6.659E+01   -6.761E+01   -6.861E+01   -6.960E+01   -7.059E+01   -7.155E+01   -7.251E+01   -7.345E+01   -7.438E+01   -7.529E+01
    -7.618E+01   -7.705E+01   -7.791E+01   -7.875E+01   -7.957E+01   -8.037E+01   -8.114E+01   -8.190E+01   -8.263E+01   -8.334E+01
    -8.402E+01   -8.468E+01   -8.532E+01   -8.593E+01   -8.651E+01   -8.708E+01   -8.762E+01   -8.814E+01   -8.864E+01   -8.912E+01
    -8.957E+01   -9.001E+01   -9.042E+01   -9.081E+01   -9.119E+01   -9.154E+01   -9.188E+01   -9.219E+01   -9.249E+01   -9.277E+01
    -9.304E+01   -9.328E+01   -9.351E+01   -9.372E+01   -9.392E+01   -9.410E+01   -9.427E+01   -9.442E+01   -9.455E+01   -9.467E+01
    -9.478E+01   -9.487E+01   -9.495E+01   -9.502E+01   -9.508E+01   -9.512E+01   -9.515E+01   -9.517E+01   -9.518E+01   -9.518E+01
    -9.517E+01   -9.514E+01   -9.511E+01   -9.507E+01   -9.502E+01   -9.496E+01   -9.490E+01   -9.482E+01   -9.474E+01   -9.465E+01
    -9.456E+01   -9.445E+01   -9.435E+01   -9.423E+01   -9.412E+01   -9.399E+01   -9.386E+01   -9.373E+01   -9.360E+01   -9.346E+01
    -9.332E+01   -9.317E+01   -9.302E+01   -9.287E+01   -9.272E+01   -9.257E+01   -9.242E+01   -9.227E+01   -9.211E+01   -9.196E+01
    -9.181E+01   -9.165E+01   -9.150E+01   -9.136E+01   -9.121E+01   -9.106E+01   -9.092E+01   -9.078E+01   -9.065E+01   -9.052E+01
    -9.039E+01   -9.027E+01   -9.015E+01   -9.004E+01   -8.993E+01   -8.983E+01   -8.974E+01   -8.965E+01   -8.957E+01   -8.950E+01
    -8.944E+01   -8.938E+01   -8.933E+01   -8.929E+01   -8.926E+01   -8.924E+01   -8.924E+01   -8.924E+01   -8.925E+01   -8.927E+01
    -8.930E+01   -8.935E+01   -8.941E+01   -8.948E+01   -8.956E+01   -8.965E+01   -8.976E+01   -8.988E+01   -9.001E+01   -9.015E+01
    -9.031E+01   -9.048E+01   -9.066E+01   -9.086E+01   -9.107E+01   -9.129E+01   -9.153E+01   -9.178E+01   -9.205E+01   -9.233E+01
    -9.262E+01   -9.293E+01   -9.325E+01   -9.359E+01   -9.395E+01   -9.432E+01   -9.470E+01   -9.510E+01   -9.552E+01   -9.595E+01
    -9.640E+01   -9.686E+01   -9.734E+01   -9.784E+01   -9.835E+01   -9.888E+01   -9.943E+01   -9.999E+01   -1.006E+02   -1.012E+02
    -1.018E+02   -1.024E+02   -1.031E+02   -1.037E+02   -1.044E+02   -1.051E+02   -1.059E+02   -1.066E+02   -1.074E+02   -1.081E+02
    -1.089E+02   -1.098E+02   -1.106E+02   -1.114E+02   -1.123E+02   -1.132E+02   -1.141E+02   -1.151E+02   -1.160E+02   -1.170E+02
    -1.180E+02   -1.190E+02   -1.201E+02   -1.211E+02   -1.222E+02   -1.233E+02   -1.244E+02   -1.256E+02   -1.267E+02   -1.279E+02
    -1.291E+02   -1.304E+02   -1.316E+02   -1.329E+02   -1.342E+02   -1.355E+02   -1.369E+02   -1.382E+02   -1.396E+02   -1.410E+02
    -1.425E+02   -1.439E+02   -1.454E+02   -1.469E+02   -1.485E+02   -1.500E+02   -1.516E+02   -1.532E+02   -1.548E+02   -1.565E+02
    -1.582E+02   -1.599E+02   -1.616E+02   -1.634E+02   -1.652E+02   -1.670E+02   -1.688E+02   -1.707E+02   -1.725E+02   -1.745E+02
    -1.764E+02   -1.784E+02   -1.803E+02   -1.824E+02   -1.844E+02   -1.864E+02   -1.885E+02   -1.906E+02   -1.927E+02   -1.948E+02
    -1.969E+02   -1.991E+02   -2.012E+02   -2.034E+02   -2.055E+02   -2.077E+02   -2.099E+02   -2.121E+02   -2.143E+02   -2.164E+02
    -2.186E+02   -2.208E+02   -2.230E+02   -2.252E+02   -2.274E+02   -2.296E+02   -2.317E+02   -2.339E+02   -2.361E+02   -2.382E+02
    -2.403E+02   -2.425E+02   -2.446E+02   -2.467E+02   -2.487E+02   -2.508E+02   -2.528E+02   -2.549E+02   -2.569E+02   -2.588E+02
    -2.608E+02   -2.627E+02   -2.646E+02   -2.665E+02   -2.684E+02   -2.702E+02   -2.720E+02   -2.737E+02   -2.755E+02   -2.772E+02
    -2.788E+02   -2.804E+02   -2.820E+02   -2.836E+02   -2.851E+02   -2.865E+02   -2.879E+02   -2.893E+02   -2.906E+02   -2.919E+02
    -2.932E+02   -2.944E+02   -2.955E+02   -2.966E+02   -2.976E+02   -2.986E+02   -2.995E+02   -3.004E+02   -3.012E+02   -3.019E+02
    -3.026E+02   -3.033E+02   -3.038E+02   -3.043E+02   -3.048E+02   -3.051E+02   -3.054E+02   -3.057E+02   -3.058E+02   -3.059E+02
    -3.060E+02   -3.059E+02   -3.058E+02   -3.056E+02   -3.053E+02   -3.050E+02   -3.045E+02   -3.040E+02   -3.034E+02   -3.028E+02
    -3.020E+02   -3.012E+02   -3.002E+02   -2.992E+02   -2.981E+02   -2.969E+02   -2.956E+02   -2.942E+02   -2.927E+02   -2.912E+02
    -2.895E+02   -2.877E+02   -2.859E+02   -2.840E+02   -2.820E+02   -2.799E+02   -2.777E+02   -2.754E+02   -2.731E+02   -2.707E+02
    -2.683E+02   -2.657E+02   -2.631E+02   -2.605E+02   -2.577E+02   -2.550E+02   -2.521E+02   -2.492E+02   -2.463E+02   -2.433E+02
    -2.402E+02   -2.371E+02   -2.340E+02   -2.308E+02   -2.275E+02   -2.243E+02   -2.210E+02   -2.176E+02   -2.143E+02   -2.109E+02
    -2.074E+02   -2.040E+02   -2.005E+02   -1.970E+02   -1.935E+02   -1.900E+02   -1.864E+02   -1.828E+02   -1.793E+02   -1.757E+02
    -1.721E+02   -1.685E+02   -1.649E+02   -1.613E+02   -1.577E+02   -1.541E+02   -1.505E+02   -1.470E+02   -1.434E+02   -1.398E+02
    -1.363E+02   -1.328E+02   -1.293E+02   -1.258E+02   -1.223E+02   -1.189E+02   -1.155E+02   -1.121E+02   -1.088E+02   -1.055E+02
    -1.022E+02   -9.894E+01   -9.574E+01   -9.258E+01   -8.947E+01   -8.640E+01   -8.339E+01   -8.042E+01   -7.751E+01   -7.465E+01
    -7.185E+01   -6.910E+01   -6.642E+01   -6.381E+01   -6.125E+01   -5.877E+01   -5.636E+01   -5.401E+01   -5.174E+01   -4.955E+01
    -4.744E+01   -4.541E+01   -4.346E+01   -4.159E+01   -3.981E+01   -3.812E+01   -3.652E+01   -3.502E+01   -3.361E+01   -3.229E+01
    -3.108E+01   -2.997E+01   -2.896E+01   -2.806E+01   -2.727E+01   -2.659E+01   -2.601E+01   -2.556E+01
 Ala      Conc. = 1.66E+02
