 LCModel (Version 6.3-1L) Copyright: S.W. Provencher.          Ref.: Magn. Reson. Med. 30:672-679 (1993).                
 Slice#3 Row#7 Col#9  PD_24_press_2_raw_act
 36 lines in following concentration table = NCONC+1
    Conc.  %SD /Cr+PCr  Metabolite                                         
  147.145 150% 9.7E-02 Ala                                                 
    0.000 999%   0.000 Asp                                                 
  625.166  62%   0.410 Cr                                                  
  899.474  44%   0.590 PCr                                                 
  260.376  84%   0.171 GABA                                                
  272.345  78%   0.179 Glc                                                 
 1.54E+03  29%   1.011 Gln                                                 
 2.04E+03  25%   1.339 Glu                                                 
  904.222   4%   0.593 GPC                                                 
    0.000 999%   0.000 PCh                                                 
  677.893  19%   0.445 GSH                                                 
 3.03E+03  13%   1.989 Ins                                                 
  235.626 101%   0.155 Lac                                                 
 2.04E+03   9%   1.336 NAA                                                 
  360.639  58%   0.237 NAAG                                                
  201.049  21%   0.132 Scyllo                                              
    0.000 999%   0.000 Tau                                                 
    0.000 999%   0.000 -CrCH2                                              
  904.222   4%   0.593 GPC+PCh                                             
 2.40E+03   5%   1.572 NAA+NAAG                                            
 1.52E+03   6%   1.000 Cr+PCr                                              
 3.58E+03  20%   2.351 Glu+Gln                                             
    0.000 999%   0.000 Lip13a                                              
  155.847 112%   0.102 Lip13b                                              
   39.571 132% 2.6E-02 Lip09                                               
  965.975  22%   0.634 MM09                                                
   22.572 136% 1.5E-02 Lip20                                               
 1.10E+03  37%   0.722 MM20                                                
  282.533  44%   0.185 MM12                                                
 2.31E+03  15%   1.517 MM14                                                
 1.03E+03  25%   0.673 MM17                                                
  155.847 112%   0.102 Lip13a+Lip13b                                       
 2.75E+03  13%   1.804 MM14+Lip13a+Lip13b+MM12                             
 1.01E+03  21%   0.660 MM09+Lip09                                          
 1.12E+03  36%   0.737 MM20+Lip20                                          
   6 lines in following misc. output table
  FWHM = 0.054 ppm    S/N =   6                                            
  Data shift = 0.015 ppm                                                   
  Ph: -17 deg      -5.7 deg/ppm                                            
  alphaB,S = 8.5E+01,   1.7E+02                                            
   14 spline knots.   Ns = 7(1)                                            
   2 inflections.     1 extrema                                            
  498 points on ppm-axis = NY
      4.000000     3.992357     3.984714     3.977070     3.969427     3.961784     3.954141     3.946497     3.938854     3.931211
      3.923568     3.915925     3.908281     3.900638     3.892995     3.885352     3.877708     3.870065     3.862422     3.854779
      3.847136     3.839492     3.831849     3.824206     3.816563     3.808919     3.801276     3.793633     3.785990     3.778347
      3.770703     3.763060     3.755417     3.747774     3.740130     3.732487     3.724844     3.717201     3.709558     3.701914
      3.694271     3.686628     3.678985     3.671341     3.663698     3.656055     3.648412     3.640769     3.633125     3.625482
      3.617839     3.610196     3.602552     3.594909     3.587266     3.579623     3.571980     3.564336     3.556693     3.549050
      3.541407     3.533763     3.526120     3.518477     3.510834     3.503191     3.495547     3.487904     3.480261     3.472618
      3.464974     3.457331     3.449688     3.442045     3.434402     3.426758     3.419115     3.411472     3.403829     3.396185
      3.388542     3.380899     3.373256     3.365613     3.357969     3.350326     3.342683     3.335040     3.327396     3.319753
      3.312110     3.304467     3.296824     3.289180     3.281537     3.273894     3.266251     3.258607     3.250964     3.243321
      3.235678     3.228034     3.220391     3.212748     3.205105     3.197462     3.189818     3.182175     3.174532     3.166889
      3.159245     3.151602     3.143959     3.136316     3.128673     3.121029     3.113386     3.105743     3.098100     3.090456
      3.082813     3.075170     3.067527     3.059884     3.052240     3.044597     3.036954     3.029311     3.021667     3.014024
      3.006381     2.998738     2.991095     2.983451     2.975808     2.968165     2.960522     2.952878     2.945235     2.937592
      2.929949     2.922306     2.914662     2.907019     2.899376     2.891733     2.884089     2.876446     2.868803     2.861160
      2.853517     2.845873     2.838230     2.830587     2.822944     2.815300     2.807657     2.800014     2.792371     2.784728
      2.777084     2.769441     2.761798     2.754155     2.746511     2.738868     2.731225     2.723582     2.715939     2.708295
      2.700652     2.693009     2.685366     2.677722     2.670079     2.662436     2.654793     2.647150     2.639506     2.631863
      2.624220     2.616577     2.608933     2.601290     2.593647     2.586004     2.578361     2.570717     2.563074     2.555431
      2.547788     2.540144     2.532501     2.524858     2.517215     2.509572     2.501928     2.494285     2.486642     2.478999
      2.471355     2.463712     2.456069     2.448426     2.440783     2.433139     2.425496     2.417853     2.410210     2.402566
      2.394923     2.387280     2.379637     2.371994     2.364350     2.356707     2.349064     2.341421     2.333777     2.326134
      2.318491     2.310848     2.303205     2.295561     2.287918     2.280275     2.272632     2.264988     2.257345     2.249702
      2.242059     2.234416     2.226772     2.219129     2.211486     2.203843     2.196199     2.188556     2.180913     2.173270
      2.165627     2.157983     2.150340     2.142697     2.135054     2.127410     2.119767     2.112124     2.104481     2.096838
      2.089194     2.081551     2.073908     2.066265     2.058621     2.050978     2.043335     2.035692     2.028049     2.020405
      2.012762     2.005119     1.997476     1.989833     1.982190     1.974546     1.966903     1.959260     1.951617     1.943974
      1.936331     1.928688     1.921045     1.913402     1.905759     1.898115     1.890472     1.882829     1.875186     1.867543
      1.859900     1.852257     1.844614     1.836971     1.829327     1.821684     1.814041     1.806398     1.798755     1.791112
      1.783469     1.775826     1.768183     1.760540     1.752896     1.745253     1.737610     1.729967     1.722324     1.714681
      1.707038     1.699395     1.691752     1.684108     1.676465     1.668822     1.661179     1.653536     1.645893     1.638250
      1.630607     1.622964     1.615321     1.607677     1.600034     1.592391     1.584748     1.577105     1.569462     1.561819
      1.554176     1.546533     1.538890     1.531246     1.523603     1.515960     1.508317     1.500674     1.493031     1.485388
      1.477745     1.470102     1.462458     1.454815     1.447172     1.439529     1.431886     1.424243     1.416600     1.408957
      1.401314     1.393671     1.386027     1.378384     1.370741     1.363098     1.355455     1.347812     1.340169     1.332526
      1.324883     1.317240     1.309596     1.301953     1.294310     1.286667     1.279024     1.271381     1.263738     1.256095
      1.248452     1.240808     1.233165     1.225522     1.217879     1.210236     1.202593     1.194950     1.187307     1.179664
      1.172021     1.164377     1.156734     1.149091     1.141448     1.133805     1.126162     1.118519     1.110876     1.103233
      1.095590     1.087946     1.080303     1.072660     1.065017     1.057374     1.049731     1.042088     1.034445     1.026802
      1.019158     1.011515     1.003872     0.996229     0.988586     0.980943     0.973300     0.965657     0.958014     0.950371
      0.942727     0.935084     0.927441     0.919798     0.912155     0.904512     0.896869     0.889226     0.881583     0.873940
      0.866296     0.858653     0.851010     0.843367     0.835724     0.828081     0.820438     0.812795     0.805152     0.797508
      0.789865     0.782222     0.774579     0.766936     0.759293     0.751650     0.744007     0.736364     0.728721     0.721077
      0.713434     0.705791     0.698148     0.690505     0.682862     0.675219     0.667576     0.659933     0.652290     0.644646
      0.637003     0.629360     0.621717     0.614074     0.606431     0.598788     0.591145     0.583502     0.575858     0.568215
      0.560572     0.552929     0.545286     0.537643     0.530000     0.522357     0.514714     0.507071     0.499427     0.491784
      0.484141     0.476498     0.468855     0.461212     0.453569     0.445925     0.438282     0.430639     0.422996     0.415353
      0.407710     0.400067     0.392424     0.384780     0.377137     0.369494     0.361851     0.354208     0.346565     0.338922
      0.331278     0.323635     0.315992     0.308349     0.300706     0.293063     0.285420     0.277777     0.270133     0.262490
      0.254847     0.247204     0.239561     0.231918     0.224275     0.216631     0.208988     0.201345
 NY phased data points follow
  -6.06745E-01 -4.83195E+00  1.12178E+01  6.60791E+00  1.21957E+01  1.74061E+01  1.65039E+01  2.48484E+01  2.82711E+01  2.68905E+01
   3.65926E+01  3.30726E+01  2.95197E+01  2.19810E+01  2.78192E+01  1.26275E+01  1.86256E+01 -5.51142E-01  4.09315E+00  1.27456E+01
   1.32231E+01  3.81245E+00  7.71771E+00  5.30352E+00  1.36741E+01  1.67879E+01  1.86221E+01  8.59887E+00  2.02842E+01  2.95593E+00
   1.07349E+01  1.04002E+01  2.06696E+01  1.55475E+01  9.36916E+00  7.52209E+00  1.53028E+01  7.58947E+00  1.74383E+01  5.88409E+00
   7.01793E+00  1.33392E+01  6.97387E+00  1.16406E+01  1.54514E+01  1.37277E+01  2.25462E+01  1.37765E+01  2.16874E+01  1.72841E+01
   2.17368E+01  1.51780E+01  1.43739E+01  4.40996E+00  2.10850E+01  9.21765E+00  9.56685E+00 -3.57958E+00  1.03948E+01  4.25909E+00
   9.44048E+00 -6.57626E+00  4.27424E+00 -9.67568E+00 -2.54271E+00 -4.89470E+00 -5.65352E+00 -7.01558E+00 -4.23579E-01  4.70390E+00
  -3.35678E+00 -2.32452E+00  3.43756E+00 -4.34519E+00  7.70469E+00 -2.52138E+00 -1.22208E+00 -2.83372E+00  2.54273E+00  4.09173E+00
   2.61694E+00 -1.11524E+00  5.56710E+00 -2.61522E-01  3.44125E+00  1.71838E+00  8.35418E+00  1.59025E+00  5.09750E+00 -1.69125E+00
   2.75397E+00  6.45017E+00  9.66375E+00  3.11290E+00  2.43620E+00  4.33665E+00  4.43133E+00  7.65167E+00  2.27229E+01  2.74714E+01
   4.65967E+01  5.44185E+01  7.89185E+01  6.88135E+01  7.87532E+01  5.53428E+01  3.41377E+01  3.06263E+01  1.79254E+01  8.64502E+00
   4.22419E+00 -2.28603E+00 -9.80582E-01 -7.50425E+00 -4.72620E+00 -4.14520E+00 -4.49280E+00 -1.44761E+01  4.41697E+00 -1.31836E+01
  -1.02763E+00 -5.32085E-01  1.30455E+01  1.02459E+01  2.05124E+01  2.26876E+01  3.65511E+01  4.22940E+01  4.33100E+01  3.87903E+01
   2.94727E+01  1.88660E+01  1.66449E+01  1.54065E+01  1.66575E+00 -3.95067E+00 -3.03409E+00 -1.25311E+00 -6.07272E+00 -6.52233E+00
  -5.35803E+00 -1.00978E+01 -5.03943E+00 -8.42566E+00  6.11968E+00 -9.59935E+00 -1.97942E+00  2.95583E+00  6.53373E+00 -8.19856E+00
  -1.00023E+01 -6.51656E+00 -8.19311E+00 -4.88687E+00 -1.32693E+00 -8.92092E+00 -6.29435E+00 -8.92207E+00 -1.63572E+00 -1.61184E+00
   1.88397E-01 -1.01225E+01 -7.51831E+00 -1.16407E+01 -8.66002E+00 -1.34924E+01  1.99247E+00 -1.12705E+01 -1.09320E+01 -1.18569E+01
  -8.22029E+00 -1.14628E+01 -1.38135E+01 -1.71073E+01 -2.09139E+01 -2.26579E+01 -2.04032E+01 -1.92810E+01 -9.48675E+00 -1.54485E+01
  -1.39266E+01 -1.77884E+01 -1.16529E+01 -2.61954E+01 -1.38244E+01 -1.93697E+01 -8.71859E+00 -1.79412E+01 -8.13127E+00 -1.13369E+01
  -1.23706E+00 -8.35120E+00 -2.23614E+00 -1.07530E+01 -4.82920E+00 -1.52047E+01 -4.84255E+00 -1.10932E+01 -7.11317E+00 -1.37183E+01
  -1.07113E+01 -1.06040E+01  4.18984E+00 -9.39168E+00 -1.10526E+01 -8.46529E+00 -1.44205E+01 -9.90771E+00 -7.91582E+00 -1.46346E+01
  -1.00669E+01 -1.49960E+01  1.13856E+00 -4.57418E+00 -8.69046E+00 -2.19257E+00  8.76910E+00  3.86659E+00  5.73237E+00 -5.77979E+00
   1.81472E+00 -1.42403E+01 -1.00985E+01 -1.15323E+01 -1.37318E+01 -2.43791E+00 -1.38524E+00 -6.79582E+00  4.11520E-02 -7.52023E+00
  -9.96447E-01 -6.31719E+00 -4.33511E+00 -3.88560E+00  2.20470E+00 -3.03946E+00  4.81013E+00 -5.41898E+00  2.40403E+00  5.80297E+00
   2.04326E+00 -1.27402E+00 -5.88618E+00 -1.29558E+01 -3.85013E+00 -6.43669E+00 -1.57310E+00 -4.04109E+00  7.35729E-01 -6.22792E+00
   8.20438E+00  2.81810E+00  6.67568E+00  1.44425E+01  2.14986E+01  2.67223E+01  4.12727E+01  4.07146E+01  4.49447E+01  5.76075E+01
   7.13803E+01  7.32878E+01  6.03355E+01  3.93399E+01  3.94734E+01  2.35897E+01  1.20460E+01  4.60932E+00  2.69294E+00  7.14986E+00
   2.54959E+00  2.10806E+00 -6.39452E+00 -2.63010E+00 -3.35961E+00 -7.01202E+00  3.16238E+00 -6.80723E+00 -1.66941E+00 -1.08251E+01
  -1.01330E+01  6.89227E-01 -6.06821E+00 -4.02858E+00  2.59254E+00 -1.58681E+01 -7.55788E+00 -1.25346E+01 -5.86688E+00 -8.47982E+00
  -4.00266E+00 -9.86257E+00  5.92067E+00 -8.91979E+00 -4.90918E+00 -7.17881E+00 -1.21673E+01 -5.48550E+00 -7.89450E+00 -3.82172E-01
  -1.43226E+00 -4.53450E+00  2.76276E+00  3.62930E+00  2.59231E+00 -9.92077E-01  3.37461E+00  1.18376E+01  4.72948E+00  5.54586E+00
   2.26875E+00  7.27988E+00 -3.46952E+00  4.11538E+00  1.61036E+01  9.75322E+00  1.25084E+01  6.91599E+00  1.09512E+01  1.46063E+01
   1.28773E+01  1.25193E+01  1.08055E+01  1.15220E+01  7.47908E+00  1.64220E+01  7.36654E+00  7.05049E+00  1.49309E+01  1.43683E+01
   1.34746E+01  1.05469E+01  1.99132E+01  1.96290E+01  8.22138E+00  9.60227E+00  1.62941E+01  1.74296E+01  1.44996E+01  2.65273E+00
   1.50987E+01  4.21984E+00  1.25455E+01  7.98490E+00  6.47980E+00  5.62880E+00  2.94719E+00  2.29287E+00 -4.23179E+00 -8.90978E+00
   3.65117E+00 -4.29183E+00 -3.75889E+00  1.07045E-01  7.32953E+00  9.27884E+00  1.65594E+00 -2.46092E+00  2.07400E-01 -5.31336E+00
   1.58024E+00 -1.82639E+00 -1.91186E+00 -4.59699E+00  9.52485E-01 -5.52974E+00 -1.98282E+00 -6.85068E+00 -4.65046E+00 -5.36520E+00
  -5.35867E+00 -3.64197E+00 -1.02428E+01 -2.89088E+00  1.13547E+00  1.48039E+00  1.66688E+00  7.85206E-01 -4.58942E+00  7.31705E+00
  -2.60726E+00  3.28880E+00 -2.75438E+00 -1.42959E+01 -9.21558E+00  3.32142E-01 -1.61576E+00 -4.65845E+00 -2.35505E+00 -1.06942E+00
  -5.15813E+00  5.25526E+00 -6.43005E-01 -3.85366E+00 -3.75105E+00  1.43022E+01  8.49276E+00 -1.28506E+00 -4.43149E+00  1.97348E+00
   1.46673E-02 -6.50511E+00  4.83349E+00 -1.50056E+00  5.56165E+00  1.76156E+00 -5.56272E+00  9.80247E-01 -2.79777E+00  5.33892E+00
   9.65671E+00  7.43703E+00 -1.11378E+00  1.28366E+00 -8.75107E-01 -1.34414E-01 -2.00059E+00 -8.02571E-01 -5.39891E+00 -1.32320E+01
   3.51385E+00 -8.61814E+00 -1.03843E+00 -1.25823E-01 -1.00086E+00 -5.90448E+00 -7.38712E+00 -8.01036E+00 -2.58359E-01 -9.11564E+00
   2.45315E+00 -4.32401E+00 -2.13511E+00 -7.96595E-01  7.83242E-01 -5.93777E+00 -1.49214E+01 -5.70550E+00 -3.53522E+00 -3.81850E+00
  -8.76213E+00 -3.41678E+00  3.08396E+00 -2.41313E+00 -9.93491E-01 -1.02270E+01 -7.07436E+00 -7.98162E+00 -1.29231E+00 -3.77840E+00
  -1.54291E+00 -8.76229E+00  7.27386E-01 -6.36030E+00 -4.95278E+00 -1.43099E+01 -3.28368E+00 -2.94732E+00 -8.16778E-01 -6.61408E+00
   2.78059E+00 -6.56594E+00 -6.39792E+00 -3.08333E+00 -5.51249E+00 -6.95094E+00 -4.91367E+00  5.58676E-01 -2.22643E+00  3.62614E-01
   3.03769E+00 -3.59207E+00  2.31231E+00 -8.03362E+00 -6.40673E+00 -7.34500E+00 -2.51056E+00 -5.49660E+00  4.83223E+00 -9.94231E+00
  -1.97000E+00 -1.25187E+01  1.56431E+00 -1.06010E+00  7.92077E+00 -8.97960E+00 -7.66535E-01 -4.43078E+00  8.81645E+00 -1.13078E-01
  -7.94104E+00 -1.09833E+01 -5.82800E+00 -4.13738E+00 -3.40812E+00 -1.18569E+00  3.47595E+00  3.36308E+00
 NY points of the fit to the data follow
   4.47854E+00  3.85954E+00  4.51131E+00  6.43112E+00  9.41103E+00  1.34670E+01  1.81064E+01  2.28645E+01  2.72608E+01  3.06171E+01
   3.22208E+01  3.16072E+01  2.89122E+01  2.48406E+01  2.02232E+01  1.57367E+01  1.17153E+01  8.31048E+00  5.83071E+00  4.22352E+00
   3.24812E+00  2.79791E+00  2.60762E+00  2.93586E+00  3.74186E+00  5.03467E+00  6.86688E+00  9.27970E+00  1.21873E+01  1.50750E+01
   1.72628E+01  1.82498E+01  1.78316E+01  1.62213E+01  1.38100E+01  1.09502E+01  8.10091E+00  5.47248E+00  3.42530E+00  2.49649E+00
   2.81517E+00  4.50806E+00  7.17463E+00  1.02745E+01  1.34484E+01  1.64233E+01  1.88615E+01  2.01275E+01  1.95374E+01  1.70078E+01
   1.32028E+01  9.14219E+00  5.70510E+00  3.16991E+00  1.51256E+00  8.20332E-01  1.13678E+00  2.21914E+00  3.51545E+00  4.54057E+00
   4.97578E+00  4.65286E+00  3.64266E+00  2.26059E+00  9.56193E-01  1.37082E-01 -1.27880E-01  5.36817E-02  6.32574E-01  1.50865E+00
   2.50298E+00  3.41460E+00  4.01317E+00  4.19364E+00  3.97462E+00  3.49522E+00  2.93689E+00  2.39047E+00  1.91544E+00  1.65928E+00
   1.84010E+00  2.27557E+00  2.69178E+00  3.05193E+00  3.39868E+00  3.63514E+00  3.48418E+00  2.73361E+00  1.47611E+00  1.53721E-01
  -7.72052E-01 -1.18472E+00 -1.24279E+00 -1.09590E+00 -6.23416E-01  1.27402E+00  6.89754E+00  1.53047E+01  2.49199E+01  3.54097E+01
   4.69485E+01  5.87936E+01  6.83394E+01  7.21975E+01  6.85576E+01  5.86099E+01  4.57959E+01  3.31408E+01  2.17503E+01  1.16005E+01
   2.82450E+00 -3.34136E+00 -5.50693E+00 -5.78481E+00 -5.75995E+00 -5.66140E+00 -5.54662E+00 -5.40173E+00 -5.14044E+00 -4.44430E+00
  -2.15808E+00  2.35436E+00  8.18646E+00  1.47246E+01  2.18533E+01  2.94170E+01  3.64557E+01  4.10928E+01  4.15896E+01  3.77063E+01
   3.09099E+01  2.32068E+01  1.57592E+01  8.75887E+00  2.25333E+00 -3.18390E+00 -6.33677E+00 -7.19368E+00 -7.04817E+00 -6.40582E+00
  -5.56289E+00 -4.76637E+00 -4.14034E+00 -3.78518E+00 -3.76364E+00 -3.98199E+00 -4.36115E+00 -4.85588E+00 -5.36890E+00 -5.83398E+00
  -6.19698E+00 -6.44913E+00 -6.62703E+00 -6.76005E+00 -6.90540E+00 -7.05805E+00 -7.19037E+00 -7.29680E+00 -7.38717E+00 -7.53652E+00
  -7.74590E+00 -7.92028E+00 -7.97862E+00 -7.95228E+00 -7.95695E+00 -8.08739E+00 -8.36248E+00 -8.71427E+00 -9.06585E+00 -9.43682E+00
  -9.85769E+00 -1.02379E+01 -1.05461E+01 -1.08043E+01 -1.10478E+01 -1.12705E+01 -1.13658E+01 -1.12732E+01 -1.11073E+01 -1.10280E+01
  -1.10967E+01 -1.11645E+01 -1.10374E+01 -1.06518E+01 -1.00677E+01 -9.34022E+00 -8.42498E+00 -7.26563E+00 -5.94746E+00 -4.75117E+00
  -4.02054E+00 -3.97022E+00 -4.51510E+00 -5.42470E+00 -6.40515E+00 -7.16905E+00 -7.49652E+00 -7.13046E+00 -5.93259E+00 -4.04919E+00
  -1.85397E+00  1.13897E-01  1.30168E+00  1.26930E+00  1.35572E-01 -1.90804E+00 -4.73004E+00 -7.97576E+00 -1.08967E+01 -1.26094E+01
  -1.24966E+01 -1.07548E+01 -7.90914E+00 -4.53586E+00 -1.18020E+00  1.49836E+00  2.76435E+00  2.26312E+00  2.26865E-01 -2.81723E+00
  -5.93751E+00 -8.47774E+00 -1.00680E+01 -1.03635E+01 -9.36577E+00 -7.42698E+00 -5.14443E+00 -3.25338E+00 -2.04530E+00 -1.53482E+00
  -1.42937E+00 -1.50182E+00 -1.62829E+00 -1.53681E+00 -1.04877E+00 -3.69254E-01  2.37663E-01  6.40699E-01  7.11917E-01  2.73086E-01
  -8.00625E-01 -2.30020E+00 -3.75378E+00 -4.75097E+00 -5.13613E+00 -4.95942E+00 -4.25663E+00 -3.22546E+00 -1.95320E+00 -1.70301E-01
   2.05742E+00  4.41453E+00  7.04797E+00  1.16762E+01  1.91457E+01  2.79088E+01  3.66856E+01  4.51924E+01  5.35334E+01  6.08925E+01
   6.51853E+01  6.43233E+01  5.79513E+01  4.79511E+01  3.71470E+01  2.72905E+01  1.84352E+01  1.03420E+01  3.55389E+00 -4.15380E-01
  -1.81489E+00 -2.39386E+00 -2.62048E+00 -2.59928E+00 -2.45064E+00 -2.33383E+00 -2.30558E+00 -2.38522E+00 -2.57581E+00 -2.84873E+00
  -3.15551E+00 -3.46396E+00 -3.73781E+00 -3.93224E+00 -4.03711E+00 -4.06905E+00 -4.05280E+00 -4.01427E+00 -3.96549E+00 -3.90765E+00
  -3.84571E+00 -3.77404E+00 -3.68635E+00 -3.58104E+00 -3.45146E+00 -3.28447E+00 -3.07264E+00 -2.81133E+00 -2.49477E+00 -2.11822E+00
  -1.68015E+00 -1.17883E+00 -6.19919E-01 -1.63663E-02  6.20062E-01  1.27768E+00  1.94391E+00  2.60515E+00  3.24792E+00  3.86347E+00
   4.44494E+00  4.98689E+00  5.48740E+00  5.94838E+00  6.37523E+00  6.77702E+00  7.16580E+00  7.55641E+00  7.96747E+00  8.42691E+00
   8.97276E+00  9.57042E+00  1.01539E+01  1.06998E+01  1.11941E+01  1.15965E+01  1.18297E+01  1.18221E+01  1.16209E+01  1.13665E+01
   1.11594E+01  1.10416E+01  1.10074E+01  1.10487E+01  1.11552E+01  1.12823E+01  1.13372E+01  1.11715E+01  1.07343E+01  1.01316E+01
   9.49629E+00  8.79787E+00  7.96617E+00  7.01072E+00  6.01068E+00  4.97943E+00  3.79779E+00  2.41011E+00  9.87161E-01 -2.61333E-01
  -1.17096E+00 -1.66539E+00 -1.74983E+00 -1.46539E+00 -9.00551E-01 -2.03363E-01  4.31469E-01  7.59753E-01  7.38456E-01  4.84634E-01
   9.30158E-02 -3.92037E-01 -9.47924E-01 -1.50579E+00 -1.93465E+00 -2.23838E+00 -2.46173E+00 -2.62759E+00 -2.75090E+00 -2.84291E+00
  -2.91211E+00 -2.96463E+00 -3.00460E+00 -3.03443E+00 -3.05506E+00 -3.06630E+00 -3.06718E+00 -3.05635E+00 -3.03220E+00 -2.99297E+00
  -2.93664E+00 -2.86103E+00 -2.76402E+00 -2.64367E+00 -2.49830E+00 -2.32643E+00 -2.12687E+00 -1.89883E+00 -1.64231E+00 -1.35818E+00
  -1.04828E+00 -7.15394E-01 -3.63312E-01  3.03769E-03  3.77506E-01  7.52839E-01  1.12099E+00  1.47343E+00  1.80147E+00  2.09643E+00
   2.35000E+00  2.55471E+00  2.70440E+00  2.79460E+00  2.82263E+00  2.78767E+00  2.69075E+00  2.53483E+00  2.32465E+00  2.06654E+00
   1.76786E+00  1.43664E+00  1.08115E+00  7.09758E-01  3.30533E-01 -4.90433E-02 -4.22436E-01 -7.84227E-01 -1.13009E+00 -1.45670E+00
  -1.76167E+00 -2.04360E+00 -2.30200E+00 -2.53717E+00 -2.74989E+00 -2.94127E+00 -3.11261E+00 -3.26548E+00 -3.40161E+00 -3.52276E+00
  -3.63054E+00 -3.72640E+00 -3.81166E+00 -3.88758E+00 -3.95541E+00 -4.01623E+00 -4.07090E+00 -4.12007E+00 -4.16438E+00 -4.20447E+00
  -4.24093E+00 -4.27423E+00 -4.30466E+00 -4.33246E+00 -4.35790E+00 -4.38131E+00 -4.40298E+00 -4.42308E+00 -4.44168E+00 -4.45885E+00
  -4.47477E+00 -4.48964E+00 -4.50359E+00 -4.51665E+00 -4.52880E+00 -4.54009E+00 -4.55066E+00 -4.56065E+00 -4.57011E+00 -4.57899E+00
  -4.58727E+00 -4.59502E+00 -4.60236E+00 -4.60936E+00 -4.61602E+00 -4.62226E+00 -4.62808E+00 -4.63358E+00 -4.63886E+00 -4.64394E+00
  -4.64877E+00 -4.65329E+00 -4.65752E+00 -4.66157E+00 -4.66550E+00 -4.66930E+00 -4.67289E+00 -4.67623E+00 -4.67941E+00 -4.68250E+00
  -4.68555E+00 -4.68850E+00 -4.69127E+00 -4.69388E+00 -4.69641E+00 -4.69894E+00 -4.70146E+00 -4.70388E+00 -4.70617E+00 -4.70837E+00
  -4.71059E+00 -4.71287E+00 -4.71514E+00 -4.71735E+00 -4.71948E+00 -4.72163E+00 -4.72387E+00 -4.72620E+00
 NY background values follow
    -6.776E+00   -6.773E+00   -6.771E+00   -6.768E+00   -6.765E+00   -6.763E+00   -6.760E+00   -6.757E+00   -6.755E+00   -6.752E+00
    -6.750E+00   -6.747E+00   -6.744E+00   -6.742E+00   -6.739E+00   -6.736E+00   -6.734E+00   -6.731E+00   -6.728E+00   -6.726E+00
    -6.723E+00   -6.720E+00   -6.718E+00   -6.715E+00   -6.712E+00   -6.710E+00   -6.707E+00   -6.705E+00   -6.702E+00   -6.699E+00
    -6.697E+00   -6.694E+00   -6.691E+00   -6.689E+00   -6.686E+00   -6.683E+00   -6.681E+00   -6.678E+00   -6.675E+00   -6.672E+00
    -6.670E+00   -6.667E+00   -6.664E+00   -6.662E+00   -6.659E+00   -6.656E+00   -6.654E+00   -6.651E+00   -6.648E+00   -6.646E+00
    -6.643E+00   -6.640E+00   -6.638E+00   -6.635E+00   -6.632E+00   -6.629E+00   -6.627E+00   -6.624E+00   -6.621E+00   -6.619E+00
    -6.616E+00   -6.613E+00   -6.610E+00   -6.608E+00   -6.605E+00   -6.602E+00   -6.600E+00   -6.597E+00   -6.594E+00   -6.591E+00
    -6.589E+00   -6.586E+00   -6.583E+00   -6.581E+00   -6.578E+00   -6.575E+00   -6.572E+00   -6.570E+00   -6.567E+00   -6.564E+00
    -6.561E+00   -6.559E+00   -6.556E+00   -6.553E+00   -6.550E+00   -6.548E+00   -6.545E+00   -6.542E+00   -6.540E+00   -6.537E+00
    -6.534E+00   -6.531E+00   -6.528E+00   -6.526E+00   -6.523E+00   -6.520E+00   -6.517E+00   -6.515E+00   -6.512E+00   -6.509E+00
    -6.506E+00   -6.504E+00   -6.501E+00   -6.498E+00   -6.495E+00   -6.493E+00   -6.490E+00   -6.487E+00   -6.484E+00   -6.481E+00
    -6.479E+00   -6.476E+00   -6.473E+00   -6.470E+00   -6.468E+00   -6.465E+00   -6.462E+00   -6.459E+00   -6.456E+00   -6.454E+00
    -6.451E+00   -6.448E+00   -6.445E+00   -6.442E+00   -6.440E+00   -6.437E+00   -6.434E+00   -6.431E+00   -6.428E+00   -6.426E+00
    -6.423E+00   -6.420E+00   -6.417E+00   -6.414E+00   -6.412E+00   -6.409E+00   -6.406E+00   -6.403E+00   -6.400E+00   -6.397E+00
    -6.395E+00   -6.392E+00   -6.389E+00   -6.386E+00   -6.383E+00   -6.381E+00   -6.378E+00   -6.375E+00   -6.372E+00   -6.369E+00
    -6.366E+00   -6.364E+00   -6.361E+00   -6.358E+00   -6.355E+00   -6.352E+00   -6.349E+00   -6.346E+00   -6.344E+00   -6.341E+00
    -6.338E+00   -6.335E+00   -6.332E+00   -6.329E+00   -6.327E+00   -6.324E+00   -6.321E+00   -6.318E+00   -6.315E+00   -6.312E+00
    -6.309E+00   -6.307E+00   -6.304E+00   -6.301E+00   -6.298E+00   -6.295E+00   -6.292E+00   -6.289E+00   -6.286E+00   -6.284E+00
    -6.281E+00   -6.278E+00   -6.275E+00   -6.272E+00   -6.269E+00   -6.266E+00   -6.263E+00   -6.261E+00   -6.258E+00   -6.255E+00
    -6.252E+00   -6.249E+00   -6.246E+00   -6.243E+00   -6.240E+00   -6.237E+00   -6.235E+00   -6.232E+00   -6.229E+00   -6.226E+00
    -6.223E+00   -6.220E+00   -6.217E+00   -6.214E+00   -6.211E+00   -6.208E+00   -6.205E+00   -6.203E+00   -6.200E+00   -6.197E+00
    -6.194E+00   -6.191E+00   -6.188E+00   -6.185E+00   -6.182E+00   -6.179E+00   -6.176E+00   -6.173E+00   -6.170E+00   -6.168E+00
    -6.165E+00   -6.162E+00   -6.159E+00   -6.156E+00   -6.153E+00   -6.150E+00   -6.147E+00   -6.144E+00   -6.141E+00   -6.138E+00
    -6.135E+00   -6.132E+00   -6.129E+00   -6.126E+00   -6.123E+00   -6.121E+00   -6.118E+00   -6.115E+00   -6.112E+00   -6.109E+00
    -6.106E+00   -6.103E+00   -6.100E+00   -6.097E+00   -6.094E+00   -6.091E+00   -6.088E+00   -6.085E+00   -6.082E+00   -6.079E+00
    -6.076E+00   -6.073E+00   -6.070E+00   -6.067E+00   -6.064E+00   -6.061E+00   -6.058E+00   -6.055E+00   -6.052E+00   -6.049E+00
    -6.046E+00   -6.043E+00   -6.041E+00   -6.038E+00   -6.035E+00   -6.032E+00   -6.029E+00   -6.026E+00   -6.023E+00   -6.020E+00
    -6.017E+00   -6.014E+00   -6.011E+00   -6.008E+00   -6.005E+00   -6.002E+00   -5.999E+00   -5.996E+00   -5.993E+00   -5.990E+00
    -5.987E+00   -5.984E+00   -5.981E+00   -5.978E+00   -5.975E+00   -5.972E+00   -5.969E+00   -5.966E+00   -5.963E+00   -5.960E+00
    -5.957E+00   -5.954E+00   -5.951E+00   -5.948E+00   -5.945E+00   -5.942E+00   -5.938E+00   -5.935E+00   -5.932E+00   -5.929E+00
    -5.926E+00   -5.923E+00   -5.920E+00   -5.917E+00   -5.914E+00   -5.911E+00   -5.908E+00   -5.905E+00   -5.902E+00   -5.899E+00
    -5.896E+00   -5.893E+00   -5.890E+00   -5.887E+00   -5.884E+00   -5.881E+00   -5.878E+00   -5.875E+00   -5.872E+00   -5.869E+00
    -5.866E+00   -5.863E+00   -5.860E+00   -5.857E+00   -5.854E+00   -5.850E+00   -5.847E+00   -5.844E+00   -5.841E+00   -5.838E+00
    -5.835E+00   -5.832E+00   -5.829E+00   -5.826E+00   -5.823E+00   -5.820E+00   -5.817E+00   -5.814E+00   -5.811E+00   -5.808E+00
    -5.805E+00   -5.801E+00   -5.798E+00   -5.795E+00   -5.792E+00   -5.789E+00   -5.786E+00   -5.783E+00   -5.780E+00   -5.777E+00
    -5.774E+00   -5.771E+00   -5.768E+00   -5.765E+00   -5.762E+00   -5.758E+00   -5.755E+00   -5.752E+00   -5.749E+00   -5.746E+00
    -5.743E+00   -5.740E+00   -5.737E+00   -5.734E+00   -5.731E+00   -5.728E+00   -5.724E+00   -5.721E+00   -5.718E+00   -5.715E+00
    -5.712E+00   -5.709E+00   -5.706E+00   -5.703E+00   -5.700E+00   -5.697E+00   -5.693E+00   -5.690E+00   -5.687E+00   -5.684E+00
    -5.681E+00   -5.678E+00   -5.675E+00   -5.672E+00   -5.669E+00   -5.666E+00   -5.662E+00   -5.659E+00   -5.656E+00   -5.653E+00
    -5.650E+00   -5.647E+00   -5.644E+00   -5.641E+00   -5.637E+00   -5.634E+00   -5.631E+00   -5.628E+00   -5.625E+00   -5.622E+00
    -5.619E+00   -5.616E+00   -5.612E+00   -5.609E+00   -5.606E+00   -5.603E+00   -5.600E+00   -5.597E+00   -5.594E+00   -5.591E+00
    -5.587E+00   -5.584E+00   -5.581E+00   -5.578E+00   -5.575E+00   -5.572E+00   -5.569E+00   -5.565E+00   -5.562E+00   -5.559E+00
    -5.556E+00   -5.553E+00   -5.550E+00   -5.547E+00   -5.543E+00   -5.540E+00   -5.537E+00   -5.534E+00   -5.531E+00   -5.528E+00
    -5.525E+00   -5.521E+00   -5.518E+00   -5.515E+00   -5.512E+00   -5.509E+00   -5.506E+00   -5.502E+00   -5.499E+00   -5.496E+00
    -5.493E+00   -5.490E+00   -5.487E+00   -5.483E+00   -5.480E+00   -5.477E+00   -5.474E+00   -5.471E+00   -5.468E+00   -5.464E+00
    -5.461E+00   -5.458E+00   -5.455E+00   -5.452E+00   -5.449E+00   -5.445E+00   -5.442E+00   -5.439E+00   -5.436E+00   -5.433E+00
    -5.430E+00   -5.426E+00   -5.423E+00   -5.420E+00   -5.417E+00   -5.414E+00   -5.411E+00   -5.407E+00   -5.404E+00   -5.401E+00
    -5.398E+00   -5.395E+00   -5.391E+00   -5.388E+00   -5.385E+00   -5.382E+00   -5.379E+00   -5.375E+00   -5.372E+00   -5.369E+00
    -5.366E+00   -5.363E+00   -5.360E+00   -5.356E+00   -5.353E+00   -5.350E+00   -5.347E+00   -5.344E+00   -5.340E+00   -5.337E+00
    -5.334E+00   -5.331E+00   -5.328E+00   -5.324E+00   -5.321E+00   -5.318E+00   -5.315E+00   -5.312E+00
 Ala      Conc. = 1.47E+02
