 LCModel (Version 6.3-1L) Copyright: S.W. Provencher.          Ref.: Magn. Reson. Med. 30:672-679 (1993).                
 Slice#1 Row#2 Col#2  PD_24_press_2_raw_act
 36 lines in following concentration table = NCONC+1
    Conc.  %SD /Cr+PCr  Metabolite                                         
 1.17E+03 135%   1.277 Ala                                                 
  110.714  17%   0.121 Asp                                                 
  913.766  25%   1.000 Cr                                                  
    0.000 999%   0.000 PCr                                                 
   66.456  17% 7.3E-02 GABA                                                
   66.471  17% 7.3E-02 Glc                                                 
 2.33E+03  96%   2.547 Gln                                                 
    0.000 999%   0.000 Glu                                                 
    0.000 999%   0.000 GPC                                                 
  433.796 191%   0.475 PCh                                                 
  739.525  56%   0.809 GSH                                                 
 3.04E+03  34%   3.327 Ins                                                 
    0.000 999%   0.000 Lac                                                 
    0.000 999%   0.000 NAA                                                 
    0.000 999%   0.000 NAAG                                                
   22.171  17% 2.4E-02 Scyllo                                              
  110.828  17%   0.121 Tau                                                 
   91.319  30%   0.100 -CrCH2                                              
  433.796  19%   0.475 GPC+PCh                                             
    0.000 999%   0.000 NAA+NAAG                                            
  913.766  25%   1.000 Cr+PCr                                              
 2.33E+03  96%   2.547 Glu+Gln                                             
    0.000 999%   0.000 Lip13a                                              
    0.000 999%   0.000 Lip13b                                              
    0.000 999%   0.000 Lip09                                               
    0.000 999%   0.000 MM09                                                
    0.000 999%   0.000 Lip20                                               
    0.000 999%   0.000 MM20                                                
    0.000 999%   0.000 MM12                                                
 7.80E+03  11%   8.531+MM14                                                
 7.15E+03   9%   7.825+MM17                                                
    0.000 999%   0.000 Lip13a+Lip13b                                       
 7.80E+03  11%   8.531 MM14+Lip13a+Lip13b+MM12                             
    0.000 999%   0.000 MM09+Lip09                                          
    0.000 999%   0.000 MM20+Lip20                                          
   6 lines in following misc. output table
  FWHM = 0.183 ppm    S/N =   5                                            
  Data shift = 0.191 ppm                                                   
  Ph:  41 deg     133.5 deg/ppm                                            
  alphaB,S = 8.5E+01,   4.5E+02                                            
   11 spline knots.   Ns = 9(2)                                            
  (11) 2 infls.   ( 9) 1 extrs.                                            
  498 points on ppm-axis = NY
      4.000000     3.992357     3.984714     3.977070     3.969427     3.961784     3.954141     3.946497     3.938854     3.931211
      3.923568     3.915925     3.908281     3.900638     3.892995     3.885352     3.877708     3.870065     3.862422     3.854779
      3.847136     3.839492     3.831849     3.824206     3.816563     3.808919     3.801276     3.793633     3.785990     3.778347
      3.770703     3.763060     3.755417     3.747774     3.740130     3.732487     3.724844     3.717201     3.709558     3.701914
      3.694271     3.686628     3.678985     3.671341     3.663698     3.656055     3.648412     3.640769     3.633125     3.625482
      3.617839     3.610196     3.602552     3.594909     3.587266     3.579623     3.571980     3.564336     3.556693     3.549050
      3.541407     3.533763     3.526120     3.518477     3.510834     3.503191     3.495547     3.487904     3.480261     3.472618
      3.464974     3.457331     3.449688     3.442045     3.434402     3.426758     3.419115     3.411472     3.403829     3.396185
      3.388542     3.380899     3.373256     3.365613     3.357969     3.350326     3.342683     3.335040     3.327396     3.319753
      3.312110     3.304467     3.296824     3.289180     3.281537     3.273894     3.266251     3.258607     3.250964     3.243321
      3.235678     3.228034     3.220391     3.212748     3.205105     3.197462     3.189818     3.182175     3.174532     3.166889
      3.159245     3.151602     3.143959     3.136316     3.128673     3.121029     3.113386     3.105743     3.098100     3.090456
      3.082813     3.075170     3.067527     3.059884     3.052240     3.044597     3.036954     3.029311     3.021667     3.014024
      3.006381     2.998738     2.991095     2.983451     2.975808     2.968165     2.960522     2.952878     2.945235     2.937592
      2.929949     2.922306     2.914662     2.907019     2.899376     2.891733     2.884089     2.876446     2.868803     2.861160
      2.853517     2.845873     2.838230     2.830587     2.822944     2.815300     2.807657     2.800014     2.792371     2.784728
      2.777084     2.769441     2.761798     2.754155     2.746511     2.738868     2.731225     2.723582     2.715939     2.708295
      2.700652     2.693009     2.685366     2.677722     2.670079     2.662436     2.654793     2.647150     2.639506     2.631863
      2.624220     2.616577     2.608933     2.601290     2.593647     2.586004     2.578361     2.570717     2.563074     2.555431
      2.547788     2.540144     2.532501     2.524858     2.517215     2.509572     2.501928     2.494285     2.486642     2.478999
      2.471355     2.463712     2.456069     2.448426     2.440783     2.433139     2.425496     2.417853     2.410210     2.402566
      2.394923     2.387280     2.379637     2.371994     2.364350     2.356707     2.349064     2.341421     2.333777     2.326134
      2.318491     2.310848     2.303205     2.295561     2.287918     2.280275     2.272632     2.264988     2.257345     2.249702
      2.242059     2.234416     2.226772     2.219129     2.211486     2.203843     2.196199     2.188556     2.180913     2.173270
      2.165627     2.157983     2.150340     2.142697     2.135054     2.127410     2.119767     2.112124     2.104481     2.096838
      2.089194     2.081551     2.073908     2.066265     2.058621     2.050978     2.043335     2.035692     2.028049     2.020405
      2.012762     2.005119     1.997476     1.989833     1.982190     1.974546     1.966903     1.959260     1.951617     1.943974
      1.936331     1.928688     1.921045     1.913402     1.905759     1.898115     1.890472     1.882829     1.875186     1.867543
      1.859900     1.852257     1.844614     1.836971     1.829327     1.821684     1.814041     1.806398     1.798755     1.791112
      1.783469     1.775826     1.768183     1.760540     1.752896     1.745253     1.737610     1.729967     1.722324     1.714681
      1.707038     1.699395     1.691752     1.684108     1.676465     1.668822     1.661179     1.653536     1.645893     1.638250
      1.630607     1.622964     1.615321     1.607677     1.600034     1.592391     1.584748     1.577105     1.569462     1.561819
      1.554176     1.546533     1.538890     1.531246     1.523603     1.515960     1.508317     1.500674     1.493031     1.485388
      1.477745     1.470102     1.462458     1.454815     1.447172     1.439529     1.431886     1.424243     1.416600     1.408957
      1.401314     1.393671     1.386027     1.378384     1.370741     1.363098     1.355455     1.347812     1.340169     1.332526
      1.324883     1.317240     1.309596     1.301953     1.294310     1.286667     1.279024     1.271381     1.263738     1.256095
      1.248452     1.240808     1.233165     1.225522     1.217879     1.210236     1.202593     1.194950     1.187307     1.179664
      1.172021     1.164377     1.156734     1.149091     1.141448     1.133805     1.126162     1.118519     1.110876     1.103233
      1.095590     1.087946     1.080303     1.072660     1.065017     1.057374     1.049731     1.042088     1.034445     1.026802
      1.019158     1.011515     1.003872     0.996229     0.988586     0.980943     0.973300     0.965657     0.958014     0.950371
      0.942727     0.935084     0.927441     0.919798     0.912155     0.904512     0.896869     0.889226     0.881583     0.873940
      0.866296     0.858653     0.851010     0.843367     0.835724     0.828081     0.820438     0.812795     0.805152     0.797508
      0.789865     0.782222     0.774579     0.766936     0.759293     0.751650     0.744007     0.736364     0.728721     0.721077
      0.713434     0.705791     0.698148     0.690505     0.682862     0.675219     0.667576     0.659933     0.652290     0.644646
      0.637003     0.629360     0.621717     0.614074     0.606431     0.598788     0.591145     0.583502     0.575858     0.568215
      0.560572     0.552929     0.545286     0.537643     0.530000     0.522357     0.514714     0.507071     0.499427     0.491784
      0.484141     0.476498     0.468855     0.461212     0.453569     0.445925     0.438282     0.430639     0.422996     0.415353
      0.407710     0.400067     0.392424     0.384780     0.377137     0.369494     0.361851     0.354208     0.346565     0.338922
      0.331278     0.323635     0.315992     0.308349     0.300706     0.293063     0.285420     0.277777     0.270133     0.262490
      0.254847     0.247204     0.239561     0.231918     0.224275     0.216631     0.208988     0.201345
 NY phased data points follow
  -3.31915E+00 -7.24715E+00 -8.02502E-01 -6.13894E-01 -6.69793E+00  4.67124E+00 -2.29698E+00 -8.93635E+00 -1.81582E+00 -2.08383E+00
  -5.56909E+00  1.03022E+01 -3.77794E-01 -2.74581E+00 -2.73745E-02  3.28604E+00  3.97163E+00  7.50379E+00 -2.08062E+00 -5.31678E-01
   1.38249E+00  2.22060E+00 -4.79950E+00  3.62006E+00  3.19043E-01 -1.57519E+01 -1.05489E+00  2.21179E-01 -5.65866E+00  7.61829E-02
  -1.30817E-01 -7.29711E+00  3.91541E+00  2.74908E+00 -5.65819E-02 -2.06412E-02 -7.81659E+00  5.42133E+00 -1.24367E+00  2.08863E+00
  -4.83471E+00 -2.07773E+00  2.84810E+00 -3.97161E+00  1.40977E+00 -7.18526E-01 -2.31857E+00 -1.90688E+00  2.49082E+00 -1.24139E+01
   1.23010E+00 -1.81867E+01  1.45174E+00  1.23399E+00 -2.25620E+00  2.91751E+00  3.01311E+00 -5.61036E+00 -6.80132E+00 -9.52548E-02
  -6.03347E+00 -1.94854E+00 -2.83869E+00 -6.63186E+00 -4.20822E+00 -6.63754E-01 -4.20838E+00 -1.57048E+00 -1.73317E+00  4.76423E+00
  -1.63680E+00 -2.04797E+00  2.98602E+00  6.09994E+00  9.27424E+00 -7.59473E+00  7.40444E-01 -5.57531E+00  1.18159E+00 -8.63400E+00
  -9.99607E+00 -3.52016E+00  2.57830E+00  6.41794E+00 -1.40143E+00 -1.72997E+00  3.67955E+00 -4.12250E+00 -9.73985E-01  1.58068E+00
   9.84909E-01  2.44400E+00  5.03244E+00  6.44686E+00 -1.97045E+00  1.14488E+00 -5.45802E+00  6.85841E+00  4.60843E+00 -6.41768E+00
  -7.48988E+00 -2.63963E+00 -8.85633E+00  2.14555E+00  9.52637E-01  3.66119E+00  2.10034E+00  6.89908E+00  3.89677E+00 -4.41500E+00
  -5.72693E+00  4.27729E+00  7.27907E+00 -3.04453E+00 -4.64647E+00  4.26267E+00 -5.19729E+00  4.05206E+00  9.94473E-02 -3.14991E+00
   3.81476E+00 -5.75435E+00  9.11329E-02 -2.52168E+00  3.01548E+00  4.26054E+00 -2.84008E-01 -6.93880E+00 -2.36236E+00 -3.38954E+00
   5.42142E+00 -4.31730E+00  1.46437E+00 -4.47794E+00 -5.88661E+00 -8.51678E-01  1.57704E+00 -2.16061E+00  1.41974E+00  1.05295E+00
  -7.93386E+00 -5.85895E+00 -2.59701E+00 -3.64409E+00 -1.95997E+00  2.79530E-01 -8.47159E+00 -1.33229E+01 -7.17145E+00 -1.37190E+01
  -7.74944E+00 -4.60064E-01 -1.19033E+01  5.71930E+00  1.18569E+00 -3.06483E+00 -3.74103E+00 -2.46910E+00 -1.18657E+00 -6.74118E+00
  -6.70865E+00 -6.41141E+00 -1.81736E+01 -8.44605E+00 -7.77710E+00 -1.94523E+00 -6.82964E+00 -1.01751E+01 -1.07835E+01 -8.18832E+00
  -8.02124E+00 -8.94069E+00 -2.03058E+01 -1.51826E+01 -2.44536E+01 -1.19241E+01 -1.80003E+01 -1.44100E+01 -2.33107E+01 -2.92731E+01
  -1.60560E+01 -1.78436E+01 -1.82728E+01 -1.97911E+01 -1.96900E+01 -1.95182E+01 -2.17637E+01 -1.78533E+01 -1.82147E+01 -1.77206E+01
  -2.33929E+01 -1.54496E+01 -1.12273E+01 -1.87338E+01 -1.53055E+01 -1.81470E+01 -1.57828E+01 -1.02642E+01 -1.54657E+01 -1.99736E+01
  -1.14122E+01 -8.40795E+00 -1.38858E+01 -1.72516E+01 -4.78390E+00 -8.98049E+00 -1.25029E+01 -3.22572E+00 -2.64124E+00 -1.25994E+01
  -6.23245E+00 -1.16555E+01 -4.70463E+00 -5.12776E+00 -3.00777E+00 -1.05522E+01 -3.20570E+00 -1.08060E+01 -4.65982E+00 -3.96324E+00
  -3.93636E-01 -7.23698E+00 -5.63635E+00 -1.23492E+01 -7.48940E+00 -1.94313E+01  3.91563E-01 -1.45278E+01 -1.44219E+01 -8.65846E+00
  -9.11552E+00 -3.86937E+00 -5.98764E+00 -6.49542E+00 -6.70833E+00  6.24751E-01 -1.50130E+01 -8.12477E+00 -1.25315E-01 -7.18240E-01
  -3.56823E+00 -7.28430E+00 -2.33579E+00 -8.90143E+00 -6.66511E+00  1.58441E-01 -1.27592E+01 -3.54735E+00 -2.87083E+00 -1.07940E+01
   2.38105E-01 -2.95181E+00 -8.74125E+00 -7.73833E+00 -1.00917E+01 -5.18699E+00 -1.06395E+01 -2.08123E+01 -2.15241E+01 -1.82653E+01
  -2.19372E+01 -1.75533E+01 -1.17557E+01 -1.39203E+01 -2.45222E+01 -2.71183E+01 -1.55283E+01 -1.92732E+01 -2.36275E+01 -1.90256E+01
  -2.36006E+01 -1.47854E+01 -1.75971E+01 -1.56832E+01 -4.95841E+00 -1.07443E+01 -5.22339E+00 -6.08109E+00  1.19317E-01  7.60368E+00
   1.20147E+01  2.41922E+01  3.81789E+01  3.78996E+01  4.29301E+01  4.86318E+01  5.26639E+01  7.14815E+01  7.63896E+01  7.56699E+01
   8.55052E+01  8.28797E+01  8.13480E+01  8.27720E+01  8.41849E+01  8.71092E+01  8.10282E+01  8.36574E+01  9.06445E+01  8.37936E+01
   7.72646E+01  7.65857E+01  7.18828E+01  7.36457E+01  6.88403E+01  5.83594E+01  5.91907E+01  6.46037E+01  5.37493E+01  4.80841E+01
   4.05917E+01  4.35614E+01  3.20280E+01  2.88777E+01  3.07014E+01  2.53114E+01  2.27865E+01  2.41508E+01  1.41747E+01  1.09682E+01
   1.15549E+01  1.49647E+01  2.28473E+00  1.44238E+01 -2.75487E+00  7.69640E+00 -4.20899E+00  1.11088E+00  8.67759E+00  7.11129E+00
   4.09111E+00  8.83334E-02 -1.79355E-02  3.71430E+00 -1.08345E+01 -9.09004E+00 -5.66532E+00 -5.81536E+00 -5.59457E+00 -1.74942E+01
  -9.83347E+00 -7.12676E+00 -4.29338E+00 -1.78406E+01 -1.60895E+01 -9.02416E+00 -5.34295E+00 -6.40544E+00 -9.61832E+00 -1.32007E+01
  -1.58086E+01 -5.08905E+00 -3.69556E+00 -1.38383E+01 -1.16738E+01 -8.77044E+00 -1.57078E+01 -8.60973E+00 -1.59427E+01 -1.41981E+01
  -1.20520E+01 -7.16905E+00 -1.70320E+01 -1.36291E+01 -1.28278E+01 -6.04448E+00 -9.22247E+00 -1.26956E+01 -4.88572E+00 -1.08387E+01
  -1.47747E+01 -1.64585E+01 -1.75903E+01 -2.16701E+01 -9.50802E+00 -1.10774E+01 -1.68417E+01 -1.72439E+01 -1.98028E+01 -1.87984E+01
  -1.77885E+01 -2.28224E+01 -1.60380E+01 -1.13850E+01 -1.13846E+01 -1.97572E+01 -1.33933E+01 -1.33935E+01 -1.64053E+01 -1.71005E+01
  -1.48829E+01 -6.76302E+00 -1.21930E+01 -6.91129E+00 -1.25411E+01 -1.08464E+01 -1.51000E+01 -1.06011E+01 -1.02842E+01 -8.00989E+00
  -1.63147E+01 -1.04822E+00 -8.25793E+00 -6.57925E+00 -9.27220E+00 -9.91113E+00 -1.80766E+01 -1.00347E+01 -8.75890E+00 -1.11744E+01
  -1.91290E+01 -1.72457E+01 -1.06901E+01 -1.01979E+01 -1.00664E+01 -7.26838E+00 -1.03808E+01 -8.77056E+00 -7.47361E+00 -8.32565E+00
  -1.27381E+01 -1.15822E+01 -1.03331E+01 -1.02940E+01 -1.24947E+01 -9.94714E+00 -1.64687E+01 -8.55864E+00 -1.48675E+01 -6.84926E+00
  -8.03145E+00 -1.09699E+01 -1.19921E+01 -1.53757E+01 -1.21154E+01 -6.62485E+00 -1.36885E+01 -2.59114E+00 -1.50373E+01 -8.06797E+00
  -9.41253E+00 -1.36319E+01 -1.14970E+01 -1.80638E+01 -1.05705E+01 -3.15852E+00 -2.96242E+00 -2.03830E+00 -2.46138E+00 -1.79798E+00
  -7.81167E+00 -7.31990E+00 -1.34317E+01 -1.14751E+01 -2.33992E+00 -6.12292E+00 -1.03508E+00 -3.79319E+00 -7.92924E+00 -8.68525E+00
  -3.11987E+00 -3.14338E+00 -1.54792E+00 -2.34867E+00 -5.04127E+00 -8.54061E-01 -6.59500E+00 -4.06498E+00 -6.87404E+00 -1.18003E+00
  -4.20592E+00 -1.90242E+00 -5.08278E+00  3.04335E-01 -4.29817E+00 -8.57182E+00 -5.73688E+00 -7.52393E+00 -9.31909E-01 -3.38316E+00
  -6.55782E+00  1.12846E+00 -8.30642E+00  4.41968E+00 -1.61299E+00  4.96169E-01 -3.51604E+00  8.48326E-01 -2.82216E+00 -2.97983E+00
  -5.65528E+00 -2.19504E+00  3.82571E+00  1.17016E+01 -3.54502E+00 -6.27571E+00 -2.28774E+00  1.15329E+00
 NY points of the fit to the data follow
   9.52040E-03 -3.13284E-01  1.96319E-01 -3.83377E-01  1.20907E-01 -6.58949E-01 -1.42684E-01 -1.02567E+00 -5.64057E-01 -1.58362E+00
  -1.15187E+00 -2.17039E+00 -1.44090E+00 -2.39796E+00 -1.36035E+00 -2.06203E+00 -8.84453E-01 -1.49124E+00 -3.22245E-01 -8.58275E-01
   1.31972E-01 -3.44281E-01  3.48449E-01 -7.72130E-02  2.66999E-01 -9.17064E-02 -8.56645E-02 -3.40459E-01 -5.71383E-01 -5.04004E-01
  -6.57682E-01 -2.05190E-01 -2.85367E-01  4.61743E-01  4.21296E-01  1.06195E+00  8.96391E-01  1.35903E+00  1.05271E+00  1.33159E+00
   8.71631E-01  1.04876E+00  5.62889E-01  6.83376E-01  2.45562E-01  2.66219E-01 -1.32858E-01 -2.74388E-01 -6.33497E-01 -9.99464E-01
  -1.13621E+00 -1.58713E+00 -1.33602E+00 -1.87156E+00 -1.42029E+00 -1.98134E+00 -1.49715E+00 -2.17455E+00 -1.71040E+00 -2.47389E+00
  -2.04110E+00 -2.86385E+00 -2.49568E+00 -3.35389E+00 -3.00963E+00 -3.82998E+00 -3.45043E+00 -4.14614E+00 -3.65074E+00 -4.20221E+00
  -3.62649E+00 -4.25197E+00 -3.86570E+00 -4.66245E+00 -4.41896E+00 -5.30230E+00 -5.14366E+00 -6.02855E+00 -5.89803E+00 -6.69536E+00
  -6.60185E+00 -7.27704E+00 -7.18569E+00 -7.72361E+00 -7.42725E+00 -7.28272E+00 -7.04739E+00 -6.25570E+00 -6.26513E+00 -4.88905E+00
  -5.21742E+00 -3.34660E+00 -4.03003E+00 -1.77750E+00 -2.80826E+00 -2.74436E-01 -1.67915E+00  1.03714E+00 -7.09201E-01  2.10598E+00
   6.39770E-02  2.90221E+00  6.09188E-01  3.38237E+00  8.90505E-01  3.48277E+00  8.52593E-01  3.15399E+00  5.42906E-01  2.79210E+00
   4.04459E-01  2.38172E+00  3.26026E-01  1.88179E+00  2.40089E-01  1.30559E+00  1.49898E-01  6.38661E-01 -6.11479E-02 -1.29438E-01
  -4.08600E-01 -8.64214E-01 -6.57604E-01 -1.18520E+00 -4.46381E-01 -7.40114E-01  9.41338E-02 -4.07976E-01  4.39574E-01 -3.08860E-01
   5.13153E-01 -4.87933E-01  2.66709E-01 -9.80862E-01 -3.31736E-01 -1.79506E+00 -1.28355E+00 -2.92220E+00 -2.56353E+00 -4.30617E+00
  -4.09872E+00 -5.85473E+00 -5.77924E+00 -7.42849E+00 -7.42774E+00 -8.82617E+00 -8.82129E+00 -9.81063E+00 -9.70727E+00 -1.01611E+01
  -9.96444E+00 -1.03074E+01 -1.01499E+01 -1.03992E+01 -1.02902E+01 -1.04548E+01 -1.04070E+01 -1.05558E+01 -1.06104E+01 -1.07267E+01
  -1.08390E+01 -1.08954E+01 -1.09952E+01 -1.10020E+01 -1.10687E+01 -1.10636E+01 -1.11125E+01 -1.11188E+01 -1.11593E+01 -1.11803E+01
  -1.12144E+01 -1.12388E+01 -1.12411E+01 -1.12447E+01 -1.11981E+01 -1.11895E+01 -1.11378E+01 -1.11566E+01 -1.11376E+01 -1.12707E+01
  -1.13130E+01 -1.15301E+01 -1.15867E+01 -1.18154E+01 -1.17713E+01 -1.19473E+01 -1.17887E+01 -1.18824E+01 -1.15977E+01 -1.16597E+01
  -1.13087E+01 -1.14449E+01 -1.12346E+01 -1.15396E+01 -1.13108E+01 -1.17466E+01 -1.14215E+01 -1.19626E+01 -1.14951E+01 -1.21119E+01
  -1.14789E+01 -1.21438E+01 -1.13458E+01 -1.20388E+01 -1.10983E+01 -1.18050E+01 -1.07495E+01 -1.14620E+01 -1.03384E+01 -1.10302E+01
  -9.86521E+00 -1.05180E+01 -9.34460E+00 -9.97960E+00 -8.89264E+00 -9.53282E+00 -8.58646E+00 -9.24367E+00 -8.52539E+00 -9.16831E+00
  -8.53253E+00 -9.03624E+00 -8.36527E+00 -8.64843E+00 -7.89089E+00 -8.13327E+00 -7.43499E+00 -7.78138E+00 -7.20776E+00 -7.79593E+00
  -7.40522E+00 -8.27505E+00 -8.03423E+00 -9.07403E+00 -8.67010E+00 -9.73870E+00 -9.19615E+00 -1.02655E+01 -9.59938E+00 -1.06663E+01
  -9.90194E+00 -1.09689E+01 -1.01400E+01 -1.11820E+01 -1.03198E+01 -1.13058E+01 -1.04412E+01 -1.13428E+01 -1.05175E+01 -1.13051E+01
  -1.05550E+01 -1.12110E+01 -1.05774E+01 -1.10897E+01 -1.06004E+01 -1.09296E+01 -1.05620E+01 -1.07132E+01 -1.04713E+01 -1.04560E+01
  -1.01947E+01 -1.00490E+01 -9.79061E+00 -9.55918E+00 -9.29767E+00 -9.10380E+00 -8.84189E+00 -8.58289E+00 -8.21002E+00 -7.77327E+00
  -7.15094E+00 -6.36742E+00 -5.33209E+00 -4.00050E+00 -2.36035E+00 -3.28678E-01  2.07703E+00  4.95247E+00  8.25497E+00  1.20507E+01
   1.62994E+01  2.09981E+01  2.60935E+01  3.15307E+01  3.72075E+01  4.30278E+01  4.88553E+01  5.45707E+01  6.00262E+01  6.51045E+01
   6.96766E+01  7.36536E+01  7.69486E+01  7.95238E+01  8.13431E+01  8.24226E+01  8.27743E+01  8.24561E+01  8.15125E+01  8.00224E+01
   7.80407E+01  7.56485E+01  7.28967E+01  6.98545E+01  6.65628E+01  6.30792E+01  5.94401E+01  5.57078E+01  5.19575E+01  4.82227E+01
   4.42358E+01  4.05200E+01  3.63122E+01  3.27019E+01  2.83575E+01  2.49338E+01  2.05615E+01  1.77198E+01  1.36045E+01  1.14778E+01
   7.75817E+00  6.36703E+00  3.09726E+00  2.39063E+00 -4.34307E-01 -5.59833E-01 -2.98948E+00 -2.67066E+00 -4.77478E+00 -4.15297E+00
  -5.99152E+00 -5.19394E+00 -6.80360E+00 -5.93080E+00 -7.31895E+00 -6.44569E+00 -7.60530E+00 -6.79370E+00 -7.70746E+00 -7.00337E+00
  -7.65330E+00 -7.08579E+00 -7.46237E+00 -7.03492E+00 -7.14596E+00 -6.84716E+00 -6.74139E+00 -6.55291E+00 -6.34832E+00 -6.28315E+00
  -6.27513E+00 -6.46578E+00 -6.59344E+00 -6.93539E+00 -7.15318E+00 -7.51235E+00 -7.74056E+00 -7.88894E+00 -8.00045E+00 -8.08509E+00
  -8.15538E+00 -8.21087E+00 -8.25943E+00 -8.29810E+00 -8.33327E+00 -8.36107E+00 -8.38727E+00 -8.40758E+00 -8.42743E+00 -8.44231E+00
  -8.45747E+00 -8.46827E+00 -8.47986E+00 -8.48752E+00 -8.49633E+00 -8.50152E+00 -8.50812E+00 -8.51131E+00 -8.51613E+00 -8.51770E+00
  -8.52105E+00 -8.52130E+00 -8.52342E+00 -8.52255E+00 -8.52365E+00 -8.52184E+00 -8.52208E+00 -8.51947E+00 -8.51896E+00 -8.51566E+00
  -8.51452E+00 -8.51063E+00 -8.50894E+00 -8.50454E+00 -8.50236E+00 -8.49750E+00 -8.49491E+00 -8.48965E+00 -8.48669E+00 -8.48108E+00
  -8.47778E+00 -8.47186E+00 -8.46828E+00 -8.46208E+00 -8.45824E+00 -8.45179E+00 -8.44771E+00 -8.44104E+00 -8.43675E+00 -8.42989E+00
  -8.42540E+00 -8.41835E+00 -8.41369E+00 -8.40648E+00 -8.40167E+00 -8.39431E+00 -8.38935E+00 -8.38185E+00 -8.37677E+00 -8.36915E+00
  -8.36395E+00 -8.35621E+00 -8.35089E+00 -8.34306E+00 -8.33764E+00 -8.32971E+00 -8.32420E+00 -8.31618E+00 -8.31059E+00 -8.30248E+00
  -8.29681E+00 -8.28863E+00 -8.28288E+00 -8.27463E+00 -8.26881E+00 -8.26050E+00 -8.25462E+00 -8.24624E+00 -8.24031E+00 -8.23187E+00
  -8.22588E+00 -8.21739E+00 -8.21135E+00 -8.20281E+00 -8.19672E+00 -8.18814E+00 -8.18200E+00 -8.17338E+00 -8.16720E+00 -8.15853E+00
  -8.15231E+00 -8.14360E+00 -8.13735E+00 -8.12861E+00 -8.12232E+00 -8.11353E+00 -8.10721E+00 -8.09839E+00 -8.09203E+00 -8.08319E+00
  -8.07680E+00 -8.06792E+00 -8.06149E+00 -8.05258E+00 -8.04613E+00 -8.03719E+00 -8.03071E+00 -8.02174E+00 -8.01522E+00 -8.00622E+00
  -7.99968E+00 -7.99065E+00 -7.98407E+00 -7.97501E+00 -7.96840E+00 -7.95931E+00 -7.95267E+00 -7.94354E+00 -7.93687E+00 -7.92770E+00
  -7.92100E+00 -7.91180E+00 -7.90505E+00 -7.89580E+00 -7.88900E+00 -7.87971E+00 -7.87286E+00 -7.86350E+00 -7.85658E+00 -7.84714E+00
  -7.84013E+00 -7.83059E+00 -7.82346E+00 -7.81378E+00 -7.80648E+00 -7.79660E+00 -7.78904E+00 -7.77883E+00
 NY background values follow
    -1.208E+01   -1.207E+01   -1.206E+01   -1.205E+01   -1.204E+01   -1.203E+01   -1.203E+01   -1.202E+01   -1.201E+01   -1.200E+01
    -1.199E+01   -1.198E+01   -1.198E+01   -1.197E+01   -1.196E+01   -1.195E+01   -1.194E+01   -1.193E+01   -1.192E+01   -1.192E+01
    -1.191E+01   -1.190E+01   -1.189E+01   -1.188E+01   -1.187E+01   -1.187E+01   -1.186E+01   -1.185E+01   -1.184E+01   -1.183E+01
    -1.182E+01   -1.181E+01   -1.181E+01   -1.180E+01   -1.179E+01   -1.178E+01   -1.177E+01   -1.176E+01   -1.176E+01   -1.175E+01
    -1.174E+01   -1.173E+01   -1.172E+01   -1.171E+01   -1.170E+01   -1.170E+01   -1.169E+01   -1.168E+01   -1.167E+01   -1.166E+01
    -1.165E+01   -1.165E+01   -1.164E+01   -1.163E+01   -1.162E+01   -1.161E+01   -1.160E+01   -1.159E+01   -1.159E+01   -1.158E+01
    -1.157E+01   -1.156E+01   -1.155E+01   -1.154E+01   -1.153E+01   -1.153E+01   -1.152E+01   -1.151E+01   -1.150E+01   -1.149E+01
    -1.148E+01   -1.148E+01   -1.147E+01   -1.146E+01   -1.145E+01   -1.144E+01   -1.143E+01   -1.142E+01   -1.142E+01   -1.141E+01
    -1.140E+01   -1.139E+01   -1.138E+01   -1.137E+01   -1.137E+01   -1.136E+01   -1.135E+01   -1.134E+01   -1.133E+01   -1.132E+01
    -1.131E+01   -1.131E+01   -1.130E+01   -1.129E+01   -1.128E+01   -1.127E+01   -1.126E+01   -1.126E+01   -1.125E+01   -1.124E+01
    -1.123E+01   -1.122E+01   -1.121E+01   -1.120E+01   -1.120E+01   -1.119E+01   -1.118E+01   -1.117E+01   -1.116E+01   -1.115E+01
    -1.115E+01   -1.114E+01   -1.113E+01   -1.112E+01   -1.111E+01   -1.110E+01   -1.109E+01   -1.109E+01   -1.108E+01   -1.107E+01
    -1.106E+01   -1.105E+01   -1.104E+01   -1.104E+01   -1.103E+01   -1.102E+01   -1.101E+01   -1.100E+01   -1.099E+01   -1.098E+01
    -1.098E+01   -1.097E+01   -1.096E+01   -1.095E+01   -1.094E+01   -1.093E+01   -1.093E+01   -1.092E+01   -1.091E+01   -1.090E+01
    -1.089E+01   -1.088E+01   -1.087E+01   -1.087E+01   -1.086E+01   -1.085E+01   -1.084E+01   -1.083E+01   -1.082E+01   -1.082E+01
    -1.081E+01   -1.080E+01   -1.079E+01   -1.078E+01   -1.077E+01   -1.076E+01   -1.076E+01   -1.075E+01   -1.074E+01   -1.073E+01
    -1.072E+01   -1.071E+01   -1.070E+01   -1.070E+01   -1.069E+01   -1.068E+01   -1.067E+01   -1.066E+01   -1.065E+01   -1.065E+01
    -1.064E+01   -1.063E+01   -1.062E+01   -1.061E+01   -1.060E+01   -1.059E+01   -1.059E+01   -1.058E+01   -1.057E+01   -1.056E+01
    -1.055E+01   -1.054E+01   -1.054E+01   -1.053E+01   -1.052E+01   -1.051E+01   -1.050E+01   -1.049E+01   -1.048E+01   -1.048E+01
    -1.047E+01   -1.046E+01   -1.045E+01   -1.044E+01   -1.043E+01   -1.043E+01   -1.042E+01   -1.041E+01   -1.040E+01   -1.039E+01
    -1.038E+01   -1.037E+01   -1.037E+01   -1.036E+01   -1.035E+01   -1.034E+01   -1.033E+01   -1.032E+01   -1.032E+01   -1.031E+01
    -1.030E+01   -1.029E+01   -1.028E+01   -1.027E+01   -1.026E+01   -1.026E+01   -1.025E+01   -1.024E+01   -1.023E+01   -1.022E+01
    -1.021E+01   -1.020E+01   -1.020E+01   -1.019E+01   -1.018E+01   -1.017E+01   -1.016E+01   -1.015E+01   -1.015E+01   -1.014E+01
    -1.013E+01   -1.012E+01   -1.011E+01   -1.010E+01   -1.009E+01   -1.009E+01   -1.008E+01   -1.007E+01   -1.006E+01   -1.005E+01
    -1.004E+01   -1.004E+01   -1.003E+01   -1.002E+01   -1.001E+01   -1.000E+01   -9.993E+00   -9.984E+00   -9.976E+00   -9.967E+00
    -9.959E+00   -9.950E+00   -9.942E+00   -9.933E+00   -9.925E+00   -9.916E+00   -9.908E+00   -9.899E+00   -9.891E+00   -9.882E+00
    -9.874E+00   -9.865E+00   -9.857E+00   -9.848E+00   -9.840E+00   -9.831E+00   -9.823E+00   -9.814E+00   -9.806E+00   -9.797E+00
    -9.789E+00   -9.780E+00   -9.772E+00   -9.763E+00   -9.755E+00   -9.746E+00   -9.738E+00   -9.729E+00   -9.721E+00   -9.712E+00
    -9.704E+00   -9.696E+00   -9.687E+00   -9.679E+00   -9.670E+00   -9.662E+00   -9.653E+00   -9.645E+00   -9.636E+00   -9.628E+00
    -9.619E+00   -9.611E+00   -9.602E+00   -9.594E+00   -9.585E+00   -9.577E+00   -9.568E+00   -9.560E+00   -9.551E+00   -9.543E+00
    -9.534E+00   -9.526E+00   -9.517E+00   -9.509E+00   -9.500E+00   -9.492E+00   -9.483E+00   -9.475E+00   -9.466E+00   -9.458E+00
    -9.449E+00   -9.441E+00   -9.432E+00   -9.424E+00   -9.415E+00   -9.407E+00   -9.398E+00   -9.390E+00   -9.381E+00   -9.372E+00
    -9.364E+00   -9.355E+00   -9.347E+00   -9.338E+00   -9.330E+00   -9.321E+00   -9.313E+00   -9.304E+00   -9.296E+00   -9.287E+00
    -9.279E+00   -9.270E+00   -9.262E+00   -9.253E+00   -9.245E+00   -9.236E+00   -9.228E+00   -9.219E+00   -9.211E+00   -9.202E+00
    -9.194E+00   -9.185E+00   -9.177E+00   -9.168E+00   -9.160E+00   -9.151E+00   -9.143E+00   -9.134E+00   -9.126E+00   -9.117E+00
    -9.109E+00   -9.100E+00   -9.092E+00   -9.083E+00   -9.075E+00   -9.066E+00   -9.058E+00   -9.049E+00   -9.041E+00   -9.032E+00
    -9.023E+00   -9.015E+00   -9.006E+00   -8.998E+00   -8.989E+00   -8.981E+00   -8.972E+00   -8.964E+00   -8.955E+00   -8.947E+00
    -8.938E+00   -8.930E+00   -8.921E+00   -8.913E+00   -8.904E+00   -8.896E+00   -8.887E+00   -8.879E+00   -8.870E+00   -8.861E+00
    -8.853E+00   -8.844E+00   -8.836E+00   -8.827E+00   -8.819E+00   -8.810E+00   -8.802E+00   -8.793E+00   -8.785E+00   -8.776E+00
    -8.768E+00   -8.759E+00   -8.751E+00   -8.742E+00   -8.734E+00   -8.725E+00   -8.716E+00   -8.708E+00   -8.699E+00   -8.691E+00
    -8.682E+00   -8.674E+00   -8.665E+00   -8.657E+00   -8.648E+00   -8.640E+00   -8.631E+00   -8.623E+00   -8.614E+00   -8.605E+00
    -8.597E+00   -8.588E+00   -8.580E+00   -8.571E+00   -8.563E+00   -8.554E+00   -8.546E+00   -8.537E+00   -8.529E+00   -8.520E+00
    -8.511E+00   -8.503E+00   -8.494E+00   -8.486E+00   -8.477E+00   -8.469E+00   -8.460E+00   -8.452E+00   -8.443E+00   -8.435E+00
    -8.426E+00   -8.418E+00   -8.409E+00   -8.400E+00   -8.392E+00   -8.383E+00   -8.375E+00   -8.366E+00   -8.358E+00   -8.349E+00
    -8.341E+00   -8.332E+00   -8.323E+00   -8.315E+00   -8.306E+00   -8.298E+00   -8.289E+00   -8.281E+00   -8.272E+00   -8.264E+00
    -8.255E+00   -8.247E+00   -8.238E+00   -8.229E+00   -8.221E+00   -8.212E+00   -8.204E+00   -8.195E+00   -8.187E+00   -8.178E+00
    -8.170E+00   -8.161E+00   -8.152E+00   -8.144E+00   -8.135E+00   -8.127E+00   -8.118E+00   -8.110E+00   -8.101E+00   -8.093E+00
    -8.084E+00   -8.075E+00   -8.067E+00   -8.058E+00   -8.050E+00   -8.041E+00   -8.033E+00   -8.024E+00   -8.016E+00   -8.007E+00
    -7.999E+00   -7.990E+00   -7.981E+00   -7.973E+00   -7.964E+00   -7.956E+00   -7.947E+00   -7.939E+00   -7.930E+00   -7.922E+00
    -7.913E+00   -7.904E+00   -7.896E+00   -7.887E+00   -7.879E+00   -7.870E+00   -7.862E+00   -7.853E+00
 Ala      Conc. = 1.17E+03
