 LCModel (Version 6.3-1L) Copyright: S.W. Provencher.          Ref.: Magn. Reson. Med. 30:672-679 (1993).                
 Slice#1 Row#2 Col#11  PD_24_press_2_raw_act
 36 lines in following concentration table = NCONC+1
    Conc.  %SD /Cr+PCr  Metabolite                                         
 1.30E+03  47%   0.000 Ala                                                 
  196.368  68%   0.000 Asp                                                 
    0.000 999%   0.000 Cr                                                  
    0.000 999%   0.000 PCr                                                 
  101.467  81%   0.000 GABA                                                
  117.118  70%   0.000 Glc                                                 
 7.29E+03  16%   0.000 Gln                                                 
 9.68E+03  14%   0.000 Glu                                                 
  103.587  45%   0.000 GPC                                                 
    0.000 999%   0.000 PCh                                                 
    0.000 999%   0.000 GSH                                                 
 2.04E+03  26%   0.000 Ins                                                 
    0.000 999%   0.000 Lac                                                 
 1.35E+03  27%   0.000 NAA                                                 
 1.45E+03  27%   0.000 NAAG                                                
   60.378  42%   0.000 Scyllo                                              
  252.227  53%   0.000 Tau                                                 
    0.000 999%   0.000 -CrCH2                                              
  103.587  45%   0.000 GPC+PCh                                             
 2.80E+03   6%   0.000 NAA+NAAG                                            
    0.000 999%   0.000 Cr+PCr                                              
 1.70E+04  13%   0.000 Glu+Gln                                             
    0.000 999%   0.000 Lip13a                                              
  412.945  75%   0.000 Lip13b                                              
    0.000 999%   0.000 Lip09                                               
 3.83E+03  10%   0.000 MM09                                                
  107.717 105%   0.000 Lip20                                               
 6.04E+03   9%   0.000 MM20                                                
 1.16E+03  11%   0.000 MM12                                                
 2.65E+03  14%   0.000 MM14                                                
 1.74E+03  10%   0.000 MM17                                                
  412.945  75%   0.000 Lip13a+Lip13b                                       
 4.22E+03  13%   0.000 MM14+Lip13a+Lip13b+MM12                             
 3.83E+03  10%   0.000 MM09+Lip09                                          
 6.14E+03   9%   0.000 MM20+Lip20                                          
   6 lines in following misc. output table
  FWHM = 0.122 ppm    S/N =   6                                            
  Data shift = 0.183 ppm                                                   
  Ph: 163 deg      48.2 deg/ppm                                            
  alphaB,S = 8.5E+01,   1.4E+02                                            
   14 spline knots.   Ns = 6(2)                                            
  ( 5) 4 infls.   ( 5) 1 extrs.                                            
  498 points on ppm-axis = NY
      4.000000     3.992357     3.984714     3.977070     3.969427     3.961784     3.954141     3.946497     3.938854     3.931211
      3.923568     3.915925     3.908281     3.900638     3.892995     3.885352     3.877708     3.870065     3.862422     3.854779
      3.847136     3.839492     3.831849     3.824206     3.816563     3.808919     3.801276     3.793633     3.785990     3.778347
      3.770703     3.763060     3.755417     3.747774     3.740130     3.732487     3.724844     3.717201     3.709558     3.701914
      3.694271     3.686628     3.678985     3.671341     3.663698     3.656055     3.648412     3.640769     3.633125     3.625482
      3.617839     3.610196     3.602552     3.594909     3.587266     3.579623     3.571980     3.564336     3.556693     3.549050
      3.541407     3.533763     3.526120     3.518477     3.510834     3.503191     3.495547     3.487904     3.480261     3.472618
      3.464974     3.457331     3.449688     3.442045     3.434402     3.426758     3.419115     3.411472     3.403829     3.396185
      3.388542     3.380899     3.373256     3.365613     3.357969     3.350326     3.342683     3.335040     3.327396     3.319753
      3.312110     3.304467     3.296824     3.289180     3.281537     3.273894     3.266251     3.258607     3.250964     3.243321
      3.235678     3.228034     3.220391     3.212748     3.205105     3.197462     3.189818     3.182175     3.174532     3.166889
      3.159245     3.151602     3.143959     3.136316     3.128673     3.121029     3.113386     3.105743     3.098100     3.090456
      3.082813     3.075170     3.067527     3.059884     3.052240     3.044597     3.036954     3.029311     3.021667     3.014024
      3.006381     2.998738     2.991095     2.983451     2.975808     2.968165     2.960522     2.952878     2.945235     2.937592
      2.929949     2.922306     2.914662     2.907019     2.899376     2.891733     2.884089     2.876446     2.868803     2.861160
      2.853517     2.845873     2.838230     2.830587     2.822944     2.815300     2.807657     2.800014     2.792371     2.784728
      2.777084     2.769441     2.761798     2.754155     2.746511     2.738868     2.731225     2.723582     2.715939     2.708295
      2.700652     2.693009     2.685366     2.677722     2.670079     2.662436     2.654793     2.647150     2.639506     2.631863
      2.624220     2.616577     2.608933     2.601290     2.593647     2.586004     2.578361     2.570717     2.563074     2.555431
      2.547788     2.540144     2.532501     2.524858     2.517215     2.509572     2.501928     2.494285     2.486642     2.478999
      2.471355     2.463712     2.456069     2.448426     2.440783     2.433139     2.425496     2.417853     2.410210     2.402566
      2.394923     2.387280     2.379637     2.371994     2.364350     2.356707     2.349064     2.341421     2.333777     2.326134
      2.318491     2.310848     2.303205     2.295561     2.287918     2.280275     2.272632     2.264988     2.257345     2.249702
      2.242059     2.234416     2.226772     2.219129     2.211486     2.203843     2.196199     2.188556     2.180913     2.173270
      2.165627     2.157983     2.150340     2.142697     2.135054     2.127410     2.119767     2.112124     2.104481     2.096838
      2.089194     2.081551     2.073908     2.066265     2.058621     2.050978     2.043335     2.035692     2.028049     2.020405
      2.012762     2.005119     1.997476     1.989833     1.982190     1.974546     1.966903     1.959260     1.951617     1.943974
      1.936331     1.928688     1.921045     1.913402     1.905759     1.898115     1.890472     1.882829     1.875186     1.867543
      1.859900     1.852257     1.844614     1.836971     1.829327     1.821684     1.814041     1.806398     1.798755     1.791112
      1.783469     1.775826     1.768183     1.760540     1.752896     1.745253     1.737610     1.729967     1.722324     1.714681
      1.707038     1.699395     1.691752     1.684108     1.676465     1.668822     1.661179     1.653536     1.645893     1.638250
      1.630607     1.622964     1.615321     1.607677     1.600034     1.592391     1.584748     1.577105     1.569462     1.561819
      1.554176     1.546533     1.538890     1.531246     1.523603     1.515960     1.508317     1.500674     1.493031     1.485388
      1.477745     1.470102     1.462458     1.454815     1.447172     1.439529     1.431886     1.424243     1.416600     1.408957
      1.401314     1.393671     1.386027     1.378384     1.370741     1.363098     1.355455     1.347812     1.340169     1.332526
      1.324883     1.317240     1.309596     1.301953     1.294310     1.286667     1.279024     1.271381     1.263738     1.256095
      1.248452     1.240808     1.233165     1.225522     1.217879     1.210236     1.202593     1.194950     1.187307     1.179664
      1.172021     1.164377     1.156734     1.149091     1.141448     1.133805     1.126162     1.118519     1.110876     1.103233
      1.095590     1.087946     1.080303     1.072660     1.065017     1.057374     1.049731     1.042088     1.034445     1.026802
      1.019158     1.011515     1.003872     0.996229     0.988586     0.980943     0.973300     0.965657     0.958014     0.950371
      0.942727     0.935084     0.927441     0.919798     0.912155     0.904512     0.896869     0.889226     0.881583     0.873940
      0.866296     0.858653     0.851010     0.843367     0.835724     0.828081     0.820438     0.812795     0.805152     0.797508
      0.789865     0.782222     0.774579     0.766936     0.759293     0.751650     0.744007     0.736364     0.728721     0.721077
      0.713434     0.705791     0.698148     0.690505     0.682862     0.675219     0.667576     0.659933     0.652290     0.644646
      0.637003     0.629360     0.621717     0.614074     0.606431     0.598788     0.591145     0.583502     0.575858     0.568215
      0.560572     0.552929     0.545286     0.537643     0.530000     0.522357     0.514714     0.507071     0.499427     0.491784
      0.484141     0.476498     0.468855     0.461212     0.453569     0.445925     0.438282     0.430639     0.422996     0.415353
      0.407710     0.400067     0.392424     0.384780     0.377137     0.369494     0.361851     0.354208     0.346565     0.338922
      0.331278     0.323635     0.315992     0.308349     0.300706     0.293063     0.285420     0.277777     0.270133     0.262490
      0.254847     0.247204     0.239561     0.231918     0.224275     0.216631     0.208988     0.201345
 NY phased data points follow
   7.44302E+00  5.95441E+00  1.26855E+01  1.07100E+01  4.93083E+00  9.52708E+00  3.86291E+00  1.13715E+01  9.25272E+00  1.45302E+01
   8.45705E+00  5.05421E+00  8.71755E+00  8.97303E+00  2.24315E+01  3.16111E+00  5.06815E+00  6.41061E+00  8.69916E+00  6.98695E+00
   9.65164E+00  2.34883E+00  9.46357E+00  9.71613E+00  1.79653E+01  6.86282E+00  9.38137E+00  6.12659E+00  1.08162E+01  8.26045E+00
   1.61101E+01  1.29757E+01  1.45190E+01  1.13624E+01  1.03618E+01  1.41259E+01  5.27884E+00  9.62159E+00  6.79244E+00  7.18807E+00
   8.44691E+00  7.20816E-01  3.57141E+00  1.55701E+01  4.46351E+00  1.30113E+01  1.07937E+01  1.51732E+01  1.30647E+01 -3.32433E+00
   4.78921E+00  8.71470E+00 -1.60961E+00  9.55414E+00  6.55503E+00  8.02698E+00  5.18829E+00 -4.17568E+00  1.28522E+01  6.05937E+00
   7.62119E+00  1.50056E+01  9.30626E+00  5.56444E+00  2.26170E+00  3.08122E+00  1.26196E+01  1.02712E+01  6.16437E+00  6.45293E+00
   1.33218E+01  1.58847E+01  1.94462E+00 -7.13957E-01  9.58788E+00  9.70925E+00  8.87364E+00  1.56010E+01  3.55977E+00  1.25565E+01
   1.63403E+01  1.57685E+01  1.15366E+01 -1.12569E+00  9.18482E+00  3.39013E+00  7.29002E+00  5.83815E+00  8.98477E+00  1.14057E+01
   4.26632E+00  1.59872E+00  9.48348E+00  4.92026E+00  7.45261E+00  1.81225E+01  3.98127E+00  9.50760E+00  1.71680E+01  9.29288E+00
   1.00264E+01  7.06274E+00  1.36455E+01  1.46504E+01  1.43209E+01  8.80847E+00 -7.43935E-01  6.62358E+00  1.21996E+01  1.11056E+01
   9.00949E+00  8.52882E+00  1.50600E+01  1.25850E+01  1.45172E+01  4.37434E+00  1.26867E+01  6.89820E+00  8.79560E+00  5.96196E+00
   1.31005E+01  9.05258E+00  9.16172E+00  9.84079E+00  1.39015E+01  6.36676E+00  1.01817E+01  8.16463E+00  1.47078E+01  3.94493E+00
   1.14382E+01  1.61671E+01  7.92848E+00  7.87630E+00 -3.65506E-02  1.59112E+01  1.26602E+01  5.91598E+00  1.45751E+01  6.57932E+00
   1.73397E+01  4.35293E+00  5.58230E+00  1.38669E+01  1.25637E+01  6.89753E+00  5.06056E+00  1.36319E+01  9.05218E+00  9.70027E+00
   5.77466E+00  2.21111E+00  4.91192E+00  9.05895E+00  5.52446E+00  2.89069E+00  1.19823E+01  1.56811E+01  1.45725E+01  7.57991E+00
   9.69238E+00  9.33466E-01  7.37872E+00  1.50084E+01  9.51185E+00  8.38065E-01  1.08748E+01  4.51158E+00  6.53344E+00  8.43580E+00
   1.41609E+01  8.09897E+00  9.16998E+00 -1.56958E+00  1.06501E+01  1.34655E+01  1.86751E+01  7.30369E+00  1.70801E+01  1.29604E+01
   1.51482E+01  8.20214E+00  2.11149E+01  1.63107E+01  5.05999E+00  1.12037E+01  1.19436E+01  1.08303E+01  1.60220E+01  1.38062E+01
   9.43870E+00  1.58297E+01  1.38166E+01  1.47152E+01  1.17667E+01  6.95035E+00  1.78979E+01  6.41895E+00  7.32625E+00  1.06844E+01
   1.99378E+01  6.69205E+00  1.41849E+01  1.06985E+01  1.09850E+01  1.18781E+01  2.13366E+01  4.68086E+00  1.55036E+01  1.38666E+01
   1.19885E+01  1.51667E+01  1.52284E+01  1.48014E+01  1.72373E+01  8.52322E+00  1.42230E+01  1.83548E+01  1.94282E+01  1.51382E+01
   1.37829E+01  1.64871E+01  1.48618E+01  2.30590E+01  1.65747E+01  2.37705E+01  1.82165E+01  2.46100E+01  1.81353E+01  2.23084E+01
   2.79555E+01  2.85175E+01  2.74120E+01  2.56027E+01  3.56993E+01  3.38330E+01  3.31521E+01  3.67508E+01  3.31129E+01  2.99869E+01
   2.12136E+01  3.23303E+01  2.99276E+01  3.40571E+01  3.82286E+01  4.33716E+01  3.37673E+01  3.78171E+01  4.75005E+01  3.85791E+01
   4.46922E+01  4.44544E+01  4.20994E+01  5.22842E+01  5.70496E+01  5.35668E+01  5.61894E+01  5.89230E+01  6.24506E+01  6.27661E+01
   6.34478E+01  5.44916E+01  5.34702E+01  5.61677E+01  5.00760E+01  5.27243E+01  3.85126E+01  2.90691E+01  3.73320E+01  3.19664E+01
   3.63819E+01  2.57418E+01  2.31431E+01  2.65983E+01  2.25810E+01  1.83650E+01  1.41977E+01  1.59322E+01  1.89811E+01  1.00028E+01
   2.18845E+01  1.84233E+01  1.48974E+01  1.51713E+01  1.91083E+01  1.56634E+01  9.99858E+00  2.20620E+01  1.28815E+01  1.30242E+01
   1.02854E+01  1.05491E+01  2.70609E+00  8.29455E-01  2.04764E+00  2.71173E-01 -6.92369E+00  2.47059E+00 -7.65294E+00  5.06284E+00
  -2.40146E+00 -3.47489E+00 -6.58311E+00 -1.14702E+01 -5.42674E+00 -2.71809E+00 -3.39572E+00 -1.38577E+00 -5.47256E+00 -1.06137E+01
   2.47472E+00 -5.49652E+00 -8.48219E+00 -9.14183E+00 -8.32907E+00  3.10566E-01 -3.31421E+00 -8.73572E+00 -4.72882E+00  1.59432E+00
   5.25008E-01 -5.78196E+00 -5.32798E+00  4.49313E-01 -8.63275E-01 -1.06735E+00 -2.35941E+00  8.19454E-01 -2.51260E+00 -8.18791E+00
  -2.93484E+00 -7.09336E+00 -2.25688E+00 -6.37527E+00 -9.01590E+00 -1.32520E+01 -4.22346E+00 -6.32589E+00 -1.42754E+01 -4.92570E+00
  -5.28644E+00 -7.58315E+00 -2.07776E+00  4.44855E+00  7.07967E+00  1.26984E+00  5.97890E+00 -3.80766E+00 -6.85628E+00 -7.22239E-01
   2.30857E+00  4.46475E+00  1.47611E+00 -6.72234E+00 -1.45369E+00  3.14709E+00 -3.93455E+00 -1.66096E+00  7.51689E+00 -5.17856E+00
  -2.11620E+00  5.46634E+00 -8.25430E-01  4.64247E+00  5.14442E+00  2.43117E+00 -5.48594E+00 -4.13521E+00  2.31825E+00  1.23676E-02
   1.55336E+00 -4.67622E+00  3.01590E+00  9.29133E+00 -7.13880E+00  3.30738E+00 -3.21888E+00  1.84276E+00 -1.02624E+01  8.51669E+00
   4.61841E-01  2.65890E+00 -8.83907E+00 -1.24920E+00 -2.91670E+00  1.34698E+00  3.39916E-02 -3.65344E-02  2.63936E+00 -5.01923E+00
  -1.29123E-01 -1.99935E+00  3.76888E+00 -4.75666E+00  8.40443E+00  1.56699E+00 -5.47004E+00 -1.49101E+00 -4.20693E-01 -4.77613E+00
  -4.70244E+00 -3.84517E+00  2.42911E+00 -4.21639E+00  6.65491E+00 -1.17800E+01 -5.28797E+00 -4.89089E+00  2.53166E-01 -1.38577E+00
  -5.50872E+00 -9.75897E+00 -3.09534E+00 -3.56936E+00 -6.81645E+00 -1.45427E+01 -1.18216E+01 -3.08769E+00 -1.02771E+01 -9.58937E+00
  -1.08690E+01 -2.85738E-01 -2.61887E+00 -8.67597E+00 -8.19754E+00 -1.33120E+01 -5.96819E+00 -1.10947E+01 -3.36689E+00 -5.13200E+00
  -9.94205E+00 -9.15322E+00 -9.94247E+00 -1.46061E+01  1.46567E-01 -1.06046E+01 -9.57047E+00 -8.99572E+00 -8.02821E+00 -6.77857E+00
  -1.26684E+01 -8.05096E+00 -3.54309E+00 -1.32813E+01 -2.22841E+00 -1.05376E+01 -7.29851E+00 -1.03885E+01 -3.26770E+00 -4.76844E+00
  -5.92404E+00 -2.82373E+00 -3.56319E+00 -2.78137E+00 -1.39950E+01 -6.05621E+00 -7.90175E+00 -7.40655E+00 -3.00528E+00 -9.07721E+00
  -2.63273E+00 -5.65057E+00 -1.12651E+01 -8.44847E+00 -1.39838E+01 -7.20398E-01 -8.77464E+00 -1.37052E+01 -2.40671E+00 -1.79259E+01
  -9.52851E+00 -5.84021E+00 -1.12110E+01 -3.06242E+00 -6.11934E+00 -4.47355E+00 -3.61341E+00 -4.25308E+00 -6.55194E+00 -5.56588E+00
   6.30049E+00 -7.65307E+00 -4.15379E+00 -8.82184E+00 -2.38250E+00 -3.76566E+00 -9.08432E+00 -1.16257E+01 -7.49874E+00 -6.01575E+00
  -5.43790E+00  5.04792E-01 -7.20935E+00 -3.46308E+00 -4.64258E+00 -8.41975E+00 -3.85275E+00 -6.49197E+00
 NY points of the fit to the data follow
   1.98664E+00  2.05686E+00  2.18701E+00  2.49921E+00  2.95064E+00  3.51855E+00  4.24231E+00  4.97766E+00  6.04504E+00  6.81046E+00
   7.78712E+00  8.65457E+00  9.45586E+00  9.79488E+00  9.30610E+00  9.33308E+00  9.11125E+00  9.44430E+00  9.91251E+00  1.10919E+01
   1.22008E+01  1.23601E+01  1.24204E+01  1.15050E+01  1.11404E+01  9.70914E+00  1.02984E+01  9.57574E+00  1.05581E+01  1.00317E+01
   1.09433E+01  1.02826E+01  1.06124E+01  9.95841E+00  9.71151E+00  9.75206E+00  8.86925E+00  9.63183E+00  8.11440E+00  9.78832E+00
   7.63880E+00  9.42512E+00  5.44059E+00  7.00497E+00  3.73743E+00  5.86360E+00  4.10443E+00  7.18387E+00  6.73655E+00  8.11038E+00
   6.44262E+00  6.07611E+00  4.37941E+00  3.33591E+00  2.92641E+00  2.95724E+00  2.98722E+00  3.26117E+00  3.50407E+00  3.93540E+00
   4.37762E+00  4.92873E+00  5.66213E+00  6.40306E+00  6.96438E+00  7.22455E+00  7.44989E+00  7.53705E+00  7.66007E+00  7.72489E+00
   7.83202E+00  7.88098E+00  8.01511E+00  8.07387E+00  8.20942E+00  8.18807E+00  8.29965E+00  8.12881E+00  8.23913E+00  7.89584E+00
   8.09649E+00  7.66089E+00  8.06098E+00  7.60262E+00  8.22359E+00  7.72835E+00  8.51624E+00  8.07745E+00  9.11360E+00  8.78675E+00
   1.01513E+01  9.84634E+00  1.10622E+01  1.08232E+01  1.18445E+01  1.17280E+01  1.25007E+01  1.25619E+01  1.30623E+01  1.33060E+01
   1.34747E+01  1.38769E+01  1.36014E+01  1.38493E+01  1.31904E+01  1.34587E+01  1.26677E+01  1.29994E+01  1.21869E+01  1.25603E+01
   1.18645E+01  1.22347E+01  1.17360E+01  1.20398E+01  1.17334E+01  1.19930E+01  1.19385E+01  1.22707E+01  1.26421E+01  1.28516E+01
   1.30622E+01  1.31935E+01  1.33093E+01  1.33843E+01  1.34366E+01  1.34316E+01  1.34347E+01  1.33612E+01  1.33149E+01  1.31689E+01
   1.30654E+01  1.28670E+01  1.27199E+01  1.24892E+01  1.23081E+01  1.20427E+01  1.18377E+01  1.15725E+01  1.13567E+01  1.10982E+01
   1.08851E+01  1.06325E+01  1.04120E+01  1.02185E+01  1.00174E+01  9.88249E+00  9.71100E+00  9.57370E+00  9.34979E+00  9.19803E+00
   8.95963E+00  8.85320E+00  8.63160E+00  8.58593E+00  8.34800E+00  8.33839E+00  8.07216E+00  8.06265E+00  7.77657E+00  7.86792E+00
   7.58171E+00  7.75073E+00  7.43213E+00  7.60196E+00  7.26873E+00  7.49139E+00  7.22847E+00  7.46242E+00  7.24031E+00  7.41173E+00
   7.22272E+00  7.48365E+00  7.47831E+00  7.76908E+00  7.91879E+00  8.14165E+00  8.41378E+00  8.57404E+00  8.99062E+00  9.17743E+00
   9.70661E+00  9.81968E+00  1.01820E+01  1.01454E+01  1.02935E+01  1.00205E+01  1.02405E+01  1.00164E+01  1.04507E+01  1.05417E+01
   1.15386E+01  1.17114E+01  1.29286E+01  1.32571E+01  1.44360E+01  1.41562E+01  1.51138E+01  1.33212E+01  1.35635E+01  1.15546E+01
   1.33598E+01  1.14993E+01  1.46737E+01  1.35473E+01  1.67772E+01  1.43716E+01  1.72207E+01  1.34255E+01  1.57732E+01  1.03967E+01
   1.26959E+01  8.08766E+00  1.17351E+01  7.68536E+00  1.22226E+01  8.56759E+00  1.33747E+01  1.00819E+01  1.49093E+01  1.19630E+01
   1.64180E+01  1.44388E+01  1.86047E+01  1.67325E+01  1.94183E+01  1.67129E+01  1.80534E+01  1.60367E+01  1.90989E+01  1.90878E+01
   2.29856E+01  2.48774E+01  2.84573E+01  2.92364E+01  3.13602E+01  3.07644E+01  3.13004E+01  2.85039E+01  2.75660E+01  2.56635E+01
   2.61667E+01  2.50868E+01  2.67797E+01  2.73755E+01  3.03061E+01  3.04886E+01  3.37169E+01  3.36539E+01  3.86140E+01  3.94834E+01
   4.48186E+01  4.59403E+01  5.05821E+01  5.12061E+01  5.63754E+01  5.64036E+01  6.10958E+01  6.07615E+01  6.37666E+01  6.19359E+01
   6.28469E+01  6.00550E+01  5.81901E+01  5.47152E+01  5.08415E+01  4.65550E+01  4.09992E+01  3.68349E+01  3.13286E+01  2.81906E+01
   2.35128E+01  2.23715E+01  1.97521E+01  1.79698E+01  1.63382E+01  1.47300E+01  1.52313E+01  1.52596E+01  1.56232E+01  1.60191E+01
   1.59682E+01  1.60478E+01  1.57018E+01  1.54195E+01  1.46401E+01  1.39108E+01  1.27200E+01  1.15582E+01  1.01756E+01  8.92355E+00
   7.57583E+00  6.29246E+00  5.00630E+00  3.74373E+00  2.59861E+00  1.42451E+00  4.14584E-01 -5.93848E-01 -1.39637E+00 -2.18215E+00
  -2.77638E+00 -3.36095E+00 -3.76944E+00 -4.18694E+00 -4.46704E+00 -4.74569E+00 -4.93189E+00 -5.09472E+00 -5.17584E+00 -5.22719E+00
  -5.21296E+00 -5.14912E+00 -5.01352E+00 -4.76855E+00 -4.32886E+00 -3.55263E+00 -3.29539E+00 -2.68029E+00 -2.61184E+00 -2.15358E+00
  -2.30705E+00 -2.13488E+00 -2.68569E+00 -2.34332E+00 -2.58702E+00 -2.37361E+00 -2.53274E+00 -2.75024E+00 -2.81977E+00 -3.54555E+00
  -3.39572E+00 -4.49999E+00 -3.92674E+00 -5.21014E+00 -3.97666E+00 -5.26602E+00 -3.45460E+00 -4.73254E+00 -2.59354E+00 -3.81430E+00
  -1.54458E+00 -2.50675E+00 -2.26050E-01 -4.20672E-01  1.21555E+00  7.31525E-01  1.67556E+00  1.05739E+00  1.30127E+00  6.18650E-01
   1.50007E-01  1.81782E-02  7.74737E-02  2.49806E-01  4.78394E-01  7.14117E-01  9.14215E-01  1.04450E+00  1.08213E+00  1.01729E+00
   8.53049E-01  6.03378E-01  2.89614E-01 -6.36825E-02 -4.32616E-01 -7.96952E-01 -1.14170E+00 -1.45746E+00 -1.73969E+00 -1.98741E+00
  -2.20168E+00 -2.38420E+00 -2.53636E+00 -2.65854E+00 -2.75005E+00 -2.80918E+00 -2.83354E+00 -2.82045E+00 -2.76731E+00 -2.67201E+00
  -2.53318E+00 -2.35054E+00 -2.12498E+00 -1.85865E+00 -1.55498E+00 -1.21861E+00 -8.55287E-01 -4.71753E-01 -7.55453E-02  3.25271E-01
   7.22316E-01  1.10716E+00  1.47154E+00  1.80763E+00  2.10823E+00  2.36704E+00  2.57878E+00  2.73929E+00  2.84565E+00  2.89618E+00
   2.89043E+00  2.82917E+00  2.71425E+00  2.54853E+00  2.33563E+00  2.07983E+00  1.78593E+00  1.45905E+00  1.10442E+00  7.27320E-01
   3.32844E-01 -7.41396E-02 -4.89075E-01 -9.07789E-01 -1.32656E+00 -1.74213E+00 -2.15172E+00 -2.55296E+00 -2.94394E+00 -3.32311E+00
  -3.68932E+00 -4.04172E+00 -4.37976E+00 -4.70311E+00 -5.01163E+00 -5.30535E+00 -5.58444E+00 -5.84920E+00 -6.09997E+00 -6.33716E+00
  -6.56118E+00 -6.77254E+00 -6.97169E+00 -7.15918E+00 -7.33542E+00 -7.50094E+00 -7.65613E+00 -7.80150E+00 -7.93743E+00 -8.06439E+00
  -8.18268E+00 -8.29274E+00 -8.39483E+00 -8.48935E+00 -8.57656E+00 -8.65679E+00 -8.73026E+00 -8.79726E+00 -8.85801E+00 -8.91277E+00
  -8.96172E+00 -9.00508E+00 -9.04303E+00 -9.07574E+00 -9.10339E+00 -9.12615E+00 -9.14416E+00 -9.15756E+00 -9.16648E+00 -9.17106E+00
  -9.17142E+00 -9.16768E+00 -9.15996E+00 -9.14833E+00 -9.13293E+00 -9.11382E+00 -9.09115E+00 -9.06497E+00 -9.03538E+00 -9.00246E+00
  -8.96632E+00 -8.92702E+00 -8.88467E+00 -8.83933E+00 -8.79109E+00 -8.74001E+00 -8.68621E+00 -8.62977E+00 -8.57076E+00 -8.50930E+00
  -8.44545E+00 -8.37933E+00 -8.31103E+00 -8.24067E+00 -8.16835E+00 -8.09421E+00 -8.01836E+00 -7.94096E+00 -7.86217E+00 -7.78217E+00
  -7.70113E+00 -7.61928E+00 -7.53686E+00 -7.45414E+00 -7.37146E+00 -7.28917E+00 -7.20769E+00 -7.12752E+00
 NY background values follow
    -5.969E+00   -5.753E+00   -5.538E+00   -5.324E+00   -5.112E+00   -4.902E+00   -4.693E+00   -4.485E+00   -4.280E+00   -4.075E+00
    -3.873E+00   -3.672E+00   -3.473E+00   -3.275E+00   -3.079E+00   -2.884E+00   -2.691E+00   -2.500E+00   -2.311E+00   -2.123E+00
    -1.937E+00   -1.752E+00   -1.570E+00   -1.388E+00   -1.209E+00   -1.031E+00   -8.555E-01   -6.813E-01   -5.088E-01   -3.380E-01
    -1.690E-01   -1.812E-03    1.637E-01    3.274E-01    4.893E-01    6.495E-01    8.079E-01    9.645E-01    1.119E+00    1.272E+00
     1.423E+00    1.573E+00    1.720E+00    1.866E+00    2.010E+00    2.152E+00    2.293E+00    2.431E+00    2.568E+00    2.702E+00
     2.835E+00    2.966E+00    3.096E+00    3.223E+00    3.348E+00    3.472E+00    3.594E+00    3.714E+00    3.832E+00    3.948E+00
     4.062E+00    4.174E+00    4.285E+00    4.394E+00    4.500E+00    4.605E+00    4.708E+00    4.809E+00    4.908E+00    5.006E+00
     5.101E+00    5.195E+00    5.286E+00    5.376E+00    5.464E+00    5.549E+00    5.633E+00    5.716E+00    5.796E+00    5.874E+00
     5.950E+00    6.025E+00    6.098E+00    6.168E+00    6.237E+00    6.304E+00    6.369E+00    6.432E+00    6.493E+00    6.553E+00
     6.610E+00    6.666E+00    6.719E+00    6.771E+00    6.821E+00    6.869E+00    6.915E+00    6.959E+00    7.002E+00    7.042E+00
     7.081E+00    7.118E+00    7.152E+00    7.185E+00    7.217E+00    7.246E+00    7.273E+00    7.299E+00    7.323E+00    7.345E+00
     7.365E+00    7.383E+00    7.400E+00    7.414E+00    7.427E+00    7.438E+00    7.447E+00    7.455E+00    7.460E+00    7.464E+00
     7.466E+00    7.466E+00    7.465E+00    7.461E+00    7.456E+00    7.449E+00    7.441E+00    7.431E+00    7.418E+00    7.405E+00
     7.389E+00    7.372E+00    7.353E+00    7.332E+00    7.310E+00    7.285E+00    7.260E+00    7.232E+00    7.203E+00    7.172E+00
     7.140E+00    7.106E+00    7.070E+00    7.032E+00    6.993E+00    6.953E+00    6.910E+00    6.866E+00    6.821E+00    6.774E+00
     6.725E+00    6.675E+00    6.623E+00    6.570E+00    6.515E+00    6.459E+00    6.401E+00    6.341E+00    6.280E+00    6.218E+00
     6.154E+00    6.088E+00    6.021E+00    5.953E+00    5.883E+00    5.812E+00    5.739E+00    5.665E+00    5.590E+00    5.513E+00
     5.435E+00    5.355E+00    5.274E+00    5.192E+00    5.108E+00    5.023E+00    4.937E+00    4.849E+00    4.760E+00    4.670E+00
     4.578E+00    4.486E+00    4.392E+00    4.296E+00    4.200E+00    4.102E+00    4.003E+00    3.903E+00    3.802E+00    3.700E+00
     3.596E+00    3.491E+00    3.385E+00    3.278E+00    3.170E+00    3.061E+00    2.951E+00    2.840E+00    2.727E+00    2.614E+00
     2.499E+00    2.384E+00    2.268E+00    2.150E+00    2.032E+00    1.912E+00    1.792E+00    1.671E+00    1.549E+00    1.426E+00
     1.302E+00    1.177E+00    1.051E+00    9.246E-01    7.972E-01    6.690E-01    5.400E-01    4.102E-01    2.796E-01    1.483E-01
     1.622E-02   -1.166E-01   -2.502E-01   -3.844E-01   -5.193E-01   -6.550E-01   -7.912E-01   -9.282E-01   -1.066E+00   -1.204E+00
    -1.343E+00   -1.482E+00   -1.622E+00   -1.763E+00   -1.904E+00   -2.045E+00   -2.187E+00   -2.330E+00   -2.473E+00   -2.616E+00
    -2.760E+00   -2.905E+00   -3.050E+00   -3.195E+00   -3.341E+00   -3.487E+00   -3.633E+00   -3.780E+00   -3.927E+00   -4.074E+00
    -4.222E+00   -4.370E+00   -4.518E+00   -4.666E+00   -4.815E+00   -4.964E+00   -5.113E+00   -5.262E+00   -5.412E+00   -5.562E+00
    -5.711E+00   -5.861E+00   -6.011E+00   -6.161E+00   -6.311E+00   -6.462E+00   -6.612E+00   -6.762E+00   -6.913E+00   -7.063E+00
    -7.213E+00   -7.363E+00   -7.514E+00   -7.664E+00   -7.814E+00   -7.964E+00   -8.114E+00   -8.263E+00   -8.413E+00   -8.562E+00
    -8.711E+00   -8.860E+00   -9.009E+00   -9.158E+00   -9.306E+00   -9.454E+00   -9.602E+00   -9.750E+00   -9.897E+00   -1.004E+01
    -1.019E+01   -1.034E+01   -1.048E+01   -1.063E+01   -1.077E+01   -1.092E+01   -1.106E+01   -1.121E+01   -1.135E+01   -1.149E+01
    -1.163E+01   -1.178E+01   -1.192E+01   -1.206E+01   -1.220E+01   -1.234E+01   -1.248E+01   -1.261E+01   -1.275E+01   -1.289E+01
    -1.303E+01   -1.316E+01   -1.330E+01   -1.343E+01   -1.356E+01   -1.370E+01   -1.383E+01   -1.396E+01   -1.409E+01   -1.422E+01
    -1.435E+01   -1.448E+01   -1.461E+01   -1.473E+01   -1.486E+01   -1.498E+01   -1.511E+01   -1.523E+01   -1.535E+01   -1.547E+01
    -1.559E+01   -1.571E+01   -1.583E+01   -1.595E+01   -1.606E+01   -1.618E+01   -1.629E+01   -1.641E+01   -1.652E+01   -1.663E+01
    -1.674E+01   -1.685E+01   -1.695E+01   -1.706E+01   -1.717E+01   -1.727E+01   -1.737E+01   -1.747E+01   -1.757E+01   -1.767E+01
    -1.777E+01   -1.787E+01   -1.796E+01   -1.806E+01   -1.815E+01   -1.824E+01   -1.833E+01   -1.842E+01   -1.851E+01   -1.859E+01
    -1.868E+01   -1.876E+01   -1.884E+01   -1.893E+01   -1.900E+01   -1.908E+01   -1.916E+01   -1.923E+01   -1.931E+01   -1.938E+01
    -1.945E+01   -1.952E+01   -1.959E+01   -1.965E+01   -1.972E+01   -1.978E+01   -1.984E+01   -1.990E+01   -1.996E+01   -2.001E+01
    -2.007E+01   -2.012E+01   -2.017E+01   -2.022E+01   -2.027E+01   -2.032E+01   -2.036E+01   -2.040E+01   -2.045E+01   -2.049E+01
    -2.052E+01   -2.056E+01   -2.059E+01   -2.063E+01   -2.066E+01   -2.069E+01   -2.071E+01   -2.074E+01   -2.076E+01   -2.079E+01
    -2.081E+01   -2.082E+01   -2.084E+01   -2.086E+01   -2.087E+01   -2.088E+01   -2.089E+01   -2.090E+01   -2.090E+01   -2.091E+01
    -2.091E+01   -2.091E+01   -2.090E+01   -2.090E+01   -2.089E+01   -2.089E+01   -2.088E+01   -2.086E+01   -2.085E+01   -2.083E+01
    -2.082E+01   -2.080E+01   -2.077E+01   -2.075E+01   -2.072E+01   -2.070E+01   -2.067E+01   -2.063E+01   -2.060E+01   -2.056E+01
    -2.053E+01   -2.049E+01   -2.044E+01   -2.040E+01   -2.035E+01   -2.030E+01   -2.025E+01   -2.020E+01   -2.015E+01   -2.009E+01
    -2.003E+01   -1.997E+01   -1.991E+01   -1.984E+01   -1.977E+01   -1.970E+01   -1.963E+01   -1.956E+01   -1.948E+01   -1.941E+01
    -1.933E+01   -1.924E+01   -1.916E+01   -1.907E+01   -1.898E+01   -1.889E+01   -1.880E+01   -1.870E+01   -1.861E+01   -1.851E+01
    -1.841E+01   -1.830E+01   -1.820E+01   -1.809E+01   -1.798E+01   -1.787E+01   -1.775E+01   -1.763E+01   -1.752E+01   -1.739E+01
    -1.727E+01   -1.715E+01   -1.702E+01   -1.689E+01   -1.676E+01   -1.662E+01   -1.648E+01   -1.635E+01   -1.621E+01   -1.606E+01
    -1.592E+01   -1.577E+01   -1.562E+01   -1.547E+01   -1.532E+01   -1.516E+01   -1.500E+01   -1.484E+01   -1.468E+01   -1.451E+01
    -1.435E+01   -1.418E+01   -1.401E+01   -1.383E+01   -1.366E+01   -1.348E+01   -1.330E+01   -1.312E+01
 Ala      Conc. = 1.30E+03
