 LCModel (Version 6.3-1L) Copyright: S.W. Provencher.          Ref.: Magn. Reson. Med. 30:672-679 (1993).                
 Slice#2 Row#8 Col#1  PD_24_press_2_raw_act
 36 lines in following concentration table = NCONC+1
    Conc.  %SD /Cr+PCr  Metabolite                                         
    0.000 999%   0.000 Ala                                                 
  241.148  81%   0.000 Asp                                                 
    0.000 999%   0.000 Cr                                                  
    0.000 999%   0.000 PCr                                                 
   43.862 272%   0.000 GABA                                                
   85.926 139%   0.000 Glc                                                 
    0.000 999%   0.000 Gln                                                 
    0.000 999%   0.000 Glu                                                 
    0.000 999%   0.000 GPC                                                 
  198.364  33%   0.000 PCh                                                 
  481.156  66%   0.000 GSH                                                 
 5.52E+03  16%   0.000 Ins                                                 
    0.000 999%   0.000 Lac                                                 
    0.000 999%   0.000 NAA                                                 
 1.37E+03  16%   0.000 NAAG                                                
   65.095  56%   0.000 Scyllo                                              
  281.342  69%   0.000 Tau                                                 
   54.355 100%   0.000 -CrCH2                                              
  198.364  33%   0.000 GPC+PCh                                             
 1.37E+03  16%   0.000 NAA+NAAG                                            
    0.000 999%   0.000 Cr+PCr                                              
    0.000 999%   0.000 Glu+Gln                                             
    0.000 999%   0.000 Lip13a                                              
 3.41E+03  57%   0.000 Lip13b                                              
 1.99E+03  53%   0.000 Lip09                                               
 2.16E+03  34%   0.000 MM09                                                
 8.89E+03   5%   0.000+Lip20                                               
    0.000 999%   0.000 MM20                                                
 5.12E+03  28%   0.000 MM12                                                
 6.17E+03  31%   0.000 MM14                                                
 3.78E+03  15%   0.000 MM17                                                
 3.41E+03  57%   0.000 Lip13a+Lip13b                                       
 1.47E+04  11%   0.000 MM14+Lip13a+Lip13b+MM12                             
 4.14E+03  23%   0.000 MM09+Lip09                                          
 8.89E+03   5%   0.000 MM20+Lip20                                          
   6 lines in following misc. output table
  FWHM = 0.138 ppm    S/N =   4                                            
  Data shift = 0.260 ppm                                                   
  Ph: -45 deg      79.6 deg/ppm                                            
  alphaB,S = 8.6E+00,   9.9E+01                                            
    6 spline knots.   Ns = 9(2)                                            
  (12) 3 infls.   (11) 3 extrs.                                            
  498 points on ppm-axis = NY
      4.000000     3.992357     3.984714     3.977070     3.969427     3.961784     3.954141     3.946497     3.938854     3.931211
      3.923568     3.915925     3.908281     3.900638     3.892995     3.885352     3.877708     3.870065     3.862422     3.854779
      3.847136     3.839492     3.831849     3.824206     3.816563     3.808919     3.801276     3.793633     3.785990     3.778347
      3.770703     3.763060     3.755417     3.747774     3.740130     3.732487     3.724844     3.717201     3.709558     3.701914
      3.694271     3.686628     3.678985     3.671341     3.663698     3.656055     3.648412     3.640769     3.633125     3.625482
      3.617839     3.610196     3.602552     3.594909     3.587266     3.579623     3.571980     3.564336     3.556693     3.549050
      3.541407     3.533763     3.526120     3.518477     3.510834     3.503191     3.495547     3.487904     3.480261     3.472618
      3.464974     3.457331     3.449688     3.442045     3.434402     3.426758     3.419115     3.411472     3.403829     3.396185
      3.388542     3.380899     3.373256     3.365613     3.357969     3.350326     3.342683     3.335040     3.327396     3.319753
      3.312110     3.304467     3.296824     3.289180     3.281537     3.273894     3.266251     3.258607     3.250964     3.243321
      3.235678     3.228034     3.220391     3.212748     3.205105     3.197462     3.189818     3.182175     3.174532     3.166889
      3.159245     3.151602     3.143959     3.136316     3.128673     3.121029     3.113386     3.105743     3.098100     3.090456
      3.082813     3.075170     3.067527     3.059884     3.052240     3.044597     3.036954     3.029311     3.021667     3.014024
      3.006381     2.998738     2.991095     2.983451     2.975808     2.968165     2.960522     2.952878     2.945235     2.937592
      2.929949     2.922306     2.914662     2.907019     2.899376     2.891733     2.884089     2.876446     2.868803     2.861160
      2.853517     2.845873     2.838230     2.830587     2.822944     2.815300     2.807657     2.800014     2.792371     2.784728
      2.777084     2.769441     2.761798     2.754155     2.746511     2.738868     2.731225     2.723582     2.715939     2.708295
      2.700652     2.693009     2.685366     2.677722     2.670079     2.662436     2.654793     2.647150     2.639506     2.631863
      2.624220     2.616577     2.608933     2.601290     2.593647     2.586004     2.578361     2.570717     2.563074     2.555431
      2.547788     2.540144     2.532501     2.524858     2.517215     2.509572     2.501928     2.494285     2.486642     2.478999
      2.471355     2.463712     2.456069     2.448426     2.440783     2.433139     2.425496     2.417853     2.410210     2.402566
      2.394923     2.387280     2.379637     2.371994     2.364350     2.356707     2.349064     2.341421     2.333777     2.326134
      2.318491     2.310848     2.303205     2.295561     2.287918     2.280275     2.272632     2.264988     2.257345     2.249702
      2.242059     2.234416     2.226772     2.219129     2.211486     2.203843     2.196199     2.188556     2.180913     2.173270
      2.165627     2.157983     2.150340     2.142697     2.135054     2.127410     2.119767     2.112124     2.104481     2.096838
      2.089194     2.081551     2.073908     2.066265     2.058621     2.050978     2.043335     2.035692     2.028049     2.020405
      2.012762     2.005119     1.997476     1.989833     1.982190     1.974546     1.966903     1.959260     1.951617     1.943974
      1.936331     1.928688     1.921045     1.913402     1.905759     1.898115     1.890472     1.882829     1.875186     1.867543
      1.859900     1.852257     1.844614     1.836971     1.829327     1.821684     1.814041     1.806398     1.798755     1.791112
      1.783469     1.775826     1.768183     1.760540     1.752896     1.745253     1.737610     1.729967     1.722324     1.714681
      1.707038     1.699395     1.691752     1.684108     1.676465     1.668822     1.661179     1.653536     1.645893     1.638250
      1.630607     1.622964     1.615321     1.607677     1.600034     1.592391     1.584748     1.577105     1.569462     1.561819
      1.554176     1.546533     1.538890     1.531246     1.523603     1.515960     1.508317     1.500674     1.493031     1.485388
      1.477745     1.470102     1.462458     1.454815     1.447172     1.439529     1.431886     1.424243     1.416600     1.408957
      1.401314     1.393671     1.386027     1.378384     1.370741     1.363098     1.355455     1.347812     1.340169     1.332526
      1.324883     1.317240     1.309596     1.301953     1.294310     1.286667     1.279024     1.271381     1.263738     1.256095
      1.248452     1.240808     1.233165     1.225522     1.217879     1.210236     1.202593     1.194950     1.187307     1.179664
      1.172021     1.164377     1.156734     1.149091     1.141448     1.133805     1.126162     1.118519     1.110876     1.103233
      1.095590     1.087946     1.080303     1.072660     1.065017     1.057374     1.049731     1.042088     1.034445     1.026802
      1.019158     1.011515     1.003872     0.996229     0.988586     0.980943     0.973300     0.965657     0.958014     0.950371
      0.942727     0.935084     0.927441     0.919798     0.912155     0.904512     0.896869     0.889226     0.881583     0.873940
      0.866296     0.858653     0.851010     0.843367     0.835724     0.828081     0.820438     0.812795     0.805152     0.797508
      0.789865     0.782222     0.774579     0.766936     0.759293     0.751650     0.744007     0.736364     0.728721     0.721077
      0.713434     0.705791     0.698148     0.690505     0.682862     0.675219     0.667576     0.659933     0.652290     0.644646
      0.637003     0.629360     0.621717     0.614074     0.606431     0.598788     0.591145     0.583502     0.575858     0.568215
      0.560572     0.552929     0.545286     0.537643     0.530000     0.522357     0.514714     0.507071     0.499427     0.491784
      0.484141     0.476498     0.468855     0.461212     0.453569     0.445925     0.438282     0.430639     0.422996     0.415353
      0.407710     0.400067     0.392424     0.384780     0.377137     0.369494     0.361851     0.354208     0.346565     0.338922
      0.331278     0.323635     0.315992     0.308349     0.300706     0.293063     0.285420     0.277777     0.270133     0.262490
      0.254847     0.247204     0.239561     0.231918     0.224275     0.216631     0.208988     0.201345
 NY phased data points follow
  -2.42786E+02 -2.37486E+02 -2.34108E+02 -2.30951E+02 -2.29170E+02 -2.25413E+02 -2.23562E+02 -2.19128E+02 -2.16103E+02 -2.14457E+02
  -2.08116E+02 -2.01503E+02 -1.98044E+02 -1.92362E+02 -1.90214E+02 -1.90127E+02 -1.84540E+02 -1.86717E+02 -1.77245E+02 -1.80916E+02
  -1.73086E+02 -1.68629E+02 -1.68320E+02 -1.61931E+02 -1.57553E+02 -1.51937E+02 -1.47560E+02 -1.49932E+02 -1.45438E+02 -1.40861E+02
  -1.41670E+02 -1.43189E+02 -1.37820E+02 -1.30409E+02 -1.26991E+02 -1.28475E+02 -1.22333E+02 -1.22973E+02 -1.16708E+02 -1.15050E+02
  -1.10367E+02 -1.11188E+02 -1.10403E+02 -1.11355E+02 -1.03636E+02 -1.01110E+02 -9.89924E+01 -9.05906E+01 -8.88475E+01 -8.85037E+01
  -8.11941E+01 -8.68003E+01 -8.20054E+01 -7.49436E+01 -8.08080E+01 -7.29852E+01 -7.40874E+01 -7.40862E+01 -7.23949E+01 -7.07337E+01
  -6.68380E+01 -6.34695E+01 -6.28926E+01 -5.97897E+01 -5.75720E+01 -5.47990E+01 -5.56304E+01 -5.16975E+01 -5.13084E+01 -4.46536E+01
  -4.44339E+01 -4.99422E+01 -5.34597E+01 -5.02035E+01 -4.79105E+01 -4.23205E+01 -3.90831E+01 -3.51795E+01 -2.80659E+01 -3.32199E+01
  -3.20140E+01 -2.56896E+01 -2.82872E+01 -2.61011E+01 -2.43887E+01 -2.27381E+01 -2.16213E+01 -1.95417E+01 -1.32473E+01 -1.11970E+01
  -6.56305E+00 -7.45264E+00 -2.08665E+00 -3.21680E+00 -6.71797E+00 -1.03656E+01 -7.70788E+00 -9.80925E+00 -7.50254E-02 -5.84937E-01
   4.48885E+00  9.91000E+00  7.77316E+00  1.19810E+01  1.65332E+01  1.24214E+01  2.14941E+01  1.47410E+01  1.91971E+01  2.31871E+01
   2.62627E+01  2.14736E+01  2.01839E+01  2.46456E+01  3.32314E+01  2.71341E+01  2.85006E+01  3.00237E+01  3.21268E+01  3.00095E+01
   3.53376E+01  3.34811E+01  3.38767E+01  3.96769E+01  3.68610E+01  3.55085E+01  4.03366E+01  4.11441E+01  3.90761E+01  4.14156E+01
   4.44173E+01  4.41891E+01  4.80145E+01  4.84369E+01  5.11447E+01  4.68177E+01  5.43879E+01  4.87629E+01  5.99166E+01  5.62190E+01
   5.91073E+01  5.81157E+01  6.54373E+01  6.28229E+01  6.72141E+01  6.76497E+01  7.08147E+01  6.70011E+01  7.24649E+01  7.25504E+01
   7.77109E+01  7.74527E+01  7.58160E+01  8.07386E+01  8.29908E+01  8.25022E+01  8.56042E+01  8.47451E+01  8.35186E+01  8.62120E+01
   9.36020E+01  9.12780E+01  9.12082E+01  9.51898E+01  9.54014E+01  1.01137E+02  1.00639E+02  9.93576E+01  1.02095E+02  1.02018E+02
   1.01826E+02  1.01619E+02  9.78024E+01  1.03994E+02  1.02810E+02  1.01406E+02  1.06305E+02  1.07656E+02  1.01778E+02  1.03046E+02
   1.02301E+02  1.03119E+02  1.00915E+02  9.70224E+01  1.04336E+02  9.80554E+01  9.82117E+01  9.85172E+01  9.93271E+01  9.67705E+01
   1.02873E+02  9.59585E+01  9.63541E+01  9.56085E+01  9.05584E+01  9.31759E+01  8.82967E+01  9.01889E+01  9.10885E+01  9.17427E+01
   8.56726E+01  8.80025E+01  8.80783E+01  8.34461E+01  8.70719E+01  8.44756E+01  8.49077E+01  8.34671E+01  8.30695E+01  8.03866E+01
   8.33164E+01  8.20286E+01  8.28344E+01  8.25999E+01  8.39701E+01  8.02101E+01  8.51664E+01  8.86467E+01  8.97204E+01  9.08493E+01
   9.04956E+01  9.31918E+01  9.90132E+01  9.21462E+01  9.06231E+01  8.97632E+01  8.66323E+01  8.91924E+01  8.47889E+01  9.50109E+01
   9.66221E+01  1.05578E+02  1.04119E+02  1.05653E+02  9.98530E+01  9.98388E+01  1.01553E+02  1.03148E+02  1.03288E+02  1.05251E+02
   1.01036E+02  1.03269E+02  1.03217E+02  1.01459E+02  1.04547E+02  1.02769E+02  1.01313E+02  1.01373E+02  1.04704E+02  1.01975E+02
   1.03654E+02  1.00567E+02  1.07681E+02  1.03977E+02  1.01557E+02  1.02616E+02  1.03669E+02  9.99319E+01  1.05504E+02  9.67853E+01
   1.00536E+02  1.07115E+02  1.03788E+02  1.06818E+02  1.02897E+02  1.00752E+02  1.05057E+02  9.87843E+01  1.01092E+02  1.01094E+02
   9.33030E+01  9.50928E+01  8.86306E+01  8.44190E+01  7.94199E+01  6.76232E+01  6.44771E+01  5.11514E+01  5.25139E+01  3.68274E+01
   3.55256E+01  2.29324E+01  2.68651E+01  1.56102E+01  1.64302E+01  1.99196E+01  1.67793E+01  1.77067E+01  1.42435E+01  1.27426E+01
   2.25394E+01  2.45364E+01  2.86227E+01  3.06265E+01  3.38553E+01  3.82207E+01  3.67903E+01  4.34338E+01  4.25507E+01  4.52953E+01
   4.85422E+01  4.84825E+01  4.37502E+01  4.82880E+01  4.91873E+01  4.99952E+01  4.86725E+01  4.90032E+01  4.75616E+01  5.26344E+01
   5.25427E+01  4.83640E+01  5.45003E+01  5.29760E+01  5.29808E+01  4.97968E+01  5.40814E+01  5.53780E+01  4.88810E+01  5.21400E+01
   5.21944E+01  5.12609E+01  5.30771E+01  5.34847E+01  5.31257E+01  5.27718E+01  4.61403E+01  5.18930E+01  4.93870E+01  4.23797E+01
   4.26870E+01  4.45955E+01  4.02207E+01  4.16304E+01  4.50345E+01  3.82836E+01  4.03920E+01  4.08337E+01  3.93113E+01  3.84978E+01
   3.77195E+01  3.30355E+01  3.51442E+01  3.73511E+01  3.21657E+01  3.34861E+01  3.58604E+01  3.05845E+01  2.82699E+01  3.34118E+01
   3.26955E+01  3.30416E+01  3.36073E+01  2.79154E+01  2.60722E+01  3.03760E+01  3.09942E+01  2.61317E+01  2.47779E+01  2.40536E+01
   2.21286E+01  2.09119E+01  1.63900E+01  2.02344E+01  1.67924E+01  2.02652E+01  2.15687E+01  1.89053E+01  1.84598E+01  1.72092E+01
   1.32979E+01  1.49926E+01  1.42121E+01  1.44821E+01  9.66882E+00  9.55034E+00  9.62465E+00  6.42068E+00  4.83272E+00  1.16339E+01
   1.01164E+01  8.05058E+00  6.12446E+00  4.94146E+00  8.68177E+00  1.10575E+01  2.49447E-01  2.76638E+00  6.14805E+00  1.30375E+00
   2.91064E+00  3.06555E+00  2.90387E+00  5.25927E+00 -1.16615E+00 -6.76520E-01  3.65582E+00  1.39983E+00 -1.77101E+00 -1.08239E+00
  -1.07994E+00  1.43422E+00 -1.30146E+00 -1.23264E+00 -6.52060E+00 -4.15697E+00 -4.53714E+00 -6.70758E+00 -4.94475E+00 -8.91204E+00
  -6.79275E+00 -9.95196E+00 -9.49655E+00 -5.59865E+00 -1.25958E+01 -9.57883E+00 -1.37484E+01 -1.23307E+01 -1.59880E+01 -7.02442E+00
  -1.12289E+01 -1.41038E+01 -1.81620E+01 -1.64523E+01 -1.40858E+01 -1.70131E+01 -1.89877E+01 -1.43782E+01 -1.97964E+01 -2.43431E+01
  -2.19873E+01 -1.98828E+01 -1.82117E+01 -2.10344E+01 -2.01670E+01 -2.12512E+01 -2.39410E+01 -2.64860E+01 -2.27713E+01 -2.49850E+01
  -2.61292E+01 -2.20996E+01 -2.57634E+01 -2.10706E+01 -2.43533E+01 -2.27543E+01 -2.45818E+01 -2.43370E+01 -2.53403E+01 -2.52095E+01
  -2.78197E+01 -2.66132E+01 -2.48457E+01 -3.03119E+01 -3.52945E+01 -2.55870E+01 -3.25918E+01 -2.61426E+01 -2.73415E+01 -2.72095E+01
  -2.97309E+01 -2.64219E+01 -3.05036E+01 -3.21980E+01 -2.77918E+01 -2.76321E+01 -3.09913E+01 -2.90860E+01 -2.78428E+01 -2.81109E+01
  -2.55775E+01 -2.71355E+01 -2.87034E+01 -2.62255E+01 -3.26091E+01 -3.22488E+01 -3.27365E+01 -3.12128E+01 -3.47913E+01 -3.15530E+01
  -3.25525E+01 -3.02631E+01 -3.18513E+01 -2.99101E+01 -3.34565E+01 -3.24076E+01 -3.53469E+01 -3.06324E+01 -3.30124E+01 -3.20691E+01
  -3.97754E+01 -3.24924E+01 -3.56898E+01 -3.35674E+01 -3.17871E+01 -2.99519E+01 -3.25061E+01 -3.50373E+01
 NY points of the fit to the data follow
  -2.29435E+02 -2.27831E+02 -2.25762E+02 -2.23591E+02 -2.21098E+02 -2.18372E+02 -2.15563E+02 -2.12515E+02 -2.09554E+02 -2.06582E+02
  -2.03621E+02 -2.00690E+02 -1.97033E+02 -1.94290E+02 -1.90771E+02 -1.87841E+02 -1.84310E+02 -1.81705E+02 -1.77983E+02 -1.75243E+02
  -1.71292E+02 -1.68523E+02 -1.65032E+02 -1.62526E+02 -1.59593E+02 -1.57329E+02 -1.54786E+02 -1.52639E+02 -1.50302E+02 -1.47348E+02
  -1.43485E+02 -1.39356E+02 -1.35309E+02 -1.31495E+02 -1.28048E+02 -1.24991E+02 -1.22198E+02 -1.19821E+02 -1.17376E+02 -1.15252E+02
  -1.12916E+02 -1.10753E+02 -1.07679E+02 -1.05230E+02 -1.01458E+02 -9.93114E+01 -9.61883E+01 -9.49048E+01 -9.28875E+01 -9.20819E+01
  -9.05676E+01 -8.94056E+01 -8.73097E+01 -8.57548E+01 -8.31051E+01 -8.11834E+01 -7.85520E+01 -7.64683E+01 -7.37217E+01 -7.12438E+01
  -6.79838E+01 -6.51230E+01 -6.19052E+01 -5.92135E+01 -5.65394E+01 -5.46043E+01 -5.29647E+01 -5.18050E+01 -5.06615E+01 -4.94622E+01
  -4.79236E+01 -4.63988E+01 -4.51901E+01 -4.38224E+01 -4.26589E+01 -4.12834E+01 -4.00532E+01 -3.86472E+01 -3.75817E+01 -3.59209E+01
  -3.53250E+01 -3.34729E+01 -3.28003E+01 -3.05243E+01 -2.94603E+01 -2.61319E+01 -2.42235E+01 -2.08369E+01 -1.84742E+01 -1.55161E+01
  -1.29396E+01 -1.06197E+01 -7.95572E+00 -6.38892E+00 -3.56564E+00 -2.48402E+00  4.14673E-01  1.12782E+00  4.07204E+00  4.42670E+00
   7.20331E+00  7.13091E+00  9.42053E+00  9.17232E+00  1.10160E+01  1.10175E+01  1.27393E+01  1.34348E+01  1.53689E+01  1.66243E+01
   1.82830E+01  1.96298E+01  2.09249E+01  2.24339E+01  2.36558E+01  2.54320E+01  2.69939E+01  2.88062E+01  3.07203E+01  3.22758E+01
   3.41641E+01  3.51725E+01  3.67353E+01  3.75345E+01  3.89242E+01  4.01792E+01  4.18324E+01  4.30105E+01  4.47307E+01  4.58148E+01
   4.75304E+01  4.85246E+01  5.01829E+01  5.11332E+01  5.27536E+01  5.37048E+01  5.52513E+01  5.63022E+01  5.78604E+01  5.90964E+01
   6.07385E+01  6.21156E+01  6.37064E+01  6.52562E+01  6.68336E+01  6.85899E+01  7.02150E+01  7.21445E+01  7.38222E+01  7.58604E+01
   7.75519E+01  7.96142E+01  8.13285E+01  8.35925E+01  8.54164E+01  8.78906E+01  8.97427E+01  9.19921E+01  9.36464E+01  9.55267E+01
   9.68389E+01  9.83505E+01  9.93057E+01  1.00401E+02  1.00902E+02  1.01553E+02  1.01704E+02  1.01916E+02  1.01776E+02  1.01584E+02
   1.01201E+02  1.00716E+02  1.00244E+02  9.96434E+01  9.91521E+01  9.83058E+01  9.76760E+01  9.66438E+01  9.59424E+01  9.47540E+01
   9.40419E+01  9.30195E+01  9.23831E+01  9.16161E+01  9.10743E+01  9.05328E+01  9.00490E+01  8.96488E+01  8.91907E+01  8.88333E+01
   8.83244E+01  8.79353E+01  8.74316E+01  8.71684E+01  8.67429E+01  8.66323E+01  8.62929E+01  8.62077E+01  8.59797E+01  8.58801E+01
   8.57424E+01  8.56024E+01  8.54993E+01  8.53086E+01  8.51814E+01  8.50009E+01  8.49428E+01  8.46875E+01  8.45952E+01  8.42423E+01
   8.40567E+01  8.37791E+01  8.35511E+01  8.34274E+01  8.32318E+01  8.32637E+01  8.32640E+01  8.35337E+01  8.37753E+01  8.42119E+01
   8.47054E+01  8.53173E+01  8.60555E+01  8.67152E+01  8.76417E+01  8.84686E+01  8.96483E+01  9.07105E+01  9.21631E+01  9.33264E+01
   9.47649E+01  9.57605E+01  9.69436E+01  9.75389E+01  9.82536E+01  9.83358E+01  9.87949E+01  1.00279E+02  1.01841E+02  1.02714E+02
   1.04665E+02  1.04012E+02  1.05915E+02  1.03812E+02  1.05650E+02  1.02673E+02  1.04700E+02  1.01473E+02  1.03964E+02  1.00926E+02
   1.03935E+02  1.01357E+02  1.04670E+02  1.02280E+02  1.05404E+02  1.03372E+02  1.06086E+02  1.04675E+02  1.06735E+02  1.05949E+02
   1.07224E+02  1.06649E+02  1.06835E+02  1.05587E+02  1.04325E+02  1.02428E+02  9.99876E+01  9.76860E+01  9.46322E+01  9.18070E+01
   8.83819E+01  8.44758E+01  8.05193E+01  7.53127E+01  7.07109E+01  6.51708E+01  6.05179E+01  5.68313E+01  5.33447E+01  5.03995E+01
   4.76011E+01  4.52793E+01  4.31014E+01  4.13191E+01  3.96851E+01  3.83539E+01  3.71662E+01  3.62078E+01  3.53936E+01  3.47338E+01
   3.42353E+01  3.38642E+01  3.37047E+01  3.36993E+01  3.39598E+01  3.43961E+01  3.51355E+01  3.60623E+01  3.72433E+01  3.86058E+01
   4.01641E+01  4.18521E+01  4.36440E+01  4.54685E+01  4.72928E+01  4.90391E+01  5.06442E+01  5.20546E+01  5.32114E+01  5.40739E+01
   5.46237E+01  5.48452E+01  5.47633E+01  5.44201E+01  5.38646E+01  5.31493E+01  5.23526E+01  5.15215E+01  5.07331E+01  5.00212E+01
   4.94247E+01  4.89702E+01  4.86597E+01  4.84856E+01  4.84186E+01  4.84229E+01  4.84483E+01  4.84453E+01  4.83589E+01  4.81437E+01
   4.77567E+01  4.71716E+01  4.63697E+01  4.53534E+01  4.41341E+01  4.27444E+01  4.12247E+01  3.96326E+01  3.80281E+01  3.64815E+01
   3.50561E+01  3.38155E+01  3.28056E+01  3.20610E+01  3.15887E+01  3.13771E+01  3.13836E+01  3.15491E+01  3.17915E+01  3.20262E+01
   3.21637E+01  3.21326E+01  3.18760E+01  3.13697E+01  3.06124E+01  2.96356E+01  2.84856E+01  2.72274E+01  2.59232E+01  2.46359E+01
   2.34101E+01  2.22804E+01  2.12577E+01  2.03432E+01  1.95189E+01  1.87644E+01  1.80488E+01  1.73470E+01  1.66312E+01  1.58847E+01
   1.50916E+01  1.42495E+01  1.33567E+01  1.24239E+01  1.14611E+01  1.04880E+01  9.52049E+00  8.58164E+00  7.68770E+00  6.85923E+00
   6.10783E+00  5.44744E+00  4.88155E+00  4.41507E+00  4.04214E+00  3.75852E+00  3.54988E+00  3.40471E+00  3.30296E+00  3.22920E+00
   3.16148E+00  3.08456E+00  2.97859E+00  2.83215E+00  2.63069E+00  2.36906E+00  2.03955E+00  1.64397E+00  1.18123E+00  6.58924E-01
   8.07063E-02 -5.42362E-01 -1.20457E+00 -1.89412E+00 -2.60584E+00 -3.32951E+00 -4.06227E+00 -4.79669E+00 -5.53282E+00 -6.26603E+00
  -6.99886E+00 -7.72862E+00 -8.45917E+00 -9.18855E+00 -9.92068E+00 -1.06531E+01 -1.13890E+01 -1.21247E+01 -1.28621E+01 -1.35963E+01
  -1.43281E+01 -1.50517E+01 -1.57672E+01 -1.64684E+01 -1.71553E+01 -1.78222E+01 -1.84694E+01 -1.90918E+01 -1.96907E+01 -2.02617E+01
  -2.08071E+01 -2.13236E+01 -2.18140E+01 -2.22759E+01 -2.27129E+01 -2.31230E+01 -2.35103E+01 -2.38731E+01 -2.42158E+01 -2.45368E+01
  -2.48405E+01 -2.51253E+01 -2.53956E+01 -2.56496E+01 -2.58917E+01 -2.61200E+01 -2.63385E+01 -2.65454E+01 -2.67444E+01 -2.69336E+01
  -2.71166E+01 -2.72913E+01 -2.74612E+01 -2.76241E+01 -2.77834E+01 -2.79366E+01 -2.80874E+01 -2.82330E+01 -2.83769E+01 -2.85165E+01
  -2.86552E+01 -2.87901E+01 -2.89248E+01 -2.90563E+01 -2.91881E+01 -2.93173E+01 -2.94472E+01 -2.95750E+01 -2.97039E+01 -2.98312E+01
  -2.99599E+01 -3.00873E+01 -3.02165E+01 -3.03448E+01 -3.04752E+01 -3.06050E+01 -3.07373E+01 -3.08691E+01 -3.10037E+01 -3.11383E+01
  -3.12758E+01 -3.14134E+01 -3.15544E+01 -3.16957E+01 -3.18405E+01 -3.19859E+01 -3.21350E+01 -3.22849E+01 -3.24388E+01 -3.25936E+01
  -3.27526E+01 -3.29128E+01 -3.30772E+01 -3.32430E+01 -3.34132E+01 -3.35849E+01 -3.37611E+01 -3.39388E+01
 NY background values follow
    -2.353E+02   -2.326E+02   -2.299E+02   -2.272E+02   -2.245E+02   -2.217E+02   -2.190E+02   -2.163E+02   -2.136E+02   -2.109E+02
    -2.083E+02   -2.056E+02   -2.029E+02   -2.002E+02   -1.975E+02   -1.949E+02   -1.922E+02   -1.896E+02   -1.869E+02   -1.843E+02
    -1.816E+02   -1.790E+02   -1.764E+02   -1.738E+02   -1.711E+02   -1.685E+02   -1.659E+02   -1.634E+02   -1.608E+02   -1.582E+02
    -1.556E+02   -1.530E+02   -1.505E+02   -1.479E+02   -1.454E+02   -1.429E+02   -1.403E+02   -1.378E+02   -1.353E+02   -1.328E+02
    -1.303E+02   -1.278E+02   -1.253E+02   -1.229E+02   -1.204E+02   -1.179E+02   -1.155E+02   -1.131E+02   -1.106E+02   -1.082E+02
    -1.058E+02   -1.034E+02   -1.010E+02   -9.865E+01   -9.628E+01   -9.392E+01   -9.157E+01   -8.923E+01   -8.690E+01   -8.458E+01
    -8.227E+01   -7.997E+01   -7.769E+01   -7.541E+01   -7.314E+01   -7.089E+01   -6.865E+01   -6.642E+01   -6.419E+01   -6.199E+01
    -5.979E+01   -5.760E+01   -5.543E+01   -5.327E+01   -5.112E+01   -4.898E+01   -4.685E+01   -4.474E+01   -4.264E+01   -4.055E+01
    -3.848E+01   -3.642E+01   -3.437E+01   -3.233E+01   -3.031E+01   -2.830E+01   -2.631E+01   -2.433E+01   -2.236E+01   -2.040E+01
    -1.846E+01   -1.654E+01   -1.463E+01   -1.273E+01   -1.085E+01   -8.977E+00   -7.123E+00   -5.284E+00   -3.460E+00   -1.651E+00
     1.434E-01    1.922E+00    3.686E+00    5.433E+00    7.166E+00    8.882E+00    1.058E+01    1.227E+01    1.394E+01    1.559E+01
     1.723E+01    1.885E+01    2.045E+01    2.204E+01    2.361E+01    2.516E+01    2.669E+01    2.821E+01    2.971E+01    3.120E+01
     3.267E+01    3.412E+01    3.555E+01    3.696E+01    3.836E+01    3.973E+01    4.109E+01    4.244E+01    4.376E+01    4.506E+01
     4.635E+01    4.762E+01    4.886E+01    5.009E+01    5.130E+01    5.249E+01    5.367E+01    5.482E+01    5.595E+01    5.706E+01
     5.816E+01    5.923E+01    6.028E+01    6.132E+01    6.233E+01    6.332E+01    6.429E+01    6.524E+01    6.618E+01    6.708E+01
     6.797E+01    6.884E+01    6.969E+01    7.051E+01    7.132E+01    7.210E+01    7.286E+01    7.360E+01    7.432E+01    7.501E+01
     7.568E+01    7.633E+01    7.696E+01    7.757E+01    7.815E+01    7.871E+01    7.925E+01    7.976E+01    8.026E+01    8.073E+01
     8.117E+01    8.160E+01    8.200E+01    8.238E+01    8.274E+01    8.308E+01    8.340E+01    8.370E+01    8.397E+01    8.423E+01
     8.447E+01    8.468E+01    8.488E+01    8.505E+01    8.521E+01    8.535E+01    8.546E+01    8.556E+01    8.564E+01    8.570E+01
     8.575E+01    8.577E+01    8.578E+01    8.577E+01    8.574E+01    8.569E+01    8.563E+01    8.555E+01    8.545E+01    8.534E+01
     8.521E+01    8.506E+01    8.490E+01    8.472E+01    8.453E+01    8.432E+01    8.409E+01    8.385E+01    8.360E+01    8.333E+01
     8.304E+01    8.274E+01    8.243E+01    8.211E+01    8.176E+01    8.141E+01    8.104E+01    8.066E+01    8.027E+01    7.986E+01
     7.945E+01    7.901E+01    7.857E+01    7.812E+01    7.765E+01    7.717E+01    7.668E+01    7.618E+01    7.567E+01    7.514E+01
     7.461E+01    7.406E+01    7.351E+01    7.294E+01    7.237E+01    7.179E+01    7.119E+01    7.059E+01    6.998E+01    6.936E+01
     6.873E+01    6.809E+01    6.744E+01    6.679E+01    6.612E+01    6.545E+01    6.478E+01    6.409E+01    6.340E+01    6.270E+01
     6.199E+01    6.128E+01    6.056E+01    5.983E+01    5.910E+01    5.836E+01    5.762E+01    5.687E+01    5.612E+01    5.536E+01
     5.460E+01    5.383E+01    5.306E+01    5.228E+01    5.150E+01    5.071E+01    4.993E+01    4.913E+01    4.834E+01    4.754E+01
     4.674E+01    4.593E+01    4.513E+01    4.432E+01    4.351E+01    4.269E+01    4.188E+01    4.106E+01    4.025E+01    3.943E+01
     3.861E+01    3.779E+01    3.696E+01    3.614E+01    3.532E+01    3.450E+01    3.368E+01    3.286E+01    3.204E+01    3.122E+01
     3.040E+01    2.958E+01    2.876E+01    2.795E+01    2.713E+01    2.632E+01    2.551E+01    2.471E+01    2.390E+01    2.310E+01
     2.230E+01    2.150E+01    2.071E+01    1.992E+01    1.914E+01    1.836E+01    1.758E+01    1.681E+01    1.604E+01    1.527E+01
     1.451E+01    1.376E+01    1.301E+01    1.227E+01    1.153E+01    1.080E+01    1.007E+01    9.349E+00    8.635E+00    7.928E+00
     7.227E+00    6.533E+00    5.847E+00    5.168E+00    4.496E+00    3.833E+00    3.177E+00    2.529E+00    1.889E+00    1.258E+00
     6.359E-01    2.248E-02   -5.819E-01   -1.177E+00   -1.763E+00   -2.341E+00   -2.909E+00   -3.469E+00   -4.020E+00   -4.563E+00
    -5.096E+00   -5.622E+00   -6.139E+00   -6.648E+00   -7.148E+00   -7.640E+00   -8.125E+00   -8.601E+00   -9.069E+00   -9.530E+00
    -9.983E+00   -1.043E+01   -1.087E+01   -1.130E+01   -1.172E+01   -1.213E+01   -1.254E+01   -1.294E+01   -1.334E+01   -1.372E+01
    -1.410E+01   -1.447E+01   -1.484E+01   -1.520E+01   -1.555E+01   -1.590E+01   -1.624E+01   -1.657E+01   -1.690E+01   -1.722E+01
    -1.753E+01   -1.784E+01   -1.814E+01   -1.844E+01   -1.873E+01   -1.901E+01   -1.929E+01   -1.956E+01   -1.983E+01   -2.009E+01
    -2.035E+01   -2.060E+01   -2.085E+01   -2.109E+01   -2.133E+01   -2.156E+01   -2.178E+01   -2.200E+01   -2.222E+01   -2.243E+01
    -2.264E+01   -2.284E+01   -2.304E+01   -2.323E+01   -2.342E+01   -2.361E+01   -2.379E+01   -2.397E+01   -2.414E+01   -2.431E+01
    -2.447E+01   -2.463E+01   -2.479E+01   -2.495E+01   -2.510E+01   -2.524E+01   -2.539E+01   -2.553E+01   -2.567E+01   -2.580E+01
    -2.593E+01   -2.606E+01   -2.619E+01   -2.631E+01   -2.643E+01   -2.655E+01   -2.666E+01   -2.677E+01   -2.688E+01   -2.699E+01
    -2.710E+01   -2.720E+01   -2.730E+01   -2.740E+01   -2.750E+01   -2.759E+01   -2.768E+01   -2.778E+01   -2.787E+01   -2.795E+01
    -2.804E+01   -2.813E+01   -2.821E+01   -2.829E+01   -2.838E+01   -2.846E+01   -2.854E+01   -2.861E+01   -2.869E+01   -2.877E+01
    -2.885E+01   -2.892E+01   -2.900E+01   -2.907E+01   -2.915E+01   -2.922E+01   -2.930E+01   -2.937E+01   -2.944E+01   -2.952E+01
    -2.959E+01   -2.967E+01   -2.974E+01   -2.982E+01   -2.989E+01   -2.997E+01   -3.004E+01   -3.012E+01   -3.020E+01   -3.028E+01
    -3.036E+01   -3.044E+01   -3.052E+01   -3.060E+01   -3.068E+01   -3.077E+01   -3.085E+01   -3.094E+01   -3.103E+01   -3.112E+01
    -3.122E+01   -3.131E+01   -3.141E+01   -3.150E+01   -3.160E+01   -3.171E+01   -3.181E+01   -3.192E+01   -3.203E+01   -3.214E+01
    -3.225E+01   -3.237E+01   -3.249E+01   -3.261E+01   -3.273E+01   -3.286E+01   -3.299E+01   -3.312E+01   -3.326E+01   -3.340E+01
    -3.354E+01   -3.368E+01   -3.383E+01   -3.399E+01   -3.414E+01   -3.430E+01   -3.447E+01   -3.463E+01
 Asp      Conc. = 2.41E+02
