 LCModel (Version 6.3-1L) Copyright: S.W. Provencher.          Ref.: Magn. Reson. Med. 30:672-679 (1993).                
 Slice#3 Row#12 Col#11  PD_24_press_2_raw_act
 36 lines in following concentration table = NCONC+1
    Conc.  %SD /Cr+PCr  Metabolite                                         
  637.804  28%  67.672 Ala                                                 
    0.579 814% 6.1E-02 Asp                                                 
    9.425 258%   1.000 Cr                                                  
    0.000 999%   0.000 PCr                                                 
    0.258 999% 2.7E-02 GABA                                                
    0.246 999% 2.6E-02 Glc                                                 
    0.000 999%   0.000 Gln                                                 
  668.659  39%  70.946 Glu                                                 
    0.000 999%   0.000 GPC                                                 
    0.000 999%   0.000 PCh                                                 
   37.509 111%   3.980 GSH                                                 
    0.000 999%   0.000 Ins                                                 
    0.000 999%   0.000 Lac                                                 
    0.000 999%   0.000 NAA                                                 
    0.000 999%   0.000 NAAG                                                
    0.122 772% 1.3E-02 Scyllo                                              
    0.400 999% 4.2E-02 Tau                                                 
    0.996 495%   0.106 -CrCH2                                              
    0.000 999%   0.000 GPC+PCh                                             
    0.000 999%   0.000 NAA+NAAG                                            
    9.425 258%   1.000 Cr+PCr                                              
  668.659  39%  70.946 Glu+Gln                                             
    0.000 999%   0.000 Lip13a                                              
    2.694 999%   0.286 Lip13b                                              
    2.342 999%   0.249 Lip09                                               
  260.212  18%  27.609 MM09                                                
    0.000 999%   0.000 Lip20                                               
  155.796  48%  16.530 MM20                                                
   94.359  38%  10.012 MM12                                                
    0.000 999%   0.000 MM14                                                
  734.479   6%  77.929+MM17                                                
    2.694 999%   0.286 Lip13a+Lip13b                                       
   97.053  43%  10.297 MM14+Lip13a+Lip13b+MM12                             
  262.554  16%  27.857 MM09+Lip09                                          
  155.796  48%  16.530 MM20+Lip20                                          
   6 lines in following misc. output table
  FWHM = 0.153 ppm    S/N =   3                                            
  Data shift = 0.092 ppm                                                   
  Ph: 141 deg      -1.6 deg/ppm                                            
  alphaB,S = 8.5E+01,   2.0E+02                                            
   10 spline knots.   Ns = 9(2)                                            
   2 inflections.     1 extrema                                            
  498 points on ppm-axis = NY
      4.000000     3.992357     3.984714     3.977070     3.969427     3.961784     3.954141     3.946497     3.938854     3.931211
      3.923568     3.915925     3.908281     3.900638     3.892995     3.885352     3.877708     3.870065     3.862422     3.854779
      3.847136     3.839492     3.831849     3.824206     3.816563     3.808919     3.801276     3.793633     3.785990     3.778347
      3.770703     3.763060     3.755417     3.747774     3.740130     3.732487     3.724844     3.717201     3.709558     3.701914
      3.694271     3.686628     3.678985     3.671341     3.663698     3.656055     3.648412     3.640769     3.633125     3.625482
      3.617839     3.610196     3.602552     3.594909     3.587266     3.579623     3.571980     3.564336     3.556693     3.549050
      3.541407     3.533763     3.526120     3.518477     3.510834     3.503191     3.495547     3.487904     3.480261     3.472618
      3.464974     3.457331     3.449688     3.442045     3.434402     3.426758     3.419115     3.411472     3.403829     3.396185
      3.388542     3.380899     3.373256     3.365613     3.357969     3.350326     3.342683     3.335040     3.327396     3.319753
      3.312110     3.304467     3.296824     3.289180     3.281537     3.273894     3.266251     3.258607     3.250964     3.243321
      3.235678     3.228034     3.220391     3.212748     3.205105     3.197462     3.189818     3.182175     3.174532     3.166889
      3.159245     3.151602     3.143959     3.136316     3.128673     3.121029     3.113386     3.105743     3.098100     3.090456
      3.082813     3.075170     3.067527     3.059884     3.052240     3.044597     3.036954     3.029311     3.021667     3.014024
      3.006381     2.998738     2.991095     2.983451     2.975808     2.968165     2.960522     2.952878     2.945235     2.937592
      2.929949     2.922306     2.914662     2.907019     2.899376     2.891733     2.884089     2.876446     2.868803     2.861160
      2.853517     2.845873     2.838230     2.830587     2.822944     2.815300     2.807657     2.800014     2.792371     2.784728
      2.777084     2.769441     2.761798     2.754155     2.746511     2.738868     2.731225     2.723582     2.715939     2.708295
      2.700652     2.693009     2.685366     2.677722     2.670079     2.662436     2.654793     2.647150     2.639506     2.631863
      2.624220     2.616577     2.608933     2.601290     2.593647     2.586004     2.578361     2.570717     2.563074     2.555431
      2.547788     2.540144     2.532501     2.524858     2.517215     2.509572     2.501928     2.494285     2.486642     2.478999
      2.471355     2.463712     2.456069     2.448426     2.440783     2.433139     2.425496     2.417853     2.410210     2.402566
      2.394923     2.387280     2.379637     2.371994     2.364350     2.356707     2.349064     2.341421     2.333777     2.326134
      2.318491     2.310848     2.303205     2.295561     2.287918     2.280275     2.272632     2.264988     2.257345     2.249702
      2.242059     2.234416     2.226772     2.219129     2.211486     2.203843     2.196199     2.188556     2.180913     2.173270
      2.165627     2.157983     2.150340     2.142697     2.135054     2.127410     2.119767     2.112124     2.104481     2.096838
      2.089194     2.081551     2.073908     2.066265     2.058621     2.050978     2.043335     2.035692     2.028049     2.020405
      2.012762     2.005119     1.997476     1.989833     1.982190     1.974546     1.966903     1.959260     1.951617     1.943974
      1.936331     1.928688     1.921045     1.913402     1.905759     1.898115     1.890472     1.882829     1.875186     1.867543
      1.859900     1.852257     1.844614     1.836971     1.829327     1.821684     1.814041     1.806398     1.798755     1.791112
      1.783469     1.775826     1.768183     1.760540     1.752896     1.745253     1.737610     1.729967     1.722324     1.714681
      1.707038     1.699395     1.691752     1.684108     1.676465     1.668822     1.661179     1.653536     1.645893     1.638250
      1.630607     1.622964     1.615321     1.607677     1.600034     1.592391     1.584748     1.577105     1.569462     1.561819
      1.554176     1.546533     1.538890     1.531246     1.523603     1.515960     1.508317     1.500674     1.493031     1.485388
      1.477745     1.470102     1.462458     1.454815     1.447172     1.439529     1.431886     1.424243     1.416600     1.408957
      1.401314     1.393671     1.386027     1.378384     1.370741     1.363098     1.355455     1.347812     1.340169     1.332526
      1.324883     1.317240     1.309596     1.301953     1.294310     1.286667     1.279024     1.271381     1.263738     1.256095
      1.248452     1.240808     1.233165     1.225522     1.217879     1.210236     1.202593     1.194950     1.187307     1.179664
      1.172021     1.164377     1.156734     1.149091     1.141448     1.133805     1.126162     1.118519     1.110876     1.103233
      1.095590     1.087946     1.080303     1.072660     1.065017     1.057374     1.049731     1.042088     1.034445     1.026802
      1.019158     1.011515     1.003872     0.996229     0.988586     0.980943     0.973300     0.965657     0.958014     0.950371
      0.942727     0.935084     0.927441     0.919798     0.912155     0.904512     0.896869     0.889226     0.881583     0.873940
      0.866296     0.858653     0.851010     0.843367     0.835724     0.828081     0.820438     0.812795     0.805152     0.797508
      0.789865     0.782222     0.774579     0.766936     0.759293     0.751650     0.744007     0.736364     0.728721     0.721077
      0.713434     0.705791     0.698148     0.690505     0.682862     0.675219     0.667576     0.659933     0.652290     0.644646
      0.637003     0.629360     0.621717     0.614074     0.606431     0.598788     0.591145     0.583502     0.575858     0.568215
      0.560572     0.552929     0.545286     0.537643     0.530000     0.522357     0.514714     0.507071     0.499427     0.491784
      0.484141     0.476498     0.468855     0.461212     0.453569     0.445925     0.438282     0.430639     0.422996     0.415353
      0.407710     0.400067     0.392424     0.384780     0.377137     0.369494     0.361851     0.354208     0.346565     0.338922
      0.331278     0.323635     0.315992     0.308349     0.300706     0.293063     0.285420     0.277777     0.270133     0.262490
      0.254847     0.247204     0.239561     0.231918     0.224275     0.216631     0.208988     0.201345
 NY phased data points follow
   2.61769E+00  2.53154E+00  2.52846E+00  2.48545E+00  1.14430E+00  1.99936E+00  1.87416E+00  2.94492E+00  3.64542E+00  2.08135E+00
   4.56939E+00  3.34530E+00  1.55535E+00  9.04066E-01  2.38308E+00  2.63231E+00  2.85499E+00  6.62990E-01  4.19334E+00  2.86815E+00
   3.20440E+00  2.46554E+00  1.48324E+00  3.30973E+00  2.23495E+00  3.21144E+00  3.27452E+00  1.30894E+00  2.85952E+00  2.25198E+00
   3.71922E+00  3.04792E+00  3.22769E+00  3.77451E+00  3.23178E+00  4.03226E+00  2.00037E+00  1.93681E+00  3.56418E+00  2.49108E+00
   3.55165E+00  1.22600E+00  2.15231E+00  7.93726E-01  1.75168E+00  2.81019E+00  2.97830E+00  2.32365E+00  2.02229E+00  9.36988E-01
   3.15078E+00  2.99355E+00  1.66083E+00  1.45629E+00  1.34548E+00  2.22152E+00  3.11654E+00  3.01051E+00  3.39113E+00  2.66099E+00
   2.13245E+00 -4.09534E-01  1.34438E+00  3.06777E+00  2.49190E+00  2.60625E+00  2.20008E+00  1.14667E+00  1.86533E+00  3.13773E-01
   2.38260E+00  2.42509E+00  2.54338E+00  1.56545E+00  2.55703E+00  2.05148E+00  2.10135E+00  1.28056E+00  2.69303E+00  1.29650E+00
   1.25260E+00  1.68351E+00  6.26127E-01  2.19519E+00  1.17819E+00  1.62970E+00  1.37552E+00  1.18094E+00  2.12607E+00  2.78571E+00
   3.57295E+00  2.64804E+00  2.82640E+00  2.77159E+00  1.53215E+00 -1.24855E-02  1.40741E+00  3.19621E+00  1.79667E+00  1.76682E+00
   2.32224E+00  1.14485E+00  3.34625E+00  3.24889E+00  2.28275E+00  3.21297E+00 -5.04902E-01  8.57007E-01  1.59949E+00 -8.49119E-01
   3.38749E+00  3.05246E-01  3.24714E-01  7.31011E-01  2.08490E+00  2.65447E+00  3.37138E+00  3.58296E+00  2.06328E+00  8.87010E-01
   1.84646E+00  1.04830E+00  1.04385E+00  2.67265E+00  2.74924E+00  2.38975E+00  4.01208E+00  1.06641E+00  2.16726E+00  2.24686E+00
   1.26073E+00  2.59667E+00  1.88110E+00  1.43632E+00  1.12240E+00  2.42638E+00  1.11109E+00  7.44000E-01  1.40747E+00  1.06144E+00
   3.60122E+00  9.66273E-01  2.72553E+00  2.38757E+00  2.04208E+00  5.29835E-01  1.26602E+00  1.81946E+00  2.96131E+00  5.08295E-01
   2.58474E+00  7.42240E-01  1.99684E+00  1.08646E+00  1.23022E+00  3.68459E+00  2.03423E+00  2.29480E+00  2.59374E+00  1.09776E+00
   9.24063E-01  2.12324E+00 -7.16496E-01  2.11478E+00  5.86774E-01  1.43083E-01  1.63212E+00 -1.26910E-01  1.93509E+00  9.32314E-01
   5.99023E-01  2.30928E+00  2.62608E+00  2.47721E+00  2.02387E+00  8.50586E-01  1.67200E+00  1.50808E+00  2.32367E+00  2.38763E+00
   3.22264E+00  8.52666E-01  1.96458E+00  2.09363E+00  1.49748E+00  2.48670E+00  2.14635E+00  2.70883E+00  6.28994E-01  9.31249E-01
   8.71965E-01  1.62764E+00  1.22957E+00  1.15920E+00  3.49445E+00  7.77458E-01  1.06542E+00  2.28990E-01  2.31733E+00  5.89801E-01
   1.09679E+00  9.35894E-01  2.87947E+00  1.10019E+00  3.97112E+00  1.08157E+00  1.19099E+00  2.93804E+00  1.58086E+00  1.09223E+00
   1.59812E+00  1.90133E+00  1.65836E+00  1.87177E+00  2.55728E+00  2.57538E+00  1.84782E+00  1.29802E+00  2.98764E+00  1.43993E+00
   2.47948E-01  1.19081E+00  9.73563E-01  1.13412E+00  1.58569E+00  8.48638E-01  8.32721E-01 -1.00700E+00  1.90295E+00 -2.18594E-01
   1.91571E+00  3.28143E-01 -1.83485E-01  1.15437E+00  1.23997E+00  1.45127E+00  5.84722E-01 -1.73917E-01  1.32346E+00 -6.08448E-01
   1.65703E+00 -1.54763E+00  1.77998E+00 -5.82838E-01  1.40465E+00  3.27669E+00  2.37474E+00  3.17783E+00  1.58514E+00  3.41285E+00
   3.71257E+00  3.66862E+00  2.74430E+00  1.90522E+00  1.03603E+00  7.04959E-01  2.02130E+00  3.81761E+00  5.98888E-01  1.22114E+00
   3.57523E+00  1.20006E+00  9.08448E-01  1.59782E+00  9.87374E-01  2.52954E-01  2.02971E+00  1.92780E+00  1.05313E+00  1.43865E+00
   1.19758E+00  2.61609E+00  1.93965E+00  1.78257E+00  1.21740E+00  2.74855E+00  4.48530E-01  1.01492E+00  1.86508E+00  5.10052E-01
   1.38658E+00  1.69077E+00  2.35091E+00  1.79909E+00  1.68441E+00  5.02212E-01  4.08365E+00  2.03390E+00  1.69232E+00  1.55256E+00
   2.87283E+00  3.67038E+00  4.70323E+00  5.21322E+00  2.71206E+00  5.30728E+00  5.16542E+00  5.61036E+00  4.62436E+00  6.83791E+00
   6.38834E+00  8.01106E+00  9.00084E+00  7.17767E+00  8.15143E+00  6.07007E+00  7.81537E+00  7.11056E+00  9.38035E+00  7.78498E+00
   6.51448E+00  7.71127E+00  7.12998E+00  6.97194E+00  6.86682E+00  5.21070E+00  6.44653E+00  4.45465E+00  4.68623E+00  4.32204E+00
   3.91969E+00  4.76976E+00  3.71728E+00  2.45304E+00  2.55787E+00  4.08266E+00  1.96613E+00  2.00440E+00  4.49836E-01  1.45246E+00
   2.04012E+00 -1.96469E-01  2.26949E+00 -2.66546E-02  1.04221E+00  7.28067E-01  1.52538E+00 -7.41147E-01  2.35847E-01  7.64015E-01
  -6.45262E-01  4.76184E-01  1.92168E+00  6.37935E-01  8.59594E-01  2.03634E+00  2.35172E+00  2.18026E+00  1.31316E+00  2.87641E+00
   1.12037E+00  1.71830E+00  2.62874E+00  1.95212E+00  1.23677E+00  3.28997E+00  2.25967E+00  2.25395E+00  2.03741E+00  9.27004E-01
   2.90781E+00  2.26521E+00 -5.57407E-02  9.77526E-01  2.18749E+00  1.24856E+00  1.79027E+00  9.41910E-01  2.66003E+00  2.94909E+00
   2.61488E+00  1.95684E+00  2.99349E-01  2.50902E+00  2.97035E+00  2.15119E-01  2.23430E+00  1.65469E+00  2.55153E+00  8.50091E-01
   2.04775E-01  4.78683E-01  8.00957E-01  3.28185E-01  3.21494E+00  1.39497E+00  1.08033E+00 -8.67422E-02  3.00379E+00  2.28850E+00
   2.28904E+00  2.07258E+00  2.30255E+00  2.33484E+00  3.32425E+00  1.95543E+00  7.38111E-01  1.94283E+00  2.68143E+00  1.73878E+00
   2.56625E+00  1.84493E+00  1.77678E+00  2.52198E+00  3.05444E+00  2.21849E+00  3.52035E+00  2.03816E+00  1.87469E+00  2.26637E+00
   1.52695E+00  2.46109E+00  1.15714E+00  2.07847E+00  1.86706E+00  8.85816E-01  2.91604E+00  6.07814E-01  7.06123E-01  2.01640E-02
   6.40594E-01  2.30187E+00  1.39374E+00  4.74891E-01  2.71305E+00  1.49919E+00  2.01111E+00  3.31281E+00  4.69189E-01  1.04094E+00
   8.76251E-01  2.38117E+00 -9.44322E-02  1.06794E+00  1.59737E+00  1.65534E+00  1.29931E+00 -7.56238E-01  1.60686E+00 -1.79672E+00
   3.32655E-01 -3.69528E-01 -6.46360E-01 -2.39213E-02  1.16296E+00  8.17274E-01  1.06742E+00  3.06626E-01 -3.01841E-01  5.08899E-01
   2.36562E-02  7.73432E-01 -5.25584E-01  4.25361E-01 -8.58380E-01 -8.42857E-01 -6.07950E-01 -4.14420E-01 -5.56071E-02  4.81063E-01
  -5.21187E-01 -1.12205E+00 -7.62918E-01  3.12632E-01 -8.02155E-01 -9.46875E-02  7.21242E-01  4.80156E-01 -1.43409E+00  1.19352E+00
   2.01703E-01  8.23132E-01  8.33957E-01 -4.69041E-01  9.96028E-01  1.80617E+00  2.50028E-01 -3.36575E-01 -2.43657E-01 -8.57469E-02
   1.90743E-01  4.29949E-01  4.01645E-01  7.08168E-01  8.50263E-01 -4.02189E-01  1.54261E+00  3.88210E-01 -4.18891E-01  2.52827E-01
   1.30600E+00  3.68623E-01 -9.78462E-01 -1.66089E+00  5.87157E-01 -1.07071E-01 -1.98705E-03 -5.73280E-01
 NY points of the fit to the data follow
   2.37654E+00  2.37843E+00  2.37105E+00  2.37846E+00  2.37308E+00  2.39193E+00  2.39691E+00  2.43849E+00  2.44601E+00  2.49381E+00
   2.48188E+00  2.52581E+00  2.49078E+00  2.53148E+00  2.48567E+00  2.54933E+00  2.52264E+00  2.61074E+00  2.60476E+00  2.69616E+00
   2.68808E+00  2.75532E+00  2.73663E+00  2.76961E+00  2.75851E+00  2.75703E+00  2.78016E+00  2.75355E+00  2.83005E+00  2.76778E+00
   2.88658E+00  2.77260E+00  2.92013E+00  2.74389E+00  2.91449E+00  2.68057E+00  2.87914E+00  2.60902E+00  2.83716E+00  2.54595E+00
   2.78419E+00  2.48854E+00  2.72697E+00  2.43967E+00  2.66308E+00  2.40073E+00  2.59903E+00  2.37607E+00  2.52087E+00  2.30621E+00
   2.38792E+00  2.21177E+00  2.26215E+00  2.13726E+00  2.17130E+00  2.11600E+00  2.15760E+00  2.12467E+00  2.13854E+00  2.11486E+00
   2.10271E+00  2.08815E+00  2.07249E+00  2.05751E+00  2.04403E+00  2.03203E+00  2.02043E+00  2.01065E+00  2.00039E+00  1.99220E+00
   1.98289E+00  1.97571E+00  1.96706E+00  1.96038E+00  1.95227E+00  1.94578E+00  1.93822E+00  1.93195E+00  1.92497E+00  1.91889E+00
   1.91253E+00  1.90662E+00  1.90081E+00  1.89506E+00  1.88970E+00  1.88409E+00  1.87906E+00  1.87361E+00  1.86878E+00  1.86352E+00
   1.85880E+00  1.85378E+00  1.84918E+00  1.84444E+00  1.83992E+00  1.83550E+00  1.83118E+00  1.82720E+00  1.82321E+00  1.81965E+00
   1.81609E+00  1.81300E+00  1.80983E+00  1.80730E+00  1.80455E+00  1.80271E+00  1.80061E+00  1.79993E+00  1.79929E+00  1.80223E+00
   1.80316E+00  1.80977E+00  1.81177E+00  1.82132E+00  1.82416E+00  1.83704E+00  1.84115E+00  1.85627E+00  1.86077E+00  1.87710E+00
   1.88089E+00  1.89841E+00  1.90147E+00  1.91941E+00  1.92267E+00  1.93899E+00  1.94238E+00  1.95368E+00  1.95631E+00  1.95984E+00
   1.96081E+00  1.95600E+00  1.95537E+00  1.94197E+00  1.94055E+00  1.91895E+00  1.91796E+00  1.88865E+00  1.88875E+00  1.85266E+00
   1.85349E+00  1.81249E+00  1.81314E+00  1.77024E+00  1.77111E+00  1.72970E+00  1.73154E+00  1.69489E+00  1.69772E+00  1.66834E+00
   1.67004E+00  1.64379E+00  1.64289E+00  1.62058E+00  1.61750E+00  1.59977E+00  1.59434E+00  1.57709E+00  1.56751E+00  1.55192E+00
   1.54032E+00  1.52838E+00  1.51814E+00  1.50962E+00  1.50173E+00  1.49436E+00  1.48749E+00  1.48011E+00  1.47377E+00  1.46588E+00
   1.45996E+00  1.45194E+00  1.44706E+00  1.43944E+00  1.43641E+00  1.42908E+00  1.42774E+00  1.42000E+00  1.41994E+00  1.41090E+00
   1.41142E+00  1.40287E+00  1.40489E+00  1.39916E+00  1.40379E+00  1.40275E+00  1.41076E+00  1.41590E+00  1.42726E+00  1.43362E+00
   1.44828E+00  1.44971E+00  1.46088E+00  1.45725E+00  1.46296E+00  1.46144E+00  1.47201E+00  1.48838E+00  1.53251E+00  1.54963E+00
   1.62946E+00  1.61822E+00  1.71919E+00  1.65187E+00  1.74543E+00  1.61919E+00  1.72438E+00  1.56124E+00  1.70653E+00  1.52253E+00
   1.72311E+00  1.50514E+00  1.73987E+00  1.46772E+00  1.70449E+00  1.37363E+00  1.58998E+00  1.23460E+00  1.44439E+00  1.10982E+00
   1.32320E+00  1.03719E+00  1.24661E+00  1.01246E+00  1.18862E+00  1.00330E+00  1.13711E+00  1.01433E+00  1.11833E+00  1.06515E+00
   1.15610E+00  1.17317E+00  1.24160E+00  1.31320E+00  1.36781E+00  1.47629E+00  1.53894E+00  1.66216E+00  1.75405E+00  1.82800E+00
   1.90133E+00  1.91556E+00  1.95740E+00  1.91312E+00  1.91286E+00  1.84773E+00  1.86454E+00  1.81624E+00  1.83999E+00  1.81575E+00
   1.83772E+00  1.83555E+00  1.84080E+00  1.85366E+00  1.83312E+00  1.86801E+00  1.82520E+00  1.88371E+00  1.82625E+00  1.90313E+00
   1.82939E+00  1.91139E+00  1.81567E+00  1.89259E+00  1.78823E+00  1.85617E+00  1.76560E+00  1.83053E+00  1.75710E+00  1.80632E+00
   1.74929E+00  1.77440E+00  1.72076E+00  1.72207E+00  1.67877E+00  1.67266E+00  1.64166E+00  1.63260E+00  1.61137E+00  1.60403E+00
   1.59003E+00  1.59880E+00  1.60965E+00  1.64610E+00  1.68982E+00  1.76136E+00  1.85196E+00  1.96652E+00  2.11486E+00  2.29384E+00
   2.51323E+00  2.76844E+00  3.06760E+00  3.40359E+00  3.78024E+00  4.19014E+00  4.62790E+00  5.08124E+00  5.53956E+00  5.98856E+00
   6.41373E+00  6.80099E+00  7.13480E+00  7.40546E+00  7.60160E+00  7.71905E+00  7.75481E+00  7.71499E+00  7.61361E+00  7.47430E+00
   7.23189E+00  6.98631E+00  6.62013E+00  6.27574E+00  5.82801E+00  5.41188E+00  4.92744E+00  4.53997E+00  4.13061E+00  3.82169E+00
   3.53832E+00  3.28708E+00  3.10756E+00  2.83200E+00  2.72421E+00  2.38122E+00  2.33645E+00  1.91288E+00  1.97291E+00  1.51109E+00
   1.73305E+00  1.24317E+00  1.62264E+00  1.09076E+00  1.60493E+00  1.01103E+00  1.61422E+00  9.84015E-01  1.65291E+00  1.04527E+00
   1.77061E+00  1.23133E+00  1.97623E+00  1.51239E+00  2.21868E+00  1.83243E+00  2.44409E+00  2.14872E+00  2.62293E+00  2.42652E+00
   2.67156E+00  2.42868E+00  2.48903E+00  2.24798E+00  2.17176E+00  1.96743E+00  1.82201E+00  1.73538E+00  1.67586E+00  1.63140E+00
   1.59624E+00  1.56724E+00  1.54235E+00  1.52027E+00  1.50001E+00  1.48092E+00  1.46242E+00  1.44422E+00  1.42604E+00  1.40786E+00
   1.38968E+00  1.37173E+00  1.35425E+00  1.33766E+00  1.32237E+00  1.30894E+00  1.29788E+00  1.28980E+00  1.28525E+00  1.28487E+00
   1.28919E+00  1.29881E+00  1.31420E+00  1.33588E+00  1.36422E+00  1.39956E+00  1.44206E+00  1.49183E+00  1.54868E+00  1.61234E+00
   1.68222E+00  1.75754E+00  1.83718E+00  1.91986E+00  2.00392E+00  2.08760E+00  2.16884E+00  2.24560E+00  2.31567E+00  2.37700E+00
   2.42760E+00  2.46580E+00  2.49015E+00  2.49970E+00  2.49382E+00  2.47249E+00  2.43603E+00  2.38533E+00  2.32158E+00  2.24642E+00
   2.16162E+00  2.06924E+00  1.97130E+00  1.86992E+00  1.76700E+00  1.66439E+00  1.56360E+00  1.46603E+00  1.37267E+00  1.28438E+00
   1.20164E+00  1.12481E+00  1.05394E+00  9.89020E-01  9.29803E-01  8.76046E-01  8.27334E-01  7.83316E-01  7.43519E-01  7.07572E-01
   6.75019E-01  6.45527E-01  6.18690E-01  5.94236E-01  5.71824E-01  5.51251E-01  5.32238E-01  5.14642E-01  4.98238E-01  4.82929E-01
   4.68537E-01  4.55002E-01  4.42177E-01  4.30032E-01  4.18442E-01  4.07398E-01  3.96793E-01  3.86635E-01  3.76828E-01  3.67390E-01
   3.58234E-01  3.49388E-01  3.40771E-01  3.32419E-01  3.24253E-01  3.16315E-01  3.08529E-01  3.00941E-01  2.93479E-01  2.86190E-01
   2.79005E-01  2.71974E-01  2.65028E-01  2.58219E-01  2.51482E-01  2.44868E-01  2.38313E-01  2.31868E-01  2.25473E-01  2.19179E-01
   2.12925E-01  2.06764E-01  2.00637E-01  1.94594E-01  1.88579E-01  1.82642E-01  1.76729E-01  1.70889E-01  1.65066E-01  1.59312E-01
   1.53573E-01  1.47899E-01  1.42236E-01  1.36635E-01  1.31042E-01  1.25508E-01  1.19980E-01  1.14510E-01  1.09043E-01  1.03633E-01
   9.82256E-02  9.28736E-02  8.75247E-02  8.22321E-02  7.69436E-02  7.17138E-02  6.64915E-02  6.13342E-02
 NY background values follow
     2.296E+00    2.291E+00    2.287E+00    2.282E+00    2.277E+00    2.273E+00    2.268E+00    2.264E+00    2.259E+00    2.254E+00
     2.250E+00    2.245E+00    2.241E+00    2.236E+00    2.232E+00    2.227E+00    2.222E+00    2.218E+00    2.213E+00    2.209E+00
     2.204E+00    2.199E+00    2.195E+00    2.190E+00    2.186E+00    2.181E+00    2.177E+00    2.172E+00    2.167E+00    2.163E+00
     2.158E+00    2.154E+00    2.149E+00    2.144E+00    2.140E+00    2.135E+00    2.131E+00    2.126E+00    2.122E+00    2.117E+00
     2.112E+00    2.108E+00    2.103E+00    2.099E+00    2.094E+00    2.089E+00    2.085E+00    2.080E+00    2.076E+00    2.071E+00
     2.067E+00    2.062E+00    2.057E+00    2.053E+00    2.048E+00    2.044E+00    2.039E+00    2.034E+00    2.030E+00    2.025E+00
     2.021E+00    2.016E+00    2.012E+00    2.007E+00    2.002E+00    1.998E+00    1.993E+00    1.989E+00    1.984E+00    1.979E+00
     1.975E+00    1.970E+00    1.966E+00    1.961E+00    1.957E+00    1.952E+00    1.947E+00    1.943E+00    1.938E+00    1.934E+00
     1.929E+00    1.924E+00    1.920E+00    1.915E+00    1.911E+00    1.906E+00    1.902E+00    1.897E+00    1.892E+00    1.888E+00
     1.883E+00    1.879E+00    1.874E+00    1.869E+00    1.865E+00    1.860E+00    1.856E+00    1.851E+00    1.846E+00    1.842E+00
     1.837E+00    1.833E+00    1.828E+00    1.824E+00    1.819E+00    1.814E+00    1.810E+00    1.805E+00    1.801E+00    1.796E+00
     1.791E+00    1.787E+00    1.782E+00    1.778E+00    1.773E+00    1.769E+00    1.764E+00    1.759E+00    1.755E+00    1.750E+00
     1.746E+00    1.741E+00    1.736E+00    1.732E+00    1.727E+00    1.723E+00    1.718E+00    1.714E+00    1.709E+00    1.704E+00
     1.700E+00    1.695E+00    1.691E+00    1.686E+00    1.681E+00    1.677E+00    1.672E+00    1.668E+00    1.663E+00    1.659E+00
     1.654E+00    1.649E+00    1.645E+00    1.640E+00    1.636E+00    1.631E+00    1.626E+00    1.622E+00    1.617E+00    1.613E+00
     1.608E+00    1.604E+00    1.599E+00    1.594E+00    1.590E+00    1.585E+00    1.581E+00    1.576E+00    1.571E+00    1.567E+00
     1.562E+00    1.558E+00    1.553E+00    1.549E+00    1.544E+00    1.539E+00    1.535E+00    1.530E+00    1.526E+00    1.521E+00
     1.516E+00    1.512E+00    1.507E+00    1.503E+00    1.498E+00    1.494E+00    1.489E+00    1.484E+00    1.480E+00    1.475E+00
     1.471E+00    1.466E+00    1.461E+00    1.457E+00    1.452E+00    1.448E+00    1.443E+00    1.439E+00    1.434E+00    1.429E+00
     1.425E+00    1.420E+00    1.416E+00    1.411E+00    1.406E+00    1.402E+00    1.397E+00    1.393E+00    1.388E+00    1.383E+00
     1.379E+00    1.374E+00    1.370E+00    1.365E+00    1.361E+00    1.356E+00    1.351E+00    1.347E+00    1.342E+00    1.338E+00
     1.333E+00    1.328E+00    1.324E+00    1.319E+00    1.315E+00    1.310E+00    1.306E+00    1.301E+00    1.296E+00    1.292E+00
     1.287E+00    1.283E+00    1.278E+00    1.273E+00    1.269E+00    1.264E+00    1.260E+00    1.255E+00    1.251E+00    1.246E+00
     1.241E+00    1.237E+00    1.232E+00    1.228E+00    1.223E+00    1.218E+00    1.214E+00    1.209E+00    1.205E+00    1.200E+00
     1.196E+00    1.191E+00    1.186E+00    1.182E+00    1.177E+00    1.173E+00    1.168E+00    1.163E+00    1.159E+00    1.154E+00
     1.150E+00    1.145E+00    1.141E+00    1.136E+00    1.131E+00    1.127E+00    1.122E+00    1.118E+00    1.113E+00    1.108E+00
     1.104E+00    1.099E+00    1.095E+00    1.090E+00    1.085E+00    1.081E+00    1.076E+00    1.072E+00    1.067E+00    1.063E+00
     1.058E+00    1.053E+00    1.049E+00    1.044E+00    1.040E+00    1.035E+00    1.030E+00    1.026E+00    1.021E+00    1.017E+00
     1.012E+00    1.008E+00    1.003E+00    9.984E-01    9.938E-01    9.892E-01    9.846E-01    9.800E-01    9.755E-01    9.709E-01
     9.663E-01    9.617E-01    9.571E-01    9.525E-01    9.479E-01    9.434E-01    9.388E-01    9.342E-01    9.296E-01    9.250E-01
     9.204E-01    9.159E-01    9.113E-01    9.067E-01    9.021E-01    8.975E-01    8.929E-01    8.883E-01    8.838E-01    8.792E-01
     8.746E-01    8.700E-01    8.654E-01    8.608E-01    8.562E-01    8.517E-01    8.471E-01    8.425E-01    8.379E-01    8.333E-01
     8.287E-01    8.242E-01    8.196E-01    8.150E-01    8.104E-01    8.058E-01    8.012E-01    7.966E-01    7.921E-01    7.875E-01
     7.829E-01    7.783E-01    7.737E-01    7.691E-01    7.645E-01    7.600E-01    7.554E-01    7.508E-01    7.462E-01    7.416E-01
     7.370E-01    7.325E-01    7.279E-01    7.233E-01    7.187E-01    7.141E-01    7.095E-01    7.049E-01    7.004E-01    6.958E-01
     6.912E-01    6.866E-01    6.820E-01    6.774E-01    6.728E-01    6.683E-01    6.637E-01    6.591E-01    6.545E-01    6.499E-01
     6.453E-01    6.407E-01    6.362E-01    6.316E-01    6.270E-01    6.224E-01    6.178E-01    6.132E-01    6.087E-01    6.041E-01
     5.995E-01    5.949E-01    5.903E-01    5.857E-01    5.811E-01    5.766E-01    5.720E-01    5.674E-01    5.628E-01    5.582E-01
     5.536E-01    5.490E-01    5.445E-01    5.399E-01    5.353E-01    5.307E-01    5.261E-01    5.215E-01    5.169E-01    5.124E-01
     5.078E-01    5.032E-01    4.986E-01    4.940E-01    4.894E-01    4.848E-01    4.803E-01    4.757E-01    4.711E-01    4.665E-01
     4.619E-01    4.573E-01    4.528E-01    4.482E-01    4.436E-01    4.390E-01    4.344E-01    4.298E-01    4.252E-01    4.207E-01
     4.161E-01    4.115E-01    4.069E-01    4.023E-01    3.977E-01    3.931E-01    3.886E-01    3.840E-01    3.794E-01    3.748E-01
     3.702E-01    3.656E-01    3.610E-01    3.565E-01    3.519E-01    3.473E-01    3.427E-01    3.381E-01    3.335E-01    3.289E-01
     3.244E-01    3.198E-01    3.152E-01    3.106E-01    3.060E-01    3.014E-01    2.968E-01    2.923E-01    2.877E-01    2.831E-01
     2.785E-01    2.739E-01    2.693E-01    2.647E-01    2.602E-01    2.556E-01    2.510E-01    2.464E-01    2.418E-01    2.372E-01
     2.327E-01    2.281E-01    2.235E-01    2.189E-01    2.143E-01    2.097E-01    2.051E-01    2.006E-01    1.960E-01    1.914E-01
     1.868E-01    1.822E-01    1.776E-01    1.730E-01    1.685E-01    1.639E-01    1.593E-01    1.547E-01    1.501E-01    1.455E-01
     1.409E-01    1.364E-01    1.318E-01    1.272E-01    1.226E-01    1.180E-01    1.134E-01    1.088E-01    1.043E-01    9.967E-02
     9.509E-02    9.050E-02    8.592E-02    8.133E-02    7.675E-02    7.216E-02    6.757E-02    6.299E-02    5.840E-02    5.382E-02
     4.923E-02    4.465E-02    4.006E-02    3.548E-02    3.089E-02    2.630E-02    2.172E-02    1.713E-02
 Ala      Conc. = 6.38E+02
