 LCModel (Version 6.3-1L) Copyright: S.W. Provencher.          Ref.: Magn. Reson. Med. 30:672-679 (1993).                
 Slice#3 Row#12 Col#9  PD_24_press_2_raw_act
 36 lines in following concentration table = NCONC+1
    Conc.  %SD /Cr+PCr  Metabolite                                         
    2.617 166%   0.482 Ala                                                 
    1.395  96%   0.257 Asp                                                 
    4.486  93%   0.827 Cr                                                  
    0.941 354%   0.173 PCr                                                 
    0.799 100%   0.147 GABA                                                
    0.859  94%   0.158 Glc                                                 
    0.000 999%   0.000 Gln                                                 
    9.279 114%   1.710 Glu                                                 
    0.000 999%   0.000 GPC                                                 
    2.422  97%   0.446 PCh                                                 
    1.488 208%   0.274 GSH                                                 
    0.000 999%   0.000 Ins                                                 
    0.000 999%   0.000 Lac                                                 
   13.748  65%   2.534 NAA                                                 
    1.932 205%   0.356 NAAG                                                
    0.282  95% 5.2E-02 Scyllo                                              
    1.491  90%   0.275 Tau                                                 
    0.724 162%   0.133 -CrCH2                                              
    2.422  80%   0.446 GPC+PCh                                             
   15.680  68%   2.890 NAA+NAAG                                            
    5.427  82%   1.000 Cr+PCr                                              
    9.279 114%   1.710 Glu+Gln                                             
  485.411  37%  89.451 Lip13a                                              
   66.126 172%  12.186 Lip13b                                              
  143.989  37%  26.534 Lip09                                               
   67.185  92%  12.381 MM09                                                
   72.516  51%  13.363 Lip20                                               
    0.000 999%   0.000 MM20                                                
   40.939 117%   7.544 MM12                                                
    0.000 999%   0.000 MM14                                                
   43.528 142%   8.021 MM17                                                
  551.536  22% 101.636 Lip13a+Lip13b                                       
  592.475  18% 109.180 MM14+Lip13a+Lip13b+MM12                             
  211.174  24%  38.915 MM09+Lip09                                          
   72.516  51%  13.363 MM20+Lip20                                          
   6 lines in following misc. output table
  FWHM = 0.015 ppm    S/N =   2                                            
  Data shift = 0.015 ppm                                                   
  Ph:  21 deg      46.3 deg/ppm                                            
  alphaB,S = 8.5E+01,   4.0E-01                                            
   14 spline knots.   Ns = 5(1)                                            
   2 inflections.     3 extrema                                            
  498 points on ppm-axis = NY
      4.000000     3.992357     3.984714     3.977070     3.969427     3.961784     3.954141     3.946497     3.938854     3.931211
      3.923568     3.915925     3.908281     3.900638     3.892995     3.885352     3.877708     3.870065     3.862422     3.854779
      3.847136     3.839492     3.831849     3.824206     3.816563     3.808919     3.801276     3.793633     3.785990     3.778347
      3.770703     3.763060     3.755417     3.747774     3.740130     3.732487     3.724844     3.717201     3.709558     3.701914
      3.694271     3.686628     3.678985     3.671341     3.663698     3.656055     3.648412     3.640769     3.633125     3.625482
      3.617839     3.610196     3.602552     3.594909     3.587266     3.579623     3.571980     3.564336     3.556693     3.549050
      3.541407     3.533763     3.526120     3.518477     3.510834     3.503191     3.495547     3.487904     3.480261     3.472618
      3.464974     3.457331     3.449688     3.442045     3.434402     3.426758     3.419115     3.411472     3.403829     3.396185
      3.388542     3.380899     3.373256     3.365613     3.357969     3.350326     3.342683     3.335040     3.327396     3.319753
      3.312110     3.304467     3.296824     3.289180     3.281537     3.273894     3.266251     3.258607     3.250964     3.243321
      3.235678     3.228034     3.220391     3.212748     3.205105     3.197462     3.189818     3.182175     3.174532     3.166889
      3.159245     3.151602     3.143959     3.136316     3.128673     3.121029     3.113386     3.105743     3.098100     3.090456
      3.082813     3.075170     3.067527     3.059884     3.052240     3.044597     3.036954     3.029311     3.021667     3.014024
      3.006381     2.998738     2.991095     2.983451     2.975808     2.968165     2.960522     2.952878     2.945235     2.937592
      2.929949     2.922306     2.914662     2.907019     2.899376     2.891733     2.884089     2.876446     2.868803     2.861160
      2.853517     2.845873     2.838230     2.830587     2.822944     2.815300     2.807657     2.800014     2.792371     2.784728
      2.777084     2.769441     2.761798     2.754155     2.746511     2.738868     2.731225     2.723582     2.715939     2.708295
      2.700652     2.693009     2.685366     2.677722     2.670079     2.662436     2.654793     2.647150     2.639506     2.631863
      2.624220     2.616577     2.608933     2.601290     2.593647     2.586004     2.578361     2.570717     2.563074     2.555431
      2.547788     2.540144     2.532501     2.524858     2.517215     2.509572     2.501928     2.494285     2.486642     2.478999
      2.471355     2.463712     2.456069     2.448426     2.440783     2.433139     2.425496     2.417853     2.410210     2.402566
      2.394923     2.387280     2.379637     2.371994     2.364350     2.356707     2.349064     2.341421     2.333777     2.326134
      2.318491     2.310848     2.303205     2.295561     2.287918     2.280275     2.272632     2.264988     2.257345     2.249702
      2.242059     2.234416     2.226772     2.219129     2.211486     2.203843     2.196199     2.188556     2.180913     2.173270
      2.165627     2.157983     2.150340     2.142697     2.135054     2.127410     2.119767     2.112124     2.104481     2.096838
      2.089194     2.081551     2.073908     2.066265     2.058621     2.050978     2.043335     2.035692     2.028049     2.020405
      2.012762     2.005119     1.997476     1.989833     1.982190     1.974546     1.966903     1.959260     1.951617     1.943974
      1.936331     1.928688     1.921045     1.913402     1.905759     1.898115     1.890472     1.882829     1.875186     1.867543
      1.859900     1.852257     1.844614     1.836971     1.829327     1.821684     1.814041     1.806398     1.798755     1.791112
      1.783469     1.775826     1.768183     1.760540     1.752896     1.745253     1.737610     1.729967     1.722324     1.714681
      1.707038     1.699395     1.691752     1.684108     1.676465     1.668822     1.661179     1.653536     1.645893     1.638250
      1.630607     1.622964     1.615321     1.607677     1.600034     1.592391     1.584748     1.577105     1.569462     1.561819
      1.554176     1.546533     1.538890     1.531246     1.523603     1.515960     1.508317     1.500674     1.493031     1.485388
      1.477745     1.470102     1.462458     1.454815     1.447172     1.439529     1.431886     1.424243     1.416600     1.408957
      1.401314     1.393671     1.386027     1.378384     1.370741     1.363098     1.355455     1.347812     1.340169     1.332526
      1.324883     1.317240     1.309596     1.301953     1.294310     1.286667     1.279024     1.271381     1.263738     1.256095
      1.248452     1.240808     1.233165     1.225522     1.217879     1.210236     1.202593     1.194950     1.187307     1.179664
      1.172021     1.164377     1.156734     1.149091     1.141448     1.133805     1.126162     1.118519     1.110876     1.103233
      1.095590     1.087946     1.080303     1.072660     1.065017     1.057374     1.049731     1.042088     1.034445     1.026802
      1.019158     1.011515     1.003872     0.996229     0.988586     0.980943     0.973300     0.965657     0.958014     0.950371
      0.942727     0.935084     0.927441     0.919798     0.912155     0.904512     0.896869     0.889226     0.881583     0.873940
      0.866296     0.858653     0.851010     0.843367     0.835724     0.828081     0.820438     0.812795     0.805152     0.797508
      0.789865     0.782222     0.774579     0.766936     0.759293     0.751650     0.744007     0.736364     0.728721     0.721077
      0.713434     0.705791     0.698148     0.690505     0.682862     0.675219     0.667576     0.659933     0.652290     0.644646
      0.637003     0.629360     0.621717     0.614074     0.606431     0.598788     0.591145     0.583502     0.575858     0.568215
      0.560572     0.552929     0.545286     0.537643     0.530000     0.522357     0.514714     0.507071     0.499427     0.491784
      0.484141     0.476498     0.468855     0.461212     0.453569     0.445925     0.438282     0.430639     0.422996     0.415353
      0.407710     0.400067     0.392424     0.384780     0.377137     0.369494     0.361851     0.354208     0.346565     0.338922
      0.331278     0.323635     0.315992     0.308349     0.300706     0.293063     0.285420     0.277777     0.270133     0.262490
      0.254847     0.247204     0.239561     0.231918     0.224275     0.216631     0.208988     0.201345
 NY phased data points follow
  -1.12879E+00 -3.48202E+00 -4.80855E+00 -1.22312E+00 -3.74871E+00 -1.98247E+00 -4.42651E+00 -2.36361E+00 -5.16411E+00 -1.29945E+00
  -4.66910E+00 -2.31901E-01 -4.16410E+00 -2.97433E+00 -1.13282E+00 -3.24024E+00 -7.89124E-01 -3.31763E+00 -2.47237E+00 -3.80625E+00
  -2.13600E+00 -3.89585E+00 -3.04855E+00 -2.97020E+00 -3.86019E+00 -5.63651E-01 -2.20934E+00  1.90076E-01 -3.81728E+00 -9.73586E-01
  -3.57382E+00 -1.29548E+00 -3.68614E+00  6.54840E-01 -2.61879E+00 -3.17834E+00 -2.41968E+00 -3.69124E+00 -2.50565E+00 -2.95915E+00
  -2.96806E+00  1.42181E+00 -1.97476E+00 -3.28098E+00 -2.40602E+00 -2.46343E+00 -3.51235E+00 -3.80712E+00 -2.22857E+00 -2.15202E-02
  -1.35396E+00 -3.57313E+00 -5.73265E+00 -3.01805E+00 -4.52760E+00 -3.13037E+00 -1.55358E+00 -3.45802E+00 -1.81840E+00 -2.96317E+00
  -2.45264E+00 -7.69364E-01 -4.26166E+00 -1.27581E+00 -4.66008E+00  8.70640E-01 -8.63641E-01  1.38384E-01 -1.23353E+00 -2.38229E+00
  -2.82524E+00 -2.10741E+00 -4.05382E+00 -2.46372E+00 -2.80641E+00 -2.71137E+00 -6.33805E-01 -1.20740E+00 -2.56110E+00 -3.38905E+00
  -1.96207E+00  9.34822E-01 -1.56337E+00  7.03544E-01 -3.44256E+00 -1.73084E+00  2.80208E-03  1.87279E-02 -2.12003E+00 -9.29555E-01
  -2.81717E+00 -1.19690E+00 -2.47883E+00 -4.26797E-01 -1.64664E+00 -1.12378E+00 -2.11743E+00  1.72183E-01 -2.20089E+00 -3.54279E-01
  -2.34066E+00 -1.49124E+00  1.29155E-01  4.83755E-01 -6.67107E-01 -2.02163E+00 -3.44242E+00 -3.87890E+00 -2.36828E+00 -2.32841E+00
  -2.22501E+00 -1.36183E+00 -2.96065E+00 -1.71502E+00 -3.67725E+00 -4.36433E+00 -2.23523E+00 -2.73441E+00 -1.85518E+00 -6.89232E-01
  -1.40897E+00 -3.04062E+00 -4.75009E+00 -3.79684E+00 -3.93524E-01 -2.09961E+00  2.28557E-01  7.91965E-01 -2.25620E+00 -3.21924E+00
  -2.18536E+00 -4.14019E+00 -1.45802E+00 -1.88078E+00 -1.28487E+00 -3.86283E+00 -3.80941E+00 -2.66247E+00 -1.66682E+00 -1.52305E+00
  -2.43771E+00 -2.19014E+00 -3.74926E+00 -1.08054E-01 -6.02025E+00 -1.97662E+00 -1.80658E+00 -8.62319E-01 -1.33322E+00 -4.92572E-01
  -9.12723E-01 -3.58734E+00 -1.20809E+00 -2.47782E+00 -1.06443E+00 -2.12379E+00 -7.45949E-01 -1.97239E+00 -1.34414E+00 -3.34522E+00
   1.07831E-01 -2.34987E+00 -2.62968E+00 -5.16537E-01 -3.04055E+00 -2.47731E+00 -8.48292E-01 -1.90990E+00 -1.39249E+00 -4.42389E-01
  -2.78810E+00 -6.76169E-01 -2.72081E+00  1.07713E+00 -1.18128E+00 -1.33597E+00 -2.19103E+00 -9.61794E-02 -1.18365E-02 -6.43757E-01
  -1.32272E+00 -2.72115E-01 -1.82759E+00 -2.87997E+00 -2.66578E+00 -1.80466E+00 -7.18714E-01 -7.51483E-01 -2.39230E+00 -2.29203E+00
   8.00936E-01  3.30585E-01 -2.02707E+00 -2.88718E+00  7.11043E-01  6.47680E-01 -2.10627E-01 -1.07803E+00 -1.03901E+00 -3.00659E+00
  -4.53251E-01  1.27405E+00 -1.30484E+00  6.40213E-02 -8.69336E-01 -2.83691E-01 -1.69468E+00 -1.21657E+00 -1.29336E+00 -2.40330E+00
   5.06821E-01 -1.87370E+00  1.16353E-01  7.08775E-01  7.30203E-01 -1.27316E+00 -2.99470E+00 -7.21152E-01 -2.17859E+00  2.27733E-01
  -1.63614E+00 -1.24380E+00 -1.18265E+00 -1.46839E+00 -8.17800E-01 -1.24102E+00 -2.66007E-01 -3.33656E-01  9.11220E-01 -1.69157E+00
   8.82300E-02 -9.31273E-01 -1.73700E+00 -1.18042E-01 -6.91535E-01  1.36751E+00  9.43405E-02  1.25156E+00 -3.65524E-01 -9.31600E-01
  -6.87585E-01  1.14086E+00 -4.23296E-01  8.41292E-01  5.72218E-01  1.16253E+00 -4.68222E-01 -1.50492E+00  8.81589E-01  1.40183E-01
  -1.17908E+00 -2.65973E+00 -2.39943E+00  5.08921E-01 -7.47346E-01 -2.02823E+00 -7.71625E-01 -3.36967E+00  5.03354E-01  3.09755E+00
   3.13868E+00 -3.79189E+00 -4.07634E+00 -3.13104E+00 -7.07458E-01 -1.26767E+00 -1.56914E+00 -7.81997E-01 -1.14527E+00  1.88772E+00
   7.90857E-01  9.26184E-01  8.55645E-01 -1.44726E-01 -1.31965E+00 -2.18583E+00 -1.64757E+00 -1.72014E+00 -1.22067E+00 -1.42084E+00
   5.62979E-01  6.89623E-01 -9.50283E-01  1.44759E+00 -2.72763E+00 -2.96031E+00 -1.49498E+00 -1.82134E+00 -1.75242E+00 -1.48489E+00
  -2.24400E+00 -1.82441E+00  1.60495E+00  7.58622E-01  6.00777E-01 -5.99200E-02  1.25458E+00 -1.04271E+00 -2.29127E+00 -4.47130E-01
  -5.11340E-01  6.73732E-01  1.41441E+00  1.51703E+00 -1.41628E-01  2.72969E+00 -9.27053E-01  1.38925E+00 -1.98990E+00 -3.17787E+00
  -1.05872E+00  7.42698E-01  7.36342E-01  1.75869E+00 -1.18407E+00  7.43178E-01  5.21191E-01  1.29462E+00 -2.63693E-01 -1.11872E+00
  -2.11335E+00  4.28504E-01 -2.98653E+00  3.82399E-01  6.89625E-01 -2.32991E+00 -2.72033E+00 -4.79098E+00 -2.49693E+00 -3.59037E+00
  -2.59992E-01 -5.03935E-01 -5.97580E-01 -2.30205E+00 -2.20848E+00 -2.94945E-01  4.04634E-01  1.18787E+00  3.56635E-01  5.22106E-01
  -2.22599E-02  1.21893E+00  2.40716E+00  1.51199E+00  7.38703E-01 -1.13408E-02  1.04588E-01  3.58583E+00  4.13854E+00  3.37109E+00
   1.74544E+00  2.12955E+00  3.07462E+00  4.14781E+00  3.42077E+00  1.41719E+00  3.64969E+00  2.30578E+00  3.21837E+00  3.28739E+00
   4.08037E+00  1.34250E+00  4.14887E-01  1.54241E+00  2.04245E+00  2.45822E+00  2.58108E+00  1.18319E+00  8.38561E-01  1.24912E+00
   2.07594E+00  3.23662E+00  1.63548E+00  1.29468E+00  2.26194E+00  2.73010E+00  2.61930E+00  4.30276E-01  1.60713E+00  2.05578E+00
  -9.25985E-02  1.37055E+00  1.15378E+00  2.16747E+00  3.74205E+00  1.47910E+00  2.28743E+00  3.26208E+00  2.99451E-01  1.80468E+00
  -1.65226E-01  3.25433E-01  3.11347E+00  2.91001E+00  3.51677E+00  1.34408E+00  2.82884E+00  6.66258E-01  1.78731E+00  3.68474E+00
   1.63312E+00 -8.97024E-02  3.62106E+00 -6.18082E-02  1.13715E+00 -2.25249E-01  5.11636E-01  1.46311E-01  1.91473E+00  1.77659E+00
  -6.52211E-01  1.92510E+00  1.12966E+00 -1.76539E-01  1.30185E-01  1.85533E+00 -3.91854E-01  7.22133E-01  2.01647E+00  3.71775E-01
   2.47379E+00  1.11359E+00  1.28710E+00 -1.73198E-01  4.28711E+00 -3.18210E+00  6.15358E-01 -1.76089E+00 -1.07940E+00  2.52446E-01
   1.51057E+00  1.35364E+00 -1.46495E+00 -1.79181E-01 -1.83643E+00 -1.46806E+00  1.44743E+00  1.12333E+00  4.98577E-01 -2.79997E-01
  -2.89617E-01 -2.73361E-01 -1.09140E+00 -4.58418E-01 -1.38020E+00  5.11486E-03 -1.32234E-01  1.36542E+00  1.59233E-02  8.61679E-01
  -1.37084E-01 -9.99961E-02 -2.04052E-01  1.73353E+00 -1.95293E+00  8.56798E-01 -2.75651E+00 -7.84049E-02  1.18632E-01 -4.59346E-01
   2.07035E+00 -1.11768E+00  7.64923E-01  8.32015E-02  6.73272E-01  5.08404E-01  2.05989E+00  1.05588E+00  1.06727E+00  1.36904E-03
   2.10008E+00 -4.17770E-01  5.04865E-01 -7.49228E-01 -1.07290E+00 -1.34093E-01  9.65686E-01  3.51624E-01  8.38065E-01  1.01594E+00
   1.11005E+00  1.22147E-01  7.83428E-01  2.29752E+00  2.82446E+00  2.64231E+00  1.80216E+00 -5.03451E-01 -2.39588E-01 -7.68448E-01
   1.89172E+00  5.21894E-01  1.62227E+00 -3.91496E-01 -2.26384E-01 -9.40063E-02  4.34163E-01  2.34373E-02
 NY points of the fit to the data follow
  -2.47445E+00 -2.46821E+00 -2.46044E+00 -2.44672E+00 -2.43236E+00 -2.43885E+00 -2.51252E+00 -2.60421E+00 -2.48702E+00 -2.00985E+00
  -1.44622E+00 -1.52913E+00 -2.36519E+00 -2.97795E+00 -2.85636E+00 -2.50043E+00 -2.37515E+00 -2.42777E+00 -2.42392E+00 -2.35986E+00
  -2.28952E+00 -2.25567E+00 -2.26006E+00 -2.24638E+00 -2.22165E+00 -2.29688E+00 -2.48347E+00 -2.56005E+00 -2.31906E+00 -2.00316E+00
  -2.02003E+00 -2.18617E+00 -2.14072E+00 -2.05166E+00 -2.20828E+00 -2.46969E+00 -2.54542E+00 -2.44864E+00 -2.28952E+00 -2.11766E+00
  -2.04425E+00 -2.11414E+00 -2.22458E+00 -2.26507E+00 -2.23760E+00 -2.20726E+00 -2.17848E+00 -2.15948E+00 -2.16513E+00 -2.18095E+00
  -2.18580E+00 -2.16296E+00 -2.11874E+00 -2.09739E+00 -2.11267E+00 -2.13308E+00 -2.13942E+00 -2.13315E+00 -2.11913E+00 -2.10127E+00
  -2.09091E+00 -2.09029E+00 -2.08865E+00 -2.07616E+00 -2.05703E+00 -2.04020E+00 -2.04034E+00 -2.05370E+00 -2.06022E+00 -2.06246E+00
  -2.06251E+00 -2.04783E+00 -2.02192E+00 -1.97708E+00 -1.91333E+00 -1.89603E+00 -1.97244E+00 -2.05988E+00 -2.07564E+00 -2.03646E+00
  -1.98184E+00 -1.94205E+00 -1.93653E+00 -1.93380E+00 -1.86613E+00 -1.76959E+00 -1.79552E+00 -1.94654E+00 -2.03182E+00 -1.98042E+00
  -1.89509E+00 -1.87002E+00 -1.90852E+00 -1.95324E+00 -1.95518E+00 -1.90757E+00 -1.83789E+00 -1.78138E+00 -1.84373E+00 -2.11723E+00
  -2.19993E+00 -1.50921E+00 -7.53653E-02  6.17269E-01 -7.81869E-01 -2.75599E+00 -3.17188E+00 -2.42316E+00 -1.82765E+00 -1.76959E+00
  -1.79500E+00 -1.78035E+00 -1.76694E+00 -1.75980E+00 -1.75202E+00 -1.74115E+00 -1.73009E+00 -1.72529E+00 -1.73033E+00 -1.73494E+00
  -1.72692E+00 -1.73900E+00 -1.85929E+00 -1.96647E+00 -1.67685E+00 -7.55606E-01  1.43320E-01 -2.91918E-01 -1.83442E+00 -2.69407E+00
  -2.34511E+00 -1.73750E+00 -1.52053E+00 -1.57418E+00 -1.65956E+00 -1.71162E+00 -1.68682E+00 -1.61401E+00 -1.52392E+00 -1.45716E+00
  -1.44519E+00 -1.48087E+00 -1.52028E+00 -1.51998E+00 -1.48613E+00 -1.46039E+00 -1.46405E+00 -1.47623E+00 -1.46591E+00 -1.44416E+00
  -1.42836E+00 -1.42191E+00 -1.42369E+00 -1.42826E+00 -1.41692E+00 -1.37661E+00 -1.32668E+00 -1.30886E+00 -1.36044E+00 -1.47923E+00
  -1.55553E+00 -1.46240E+00 -1.27388E+00 -1.16133E+00 -1.20329E+00 -1.35209E+00 -1.44841E+00 -1.42781E+00 -1.37637E+00 -1.34995E+00
  -1.32932E+00 -1.29817E+00 -1.30231E+00 -1.36878E+00 -1.46526E+00 -1.48686E+00 -1.33814E+00 -1.15276E+00 -1.16519E+00 -1.35671E+00
  -1.48986E+00 -1.41572E+00 -1.24207E+00 -1.17587E+00 -1.26849E+00 -1.41208E+00 -1.42068E+00 -1.24466E+00 -1.06682E+00 -1.05333E+00
  -1.14008E+00 -1.22503E+00 -1.28089E+00 -1.28242E+00 -1.21967E+00 -1.16119E+00 -1.19607E+00 -1.28177E+00 -1.27597E+00 -1.20042E+00
  -1.16967E+00 -1.14581E+00 -1.05076E+00 -9.68731E-01 -1.02681E+00 -1.14716E+00 -1.21451E+00 -1.21376E+00 -1.20085E+00 -1.23017E+00
  -1.25869E+00 -1.27825E+00 -1.20228E+00 -9.11615E-01 -5.38665E-01 -4.38079E-01 -7.98767E-01 -1.24888E+00 -1.35411E+00 -1.28456E+00
  -1.35995E+00 -1.49109E+00 -1.29039E+00 -7.72388E-01 -4.43005E-01 -5.44450E-01 -7.73143E-01 -8.63431E-01 -8.86644E-01 -9.58249E-01
  -1.03826E+00 -1.00105E+00 -8.61332E-01 -7.48367E-01 -7.12439E-01 -7.05660E-01 -7.09378E-01 -7.63378E-01 -8.69064E-01 -9.61487E-01
  -9.80549E-01 -9.35724E-01 -8.44877E-01 -6.90596E-01 -5.47595E-01 -5.35357E-01 -6.15652E-01 -6.78689E-01 -7.28379E-01 -8.12663E-01
  -8.58964E-01 -8.14721E-01 -6.83562E-01 -4.63410E-01 -1.88040E-01 -3.44846E-01 -1.05509E+00 -9.93889E-01  1.21094E+00  3.86894E+00
   3.00161E+00 -1.02513E+00 -3.32764E+00 -2.47429E+00 -1.01736E+00 -5.74546E-01 -6.37598E-01 -6.22215E-01 -6.36504E-01 -6.61995E-01
  -6.60281E-01 -6.32011E-01 -5.91191E-01 -5.55217E-01 -5.55136E-01 -5.86111E-01 -6.14892E-01 -6.22533E-01 -6.18105E-01 -6.16084E-01
  -6.13264E-01 -5.98722E-01 -5.77342E-01 -5.62813E-01 -5.53924E-01 -5.43264E-01 -5.32658E-01 -5.24773E-01 -5.13955E-01 -4.97778E-01
  -4.77091E-01 -4.53097E-01 -4.31037E-01 -4.14248E-01 -3.97278E-01 -3.76495E-01 -3.54987E-01 -3.36328E-01 -3.18257E-01 -2.96859E-01
  -2.74352E-01 -2.55281E-01 -2.39995E-01 -2.27096E-01 -2.16104E-01 -2.07148E-01 -1.99987E-01 -1.94513E-01 -1.90755E-01 -1.88452E-01
  -1.87341E-01 -1.87225E-01 -1.87867E-01 -1.88808E-01 -1.89422E-01 -1.89233E-01 -1.88082E-01 -1.85834E-01 -1.82238E-01 -1.77066E-01
  -1.70719E-01 -1.65925E-01 -1.63606E-01 -1.18851E-01  1.22305E-02  1.71650E-01  1.46358E-01 -1.71353E-01 -4.42917E-01 -3.42391E-01
  -9.66072E-02 -2.33176E-02 -6.33314E-02  7.78441E-02  4.66762E-01  7.36119E-01  6.22386E-01  3.99766E-01  3.83083E-01  5.30793E-01
   6.81520E-01  7.97540E-01  9.19997E-01  1.05326E+00  1.19827E+00  1.35613E+00  1.52739E+00  1.71171E+00  1.90724E+00  2.11022E+00
   2.31476E+00  2.51303E+00  2.69583E+00  2.85340E+00  2.97660E+00  3.05812E+00  3.09369E+00  3.08278E+00  3.02861E+00  2.93742E+00
   2.81736E+00  2.67731E+00  2.52577E+00  2.37009E+00  2.21586E+00  2.06681E+00  1.92499E+00  1.79128E+00  1.66589E+00  1.54881E+00
   1.43990E+00  1.33904E+00  1.24612E+00  1.16122E+00  1.08454E+00  1.01635E+00  9.56862E-01  9.06135E-01  8.64145E-01  8.30895E-01
   8.06405E-01  7.90673E-01  7.83567E-01  7.84869E-01  7.94325E-01  8.11739E-01  8.36889E-01  8.69459E-01  9.08933E-01  9.54660E-01
   1.00589E+00  1.06182E+00  1.12149E+00  1.18373E+00  1.24714E+00  1.31023E+00  1.37148E+00  1.42939E+00  1.48246E+00  1.52918E+00
   1.56813E+00  1.59813E+00  1.61833E+00  1.62817E+00  1.62736E+00  1.61589E+00  1.59402E+00  1.56241E+00  1.52201E+00  1.47402E+00
   1.41967E+00  1.36029E+00  1.29724E+00  1.23193E+00  1.16575E+00  1.09992E+00  1.03543E+00  9.73122E-01  9.13679E-01  8.57701E-01
   8.05606E-01  7.57616E-01  7.13748E-01  6.73941E-01  6.38098E-01  6.06115E-01  5.77788E-01  5.52833E-01  5.30911E-01  5.11738E-01
   4.95082E-01  4.80755E-01  4.68508E-01  4.58074E-01  4.49191E-01  4.41698E-01  4.35485E-01  4.30456E-01  4.26448E-01  4.23296E-01
   4.20869E-01  4.19129E-01  4.18051E-01  4.17590E-01  4.17628E-01  4.18073E-01  4.18877E-01  4.20063E-01  4.21631E-01  4.23543E-01
   4.25704E-01  4.28067E-01  4.30632E-01  4.33448E-01  4.36507E-01  4.39762E-01  4.43136E-01  4.46618E-01  4.50240E-01  4.54046E-01
   4.58010E-01  4.62077E-01  4.66194E-01  4.70385E-01  4.74691E-01  4.79140E-01  4.83683E-01  4.88270E-01  4.92874E-01  4.97545E-01
   5.02320E-01  5.07203E-01  5.12129E-01  5.17063E-01  5.22010E-01  5.27028E-01  5.32138E-01  5.37319E-01  5.42504E-01  5.47683E-01
   5.52882E-01  5.58160E-01  5.63513E-01  5.68900E-01  5.74266E-01  5.79627E-01  5.85025E-01  5.90503E-01  5.96032E-01  6.01562E-01
   6.07060E-01  6.12567E-01  6.18126E-01  6.23759E-01  6.29412E-01  6.35043E-01  6.40644E-01  6.46275E-01
 NY background values follow
    -2.483E+00   -2.476E+00   -2.470E+00   -2.464E+00   -2.458E+00   -2.451E+00   -2.445E+00   -2.439E+00   -2.433E+00   -2.426E+00
    -2.420E+00   -2.414E+00   -2.408E+00   -2.402E+00   -2.395E+00   -2.389E+00   -2.383E+00   -2.377E+00   -2.370E+00   -2.364E+00
    -2.358E+00   -2.352E+00   -2.345E+00   -2.339E+00   -2.333E+00   -2.327E+00   -2.320E+00   -2.314E+00   -2.308E+00   -2.302E+00
    -2.296E+00   -2.289E+00   -2.283E+00   -2.277E+00   -2.271E+00   -2.264E+00   -2.258E+00   -2.252E+00   -2.246E+00   -2.239E+00
    -2.233E+00   -2.227E+00   -2.221E+00   -2.215E+00   -2.208E+00   -2.202E+00   -2.196E+00   -2.190E+00   -2.183E+00   -2.177E+00
    -2.171E+00   -2.165E+00   -2.158E+00   -2.152E+00   -2.146E+00   -2.140E+00   -2.133E+00   -2.127E+00   -2.121E+00   -2.115E+00
    -2.109E+00   -2.102E+00   -2.096E+00   -2.090E+00   -2.084E+00   -2.077E+00   -2.071E+00   -2.065E+00   -2.059E+00   -2.052E+00
    -2.046E+00   -2.040E+00   -2.034E+00   -2.028E+00   -2.021E+00   -2.015E+00   -2.009E+00   -2.003E+00   -1.996E+00   -1.990E+00
    -1.984E+00   -1.978E+00   -1.971E+00   -1.965E+00   -1.959E+00   -1.953E+00   -1.946E+00   -1.940E+00   -1.934E+00   -1.928E+00
    -1.922E+00   -1.915E+00   -1.909E+00   -1.903E+00   -1.897E+00   -1.890E+00   -1.884E+00   -1.878E+00   -1.872E+00   -1.865E+00
    -1.859E+00   -1.853E+00   -1.847E+00   -1.841E+00   -1.834E+00   -1.828E+00   -1.822E+00   -1.816E+00   -1.809E+00   -1.803E+00
    -1.797E+00   -1.791E+00   -1.784E+00   -1.778E+00   -1.772E+00   -1.766E+00   -1.760E+00   -1.753E+00   -1.747E+00   -1.741E+00
    -1.735E+00   -1.728E+00   -1.722E+00   -1.716E+00   -1.710E+00   -1.703E+00   -1.697E+00   -1.691E+00   -1.685E+00   -1.678E+00
    -1.672E+00   -1.666E+00   -1.660E+00   -1.654E+00   -1.647E+00   -1.641E+00   -1.635E+00   -1.629E+00   -1.622E+00   -1.616E+00
    -1.610E+00   -1.604E+00   -1.597E+00   -1.591E+00   -1.585E+00   -1.579E+00   -1.573E+00   -1.566E+00   -1.560E+00   -1.554E+00
    -1.548E+00   -1.541E+00   -1.535E+00   -1.529E+00   -1.523E+00   -1.516E+00   -1.510E+00   -1.504E+00   -1.498E+00   -1.491E+00
    -1.485E+00   -1.479E+00   -1.473E+00   -1.467E+00   -1.460E+00   -1.454E+00   -1.448E+00   -1.442E+00   -1.435E+00   -1.429E+00
    -1.423E+00   -1.417E+00   -1.410E+00   -1.404E+00   -1.398E+00   -1.392E+00   -1.386E+00   -1.379E+00   -1.373E+00   -1.367E+00
    -1.361E+00   -1.354E+00   -1.348E+00   -1.342E+00   -1.336E+00   -1.329E+00   -1.323E+00   -1.317E+00   -1.311E+00   -1.305E+00
    -1.298E+00   -1.292E+00   -1.286E+00   -1.280E+00   -1.273E+00   -1.267E+00   -1.261E+00   -1.255E+00   -1.248E+00   -1.242E+00
    -1.236E+00   -1.230E+00   -1.223E+00   -1.217E+00   -1.211E+00   -1.205E+00   -1.199E+00   -1.192E+00   -1.186E+00   -1.180E+00
    -1.174E+00   -1.167E+00   -1.161E+00   -1.155E+00   -1.149E+00   -1.142E+00   -1.136E+00   -1.130E+00   -1.124E+00   -1.118E+00
    -1.111E+00   -1.105E+00   -1.099E+00   -1.093E+00   -1.086E+00   -1.080E+00   -1.074E+00   -1.068E+00   -1.061E+00   -1.055E+00
    -1.049E+00   -1.043E+00   -1.036E+00   -1.030E+00   -1.024E+00   -1.018E+00   -1.012E+00   -1.005E+00   -9.991E-01   -9.929E-01
    -9.866E-01   -9.804E-01   -9.742E-01   -9.679E-01   -9.617E-01   -9.555E-01   -9.492E-01   -9.430E-01   -9.368E-01   -9.305E-01
    -9.243E-01   -9.181E-01   -9.118E-01   -9.056E-01   -8.994E-01   -8.931E-01   -8.869E-01   -8.807E-01   -8.744E-01   -8.682E-01
    -8.620E-01   -8.557E-01   -8.495E-01   -8.433E-01   -8.370E-01   -8.308E-01   -8.246E-01   -8.183E-01   -8.121E-01   -8.059E-01
    -7.996E-01   -7.934E-01   -7.872E-01   -7.809E-01   -7.747E-01   -7.685E-01   -7.622E-01   -7.560E-01   -7.498E-01   -7.435E-01
    -7.373E-01   -7.311E-01   -7.248E-01   -7.186E-01   -7.124E-01   -7.061E-01   -6.999E-01   -6.937E-01   -6.874E-01   -6.812E-01
    -6.750E-01   -6.688E-01   -6.625E-01   -6.563E-01   -6.501E-01   -6.438E-01   -6.376E-01   -6.314E-01   -6.251E-01   -6.189E-01
    -6.127E-01   -6.064E-01   -6.002E-01   -5.940E-01   -5.877E-01   -5.815E-01   -5.753E-01   -5.690E-01   -5.628E-01   -5.566E-01
    -5.503E-01   -5.441E-01   -5.379E-01   -5.316E-01   -5.254E-01   -5.192E-01   -5.129E-01   -5.067E-01   -5.005E-01   -4.942E-01
    -4.880E-01   -4.818E-01   -4.755E-01   -4.693E-01   -4.631E-01   -4.568E-01   -4.506E-01   -4.444E-01   -4.381E-01   -4.319E-01
    -4.257E-01   -4.194E-01   -4.132E-01   -4.070E-01   -4.007E-01   -3.945E-01   -3.883E-01   -3.820E-01   -3.758E-01   -3.696E-01
    -3.633E-01   -3.571E-01   -3.509E-01   -3.446E-01   -3.384E-01   -3.322E-01   -3.259E-01   -3.197E-01   -3.135E-01   -3.072E-01
    -3.010E-01   -2.948E-01   -2.885E-01   -2.823E-01   -2.761E-01   -2.699E-01   -2.636E-01   -2.574E-01   -2.512E-01   -2.449E-01
    -2.387E-01   -2.325E-01   -2.262E-01   -2.200E-01   -2.138E-01   -2.075E-01   -2.013E-01   -1.951E-01   -1.888E-01   -1.826E-01
    -1.764E-01   -1.701E-01   -1.639E-01   -1.577E-01   -1.514E-01   -1.452E-01   -1.390E-01   -1.327E-01   -1.265E-01   -1.203E-01
    -1.140E-01   -1.078E-01   -1.016E-01   -9.534E-02   -8.910E-02   -8.287E-02   -7.664E-02   -7.040E-02   -6.417E-02   -5.794E-02
    -5.171E-02   -4.547E-02   -3.924E-02   -3.301E-02   -2.678E-02   -2.054E-02   -1.431E-02   -8.077E-03   -1.844E-03    4.388E-03
     1.062E-02    1.685E-02    2.309E-02    2.932E-02    3.555E-02    4.178E-02    4.802E-02    5.425E-02    6.048E-02    6.672E-02
     7.295E-02    7.918E-02    8.541E-02    9.165E-02    9.788E-02    1.041E-01    1.103E-01    1.166E-01    1.228E-01    1.290E-01
     1.353E-01    1.415E-01    1.477E-01    1.540E-01    1.602E-01    1.664E-01    1.727E-01    1.789E-01    1.851E-01    1.914E-01
     1.976E-01    2.038E-01    2.101E-01    2.163E-01    2.225E-01    2.288E-01    2.350E-01    2.412E-01    2.475E-01    2.537E-01
     2.599E-01    2.662E-01    2.724E-01    2.786E-01    2.849E-01    2.911E-01    2.973E-01    3.036E-01    3.098E-01    3.160E-01
     3.223E-01    3.285E-01    3.347E-01    3.410E-01    3.472E-01    3.534E-01    3.597E-01    3.659E-01    3.721E-01    3.784E-01
     3.846E-01    3.908E-01    3.970E-01    4.033E-01    4.095E-01    4.157E-01    4.220E-01    4.282E-01    4.344E-01    4.407E-01
     4.469E-01    4.531E-01    4.594E-01    4.656E-01    4.718E-01    4.781E-01    4.843E-01    4.905E-01    4.968E-01    5.030E-01
     5.092E-01    5.155E-01    5.217E-01    5.279E-01    5.342E-01    5.404E-01    5.466E-01    5.529E-01    5.591E-01    5.653E-01
     5.716E-01    5.778E-01    5.840E-01    5.903E-01    5.965E-01    6.027E-01    6.090E-01    6.152E-01
 Ala      Conc. = 2.62E+00
