 LCModel (Version 6.3-1L) Copyright: S.W. Provencher.          Ref.: Magn. Reson. Med. 30:672-679 (1993).                
 Slice#2 Row#10 Col#9  PD_24_press_2_raw_act
 36 lines in following concentration table = NCONC+1
    Conc.  %SD /Cr+PCr  Metabolite                                         
   61.242 232% 5.5E-02 Ala                                                 
    0.000 999%   0.000 Asp                                                 
  583.878  40%   0.522 Cr                                                  
  535.378  44%   0.478 PCr                                                 
    0.000 999%   0.000 GABA                                                
    0.000 999%   0.000 Glc                                                 
 1.23E+03  24%   1.098 Gln                                                 
  939.290  35%   0.839 Glu                                                 
  348.646   5%   0.311 GPC                                                 
    0.000 999%   0.000 PCh                                                 
  368.543  19%   0.329 GSH                                                 
 1.46E+03  17%   1.305 Ins                                                 
  117.327 136%   0.105 Lac                                                 
 1.80E+03   4%   1.608 NAA                                                 
    0.000 999%   0.000 NAAG                                                
  103.918  22% 9.3E-02 Scyllo                                              
    0.000 999%   0.000 Tau                                                 
  125.505  78%   0.112 -CrCH2                                              
  348.646   5%   0.311 GPC+PCh                                             
 1.80E+03   4%   1.608 NAA+NAAG                                            
 1.12E+03   4%   1.000 Cr+PCr                                              
 2.17E+03  25%   1.937 Glu+Gln                                             
 2.21E+03  22%   1.972 Lip13a                                              
    0.000 999%   0.000 Lip13b                                              
    0.000 999%   0.000 Lip09                                               
 1.85E+03  11%   1.654 MM09                                                
  491.184  40%   0.439 Lip20                                               
 5.26E+03   7%   4.702 MM20                                                
  686.916  29%   0.614 MM12                                                
 2.55E+03  16%   2.278 MM14                                                
    0.000 999%   0.000 MM17                                                
 2.21E+03  22%   1.972 Lip13a+Lip13b                                       
 5.44E+03   8%   4.864 MM14+Lip13a+Lip13b+MM12                             
 1.85E+03  11%   1.654 MM09+Lip09                                          
 5.75E+03   6%   5.141 MM20+Lip20                                          
   6 lines in following misc. output table
  FWHM = 0.076 ppm    S/N =  13                                            
  Data shift = 0.023 ppm                                                   
  Ph: -32 deg      -5.7 deg/ppm                                            
  alphaB,S = 6.7E-01,   5.4E+02                                            
   14 spline knots.   Ns =10(1)                                            
  ( 4) 2 infls.   ( 1) 1 extrs.                                            
  498 points on ppm-axis = NY
      4.000000     3.992357     3.984714     3.977070     3.969427     3.961784     3.954141     3.946497     3.938854     3.931211
      3.923568     3.915925     3.908281     3.900638     3.892995     3.885352     3.877708     3.870065     3.862422     3.854779
      3.847136     3.839492     3.831849     3.824206     3.816563     3.808919     3.801276     3.793633     3.785990     3.778347
      3.770703     3.763060     3.755417     3.747774     3.740130     3.732487     3.724844     3.717201     3.709558     3.701914
      3.694271     3.686628     3.678985     3.671341     3.663698     3.656055     3.648412     3.640769     3.633125     3.625482
      3.617839     3.610196     3.602552     3.594909     3.587266     3.579623     3.571980     3.564336     3.556693     3.549050
      3.541407     3.533763     3.526120     3.518477     3.510834     3.503191     3.495547     3.487904     3.480261     3.472618
      3.464974     3.457331     3.449688     3.442045     3.434402     3.426758     3.419115     3.411472     3.403829     3.396185
      3.388542     3.380899     3.373256     3.365613     3.357969     3.350326     3.342683     3.335040     3.327396     3.319753
      3.312110     3.304467     3.296824     3.289180     3.281537     3.273894     3.266251     3.258607     3.250964     3.243321
      3.235678     3.228034     3.220391     3.212748     3.205105     3.197462     3.189818     3.182175     3.174532     3.166889
      3.159245     3.151602     3.143959     3.136316     3.128673     3.121029     3.113386     3.105743     3.098100     3.090456
      3.082813     3.075170     3.067527     3.059884     3.052240     3.044597     3.036954     3.029311     3.021667     3.014024
      3.006381     2.998738     2.991095     2.983451     2.975808     2.968165     2.960522     2.952878     2.945235     2.937592
      2.929949     2.922306     2.914662     2.907019     2.899376     2.891733     2.884089     2.876446     2.868803     2.861160
      2.853517     2.845873     2.838230     2.830587     2.822944     2.815300     2.807657     2.800014     2.792371     2.784728
      2.777084     2.769441     2.761798     2.754155     2.746511     2.738868     2.731225     2.723582     2.715939     2.708295
      2.700652     2.693009     2.685366     2.677722     2.670079     2.662436     2.654793     2.647150     2.639506     2.631863
      2.624220     2.616577     2.608933     2.601290     2.593647     2.586004     2.578361     2.570717     2.563074     2.555431
      2.547788     2.540144     2.532501     2.524858     2.517215     2.509572     2.501928     2.494285     2.486642     2.478999
      2.471355     2.463712     2.456069     2.448426     2.440783     2.433139     2.425496     2.417853     2.410210     2.402566
      2.394923     2.387280     2.379637     2.371994     2.364350     2.356707     2.349064     2.341421     2.333777     2.326134
      2.318491     2.310848     2.303205     2.295561     2.287918     2.280275     2.272632     2.264988     2.257345     2.249702
      2.242059     2.234416     2.226772     2.219129     2.211486     2.203843     2.196199     2.188556     2.180913     2.173270
      2.165627     2.157983     2.150340     2.142697     2.135054     2.127410     2.119767     2.112124     2.104481     2.096838
      2.089194     2.081551     2.073908     2.066265     2.058621     2.050978     2.043335     2.035692     2.028049     2.020405
      2.012762     2.005119     1.997476     1.989833     1.982190     1.974546     1.966903     1.959260     1.951617     1.943974
      1.936331     1.928688     1.921045     1.913402     1.905759     1.898115     1.890472     1.882829     1.875186     1.867543
      1.859900     1.852257     1.844614     1.836971     1.829327     1.821684     1.814041     1.806398     1.798755     1.791112
      1.783469     1.775826     1.768183     1.760540     1.752896     1.745253     1.737610     1.729967     1.722324     1.714681
      1.707038     1.699395     1.691752     1.684108     1.676465     1.668822     1.661179     1.653536     1.645893     1.638250
      1.630607     1.622964     1.615321     1.607677     1.600034     1.592391     1.584748     1.577105     1.569462     1.561819
      1.554176     1.546533     1.538890     1.531246     1.523603     1.515960     1.508317     1.500674     1.493031     1.485388
      1.477745     1.470102     1.462458     1.454815     1.447172     1.439529     1.431886     1.424243     1.416600     1.408957
      1.401314     1.393671     1.386027     1.378384     1.370741     1.363098     1.355455     1.347812     1.340169     1.332526
      1.324883     1.317240     1.309596     1.301953     1.294310     1.286667     1.279024     1.271381     1.263738     1.256095
      1.248452     1.240808     1.233165     1.225522     1.217879     1.210236     1.202593     1.194950     1.187307     1.179664
      1.172021     1.164377     1.156734     1.149091     1.141448     1.133805     1.126162     1.118519     1.110876     1.103233
      1.095590     1.087946     1.080303     1.072660     1.065017     1.057374     1.049731     1.042088     1.034445     1.026802
      1.019158     1.011515     1.003872     0.996229     0.988586     0.980943     0.973300     0.965657     0.958014     0.950371
      0.942727     0.935084     0.927441     0.919798     0.912155     0.904512     0.896869     0.889226     0.881583     0.873940
      0.866296     0.858653     0.851010     0.843367     0.835724     0.828081     0.820438     0.812795     0.805152     0.797508
      0.789865     0.782222     0.774579     0.766936     0.759293     0.751650     0.744007     0.736364     0.728721     0.721077
      0.713434     0.705791     0.698148     0.690505     0.682862     0.675219     0.667576     0.659933     0.652290     0.644646
      0.637003     0.629360     0.621717     0.614074     0.606431     0.598788     0.591145     0.583502     0.575858     0.568215
      0.560572     0.552929     0.545286     0.537643     0.530000     0.522357     0.514714     0.507071     0.499427     0.491784
      0.484141     0.476498     0.468855     0.461212     0.453569     0.445925     0.438282     0.430639     0.422996     0.415353
      0.407710     0.400067     0.392424     0.384780     0.377137     0.369494     0.361851     0.354208     0.346565     0.338922
      0.331278     0.323635     0.315992     0.308349     0.300706     0.293063     0.285420     0.277777     0.270133     0.262490
      0.254847     0.247204     0.239561     0.231918     0.224275     0.216631     0.208988     0.201345
 NY phased data points follow
  -1.02022E+01 -1.10799E+01 -5.46493E+00 -6.83578E+00 -1.82678E+00 -1.26094E+00  7.41832E+00  5.83277E+00  3.80644E+00  7.31647E+00
   1.11032E+01  3.45908E+00  5.12925E+00  2.43782E+00 -5.06446E+00 -2.51085E+00 -5.54925E+00 -4.31732E+00 -6.35036E+00 -5.40017E+00
  -6.04038E+00 -8.24840E+00 -6.12434E+00 -6.06323E+00 -5.10566E+00 -4.45228E+00 -4.10165E+00 -3.68854E+00 -2.64195E+00 -2.25009E+00
  -6.29990E+00 -2.22810E+00 -5.10052E+00 -3.74140E+00 -2.99918E+00 -2.95213E+00 -3.67606E+00 -3.26156E+00 -5.50811E+00 -5.06698E+00
  -4.51231E+00 -5.04770E+00 -2.47295E+00 -2.65613E+00 -1.68908E+00 -1.08639E+00 -2.06723E+00 -1.85539E+00 -1.09138E+00 -1.80415E+00
  -1.90543E+00 -9.74784E-01 -1.73233E+00 -4.67415E+00 -3.60473E+00 -1.95917E+00 -5.90078E+00 -6.04770E+00 -1.93643E+00 -5.50244E+00
  -4.16713E+00 -9.97042E+00 -6.57192E+00 -6.23817E+00 -8.98042E+00 -1.07937E+01 -1.14591E+01 -8.20886E+00 -1.07035E+01 -6.11139E+00
  -9.37842E+00 -8.31984E+00 -8.51588E+00 -9.34147E+00 -4.94333E+00 -8.13350E+00 -7.39300E+00 -6.66274E+00 -7.09633E+00 -7.62131E+00
  -7.31006E+00 -8.25631E+00 -7.67930E+00 -6.41965E+00 -8.39308E+00 -6.03108E+00 -6.69200E+00 -6.25750E+00 -4.59092E+00 -6.40088E+00
  -6.30449E+00 -2.55516E+00 -5.07416E+00 -2.98439E+00 -3.45438E+00  1.39639E+00  2.19468E+00  2.93154E+00  3.78162E+00  9.08460E+00
   1.05649E+01  1.09093E+01  1.10156E+01  1.37885E+01  1.50653E+01  7.46165E+00  6.84608E+00  1.47960E-01  1.27135E+00  2.06685E+00
   1.34204E+00 -1.91948E+00 -3.87230E+00 -3.13948E+00 -4.68938E+00 -6.92838E+00 -7.09065E+00 -2.54577E+00 -5.76403E-01  9.32270E-01
   1.75836E+00  8.38460E+00  1.01076E+01  1.63646E+01  1.63392E+01  2.20226E+01  2.16286E+01  2.06628E+01  2.20172E+01  1.75304E+01
   1.00287E+01  6.71505E+00  5.91868E+00  2.91613E+00  1.91911E+00 -1.97699E+00 -2.85617E+00 -2.73270E+00 -3.27020E+00 -2.98189E+00
  -4.94121E+00 -5.14729E+00 -5.64559E+00 -1.22784E+00 -6.57101E+00 -3.35957E+00 -4.81904E+00 -6.01508E+00 -6.13417E+00 -5.90257E+00
  -5.30371E+00 -5.70757E+00 -6.26584E+00 -2.86982E+00 -6.43705E+00 -9.40012E+00 -4.01851E+00 -1.03741E+01 -5.13151E+00 -6.41834E+00
  -9.66589E+00 -5.94370E+00 -8.54989E+00 -1.02970E+01 -8.37327E+00 -8.56368E+00 -6.47875E+00 -9.02948E+00 -1.08129E+01 -1.60786E+01
  -1.40252E+01 -1.18058E+01 -1.38817E+01 -9.07746E+00 -1.51859E+01 -1.75082E+01 -1.42393E+01 -1.62838E+01 -1.52452E+01 -1.40386E+01
  -1.27323E+01 -1.23694E+01 -1.42561E+01 -1.41853E+01 -1.05811E+01 -1.53189E+01 -1.20916E+01 -1.10041E+01 -9.29493E+00 -1.06346E+01
  -5.68375E+00 -5.25623E+00 -7.61471E+00 -6.96680E+00 -5.98210E+00 -5.91401E+00 -4.38086E+00 -3.21228E+00 -7.35188E+00 -4.24911E+00
  -6.56607E+00 -5.39790E+00 -6.90330E+00 -3.53087E+00 -4.57994E+00 -2.48997E+00 -4.11353E+00 -8.56394E+00 -6.32961E+00 -7.16235E+00
  -6.16473E+00 -5.24025E+00 -4.39524E+00  5.00982E-01  2.05759E+00  6.95790E-01  9.01046E-01  2.38696E+00 -1.30813E+00 -6.73491E-01
  -2.48061E-01 -4.08386E+00  7.34486E-01  2.96092E+00 -1.91271E+00  3.14161E+00  3.73046E+00  5.89821E+00  2.67724E+00  4.26576E+00
   6.09585E+00  3.85428E+00  5.78106E+00  4.93764E+00  5.03693E+00  7.50964E+00  5.28041E+00  4.61601E+00  3.57940E+00  5.16126E+00
   6.96125E+00  5.67992E+00  7.24308E+00  9.02188E+00  9.53086E+00  8.75153E+00  9.27883E+00  1.32872E+01  1.50176E+01  1.55067E+01
   1.48907E+01  2.16002E+01  2.15306E+01  2.82143E+01  3.28685E+01  3.54977E+01  4.28836E+01  4.77326E+01  4.83249E+01  5.35070E+01
   5.69541E+01  5.48259E+01  5.07079E+01  4.05991E+01  3.29465E+01  2.66388E+01  2.13740E+01  1.43600E+01  1.34994E+01  1.43176E+01
   1.36682E+01  1.00775E+01  6.30762E+00  8.79315E+00  3.82696E+00  5.67352E+00  6.90355E+00  3.63917E+00  9.47006E-01  4.50615E+00
   8.43630E-01 -2.19383E+00  7.25585E-01 -1.29745E-01  4.03222E-01 -3.65676E+00 -1.17684E+00 -2.50175E+00 -1.74563E+00 -3.67572E+00
  -1.73748E+00 -3.19907E+00 -3.88268E+00 -5.41586E+00 -4.78589E+00 -3.60624E+00 -5.34857E+00 -1.61354E+00 -4.62738E+00 -6.26803E+00
  -3.78217E+00 -6.15622E+00 -3.71342E+00 -4.51442E+00 -4.81158E+00 -6.58948E+00 -4.06266E+00 -2.79801E+00 -4.90013E+00 -1.11974E+00
  -1.82476E+00 -4.67278E-01 -1.61769E+00 -2.37409E-02 -2.22564E+00  1.45541E+00  1.22419E-01  2.17798E+00  1.60548E+00  3.77680E+00
   5.10800E+00  5.68412E+00  3.71408E+00  8.27940E+00  4.91536E+00  7.02424E+00  7.54925E+00  7.95434E+00  1.20733E+01  9.75602E+00
   1.13476E+01  1.45992E+01  1.59437E+01  1.49950E+01  1.52981E+01  1.65183E+01  1.62451E+01  1.32268E+01  1.46305E+01  1.75822E+01
   1.63233E+01  1.47759E+01  1.70176E+01  1.30142E+01  1.55711E+01  1.40430E+01  1.28335E+01  1.25454E+01  1.54255E+01  1.25540E+01
   1.14789E+01  1.29414E+01  1.36077E+01  8.50239E+00  1.28155E+01  9.23715E+00  1.42538E+01  1.21426E+01  1.18801E+01  1.02508E+01
   1.33620E+01  1.30651E+01  1.18524E+01  1.09021E+01  1.12715E+01  9.31975E+00  9.85146E+00  8.14890E+00  8.46000E+00  8.00140E+00
   8.50152E+00  8.01272E+00  5.52487E+00  6.85343E+00  6.35196E+00  6.41097E+00  6.79691E+00  6.04255E+00  7.99359E+00  6.10534E+00
   5.18914E+00  7.33867E+00  2.73127E+00  3.98139E+00  4.76365E+00  4.69397E+00  3.60296E+00  6.33850E+00  7.00949E+00  5.09520E+00
   8.76270E+00  7.55136E+00  5.70457E+00  7.90626E+00  6.75037E+00  9.11703E+00  6.90850E+00  7.11699E+00  1.02257E+01  4.89855E+00
   1.02078E+01  1.11352E+01  9.02708E+00  9.45856E+00  9.99417E+00  6.91558E+00  1.03815E+01  1.02579E+01  1.04903E+01  1.07690E+01
   7.43853E+00  9.18699E+00  6.38945E+00  7.60683E+00  6.52233E+00  5.37472E+00  6.57397E+00  7.30257E+00  4.41679E+00  5.94348E+00
   2.45984E+00  2.96949E+00  5.36854E+00  6.35989E+00  4.37850E-01  1.88886E+00  4.27880E+00  2.57912E+00  2.73395E+00  1.81850E+00
   3.02924E+00  9.28171E-01 -2.13114E-02  2.36155E+00  3.18413E+00  1.59931E+00  4.66623E+00  7.32963E-02 -2.26758E-02  3.18224E+00
   7.90344E-01  1.79404E+00  1.88261E+00  2.15485E+00  3.70536E+00  2.60645E+00  3.21496E+00  4.85564E-01  1.78123E+00  7.70256E-01
   2.06331E-01  8.82709E-02 -9.46464E-01  2.38496E+00  1.34024E+00  5.48027E-02  2.53316E+00  1.32883E+00  2.69355E+00  1.52507E+00
   1.66164E+00 -5.26470E-01 -3.36760E-01 -1.39901E-01  1.55150E+00  2.03667E+00  2.61616E+00  1.91817E+00  1.39618E+00  3.03434E+00
  -1.25531E+00  4.78156E-02  2.99313E-01  4.29892E-01 -8.78673E-01  3.36903E+00  2.05973E+00  2.73499E-01 -1.46310E+00 -6.96491E-01
  -5.91002E-01 -2.92546E-01  2.21844E+00  1.22477E+00  2.28219E+00  3.22350E-01  3.51436E-01  3.31917E-01  1.06981E+00  3.66681E-01
  -6.09863E-01  2.25422E+00 -1.10135E+00 -1.76277E-01  1.81917E+00  3.82802E+00 -1.97214E-02 -9.66886E-02
 NY points of the fit to the data follow
  -7.25159E+00 -6.36583E+00 -4.99928E+00 -3.32570E+00 -1.44297E+00  5.40141E-01  2.45465E+00  4.15875E+00  5.48581E+00  6.23681E+00
   6.26129E+00  5.51288E+00  4.09665E+00  2.26068E+00  3.19911E-01 -1.45688E+00 -2.96761E+00 -4.22995E+00 -5.34689E+00 -6.34893E+00
  -7.10191E+00 -7.47867E+00 -7.40205E+00 -6.90557E+00 -6.16278E+00 -5.28536E+00 -4.34904E+00 -3.40499E+00 -2.50563E+00 -1.75681E+00
  -1.30421E+00 -1.28742E+00 -1.75374E+00 -2.61391E+00 -3.69507E+00 -4.78696E+00 -5.65015E+00 -6.06509E+00 -5.99137E+00 -5.56649E+00
  -4.97633E+00 -4.28852E+00 -3.50858E+00 -2.73759E+00 -2.05443E+00 -1.56390E+00 -1.35464E+00 -1.51897E+00 -2.10825E+00 -3.02897E+00
  -4.08973E+00 -5.08139E+00 -5.83976E+00 -6.31144E+00 -6.52102E+00 -6.55854E+00 -6.55520E+00 -6.58952E+00 -6.64920E+00 -6.68226E+00
  -6.71983E+00 -6.82951E+00 -7.00495E+00 -7.19760E+00 -7.34580E+00 -7.40199E+00 -7.34579E+00 -7.19250E+00 -6.99357E+00 -6.81726E+00
  -6.70458E+00 -6.65059E+00 -6.65006E+00 -6.69890E+00 -6.78780E+00 -6.90279E+00 -7.00384E+00 -7.00756E+00 -6.91996E+00 -6.79656E+00
  -6.66902E+00 -6.54858E+00 -6.44322E+00 -6.34684E+00 -6.25721E+00 -6.20419E+00 -6.20717E+00 -6.29332E+00 -6.47731E+00 -6.73257E+00
  -6.98766E+00 -7.13727E+00 -6.94245E+00 -5.94156E+00 -4.17253E+00 -1.94295E+00  5.31836E-01  3.14005E+00  5.82044E+00  8.47082E+00
   1.08392E+01  1.26390E+01  1.35921E+01  1.34461E+01  1.21015E+01  9.72611E+00  6.76171E+00  3.75318E+00  1.12802E+00 -9.45623E-01
  -2.51884E+00 -3.75879E+00 -4.84115E+00 -5.80988E+00 -6.45993E+00 -6.49918E+00 -5.87710E+00 -4.26676E+00 -1.79021E+00  1.22415E+00
   4.55475E+00  8.05885E+00  1.15991E+01  1.49838E+01  1.79473E+01  2.01589E+01  2.12719E+01  2.10085E+01  1.92915E+01  1.63690E+01
   1.27827E+01  9.15755E+00  5.94931E+00  3.32310E+00  1.21785E+00 -5.41572E-01 -2.11502E+00 -3.49777E+00 -4.43074E+00 -4.70470E+00
  -4.69217E+00 -4.66703E+00 -4.71381E+00 -4.85361E+00 -5.06201E+00 -5.29026E+00 -5.50876E+00 -5.72135E+00 -5.92901E+00 -6.13341E+00
  -6.34200E+00 -6.57120E+00 -6.82117E+00 -7.06566E+00 -7.28086E+00 -7.45044E+00 -7.58865E+00 -7.72511E+00 -7.87072E+00 -8.02299E+00
  -8.17112E+00 -8.30322E+00 -8.41493E+00 -8.51248E+00 -8.62119E+00 -8.78210E+00 -9.03691E+00 -9.38752E+00 -9.76559E+00 -1.01107E+01
  -1.03947E+01 -1.06328E+01 -1.08477E+01 -1.10482E+01 -1.12203E+01 -1.13484E+01 -1.14206E+01 -1.14421E+01 -1.14297E+01 -1.13766E+01
  -1.12694E+01 -1.10904E+01 -1.08190E+01 -1.04530E+01 -1.00105E+01 -9.51123E+00 -8.99951E+00 -8.51482E+00 -8.11687E+00 -7.82566E+00
  -7.62530E+00 -7.49885E+00 -7.42442E+00 -7.36609E+00 -7.21634E+00 -6.86436E+00 -6.28463E+00 -5.53456E+00 -4.72767E+00 -4.04427E+00
  -3.66064E+00 -3.57891E+00 -3.78763E+00 -4.30387E+00 -5.07907E+00 -5.98434E+00 -6.80635E+00 -7.37046E+00 -7.58130E+00 -7.35692E+00
  -6.68921E+00 -5.65657E+00 -4.46033E+00 -3.33713E+00 -2.45256E+00 -1.87332E+00 -1.59711E+00 -1.57417E+00 -1.71122E+00 -1.87177E+00
  -1.93377E+00 -1.86191E+00 -1.63435E+00 -1.14602E+00 -4.37114E-01  3.10566E-01  9.54951E-01  1.50437E+00  2.01675E+00  2.49290E+00
   2.96091E+00  3.50169E+00  4.12135E+00  4.75986E+00  5.36421E+00  5.92571E+00  6.46998E+00  6.98476E+00  7.42042E+00  7.74032E+00
   7.95236E+00  8.11416E+00  8.30685E+00  8.62015E+00  9.13874E+00  9.90503E+00  1.08529E+01  1.18548E+01  1.28292E+01  1.38918E+01
   1.57093E+01  1.89456E+01  2.32318E+01  2.81036E+01  3.32224E+01  3.83640E+01  4.33148E+01  4.77623E+01  5.13117E+01  5.35110E+01
   5.38728E+01  5.20245E+01  4.79609E+01  4.22021E+01  3.56879E+01  2.93879E+01  2.39214E+01  1.94572E+01  1.58178E+01  1.26599E+01
   9.69643E+00  7.00228E+00  5.10312E+00  4.11130E+00  3.42040E+00  2.82108E+00  2.27157E+00  1.75146E+00  1.25147E+00  7.79532E-01
   3.39741E-01 -6.56622E-02 -4.36439E-01 -7.75328E-01 -1.08667E+00 -1.37041E+00 -1.62519E+00 -1.85278E+00 -2.05566E+00 -2.23524E+00
  -2.39245E+00 -2.52867E+00 -2.64644E+00 -2.74807E+00 -2.83373E+00 -2.90386E+00 -2.95916E+00 -3.00023E+00 -3.02742E+00 -3.04080E+00
  -3.04037E+00 -3.02574E+00 -2.99605E+00 -2.95034E+00 -2.88720E+00 -2.80462E+00 -2.70011E+00 -2.57073E+00 -2.41298E+00 -2.22285E+00
  -1.99585E+00 -1.72706E+00 -1.41133E+00 -1.04330E+00 -6.17381E-01 -1.27412E-01  4.34593E-01  1.07858E+00  1.79765E+00  2.57580E+00
   3.40314E+00  4.27132E+00  5.16966E+00  6.08304E+00  6.99344E+00  7.89526E+00  8.78921E+00  9.66549E+00  1.05147E+01  1.13332E+01
   1.21218E+01  1.28787E+01  1.35934E+01  1.42476E+01  1.48201E+01  1.52907E+01  1.56480E+01  1.58997E+01  1.60478E+01  1.60793E+01
   1.59914E+01  1.57959E+01  1.55122E+01  1.51503E+01  1.47133E+01  1.42289E+01  1.37328E+01  1.32517E+01  1.28096E+01  1.24292E+01
   1.21411E+01  1.19697E+01  1.19175E+01  1.19625E+01  1.20651E+01  1.21759E+01  1.22467E+01  1.22445E+01  1.21631E+01  1.20175E+01
   1.18121E+01  1.15467E+01  1.12367E+01  1.08911E+01  1.05091E+01  1.00867E+01  9.62942E+00  9.16428E+00  8.70622E+00  8.25304E+00
   7.80718E+00  7.37350E+00  6.95754E+00  6.56481E+00  6.20053E+00  5.86943E+00  5.57568E+00  5.32288E+00  5.11399E+00  4.95139E+00
   4.83681E+00  4.77142E+00  4.75582E+00  4.79005E+00  4.87355E+00  5.00516E+00  5.18305E+00  5.40469E+00  5.66683E+00  5.96544E+00
   6.29565E+00  6.65174E+00  7.02719E+00  7.41471E+00  7.80639E+00  8.19378E+00  8.56813E+00  8.92058E+00  9.24244E+00  9.52551E+00
   9.76234E+00  9.94651E+00  1.00728E+01  1.01376E+01  1.01387E+01  1.00758E+01  9.95001E+00  9.76431E+00  9.52293E+00  9.23140E+00
   8.89621E+00  8.52459E+00  8.12415E+00  7.70261E+00  7.26753E+00  6.82608E+00  6.38486E+00  5.94975E+00  5.52576E+00  5.11707E+00
   4.72692E+00  4.35774E+00  4.01116E+00  3.68813E+00  3.38896E+00  3.11344E+00  2.86096E+00  2.63062E+00  2.42127E+00  2.23165E+00
   2.06036E+00  1.90602E+00  1.76722E+00  1.64263E+00  1.53098E+00  1.43106E+00  1.34176E+00  1.26205E+00  1.19099E+00  1.12775E+00
   1.07156E+00  1.02175E+00  9.77677E-01  9.38793E-01  9.04601E-01  8.74675E-01  8.48611E-01  8.26053E-01  8.06671E-01  7.90186E-01
   7.76340E-01  7.64916E-01  7.55694E-01  7.48488E-01  7.43123E-01  7.39465E-01  7.37380E-01  7.36758E-01  7.37477E-01  7.39440E-01
   7.42546E-01  7.46730E-01  7.51915E-01  7.58038E-01  7.65024E-01  7.72816E-01  7.81358E-01  7.90616E-01  8.00541E-01  8.11097E-01
   8.22233E-01  8.33920E-01  8.46126E-01  8.58835E-01  8.72013E-01  8.85637E-01  8.99672E-01  9.14105E-01  9.28916E-01  9.44100E-01
   9.59629E-01  9.75489E-01  9.91656E-01  1.00813E+00  1.02490E+00  1.04196E+00  1.05928E+00  1.07687E+00  1.09470E+00  1.11279E+00
   1.13112E+00  1.14969E+00  1.16848E+00  1.18750E+00  1.20673E+00  1.22618E+00  1.24585E+00  1.26574E+00
 NY background values follow
    -1.349E+01   -1.345E+01   -1.341E+01   -1.337E+01   -1.333E+01   -1.330E+01   -1.326E+01   -1.322E+01   -1.318E+01   -1.314E+01
    -1.311E+01   -1.307E+01   -1.303E+01   -1.299E+01   -1.295E+01   -1.292E+01   -1.288E+01   -1.284E+01   -1.280E+01   -1.277E+01
    -1.273E+01   -1.269E+01   -1.266E+01   -1.262E+01   -1.258E+01   -1.254E+01   -1.251E+01   -1.247E+01   -1.244E+01   -1.240E+01
    -1.236E+01   -1.233E+01   -1.229E+01   -1.226E+01   -1.222E+01   -1.219E+01   -1.215E+01   -1.212E+01   -1.208E+01   -1.205E+01
    -1.201E+01   -1.198E+01   -1.195E+01   -1.191E+01   -1.188E+01   -1.185E+01   -1.182E+01   -1.178E+01   -1.175E+01   -1.172E+01
    -1.169E+01   -1.166E+01   -1.163E+01   -1.160E+01   -1.157E+01   -1.154E+01   -1.151E+01   -1.148E+01   -1.145E+01   -1.142E+01
    -1.139E+01   -1.136E+01   -1.133E+01   -1.130E+01   -1.128E+01   -1.125E+01   -1.122E+01   -1.119E+01   -1.117E+01   -1.114E+01
    -1.111E+01   -1.109E+01   -1.106E+01   -1.104E+01   -1.101E+01   -1.099E+01   -1.096E+01   -1.094E+01   -1.091E+01   -1.089E+01
    -1.086E+01   -1.084E+01   -1.082E+01   -1.079E+01   -1.077E+01   -1.075E+01   -1.073E+01   -1.070E+01   -1.068E+01   -1.066E+01
    -1.064E+01   -1.062E+01   -1.059E+01   -1.057E+01   -1.055E+01   -1.053E+01   -1.051E+01   -1.049E+01   -1.047E+01   -1.045E+01
    -1.043E+01   -1.041E+01   -1.040E+01   -1.038E+01   -1.036E+01   -1.034E+01   -1.032E+01   -1.030E+01   -1.028E+01   -1.027E+01
    -1.025E+01   -1.023E+01   -1.021E+01   -1.020E+01   -1.018E+01   -1.016E+01   -1.015E+01   -1.013E+01   -1.011E+01   -1.010E+01
    -1.008E+01   -1.006E+01   -1.005E+01   -1.003E+01   -1.002E+01   -1.000E+01   -9.984E+00   -9.968E+00   -9.953E+00   -9.937E+00
    -9.922E+00   -9.907E+00   -9.891E+00   -9.876E+00   -9.861E+00   -9.846E+00   -9.831E+00   -9.816E+00   -9.801E+00   -9.786E+00
    -9.771E+00   -9.757E+00   -9.742E+00   -9.727E+00   -9.712E+00   -9.697E+00   -9.682E+00   -9.667E+00   -9.652E+00   -9.637E+00
    -9.621E+00   -9.606E+00   -9.591E+00   -9.575E+00   -9.559E+00   -9.544E+00   -9.528E+00   -9.512E+00   -9.495E+00   -9.479E+00
    -9.462E+00   -9.445E+00   -9.428E+00   -9.411E+00   -9.393E+00   -9.376E+00   -9.358E+00   -9.339E+00   -9.321E+00   -9.302E+00
    -9.283E+00   -9.263E+00   -9.244E+00   -9.224E+00   -9.203E+00   -9.183E+00   -9.162E+00   -9.140E+00   -9.118E+00   -9.096E+00
    -9.074E+00   -9.051E+00   -9.027E+00   -9.003E+00   -8.979E+00   -8.955E+00   -8.930E+00   -8.905E+00   -8.879E+00   -8.853E+00
    -8.827E+00   -8.801E+00   -8.774E+00   -8.747E+00   -8.720E+00   -8.692E+00   -8.664E+00   -8.637E+00   -8.608E+00   -8.580E+00
    -8.552E+00   -8.523E+00   -8.494E+00   -8.465E+00   -8.436E+00   -8.407E+00   -8.378E+00   -8.349E+00   -8.320E+00   -8.290E+00
    -8.261E+00   -8.231E+00   -8.202E+00   -8.172E+00   -8.143E+00   -8.114E+00   -8.084E+00   -8.055E+00   -8.026E+00   -7.996E+00
    -7.967E+00   -7.938E+00   -7.910E+00   -7.881E+00   -7.852E+00   -7.824E+00   -7.796E+00   -7.768E+00   -7.740E+00   -7.712E+00
    -7.685E+00   -7.657E+00   -7.630E+00   -7.603E+00   -7.576E+00   -7.550E+00   -7.523E+00   -7.497E+00   -7.470E+00   -7.444E+00
    -7.418E+00   -7.392E+00   -7.366E+00   -7.340E+00   -7.315E+00   -7.289E+00   -7.263E+00   -7.238E+00   -7.213E+00   -7.187E+00
    -7.162E+00   -7.137E+00   -7.112E+00   -7.087E+00   -7.062E+00   -7.037E+00   -7.012E+00   -6.987E+00   -6.962E+00   -6.937E+00
    -6.912E+00   -6.887E+00   -6.862E+00   -6.837E+00   -6.812E+00   -6.787E+00   -6.762E+00   -6.737E+00   -6.712E+00   -6.687E+00
    -6.662E+00   -6.637E+00   -6.612E+00   -6.586E+00   -6.561E+00   -6.536E+00   -6.510E+00   -6.485E+00   -6.459E+00   -6.433E+00
    -6.408E+00   -6.382E+00   -6.356E+00   -6.330E+00   -6.303E+00   -6.277E+00   -6.251E+00   -6.224E+00   -6.198E+00   -6.171E+00
    -6.144E+00   -6.117E+00   -6.090E+00   -6.063E+00   -6.036E+00   -6.009E+00   -5.981E+00   -5.953E+00   -5.926E+00   -5.898E+00
    -5.870E+00   -5.841E+00   -5.813E+00   -5.784E+00   -5.756E+00   -5.727E+00   -5.698E+00   -5.669E+00   -5.639E+00   -5.610E+00
    -5.580E+00   -5.550E+00   -5.520E+00   -5.490E+00   -5.459E+00   -5.429E+00   -5.398E+00   -5.367E+00   -5.336E+00   -5.304E+00
    -5.272E+00   -5.241E+00   -5.209E+00   -5.177E+00   -5.144E+00   -5.112E+00   -5.079E+00   -5.046E+00   -5.013E+00   -4.980E+00
    -4.947E+00   -4.914E+00   -4.880E+00   -4.846E+00   -4.813E+00   -4.779E+00   -4.745E+00   -4.710E+00   -4.676E+00   -4.642E+00
    -4.607E+00   -4.573E+00   -4.538E+00   -4.503E+00   -4.469E+00   -4.434E+00   -4.399E+00   -4.364E+00   -4.328E+00   -4.293E+00
    -4.258E+00   -4.223E+00   -4.187E+00   -4.152E+00   -4.116E+00   -4.081E+00   -4.045E+00   -4.010E+00   -3.974E+00   -3.939E+00
    -3.903E+00   -3.867E+00   -3.832E+00   -3.796E+00   -3.760E+00   -3.725E+00   -3.689E+00   -3.654E+00   -3.618E+00   -3.582E+00
    -3.547E+00   -3.511E+00   -3.475E+00   -3.439E+00   -3.404E+00   -3.368E+00   -3.332E+00   -3.297E+00   -3.261E+00   -3.225E+00
    -3.190E+00   -3.154E+00   -3.118E+00   -3.083E+00   -3.047E+00   -3.011E+00   -2.975E+00   -2.940E+00   -2.904E+00   -2.868E+00
    -2.833E+00   -2.797E+00   -2.761E+00   -2.726E+00   -2.690E+00   -2.654E+00   -2.619E+00   -2.583E+00   -2.547E+00   -2.512E+00
    -2.476E+00   -2.441E+00   -2.405E+00   -2.369E+00   -2.334E+00   -2.298E+00   -2.263E+00   -2.227E+00   -2.191E+00   -2.156E+00
    -2.120E+00   -2.085E+00   -2.049E+00   -2.014E+00   -1.978E+00   -1.943E+00   -1.908E+00   -1.872E+00   -1.837E+00   -1.802E+00
    -1.767E+00   -1.732E+00   -1.697E+00   -1.662E+00   -1.627E+00   -1.592E+00   -1.557E+00   -1.523E+00   -1.488E+00   -1.454E+00
    -1.419E+00   -1.385E+00   -1.351E+00   -1.317E+00   -1.283E+00   -1.249E+00   -1.215E+00   -1.181E+00   -1.148E+00   -1.115E+00
    -1.081E+00   -1.048E+00   -1.015E+00   -9.825E-01   -9.499E-01   -9.174E-01   -8.850E-01   -8.528E-01   -8.208E-01   -7.889E-01
    -7.573E-01   -7.257E-01   -6.944E-01   -6.632E-01   -6.323E-01   -6.014E-01   -5.708E-01   -5.403E-01   -5.100E-01   -4.798E-01
    -4.498E-01   -4.199E-01   -3.902E-01   -3.606E-01   -3.311E-01   -3.017E-01   -2.725E-01   -2.433E-01   -2.143E-01   -1.854E-01
    -1.566E-01   -1.279E-01   -9.927E-02   -7.073E-02   -4.228E-02   -1.390E-02    1.441E-02    4.265E-02    7.082E-02    9.894E-02
     1.270E-01    1.550E-01    1.830E-01    2.109E-01    2.388E-01    2.667E-01    2.945E-01    3.224E-01    3.502E-01    3.780E-01
     4.058E-01    4.335E-01    4.613E-01    4.891E-01    5.170E-01    5.448E-01    5.726E-01    6.005E-01
 Ala      Conc. = 6.12E+01
