 LCModel (Version 6.3-1L) Copyright: S.W. Provencher.          Ref.: Magn. Reson. Med. 30:672-679 (1993).                
 Slice#1 Row#10 Col#4  PD_24_press_2_raw_act
 36 lines in following concentration table = NCONC+1
    Conc.  %SD /Cr+PCr  Metabolite                                         
  193.704  62%   0.180 Ala                                                 
    0.000 999%   0.000 Asp                                                 
  192.491 117%   0.178 Cr                                                  
  886.351  27%   0.822 PCr                                                 
    0.000 999%   0.000 GABA                                                
    0.000 999%   0.000 Glc                                                 
  837.879  29%   0.777 Gln                                                 
  904.872  29%   0.839 Glu                                                 
  330.558   6%   0.306 GPC                                                 
    0.000 999%   0.000 PCh                                                 
  464.782  17%   0.431 GSH                                                 
 1.42E+03  22%   1.316 Ins                                                 
   90.947 141% 8.4E-02 Lac                                                 
 2.03E+03   5%   1.883 NAA                                                 
  234.094  50%   0.217 NAAG                                                
   97.704  28% 9.1E-02 Scyllo                                              
    0.000 999%   0.000 Tau                                                 
  222.520  52%   0.206 -CrCH2                                              
  330.558   6%   0.306 GPC+PCh                                             
 2.27E+03   4%   2.100 NAA+NAAG                                            
 1.08E+03   5%   1.000 Cr+PCr                                              
 1.74E+03  23%   1.615 Glu+Gln                                             
  941.573  53%   0.873 Lip13a                                              
    0.000 999%   0.000 Lip13b                                              
  194.659 118%   0.180 Lip09                                               
 1.28E+03  20%   1.190 MM09                                                
  147.294 100%   0.137 Lip20                                               
 1.05E+03  42%   0.977 MM20                                                
  411.658  46%   0.382 MM12                                                
 2.15E+03  19%   1.994 MM14                                                
 2.22E+03   8%   2.055 MM17                                                
  941.573  53%   0.873 Lip13a+Lip13b                                       
 3.50E+03  18%   3.249 MM14+Lip13a+Lip13b+MM12                             
 1.48E+03  16%   1.370 MM09+Lip09                                          
 1.20E+03  35%   1.114 MM20+Lip20                                          
   6 lines in following misc. output table
  FWHM = 0.061 ppm    S/N =  11                                            
  Data shift = 0.023 ppm                                                   
  Ph: -58 deg     -25.6 deg/ppm                                            
  alphaB,S = 3.4E-01,   2.4E+02                                            
   14 spline knots.   Ns = 8(1)                                            
  ( 4) 2 infls.   ( 1) 1 extrs.                                            
  498 points on ppm-axis = NY
      4.000000     3.992357     3.984714     3.977070     3.969427     3.961784     3.954141     3.946497     3.938854     3.931211
      3.923568     3.915925     3.908281     3.900638     3.892995     3.885352     3.877708     3.870065     3.862422     3.854779
      3.847136     3.839492     3.831849     3.824206     3.816563     3.808919     3.801276     3.793633     3.785990     3.778347
      3.770703     3.763060     3.755417     3.747774     3.740130     3.732487     3.724844     3.717201     3.709558     3.701914
      3.694271     3.686628     3.678985     3.671341     3.663698     3.656055     3.648412     3.640769     3.633125     3.625482
      3.617839     3.610196     3.602552     3.594909     3.587266     3.579623     3.571980     3.564336     3.556693     3.549050
      3.541407     3.533763     3.526120     3.518477     3.510834     3.503191     3.495547     3.487904     3.480261     3.472618
      3.464974     3.457331     3.449688     3.442045     3.434402     3.426758     3.419115     3.411472     3.403829     3.396185
      3.388542     3.380899     3.373256     3.365613     3.357969     3.350326     3.342683     3.335040     3.327396     3.319753
      3.312110     3.304467     3.296824     3.289180     3.281537     3.273894     3.266251     3.258607     3.250964     3.243321
      3.235678     3.228034     3.220391     3.212748     3.205105     3.197462     3.189818     3.182175     3.174532     3.166889
      3.159245     3.151602     3.143959     3.136316     3.128673     3.121029     3.113386     3.105743     3.098100     3.090456
      3.082813     3.075170     3.067527     3.059884     3.052240     3.044597     3.036954     3.029311     3.021667     3.014024
      3.006381     2.998738     2.991095     2.983451     2.975808     2.968165     2.960522     2.952878     2.945235     2.937592
      2.929949     2.922306     2.914662     2.907019     2.899376     2.891733     2.884089     2.876446     2.868803     2.861160
      2.853517     2.845873     2.838230     2.830587     2.822944     2.815300     2.807657     2.800014     2.792371     2.784728
      2.777084     2.769441     2.761798     2.754155     2.746511     2.738868     2.731225     2.723582     2.715939     2.708295
      2.700652     2.693009     2.685366     2.677722     2.670079     2.662436     2.654793     2.647150     2.639506     2.631863
      2.624220     2.616577     2.608933     2.601290     2.593647     2.586004     2.578361     2.570717     2.563074     2.555431
      2.547788     2.540144     2.532501     2.524858     2.517215     2.509572     2.501928     2.494285     2.486642     2.478999
      2.471355     2.463712     2.456069     2.448426     2.440783     2.433139     2.425496     2.417853     2.410210     2.402566
      2.394923     2.387280     2.379637     2.371994     2.364350     2.356707     2.349064     2.341421     2.333777     2.326134
      2.318491     2.310848     2.303205     2.295561     2.287918     2.280275     2.272632     2.264988     2.257345     2.249702
      2.242059     2.234416     2.226772     2.219129     2.211486     2.203843     2.196199     2.188556     2.180913     2.173270
      2.165627     2.157983     2.150340     2.142697     2.135054     2.127410     2.119767     2.112124     2.104481     2.096838
      2.089194     2.081551     2.073908     2.066265     2.058621     2.050978     2.043335     2.035692     2.028049     2.020405
      2.012762     2.005119     1.997476     1.989833     1.982190     1.974546     1.966903     1.959260     1.951617     1.943974
      1.936331     1.928688     1.921045     1.913402     1.905759     1.898115     1.890472     1.882829     1.875186     1.867543
      1.859900     1.852257     1.844614     1.836971     1.829327     1.821684     1.814041     1.806398     1.798755     1.791112
      1.783469     1.775826     1.768183     1.760540     1.752896     1.745253     1.737610     1.729967     1.722324     1.714681
      1.707038     1.699395     1.691752     1.684108     1.676465     1.668822     1.661179     1.653536     1.645893     1.638250
      1.630607     1.622964     1.615321     1.607677     1.600034     1.592391     1.584748     1.577105     1.569462     1.561819
      1.554176     1.546533     1.538890     1.531246     1.523603     1.515960     1.508317     1.500674     1.493031     1.485388
      1.477745     1.470102     1.462458     1.454815     1.447172     1.439529     1.431886     1.424243     1.416600     1.408957
      1.401314     1.393671     1.386027     1.378384     1.370741     1.363098     1.355455     1.347812     1.340169     1.332526
      1.324883     1.317240     1.309596     1.301953     1.294310     1.286667     1.279024     1.271381     1.263738     1.256095
      1.248452     1.240808     1.233165     1.225522     1.217879     1.210236     1.202593     1.194950     1.187307     1.179664
      1.172021     1.164377     1.156734     1.149091     1.141448     1.133805     1.126162     1.118519     1.110876     1.103233
      1.095590     1.087946     1.080303     1.072660     1.065017     1.057374     1.049731     1.042088     1.034445     1.026802
      1.019158     1.011515     1.003872     0.996229     0.988586     0.980943     0.973300     0.965657     0.958014     0.950371
      0.942727     0.935084     0.927441     0.919798     0.912155     0.904512     0.896869     0.889226     0.881583     0.873940
      0.866296     0.858653     0.851010     0.843367     0.835724     0.828081     0.820438     0.812795     0.805152     0.797508
      0.789865     0.782222     0.774579     0.766936     0.759293     0.751650     0.744007     0.736364     0.728721     0.721077
      0.713434     0.705791     0.698148     0.690505     0.682862     0.675219     0.667576     0.659933     0.652290     0.644646
      0.637003     0.629360     0.621717     0.614074     0.606431     0.598788     0.591145     0.583502     0.575858     0.568215
      0.560572     0.552929     0.545286     0.537643     0.530000     0.522357     0.514714     0.507071     0.499427     0.491784
      0.484141     0.476498     0.468855     0.461212     0.453569     0.445925     0.438282     0.430639     0.422996     0.415353
      0.407710     0.400067     0.392424     0.384780     0.377137     0.369494     0.361851     0.354208     0.346565     0.338922
      0.331278     0.323635     0.315992     0.308349     0.300706     0.293063     0.285420     0.277777     0.270133     0.262490
      0.254847     0.247204     0.239561     0.231918     0.224275     0.216631     0.208988     0.201345
 NY phased data points follow
  -1.47235E+02 -1.37270E+02 -1.42896E+02 -1.28092E+02 -1.36487E+02 -1.20504E+02 -1.29180E+02 -1.13743E+02 -1.12911E+02 -1.06187E+02
  -1.07721E+02 -1.02252E+02 -1.11624E+02 -1.03119E+02 -1.13885E+02 -1.07615E+02 -1.17148E+02 -1.08407E+02 -1.11330E+02 -1.06812E+02
  -1.12652E+02 -1.03940E+02 -1.08347E+02 -1.02510E+02 -1.05475E+02 -9.67312E+01 -1.02367E+02 -9.12776E+01 -9.84231E+01 -8.69735E+01
  -9.01370E+01 -8.47667E+01 -9.17342E+01 -8.37395E+01 -8.77889E+01 -8.40462E+01 -8.99697E+01 -8.17479E+01 -8.16250E+01 -7.71997E+01
  -8.28061E+01 -7.63874E+01 -7.93848E+01 -6.96951E+01 -7.28779E+01 -7.01977E+01 -7.08877E+01 -6.69420E+01 -6.76146E+01 -6.88141E+01
  -7.60157E+01 -6.37031E+01 -7.23759E+01 -6.40653E+01 -7.13548E+01 -6.56503E+01 -7.15201E+01 -6.15954E+01 -6.68505E+01 -6.31248E+01
  -6.54715E+01 -6.29392E+01 -6.67277E+01 -6.37115E+01 -6.43412E+01 -6.12058E+01 -6.42972E+01 -5.89296E+01 -6.15359E+01 -5.90453E+01
  -5.94490E+01 -5.27925E+01 -5.92743E+01 -5.62357E+01 -5.39371E+01 -5.39403E+01 -5.48509E+01 -4.93893E+01 -4.98617E+01 -5.01290E+01
  -5.40215E+01 -4.98548E+01 -5.23365E+01 -4.22913E+01 -5.06742E+01 -4.38893E+01 -4.90715E+01 -4.31407E+01 -4.57869E+01 -4.13981E+01
  -4.18223E+01 -3.93324E+01 -4.52324E+01 -3.85162E+01 -3.77937E+01 -3.72099E+01 -3.80596E+01 -3.61931E+01 -3.43325E+01 -2.82580E+01
  -2.50097E+01 -1.56655E+01 -1.15421E+01 -6.26651E+00 -1.35539E+01 -1.46105E+01 -2.44353E+01 -2.27626E+01 -2.92384E+01 -3.14744E+01
  -2.92972E+01 -3.22226E+01 -3.46114E+01 -3.06050E+01 -3.26520E+01 -3.11312E+01 -3.16860E+01 -2.74551E+01 -3.56470E+01 -2.75506E+01
  -2.81860E+01 -2.61807E+01 -2.31919E+01 -1.58852E+01 -8.51508E+00  2.41823E+00  4.33570E+00  4.49095E+00  2.81929E+00  4.90920E+00
  -7.22206E+00 -6.73093E+00 -1.51126E+01 -1.37190E+01 -1.87475E+01 -2.00795E+01 -2.41760E+01 -2.20749E+01 -2.24180E+01 -2.29263E+01
  -1.77921E+01 -2.21164E+01 -2.20194E+01 -1.97601E+01 -2.19197E+01 -2.05984E+01 -2.44047E+01 -1.85653E+01 -1.89100E+01 -2.39410E+01
  -2.06022E+01 -1.75955E+01 -2.09170E+01 -2.15253E+01 -2.14997E+01 -2.04315E+01 -1.90284E+01 -1.80678E+01 -1.89117E+01 -1.78687E+01
  -2.14149E+01 -2.05890E+01 -2.21740E+01 -1.82483E+01 -2.08630E+01 -2.08080E+01 -2.45410E+01 -2.36458E+01 -2.18069E+01 -2.06364E+01
  -2.60168E+01 -2.52056E+01 -2.80551E+01 -2.74197E+01 -2.91243E+01 -2.65125E+01 -2.60592E+01 -2.33643E+01 -2.21613E+01 -2.18908E+01
  -1.82750E+01 -1.88473E+01 -1.71862E+01 -1.31337E+01 -2.19983E+01 -1.80319E+01 -1.49499E+01 -1.90993E+01 -1.90001E+01 -1.36799E+01
  -1.19288E+01 -1.51728E+01 -1.36622E+01 -1.44400E+01 -1.43484E+01 -1.19267E+01 -1.58336E+01 -1.36011E+01 -1.42443E+01 -1.02704E+01
  -9.79953E+00 -9.82246E+00 -8.88687E+00 -6.85386E+00 -8.16655E+00 -4.65009E+00 -9.04788E+00 -7.75619E+00 -6.50219E+00 -6.01397E+00
  -7.46156E+00 -5.77423E+00 -1.02218E+00  1.53212E+00  9.50885E-01  1.17491E+00  2.32631E+00  2.50544E+00  1.41584E+00 -1.75250E+00
  -6.40316E+00 -5.78663E+00 -1.88133E-01 -1.31099E+00  2.48171E-01  4.46497E+00  3.39408E+00 -4.23779E-01  3.45189E+00  6.10164E+00
   2.48232E+00  2.61986E+00  1.77616E+00 -5.78524E-02  2.59556E+00  7.94429E-01  1.81922E+00  2.35345E+00  2.64914E+00 -4.55409E-01
  -6.19836E-01 -1.20792E+00 -2.91708E+00 -2.04663E+00  3.29743E+00  8.88934E-01  1.43433E+00  4.93556E+00  6.04453E+00  8.18522E+00
   1.01823E+01  1.57562E+01  1.87008E+01  1.86042E+01  2.46331E+01  2.79416E+01  4.07701E+01  4.69488E+01  6.02517E+01  6.84655E+01
   7.49472E+01  6.93207E+01  6.76279E+01  4.98812E+01  3.78804E+01  2.96386E+01  2.15649E+01  2.47860E+01  1.74292E+01  1.22495E+01
   1.14646E+01  1.16290E+01  7.06711E+00  7.67617E+00  8.08785E+00  8.03598E+00  6.88560E+00  3.89049E+00  1.02479E+01  7.22581E+00
   5.74132E+00  2.07079E+00  8.43616E+00  7.12367E+00  7.01282E+00  8.55859E+00  8.25524E+00  1.22276E+01  8.58699E+00  1.05138E+01
   1.17504E+01  8.95404E+00  9.17122E+00  1.28482E+01  1.37200E+01  1.49757E+01  1.35738E+01  1.49525E+01  1.68993E+01  1.91014E+01
   1.94887E+01  1.56334E+01  1.88225E+01  2.15947E+01  2.21533E+01  2.75055E+01  2.36549E+01  2.59668E+01  2.91411E+01  3.32298E+01
   3.39638E+01  3.28206E+01  3.34755E+01  3.59041E+01  3.89869E+01  3.95315E+01  3.87325E+01  3.81922E+01  4.02617E+01  3.90074E+01
   3.90272E+01  3.41948E+01  3.32948E+01  2.95229E+01  3.49394E+01  2.99228E+01  3.35017E+01  3.31615E+01  3.06020E+01  2.96878E+01
   2.69264E+01  2.57129E+01  2.68799E+01  2.66077E+01  2.74413E+01  3.09763E+01  3.13341E+01  2.83414E+01  2.79453E+01  2.53423E+01
   3.02822E+01  2.65135E+01  2.87902E+01  2.80272E+01  2.77978E+01  2.60934E+01  2.71644E+01  2.66905E+01  2.22792E+01  2.47552E+01
   2.75610E+01  2.27504E+01  2.65070E+01  2.24605E+01  2.54705E+01  2.47403E+01  2.63275E+01  2.13145E+01  2.29111E+01  2.70889E+01
   2.37181E+01  2.53548E+01  2.66503E+01  2.52580E+01  2.60359E+01  2.48869E+01  2.80942E+01  2.28936E+01  2.21009E+01  1.93643E+01
   2.45899E+01  2.34428E+01  2.39649E+01  2.00611E+01  2.30644E+01  2.17673E+01  2.27928E+01  1.94613E+01  2.40369E+01  1.96785E+01
   2.25216E+01  1.71502E+01  2.23265E+01  2.22756E+01  2.26591E+01  2.29551E+01  1.97139E+01  2.07298E+01  2.14604E+01  2.04720E+01
   1.99242E+01  2.38552E+01  2.56756E+01  2.10153E+01  2.33066E+01  2.22254E+01  3.01885E+01  2.77145E+01  2.79966E+01  2.79503E+01
   3.18123E+01  2.69381E+01  3.36675E+01  3.17375E+01  3.30614E+01  2.92349E+01  3.15615E+01  3.25942E+01  3.33009E+01  3.46510E+01
   3.35766E+01  2.91449E+01  3.20089E+01  3.11766E+01  2.76244E+01  3.22969E+01  2.88829E+01  2.69951E+01  2.76192E+01  2.34402E+01
   2.39323E+01  2.32195E+01  2.79378E+01  2.62961E+01  2.49143E+01  2.50577E+01  2.07179E+01  2.26871E+01  2.43802E+01  2.21839E+01
   2.23089E+01  1.97535E+01  2.32904E+01  2.14590E+01  2.68626E+01  2.02360E+01  2.19799E+01  2.25013E+01  2.07140E+01  2.08706E+01
   2.20209E+01  2.48197E+01  2.53822E+01  2.29801E+01  2.40900E+01  2.08884E+01  2.19580E+01  1.81974E+01  2.48885E+01  2.15451E+01
   2.19756E+01  1.95937E+01  2.30536E+01  2.01472E+01  2.15691E+01  2.16296E+01  2.18758E+01  1.76966E+01  2.45059E+01  2.23242E+01
   2.21050E+01  2.03383E+01  1.98036E+01  1.54557E+01  2.08358E+01  2.09700E+01  2.07790E+01  1.94474E+01  1.98687E+01  2.05315E+01
   2.09467E+01  2.18409E+01  2.31315E+01  1.87810E+01  1.87011E+01  1.82021E+01  2.30334E+01  2.20461E+01  1.97130E+01  1.67454E+01
   1.83612E+01  1.88268E+01  1.74333E+01  1.90537E+01  1.47116E+01  1.77315E+01  1.75911E+01  1.95817E+01  1.97368E+01  1.59354E+01
   1.83614E+01  2.08968E+01  1.78152E+01  1.71517E+01  1.91252E+01  1.87028E+01  2.03884E+01  1.74882E+01
 NY points of the fit to the data follow
  -1.38138E+02 -1.37026E+02 -1.35191E+02 -1.32728E+02 -1.29636E+02 -1.25836E+02 -1.21425E+02 -1.16739E+02 -1.12355E+02 -1.08907E+02
  -1.06862E+02 -1.06321E+02 -1.06963E+02 -1.08153E+02 -1.09261E+02 -1.09917E+02 -1.10108E+02 -1.10043E+02 -1.09892E+02 -1.09549E+02
  -1.08874E+02 -1.08029E+02 -1.06941E+02 -1.05628E+02 -1.04023E+02 -1.01943E+02 -9.92084E+01 -9.58771E+01 -9.22973E+01 -8.89741E+01
  -8.64362E+01 -8.50290E+01 -8.47389E+01 -8.52514E+01 -8.60693E+01 -8.67363E+01 -8.70584E+01 -8.70365E+01 -8.66123E+01 -8.56006E+01
  -8.39112E+01 -8.17112E+01 -7.91314E+01 -7.63262E+01 -7.35781E+01 -7.13026E+01 -6.98526E+01 -6.93525E+01 -6.96903E+01 -7.05188E+01
  -7.13378E+01 -7.17610E+01 -7.16316E+01 -7.10093E+01 -7.00960E+01 -6.90054E+01 -6.77087E+01 -6.62838E+01 -6.49839E+01 -6.40199E+01
  -6.34267E+01 -6.31211E+01 -6.29387E+01 -6.26617E+01 -6.21414E+01 -6.13400E+01 -6.03255E+01 -5.92121E+01 -5.80785E+01 -5.69895E+01
  -5.60087E+01 -5.51676E+01 -5.44826E+01 -5.39306E+01 -5.34608E+01 -5.30157E+01 -5.25459E+01 -5.20375E+01 -5.14853E+01 -5.08281E+01
  -5.01064E+01 -4.93137E+01 -4.84414E+01 -4.75227E+01 -4.66255E+01 -4.58376E+01 -4.52345E+01 -4.48253E+01 -4.45517E+01 -4.43330E+01
  -4.40663E+01 -4.37029E+01 -4.32800E+01 -4.28698E+01 -4.23658E+01 -4.11711E+01 -3.90921E+01 -3.60630E+01 -3.19379E+01 -2.67695E+01
  -2.10910E+01 -1.59141E+01 -1.23738E+01 -1.12446E+01 -1.26294E+01 -1.59107E+01 -1.99677E+01 -2.37318E+01 -2.66290E+01 -2.86862E+01
  -3.03021E+01 -3.17430E+01 -3.28050E+01 -3.30947E+01 -3.29176E+01 -3.26263E+01 -3.22891E+01 -3.18932E+01 -3.13246E+01 -3.00328E+01
  -2.75907E+01 -2.41636E+01 -1.96591E+01 -1.40320E+01 -7.70026E+00 -1.58799E+00  3.08504E+00  5.26802E+00  4.56684E+00  1.38276E+00
  -3.24587E+00 -8.07367E+00 -1.22740E+01 -1.56570E+01 -1.84799E+01 -2.10145E+01 -2.30543E+01 -2.39978E+01 -2.38396E+01 -2.32442E+01
  -2.25737E+01 -2.20307E+01 -2.16914E+01 -2.15154E+01 -2.14369E+01 -2.14230E+01 -2.14435E+01 -2.14862E+01 -2.15524E+01 -2.16297E+01
  -2.16958E+01 -2.17188E+01 -2.16736E+01 -2.15937E+01 -2.15092E+01 -2.14253E+01 -2.13695E+01 -2.13557E+01 -2.13892E+01 -2.14598E+01
  -2.14932E+01 -2.14168E+01 -2.12197E+01 -2.09609E+01 -2.07510E+01 -2.06878E+01 -2.07948E+01 -2.10251E+01 -2.12904E+01 -2.15165E+01
  -2.16590E+01 -2.17748E+01 -2.19269E+01 -2.21074E+01 -2.22496E+01 -2.22301E+01 -2.20191E+01 -2.16969E+01 -2.13428E+01 -2.10418E+01
  -2.08272E+01 -2.06147E+01 -2.03110E+01 -1.98328E+01 -1.91214E+01 -1.81884E+01 -1.70703E+01 -1.58004E+01 -1.44434E+01 -1.31652E+01
  -1.22162E+01 -1.17611E+01 -1.17602E+01 -1.19912E+01 -1.21966E+01 -1.21689E+01 -1.17360E+01 -1.08789E+01 -9.69298E+00 -8.31177E+00
  -6.94017E+00 -5.85602E+00 -5.28976E+00 -5.31670E+00 -5.95858E+00 -7.13284E+00 -8.57604E+00 -9.86313E+00 -1.05745E+01 -1.04914E+01
  -9.58007E+00 -7.99839E+00 -6.08718E+00 -4.25076E+00 -2.81986E+00 -2.01050E+00 -1.86925E+00 -2.32231E+00 -3.20648E+00 -4.23418E+00
  -4.99765E+00 -5.13284E+00 -4.59098E+00 -3.58030E+00 -2.34388E+00 -1.07322E+00  2.23454E-02  7.11388E-01  9.99603E-01  1.09660E+00
   1.19576E+00  1.38254E+00  1.70635E+00  2.23776E+00  2.93675E+00  3.65514E+00  4.20641E+00  4.43881E+00  4.27535E+00  3.75217E+00
   3.03602E+00  2.36049E+00  1.98408E+00  2.06823E+00  2.57021E+00  3.31935E+00  4.17496E+00  5.12315E+00  6.24027E+00  7.51901E+00
   8.99655E+00  1.08261E+01  1.36026E+01  1.83310E+01  2.45423E+01  3.20245E+01  4.09478E+01  5.08901E+01  6.05607E+01  6.79795E+01
   7.12208E+01  6.92467E+01  6.23912E+01  5.23541E+01  4.16599E+01  3.24315E+01  2.55120E+01  2.03612E+01  1.59812E+01  1.20955E+01
   9.44148E+00  8.53368E+00  8.32649E+00  8.28008E+00  8.28451E+00  8.29025E+00  8.28682E+00  8.28772E+00  8.30667E+00  8.35546E+00
   8.43587E+00  8.54047E+00  8.66032E+00  8.79329E+00  8.94081E+00  9.10113E+00  9.27367E+00  9.46382E+00  9.68219E+00  9.93772E+00
   1.02343E+01  1.05748E+01  1.09657E+01  1.14140E+01  1.19273E+01  1.25165E+01  1.31964E+01  1.39829E+01  1.48897E+01  1.59264E+01
   1.70974E+01  1.84019E+01  1.98335E+01  2.13777E+01  2.30130E+01  2.47124E+01  2.64432E+01  2.81677E+01  2.98440E+01  3.14281E+01
   3.28788E+01  3.41580E+01  3.52340E+01  3.60839E+01  3.66950E+01  3.70662E+01  3.72086E+01  3.71468E+01  3.69223E+01  3.65977E+01
   3.61947E+01  3.57032E+01  3.51446E+01  3.45166E+01  3.37779E+01  3.28723E+01  3.17660E+01  3.05205E+01  2.92885E+01  2.82050E+01
   2.74077E+01  2.69994E+01  2.69905E+01  2.72951E+01  2.77620E+01  2.82380E+01  2.86173E+01  2.88406E+01  2.88659E+01  2.87262E+01
   2.85121E+01  2.82792E+01  2.80453E+01  2.77749E+01  2.74233E+01  2.69935E+01  2.65081E+01  2.59826E+01  2.54633E+01  2.50078E+01
   2.46856E+01  2.45448E+01  2.45834E+01  2.47497E+01  2.49637E+01  2.51517E+01  2.52712E+01  2.53058E+01  2.52455E+01  2.51041E+01
   2.49232E+01  2.47285E+01  2.45210E+01  2.42902E+01  2.40393E+01  2.37950E+01  2.35659E+01  2.33431E+01  2.31244E+01  2.29103E+01
   2.27025E+01  2.25034E+01  2.23153E+01  2.21405E+01  2.19816E+01  2.18406E+01  2.17199E+01  2.16212E+01  2.15465E+01  2.14978E+01
   2.14769E+01  2.14859E+01  2.15267E+01  2.16017E+01  2.17131E+01  2.18637E+01  2.20561E+01  2.22930E+01  2.25771E+01  2.29106E+01
   2.32953E+01  2.37322E+01  2.42212E+01  2.47606E+01  2.53471E+01  2.59752E+01  2.66373E+01  2.73235E+01  2.80218E+01  2.87178E+01
   2.93957E+01  3.00386E+01  3.06292E+01  3.11507E+01  3.15873E+01  3.19255E+01  3.21547E+01  3.22675E+01  3.22608E+01  3.21354E+01
   3.18962E+01  3.15518E+01  3.11143E+01  3.05982E+01  3.00200E+01  2.93969E+01  2.87463E+01  2.80846E+01  2.74270E+01  2.67868E+01
   2.61750E+01  2.56001E+01  2.50680E+01  2.45827E+01  2.41457E+01  2.37570E+01  2.34152E+01  2.31175E+01  2.28605E+01  2.26406E+01
   2.24536E+01  2.22955E+01  2.21624E+01  2.20507E+01  2.19570E+01  2.18783E+01  2.18121E+01  2.17560E+01  2.17080E+01  2.16664E+01
   2.16297E+01  2.15968E+01  2.15667E+01  2.15383E+01  2.15110E+01  2.14841E+01  2.14570E+01  2.14293E+01  2.14006E+01  2.13703E+01
   2.13383E+01  2.13042E+01  2.12677E+01  2.12287E+01  2.11871E+01  2.11430E+01  2.10963E+01  2.10470E+01  2.09953E+01  2.09412E+01
   2.08847E+01  2.08260E+01  2.07650E+01  2.07018E+01  2.06366E+01  2.05694E+01  2.05004E+01  2.04295E+01  2.03569E+01  2.02827E+01
   2.02071E+01  2.01300E+01  2.00516E+01  1.99721E+01  1.98914E+01  1.98098E+01  1.97274E+01  1.96441E+01  1.95603E+01  1.94759E+01
   1.93911E+01  1.93060E+01  1.92207E+01  1.91354E+01  1.90501E+01  1.89650E+01  1.88801E+01  1.87958E+01  1.87119E+01  1.86287E+01
   1.85463E+01  1.84648E+01  1.83844E+01  1.83051E+01  1.82271E+01  1.81506E+01  1.80756E+01  1.80024E+01
 NY background values follow
    -1.405E+02   -1.391E+02   -1.377E+02   -1.363E+02   -1.349E+02   -1.335E+02   -1.322E+02   -1.308E+02   -1.294E+02   -1.280E+02
    -1.267E+02   -1.253E+02   -1.239E+02   -1.226E+02   -1.212E+02   -1.199E+02   -1.185E+02   -1.172E+02   -1.158E+02   -1.145E+02
    -1.132E+02   -1.119E+02   -1.105E+02   -1.092E+02   -1.079E+02   -1.066E+02   -1.054E+02   -1.041E+02   -1.028E+02   -1.016E+02
    -1.003E+02   -9.908E+01   -9.784E+01   -9.662E+01   -9.541E+01   -9.421E+01   -9.302E+01   -9.185E+01   -9.068E+01   -8.952E+01
    -8.838E+01   -8.725E+01   -8.613E+01   -8.502E+01   -8.393E+01   -8.285E+01   -8.178E+01   -8.073E+01   -7.969E+01   -7.867E+01
    -7.766E+01   -7.666E+01   -7.567E+01   -7.470E+01   -7.373E+01   -7.278E+01   -7.185E+01   -7.092E+01   -7.001E+01   -6.911E+01
    -6.822E+01   -6.734E+01   -6.648E+01   -6.562E+01   -6.478E+01   -6.395E+01   -6.313E+01   -6.232E+01   -6.152E+01   -6.073E+01
    -5.995E+01   -5.918E+01   -5.842E+01   -5.767E+01   -5.693E+01   -5.620E+01   -5.547E+01   -5.476E+01   -5.406E+01   -5.336E+01
    -5.268E+01   -5.200E+01   -5.133E+01   -5.067E+01   -5.002E+01   -4.938E+01   -4.874E+01   -4.812E+01   -4.749E+01   -4.688E+01
    -4.628E+01   -4.568E+01   -4.509E+01   -4.450E+01   -4.392E+01   -4.335E+01   -4.279E+01   -4.224E+01   -4.169E+01   -4.115E+01
    -4.061E+01   -4.008E+01   -3.956E+01   -3.905E+01   -3.855E+01   -3.805E+01   -3.756E+01   -3.707E+01   -3.660E+01   -3.613E+01
    -3.566E+01   -3.521E+01   -3.476E+01   -3.432E+01   -3.389E+01   -3.346E+01   -3.304E+01   -3.263E+01   -3.222E+01   -3.182E+01
    -3.143E+01   -3.105E+01   -3.067E+01   -3.031E+01   -2.994E+01   -2.959E+01   -2.924E+01   -2.890E+01   -2.857E+01   -2.825E+01
    -2.793E+01   -2.762E+01   -2.731E+01   -2.702E+01   -2.673E+01   -2.645E+01   -2.617E+01   -2.591E+01   -2.565E+01   -2.539E+01
    -2.515E+01   -2.490E+01   -2.467E+01   -2.444E+01   -2.421E+01   -2.399E+01   -2.377E+01   -2.356E+01   -2.335E+01   -2.315E+01
    -2.295E+01   -2.275E+01   -2.255E+01   -2.236E+01   -2.217E+01   -2.197E+01   -2.179E+01   -2.160E+01   -2.141E+01   -2.122E+01
    -2.104E+01   -2.085E+01   -2.066E+01   -2.047E+01   -2.028E+01   -2.009E+01   -1.990E+01   -1.970E+01   -1.951E+01   -1.931E+01
    -1.910E+01   -1.890E+01   -1.869E+01   -1.848E+01   -1.826E+01   -1.804E+01   -1.781E+01   -1.758E+01   -1.734E+01   -1.710E+01
    -1.685E+01   -1.659E+01   -1.633E+01   -1.606E+01   -1.579E+01   -1.551E+01   -1.522E+01   -1.493E+01   -1.464E+01   -1.434E+01
    -1.404E+01   -1.373E+01   -1.342E+01   -1.311E+01   -1.279E+01   -1.247E+01   -1.215E+01   -1.183E+01   -1.150E+01   -1.118E+01
    -1.085E+01   -1.052E+01   -1.019E+01   -9.867E+00   -9.539E+00   -9.211E+00   -8.884E+00   -8.559E+00   -8.234E+00   -7.912E+00
    -7.591E+00   -7.273E+00   -6.957E+00   -6.644E+00   -6.335E+00   -6.029E+00   -5.726E+00   -5.428E+00   -5.134E+00   -4.845E+00
    -4.561E+00   -4.283E+00   -4.010E+00   -3.743E+00   -3.482E+00   -3.227E+00   -2.980E+00   -2.739E+00   -2.505E+00   -2.278E+00
    -2.058E+00   -1.843E+00   -1.634E+00   -1.431E+00   -1.234E+00   -1.041E+00   -8.540E-01   -6.712E-01   -4.928E-01   -3.187E-01
    -1.485E-01    1.787E-02    1.808E-01    3.404E-01    4.971E-01    6.509E-01    8.023E-01    9.513E-01    1.098E+00    1.243E+00
     1.387E+00    1.529E+00    1.670E+00    1.811E+00    1.950E+00    2.089E+00    2.229E+00    2.368E+00    2.507E+00    2.647E+00
     2.788E+00    2.930E+00    3.074E+00    3.218E+00    3.365E+00    3.514E+00    3.664E+00    3.818E+00    3.974E+00    4.133E+00
     4.295E+00    4.461E+00    4.630E+00    4.803E+00    4.979E+00    5.159E+00    5.341E+00    5.527E+00    5.715E+00    5.905E+00
     6.098E+00    6.293E+00    6.490E+00    6.688E+00    6.889E+00    7.090E+00    7.293E+00    7.497E+00    7.702E+00    7.907E+00
     8.113E+00    8.320E+00    8.526E+00    8.732E+00    8.939E+00    9.145E+00    9.350E+00    9.555E+00    9.758E+00    9.961E+00
     1.016E+01    1.036E+01    1.056E+01    1.076E+01    1.095E+01    1.114E+01    1.133E+01    1.152E+01    1.171E+01    1.189E+01
     1.207E+01    1.224E+01    1.242E+01    1.258E+01    1.275E+01    1.291E+01    1.307E+01    1.322E+01    1.337E+01    1.351E+01
     1.365E+01    1.379E+01    1.392E+01    1.405E+01    1.417E+01    1.429E+01    1.441E+01    1.453E+01    1.464E+01    1.474E+01
     1.485E+01    1.495E+01    1.505E+01    1.514E+01    1.524E+01    1.533E+01    1.541E+01    1.550E+01    1.558E+01    1.566E+01
     1.574E+01    1.582E+01    1.589E+01    1.596E+01    1.603E+01    1.610E+01    1.617E+01    1.623E+01    1.630E+01    1.636E+01
     1.642E+01    1.648E+01    1.654E+01    1.660E+01    1.666E+01    1.671E+01    1.677E+01    1.682E+01    1.688E+01    1.693E+01
     1.699E+01    1.704E+01    1.709E+01    1.715E+01    1.720E+01    1.725E+01    1.731E+01    1.736E+01    1.741E+01    1.747E+01
     1.752E+01    1.757E+01    1.763E+01    1.768E+01    1.773E+01    1.779E+01    1.784E+01    1.789E+01    1.795E+01    1.800E+01
     1.805E+01    1.811E+01    1.816E+01    1.822E+01    1.827E+01    1.832E+01    1.838E+01    1.843E+01    1.849E+01    1.854E+01
     1.860E+01    1.865E+01    1.871E+01    1.877E+01    1.882E+01    1.888E+01    1.894E+01    1.899E+01    1.905E+01    1.911E+01
     1.916E+01    1.922E+01    1.928E+01    1.934E+01    1.940E+01    1.946E+01    1.952E+01    1.958E+01    1.964E+01    1.970E+01
     1.976E+01    1.982E+01    1.988E+01    1.995E+01    2.001E+01    2.007E+01    2.013E+01    2.019E+01    2.024E+01    2.030E+01
     2.036E+01    2.042E+01    2.047E+01    2.053E+01    2.058E+01    2.063E+01    2.068E+01    2.073E+01    2.078E+01    2.083E+01
     2.087E+01    2.091E+01    2.095E+01    2.099E+01    2.103E+01    2.106E+01    2.109E+01    2.112E+01    2.115E+01    2.117E+01
     2.119E+01    2.121E+01    2.123E+01    2.124E+01    2.125E+01    2.126E+01    2.126E+01    2.126E+01    2.126E+01    2.125E+01
     2.124E+01    2.122E+01    2.121E+01    2.118E+01    2.116E+01    2.113E+01    2.109E+01    2.106E+01    2.102E+01    2.097E+01
     2.093E+01    2.088E+01    2.083E+01    2.077E+01    2.071E+01    2.066E+01    2.059E+01    2.053E+01    2.046E+01    2.039E+01
     2.032E+01    2.025E+01    2.018E+01    2.010E+01    2.003E+01    1.995E+01    1.987E+01    1.979E+01    1.971E+01    1.963E+01
     1.955E+01    1.947E+01    1.938E+01    1.930E+01    1.922E+01    1.914E+01    1.905E+01    1.897E+01    1.889E+01    1.881E+01
     1.873E+01    1.865E+01    1.857E+01    1.849E+01    1.841E+01    1.833E+01    1.826E+01    1.819E+01
 Ala      Conc. = 1.94E+02
