 LCModel (Version 6.3-1L) Copyright: S.W. Provencher.          Ref.: Magn. Reson. Med. 30:672-679 (1993).                
 Slice#3 Row#9 Col#1  PD_24_press_2_raw_act
 36 lines in following concentration table = NCONC+1
    Conc.  %SD /Cr+PCr  Metabolite                                         
    0.000 999%   0.000 Ala                                                 
    0.000 999%   0.000 Asp                                                 
   56.130 184%   1.000 Cr                                                  
    0.000 999%   0.000 PCr                                                 
    1.715 999% 3.1E-02 GABA                                                
    0.000 999%   0.000 Glc                                                 
    0.000 999%   0.000 Gln                                                 
 3.31E+03  60%  58.947 Glu                                                 
    0.000 999%   0.000 GPC                                                 
    0.000 999%   0.000 PCh                                                 
   73.710 269%   1.313 GSH                                                 
 2.27E+03  53%  40.487 Ins                                                 
    0.000 999%   0.000 Lac                                                 
 1.04E+03  53%  18.509 NAA                                                 
    0.000 999%   0.000 NAAG                                                
    7.553 725%   0.135 Scyllo                                              
    0.000 999%   0.000 Tau                                                 
   68.781 218%   1.225 -CrCH2                                              
    0.000 999%   0.000 GPC+PCh                                             
 1.04E+03  53%  18.509 NAA+NAAG                                            
   56.130 184%   1.000 Cr+PCr                                              
 3.31E+03  60%  58.947 Glu+Gln                                             
 7.24E+04  13% 1.3E+03 Lip13a                                              
  181.900 502%   3.241 Lip13b                                              
    0.000 999%   0.000-Lip09                                               
 3.05E+04  10% 543.776 MM09                                                
 2.48E+04   5% 442.641+Lip20                                               
 4.57E+04  10% 814.752 MM20                                                
 9.09E+03  11% 162.033 MM12                                                
 2.54E+04  11% 452.051 MM14                                                
 1.43E+04  10% 255.437+MM17                                                
 7.26E+04  13% 1.3E+03 Lip13a+Lip13b                                       
 1.07E+05   8% 1.9E+03 MM14+Lip13a+Lip13b+MM12                             
 3.05E+04  10% 543.776 MM09+Lip09                                          
 7.06E+04   7% 1.3E+03 MM20+Lip20                                          
   6 lines in following misc. output table
  FWHM = 0.122 ppm    S/N =   6                                            
  Data shift = 0.008 ppm                                                   
  Ph:-144 deg     158.0 deg/ppm                                            
  alphaB,S = 2.2E+00,   2.4E+01                                            
    6 spline knots.   Ns = 9(2)                                            
  (11) 1 infls.   ( 4) 2 extrs.                                            
  498 points on ppm-axis = NY
      4.000000     3.992357     3.984714     3.977070     3.969427     3.961784     3.954141     3.946497     3.938854     3.931211
      3.923568     3.915925     3.908281     3.900638     3.892995     3.885352     3.877708     3.870065     3.862422     3.854779
      3.847136     3.839492     3.831849     3.824206     3.816563     3.808919     3.801276     3.793633     3.785990     3.778347
      3.770703     3.763060     3.755417     3.747774     3.740130     3.732487     3.724844     3.717201     3.709558     3.701914
      3.694271     3.686628     3.678985     3.671341     3.663698     3.656055     3.648412     3.640769     3.633125     3.625482
      3.617839     3.610196     3.602552     3.594909     3.587266     3.579623     3.571980     3.564336     3.556693     3.549050
      3.541407     3.533763     3.526120     3.518477     3.510834     3.503191     3.495547     3.487904     3.480261     3.472618
      3.464974     3.457331     3.449688     3.442045     3.434402     3.426758     3.419115     3.411472     3.403829     3.396185
      3.388542     3.380899     3.373256     3.365613     3.357969     3.350326     3.342683     3.335040     3.327396     3.319753
      3.312110     3.304467     3.296824     3.289180     3.281537     3.273894     3.266251     3.258607     3.250964     3.243321
      3.235678     3.228034     3.220391     3.212748     3.205105     3.197462     3.189818     3.182175     3.174532     3.166889
      3.159245     3.151602     3.143959     3.136316     3.128673     3.121029     3.113386     3.105743     3.098100     3.090456
      3.082813     3.075170     3.067527     3.059884     3.052240     3.044597     3.036954     3.029311     3.021667     3.014024
      3.006381     2.998738     2.991095     2.983451     2.975808     2.968165     2.960522     2.952878     2.945235     2.937592
      2.929949     2.922306     2.914662     2.907019     2.899376     2.891733     2.884089     2.876446     2.868803     2.861160
      2.853517     2.845873     2.838230     2.830587     2.822944     2.815300     2.807657     2.800014     2.792371     2.784728
      2.777084     2.769441     2.761798     2.754155     2.746511     2.738868     2.731225     2.723582     2.715939     2.708295
      2.700652     2.693009     2.685366     2.677722     2.670079     2.662436     2.654793     2.647150     2.639506     2.631863
      2.624220     2.616577     2.608933     2.601290     2.593647     2.586004     2.578361     2.570717     2.563074     2.555431
      2.547788     2.540144     2.532501     2.524858     2.517215     2.509572     2.501928     2.494285     2.486642     2.478999
      2.471355     2.463712     2.456069     2.448426     2.440783     2.433139     2.425496     2.417853     2.410210     2.402566
      2.394923     2.387280     2.379637     2.371994     2.364350     2.356707     2.349064     2.341421     2.333777     2.326134
      2.318491     2.310848     2.303205     2.295561     2.287918     2.280275     2.272632     2.264988     2.257345     2.249702
      2.242059     2.234416     2.226772     2.219129     2.211486     2.203843     2.196199     2.188556     2.180913     2.173270
      2.165627     2.157983     2.150340     2.142697     2.135054     2.127410     2.119767     2.112124     2.104481     2.096838
      2.089194     2.081551     2.073908     2.066265     2.058621     2.050978     2.043335     2.035692     2.028049     2.020405
      2.012762     2.005119     1.997476     1.989833     1.982190     1.974546     1.966903     1.959260     1.951617     1.943974
      1.936331     1.928688     1.921045     1.913402     1.905759     1.898115     1.890472     1.882829     1.875186     1.867543
      1.859900     1.852257     1.844614     1.836971     1.829327     1.821684     1.814041     1.806398     1.798755     1.791112
      1.783469     1.775826     1.768183     1.760540     1.752896     1.745253     1.737610     1.729967     1.722324     1.714681
      1.707038     1.699395     1.691752     1.684108     1.676465     1.668822     1.661179     1.653536     1.645893     1.638250
      1.630607     1.622964     1.615321     1.607677     1.600034     1.592391     1.584748     1.577105     1.569462     1.561819
      1.554176     1.546533     1.538890     1.531246     1.523603     1.515960     1.508317     1.500674     1.493031     1.485388
      1.477745     1.470102     1.462458     1.454815     1.447172     1.439529     1.431886     1.424243     1.416600     1.408957
      1.401314     1.393671     1.386027     1.378384     1.370741     1.363098     1.355455     1.347812     1.340169     1.332526
      1.324883     1.317240     1.309596     1.301953     1.294310     1.286667     1.279024     1.271381     1.263738     1.256095
      1.248452     1.240808     1.233165     1.225522     1.217879     1.210236     1.202593     1.194950     1.187307     1.179664
      1.172021     1.164377     1.156734     1.149091     1.141448     1.133805     1.126162     1.118519     1.110876     1.103233
      1.095590     1.087946     1.080303     1.072660     1.065017     1.057374     1.049731     1.042088     1.034445     1.026802
      1.019158     1.011515     1.003872     0.996229     0.988586     0.980943     0.973300     0.965657     0.958014     0.950371
      0.942727     0.935084     0.927441     0.919798     0.912155     0.904512     0.896869     0.889226     0.881583     0.873940
      0.866296     0.858653     0.851010     0.843367     0.835724     0.828081     0.820438     0.812795     0.805152     0.797508
      0.789865     0.782222     0.774579     0.766936     0.759293     0.751650     0.744007     0.736364     0.728721     0.721077
      0.713434     0.705791     0.698148     0.690505     0.682862     0.675219     0.667576     0.659933     0.652290     0.644646
      0.637003     0.629360     0.621717     0.614074     0.606431     0.598788     0.591145     0.583502     0.575858     0.568215
      0.560572     0.552929     0.545286     0.537643     0.530000     0.522357     0.514714     0.507071     0.499427     0.491784
      0.484141     0.476498     0.468855     0.461212     0.453569     0.445925     0.438282     0.430639     0.422996     0.415353
      0.407710     0.400067     0.392424     0.384780     0.377137     0.369494     0.361851     0.354208     0.346565     0.338922
      0.331278     0.323635     0.315992     0.308349     0.300706     0.293063     0.285420     0.277777     0.270133     0.262490
      0.254847     0.247204     0.239561     0.231918     0.224275     0.216631     0.208988     0.201345
 NY phased data points follow
   2.70567E+02  2.69508E+02  2.67595E+02  2.61577E+02  2.66393E+02  2.65944E+02  2.63810E+02  2.58966E+02  2.60641E+02  2.60358E+02
   2.56704E+02  2.48354E+02  2.52411E+02  2.43056E+02  2.44992E+02  2.43280E+02  2.42704E+02  2.39232E+02  2.44569E+02  2.36150E+02
   2.36439E+02  2.36671E+02  2.30049E+02  2.27343E+02  2.28566E+02  2.18626E+02  2.21937E+02  2.15417E+02  2.16816E+02  2.11644E+02
   2.09467E+02  2.07007E+02  2.05086E+02  2.05399E+02  2.04210E+02  1.92467E+02  1.98733E+02  1.98681E+02  1.91535E+02  1.89373E+02
   1.94577E+02  1.88325E+02  1.87167E+02  1.78633E+02  1.80142E+02  1.74477E+02  1.77631E+02  1.64413E+02  1.70199E+02  1.64013E+02
   1.62750E+02  1.52108E+02  1.55775E+02  1.53977E+02  1.48943E+02  1.44603E+02  1.45393E+02  1.40505E+02  1.37673E+02  1.26349E+02
   1.24783E+02  1.21218E+02  1.25244E+02  1.23930E+02  1.18249E+02  1.12276E+02  1.13267E+02  1.10006E+02  1.08708E+02  1.03034E+02
   1.01179E+02  9.44136E+01  9.10203E+01  9.01322E+01  8.67205E+01  8.49850E+01  8.28298E+01  7.89805E+01  7.58784E+01  7.17144E+01
   6.90796E+01  6.69559E+01  6.60454E+01  6.60211E+01  6.05640E+01  6.12993E+01  5.58644E+01  5.05830E+01  5.11110E+01  4.79104E+01
   4.52137E+01  4.29656E+01  3.97202E+01  4.16791E+01  3.25005E+01  3.31437E+01  3.36640E+01  3.07559E+01  2.20838E+01  2.39505E+01
   2.12210E+01  1.71422E+01  8.66129E+00  1.07072E+01  7.80692E+00  1.67085E+01  1.76790E+01  1.89369E+01  1.71191E+01  1.69066E+01
   1.11490E+01  1.32855E+01  1.61346E+01  1.17394E+01  5.25732E+00  7.47884E+00  2.81088E+00  2.52601E+00 -1.41096E+00  4.50219E-01
   6.50718E-01 -1.18216E+00 -6.41806E+00 -5.33374E+00 -1.30665E+01 -1.58654E+01 -1.77098E+01 -1.92556E+01 -1.35988E+01 -1.36868E+01
  -1.13746E+01 -5.97957E+00 -8.95574E+00 -1.01866E+01 -2.07579E+01 -1.70614E+01 -2.30819E+01 -2.38079E+01 -2.54580E+01 -2.93181E+01
  -3.09419E+01 -3.57496E+01 -3.52387E+01 -3.78186E+01 -4.08708E+01 -3.44355E+01 -4.22568E+01 -4.52756E+01 -4.23573E+01 -4.64992E+01
  -4.60408E+01 -4.93268E+01 -4.34984E+01 -4.39155E+01 -4.86203E+01 -4.79067E+01 -5.11451E+01 -4.16845E+01 -4.13792E+01 -4.25968E+01
  -4.36906E+01 -4.06328E+01 -4.40880E+01 -4.03206E+01 -4.04484E+01 -4.35104E+01 -4.11124E+01 -3.41415E+01 -3.59159E+01 -3.47364E+01
  -3.48895E+01 -3.14769E+01 -2.63315E+01 -2.60820E+01 -3.17995E+01 -2.35640E+01 -2.42913E+01 -2.53934E+01 -2.53114E+01 -2.34809E+01
  -2.01277E+01 -2.14374E+01 -1.71851E+01 -2.23261E+01 -2.76322E+01 -2.72287E+01 -2.94044E+01 -3.07969E+01 -3.24981E+01 -3.74276E+01
  -3.87229E+01 -4.02032E+01 -4.51676E+01 -4.88841E+01 -5.58040E+01 -5.63862E+01 -6.32490E+01 -6.64228E+01 -7.04792E+01 -7.69907E+01
  -8.37892E+01 -9.04805E+01 -9.20871E+01 -9.98094E+01 -1.06036E+02 -1.11127E+02 -1.22860E+02 -1.23852E+02 -1.24688E+02 -1.37376E+02
  -1.40702E+02 -1.39621E+02 -1.46532E+02 -1.52029E+02 -1.51913E+02 -1.54017E+02 -1.59946E+02 -1.59013E+02 -1.63713E+02 -1.74197E+02
  -1.74361E+02 -1.75430E+02 -1.78964E+02 -1.78401E+02 -1.84362E+02 -1.72283E+02 -1.79870E+02 -1.78160E+02 -1.75249E+02 -1.76297E+02
  -1.75312E+02 -1.75203E+02 -1.68601E+02 -1.68496E+02 -1.72374E+02 -1.64309E+02 -1.62705E+02 -1.56099E+02 -1.52456E+02 -1.49145E+02
  -1.44009E+02 -1.42290E+02 -1.38465E+02 -1.32376E+02 -1.31287E+02 -1.18465E+02 -1.14507E+02 -1.10074E+02 -1.01012E+02 -9.48030E+01
  -8.95013E+01 -9.04615E+01 -8.40758E+01 -7.62618E+01 -7.08314E+01 -6.65209E+01 -5.31018E+01 -4.89218E+01 -3.78676E+01 -2.77094E+01
  -2.26252E+01 -1.80969E+01 -2.37426E+01 -2.51036E+01 -2.92597E+01 -2.52141E+01 -2.12642E+01 -1.27084E+01 -6.72475E+00 -4.63836E+00
   2.86153E+00  5.72268E+00  5.38684E+00  1.14949E+01  1.31923E+01  1.55890E+01  1.71737E+01  1.92185E+01  1.98785E+01  2.61312E+01
   2.76422E+01  3.29611E+01  3.24790E+01  2.68100E+01  3.33089E+01  3.36789E+01  3.72650E+01  3.79666E+01  4.01429E+01  4.29397E+01
   3.74922E+01  4.06915E+01  4.15046E+01  3.97054E+01  4.53501E+01  4.84665E+01  4.31393E+01  4.50205E+01  3.96560E+01  4.01060E+01
   3.94032E+01  3.65854E+01  4.15171E+01  3.99696E+01  4.06258E+01  4.05219E+01  4.37268E+01  4.18450E+01  4.34701E+01  4.52259E+01
   4.52336E+01  4.92113E+01  5.22178E+01  5.05644E+01  5.41316E+01  5.81966E+01  6.14520E+01  5.95585E+01  6.76828E+01  7.21942E+01
   7.72603E+01  7.96141E+01  8.49336E+01  8.23138E+01  8.79305E+01  9.00650E+01  9.25911E+01  9.26737E+01  9.85663E+01  9.81351E+01
   1.01591E+02  9.88439E+01  9.91545E+01  1.03385E+02  1.06912E+02  1.00753E+02  1.04758E+02  9.95593E+01  1.01166E+02  1.05320E+02
   1.04081E+02  1.05736E+02  1.00729E+02  1.07041E+02  1.02412E+02  9.99975E+01  1.02021E+02  1.01826E+02  9.62609E+01  9.29805E+01
   9.16458E+01  8.87764E+01  9.46895E+01  8.34259E+01  8.83185E+01  8.87787E+01  8.36965E+01  8.19688E+01  8.04401E+01  8.06218E+01
   9.01631E+01  7.81712E+01  7.87954E+01  7.97400E+01  7.49444E+01  7.52845E+01  7.25510E+01  7.35044E+01  7.32569E+01  7.13932E+01
   6.75465E+01  6.86391E+01  7.23071E+01  6.53456E+01  6.40945E+01  6.52488E+01  6.47029E+01  6.16164E+01  5.82290E+01  5.87433E+01
   5.93841E+01  5.52158E+01  5.60038E+01  5.09064E+01  5.13180E+01  4.95292E+01  5.15186E+01  4.77543E+01  4.93500E+01  4.24019E+01
   4.14548E+01  4.47475E+01  4.60771E+01  4.02582E+01  3.89246E+01  3.74750E+01  3.59957E+01  3.46024E+01  3.37352E+01  3.14832E+01
   2.75432E+01  3.19975E+01  2.63099E+01  2.38434E+01  2.45114E+01  2.36285E+01  1.97086E+01  1.55886E+01  1.72769E+01  1.48627E+01
   1.33835E+01  1.00356E+01  1.49423E+01  9.45577E+00  1.17606E+01  1.00085E+01  1.19072E+01  6.56339E+00  5.82822E+00  6.51431E+00
   4.52395E+00  2.71262E+00  3.01449E+00  1.10788E+00 -2.49538E+00  1.64988E+00 -2.25062E+00 -2.59199E+00 -3.64828E+00 -6.45609E+00
  -8.53611E+00 -1.03884E+01 -8.80277E+00 -1.19577E+01 -8.90750E+00 -7.77435E+00 -1.51621E+01 -1.44630E+01 -1.54539E+01 -2.05767E+01
  -1.66318E+01 -1.80215E+01 -2.09497E+01 -2.28639E+01 -2.25426E+01 -2.51027E+01 -2.64660E+01 -2.91462E+01 -2.72928E+01 -2.74096E+01
  -2.80435E+01 -3.27168E+01 -2.81418E+01 -2.99688E+01 -3.21957E+01 -3.50388E+01 -3.47097E+01 -3.00726E+01 -3.53240E+01 -3.51272E+01
  -3.90674E+01 -3.36504E+01 -4.32175E+01 -4.06348E+01 -3.79487E+01 -4.14830E+01 -3.47255E+01 -3.78941E+01 -3.85082E+01 -3.94935E+01
  -4.46542E+01 -3.85526E+01 -4.31619E+01 -4.20683E+01 -4.45856E+01 -4.23017E+01 -4.04585E+01 -4.50792E+01 -4.23565E+01 -4.47625E+01
  -4.61652E+01 -4.55829E+01 -4.55236E+01 -4.87240E+01 -4.35719E+01 -4.62456E+01 -4.81143E+01 -4.59840E+01 -4.52104E+01 -4.57127E+01
  -4.92958E+01 -4.85389E+01 -4.55097E+01 -4.46799E+01 -4.39990E+01 -4.33218E+01 -4.47794E+01 -4.08598E+01
 NY points of the fit to the data follow
   2.83711E+02  2.77909E+02  2.73878E+02  2.69132E+02  2.66049E+02  2.62480E+02  2.60257E+02  2.58294E+02  2.56968E+02  2.54423E+02
   2.52879E+02  2.49529E+02  2.47867E+02  2.44889E+02  2.44192E+02  2.41881E+02  2.42140E+02  2.39164E+02  2.39215E+02  2.34944E+02
   2.34401E+02  2.29880E+02  2.29149E+02  2.24643E+02  2.23535E+02  2.19102E+02  2.17134E+02  2.12874E+02  2.10347E+02  2.09001E+02
   2.07860E+02  2.07904E+02  2.05604E+02  2.04832E+02  2.00767E+02  1.99617E+02  1.94996E+02  1.94235E+02  1.90151E+02  1.89662E+02
   1.86038E+02  1.85578E+02  1.82473E+02  1.81881E+02  1.79207E+02  1.77482E+02  1.74254E+02  1.70440E+02  1.65993E+02  1.60926E+02
   1.56101E+02  1.51227E+02  1.47072E+02  1.43172E+02  1.40396E+02  1.37076E+02  1.34995E+02  1.32163E+02  1.30574E+02  1.28179E+02
   1.26976E+02  1.24644E+02  1.23349E+02  1.21025E+02  1.19627E+02  1.17618E+02  1.16419E+02  1.14763E+02  1.13481E+02  1.10774E+02
   1.08204E+02  1.04509E+02  1.01342E+02  9.74090E+01  9.39518E+01  9.00940E+01  8.67160E+01  8.29800E+01  8.00715E+01  7.64013E+01
   7.35578E+01  6.96590E+01  6.67985E+01  6.29014E+01  6.02434E+01  5.66745E+01  5.43959E+01  5.15118E+01  4.98095E+01  4.76465E+01
   4.62709E+01  4.45281E+01  4.30848E+01  4.13765E+01  3.94031E+01  3.75682E+01  3.51357E+01  3.32690E+01  3.06563E+01  2.88392E+01
   2.63486E+01  2.46294E+01  2.24041E+01  2.08013E+01  1.88279E+01  1.72868E+01  1.54685E+01  1.39003E+01  1.21416E+01  1.09230E+01
   9.50818E+00  8.39199E+00  7.06763E+00  5.85711E+00  4.53555E+00  3.27003E+00  2.02968E+00  7.14398E-01 -5.05055E-01 -1.83844E+00
  -2.88464E+00 -4.19696E+00 -5.03842E+00 -6.31001E+00 -6.93763E+00 -8.18939E+00 -8.74932E+00 -1.00816E+01 -1.07914E+01 -1.21935E+01
  -1.31165E+01 -1.44771E+01 -1.55547E+01 -1.68279E+01 -1.80088E+01 -1.92427E+01 -2.05325E+01 -2.17471E+01 -2.31107E+01 -2.42985E+01
  -2.57142E+01 -2.69001E+01 -2.84259E+01 -2.99315E+01 -3.16499E+01 -3.33400E+01 -3.50269E+01 -3.65285E+01 -3.81402E+01 -3.96100E+01
  -4.11373E+01 -4.24104E+01 -4.36325E+01 -4.45228E+01 -4.52775E+01 -4.56130E+01 -4.57883E+01 -4.54868E+01 -4.52110E+01 -4.43321E+01
  -4.32915E+01 -4.17157E+01 -3.99917E+01 -3.80866E+01 -3.59600E+01 -3.39151E+01 -3.15454E+01 -2.96429E+01 -2.73838E+01 -2.60555E+01
  -2.40614E+01 -2.31951E+01 -2.16837E+01 -2.14284E+01 -2.06074E+01 -2.10456E+01 -2.10842E+01 -2.22156E+01 -2.31681E+01 -2.47960E+01
  -2.68362E+01 -2.89873E+01 -3.19557E+01 -3.45012E+01 -3.81249E+01 -4.08523E+01 -4.45144E+01 -4.70491E+01 -5.07645E+01 -5.35997E+01
  -5.69607E+01 -6.11833E+01 -6.46737E+01 -7.02394E+01 -7.39467E+01 -8.02419E+01 -8.31426E+01 -8.65632E+01 -8.72111E+01 -8.99863E+01
  -8.97622E+01 -9.28424E+01 -9.30372E+01 -9.81984E+01 -1.01618E+02 -1.07930E+02 -1.11708E+02 -1.17413E+02 -1.20727E+02 -1.25478E+02
  -1.28814E+02 -1.32772E+02 -1.36446E+02 -1.41198E+02 -1.45698E+02 -1.51789E+02 -1.56721E+02 -1.63319E+02 -1.67889E+02 -1.73034E+02
  -1.75559E+02 -1.77872E+02 -1.78330E+02 -1.78013E+02 -1.77991E+02 -1.76087E+02 -1.76233E+02 -1.73353E+02 -1.74199E+02 -1.70407E+02
  -1.71211E+02 -1.66973E+02 -1.68141E+02 -1.63835E+02 -1.64759E+02 -1.59954E+02 -1.60011E+02 -1.55375E+02 -1.54673E+02 -1.50902E+02
  -1.50313E+02 -1.48056E+02 -1.41821E+02 -1.34976E+02 -1.26514E+02 -1.18064E+02 -1.10758E+02 -1.03353E+02 -9.72714E+01 -9.04021E+01
  -8.55924E+01 -7.84900E+01 -7.43599E+01 -6.63714E+01 -6.35010E+01 -5.50634E+01 -5.27998E+01 -4.40313E+01 -4.20663E+01 -3.37417E+01
  -3.23281E+01 -2.62868E+01 -2.50251E+01 -2.21264E+01 -1.92113E+01 -1.76697E+01 -1.22973E+01 -1.05112E+01 -3.86958E+00 -2.21123E+00
   4.41620E+00  5.72203E+00  1.18240E+01  1.30639E+01  1.77551E+01  1.86212E+01  2.13746E+01  2.16955E+01  2.32126E+01  2.38483E+01
   2.52035E+01  2.66848E+01  2.73989E+01  2.85713E+01  2.98998E+01  3.14944E+01  3.34334E+01  3.53932E+01  3.74281E+01  3.91382E+01
   4.06435E+01  4.15679E+01  4.20938E+01  4.20076E+01  4.14785E+01  4.04443E+01  3.91288E+01  3.76094E+01  3.60903E+01  3.47104E+01
   3.36117E+01  3.29392E+01  3.27586E+01  3.31326E+01  3.40568E+01  3.55179E+01  3.74524E+01  3.97890E+01  4.24298E+01  4.52793E+01
   4.82373E+01  5.12091E+01  5.41200E+01  5.69048E+01  5.95242E+01  6.19534E+01  6.41903E+01  6.62483E+01  6.81535E+01  6.99455E+01
   7.16646E+01  7.33606E+01  7.50714E+01  7.68414E+01  7.86925E+01  8.06518E+01  8.27198E+01  8.48999E+01  8.71689E+01  8.95073E+01
   9.18719E+01  9.42263E+01  9.65147E+01  9.86926E+01  1.00701E+02  1.02496E+02  1.04025E+02  1.05253E+02  1.06142E+02  1.06672E+02
   1.06822E+02  1.06594E+02  1.05987E+02  1.05025E+02  1.03729E+02  1.02147E+02  1.00321E+02  9.83179E+01  9.61968E+01  9.40338E+01
   9.18898E+01  8.98331E+01  8.79069E+01  8.61529E+01  8.45821E+01  8.32027E+01  8.19954E+01  8.09457E+01  8.00206E+01  7.92008E+01
   7.84554E+01  7.77702E+01  7.71197E+01  7.64920E+01  7.58605E+01  7.52100E+01  7.45093E+01  7.37400E+01  7.28713E+01  7.18888E+01
   7.07702E+01  6.95131E+01  6.81092E+01  6.65707E+01  6.49038E+01  6.31333E+01  6.12753E+01  5.93619E+01  5.74133E+01  5.54630E+01
   5.35300E+01  5.16440E+01  4.98188E+01  4.80777E+01  4.64273E+01  4.48830E+01  4.34439E+01  4.21184E+01  4.08990E+01  3.97879E+01
   3.87726E+01  3.78514E+01  3.70085E+01  3.62396E+01  3.55275E+01  3.48668E+01  3.42400E+01  3.36420E+01  3.30558E+01  3.24776E+01
   3.18917E+01  3.12956E+01  3.06756E+01  3.00310E+01  2.93499E+01  2.86338E+01  2.78725E+01  2.70693E+01  2.62162E+01  2.53179E+01
   2.43680E+01  2.33728E+01  2.23271E+01  2.12384E+01  2.01027E+01  1.89283E+01  1.77118E+01  1.64622E+01  1.51766E+01  1.38641E+01
   1.25224E+01  1.11605E+01  9.77617E+00  8.37839E+00  6.96473E+00  5.54403E+00  4.11372E+00  2.68231E+00  1.24688E+00 -1.84302E-01
  -1.61443E+00 -3.03568E+00 -4.45149E+00 -5.85435E+00 -7.24815E+00 -8.62561E+00 -9.99088E+00 -1.13371E+01 -1.26684E+01 -1.39785E+01
  -1.52718E+01 -1.65420E+01 -1.77938E+01 -1.90211E+01 -2.02288E+01 -2.14110E+01 -2.25728E+01 -2.37083E+01 -2.48227E+01 -2.59103E+01
  -2.69764E+01 -2.80156E+01 -2.90330E+01 -3.00232E+01 -3.09916E+01 -3.19329E+01 -3.28524E+01 -3.37450E+01 -3.46158E+01 -3.54599E+01
  -3.62824E+01 -3.70785E+01 -3.78533E+01 -3.86019E+01 -3.93296E+01 -4.00314E+01 -4.07127E+01 -4.13684E+01 -4.20040E+01 -4.26145E+01
  -4.32052E+01 -4.37712E+01 -4.43179E+01 -4.48403E+01 -4.53438E+01 -4.58236E+01 -4.62849E+01 -4.67228E+01 -4.71429E+01 -4.75402E+01
  -4.79200E+01 -4.82777E+01 -4.86184E+01 -4.89375E+01 -4.92404E+01 -4.95225E+01 -4.97889E+01 -5.00354E+01 -5.02671E+01 -5.04797E+01
  -5.06787E+01 -5.08599E+01 -5.10290E+01 -5.11821E+01 -5.13252E+01 -5.14549E+01 -5.15782E+01 -5.16928E+01
 NY background values follow
     3.274E+02    3.245E+02    3.217E+02    3.188E+02    3.160E+02    3.131E+02    3.103E+02    3.075E+02    3.047E+02    3.019E+02
     2.992E+02    2.964E+02    2.937E+02    2.909E+02    2.882E+02    2.855E+02    2.828E+02    2.801E+02    2.774E+02    2.748E+02
     2.721E+02    2.695E+02    2.669E+02    2.643E+02    2.617E+02    2.591E+02    2.565E+02    2.539E+02    2.514E+02    2.488E+02
     2.463E+02    2.438E+02    2.413E+02    2.388E+02    2.363E+02    2.338E+02    2.314E+02    2.290E+02    2.265E+02    2.241E+02
     2.217E+02    2.193E+02    2.169E+02    2.146E+02    2.122E+02    2.099E+02    2.075E+02    2.052E+02    2.029E+02    2.006E+02
     1.983E+02    1.961E+02    1.938E+02    1.916E+02    1.893E+02    1.871E+02    1.849E+02    1.827E+02    1.805E+02    1.784E+02
     1.762E+02    1.741E+02    1.720E+02    1.698E+02    1.677E+02    1.656E+02    1.636E+02    1.615E+02    1.594E+02    1.574E+02
     1.554E+02    1.533E+02    1.513E+02    1.493E+02    1.474E+02    1.454E+02    1.434E+02    1.415E+02    1.396E+02    1.376E+02
     1.357E+02    1.338E+02    1.320E+02    1.301E+02    1.282E+02    1.264E+02    1.246E+02    1.227E+02    1.209E+02    1.191E+02
     1.174E+02    1.156E+02    1.138E+02    1.121E+02    1.103E+02    1.086E+02    1.069E+02    1.052E+02    1.035E+02    1.019E+02
     1.002E+02    9.857E+01    9.694E+01    9.532E+01    9.371E+01    9.212E+01    9.053E+01    8.896E+01    8.740E+01    8.586E+01
     8.432E+01    8.280E+01    8.129E+01    7.979E+01    7.831E+01    7.684E+01    7.538E+01    7.393E+01    7.249E+01    7.107E+01
     6.966E+01    6.826E+01    6.687E+01    6.549E+01    6.413E+01    6.278E+01    6.144E+01    6.012E+01    5.880E+01    5.750E+01
     5.621E+01    5.493E+01    5.367E+01    5.241E+01    5.117E+01    4.994E+01    4.872E+01    4.752E+01    4.632E+01    4.514E+01
     4.397E+01    4.281E+01    4.167E+01    4.053E+01    3.941E+01    3.830E+01    3.720E+01    3.611E+01    3.504E+01    3.397E+01
     3.292E+01    3.188E+01    3.085E+01    2.984E+01    2.883E+01    2.784E+01    2.686E+01    2.589E+01    2.493E+01    2.398E+01
     2.304E+01    2.212E+01    2.121E+01    2.031E+01    1.942E+01    1.854E+01    1.767E+01    1.682E+01    1.597E+01    1.514E+01
     1.432E+01    1.350E+01    1.270E+01    1.191E+01    1.113E+01    1.036E+01    9.598E+00    8.846E+00    8.104E+00    7.371E+00
     6.646E+00    5.931E+00    5.225E+00    4.527E+00    3.838E+00    3.156E+00    2.483E+00    1.818E+00    1.161E+00    5.109E-01
    -1.315E-01   -7.665E-01   -1.394E+00   -2.015E+00   -2.629E+00   -3.237E+00   -3.837E+00   -4.432E+00   -5.020E+00   -5.602E+00
    -6.178E+00   -6.749E+00   -7.313E+00   -7.873E+00   -8.426E+00   -8.975E+00   -9.519E+00   -1.006E+01   -1.059E+01   -1.112E+01
    -1.164E+01   -1.217E+01   -1.268E+01   -1.319E+01   -1.370E+01   -1.420E+01   -1.470E+01   -1.520E+01   -1.569E+01   -1.618E+01
    -1.667E+01   -1.715E+01   -1.764E+01   -1.811E+01   -1.859E+01   -1.906E+01   -1.953E+01   -2.000E+01   -2.046E+01   -2.093E+01
    -2.139E+01   -2.185E+01   -2.230E+01   -2.276E+01   -2.321E+01   -2.367E+01   -2.412E+01   -2.457E+01   -2.502E+01   -2.546E+01
    -2.591E+01   -2.636E+01   -2.680E+01   -2.725E+01   -2.769E+01   -2.814E+01   -2.858E+01   -2.902E+01   -2.946E+01   -2.991E+01
    -3.035E+01   -3.079E+01   -3.124E+01   -3.168E+01   -3.213E+01   -3.257E+01   -3.301E+01   -3.346E+01   -3.391E+01   -3.435E+01
    -3.480E+01   -3.525E+01   -3.570E+01   -3.615E+01   -3.661E+01   -3.706E+01   -3.751E+01   -3.797E+01   -3.843E+01   -3.889E+01
    -3.935E+01   -3.981E+01   -4.028E+01   -4.074E+01   -4.121E+01   -4.168E+01   -4.215E+01   -4.263E+01   -4.311E+01   -4.358E+01
    -4.407E+01   -4.455E+01   -4.503E+01   -4.552E+01   -4.601E+01   -4.651E+01   -4.700E+01   -4.750E+01   -4.800E+01   -4.850E+01
    -4.901E+01   -4.952E+01   -5.003E+01   -5.055E+01   -5.106E+01   -5.159E+01   -5.211E+01   -5.264E+01   -5.317E+01   -5.370E+01
    -5.423E+01   -5.477E+01   -5.532E+01   -5.586E+01   -5.641E+01   -5.696E+01   -5.752E+01   -5.808E+01   -5.864E+01   -5.920E+01
    -5.977E+01   -6.034E+01   -6.092E+01   -6.150E+01   -6.208E+01   -6.266E+01   -6.325E+01   -6.385E+01   -6.444E+01   -6.504E+01
    -6.564E+01   -6.625E+01   -6.686E+01   -6.747E+01   -6.809E+01   -6.871E+01   -6.934E+01   -6.996E+01   -7.059E+01   -7.123E+01
    -7.187E+01   -7.251E+01   -7.315E+01   -7.380E+01   -7.445E+01   -7.511E+01   -7.576E+01   -7.642E+01   -7.708E+01   -7.775E+01
    -7.841E+01   -7.908E+01   -7.975E+01   -8.042E+01   -8.109E+01   -8.177E+01   -8.244E+01   -8.312E+01   -8.379E+01   -8.447E+01
    -8.514E+01   -8.582E+01   -8.649E+01   -8.717E+01   -8.784E+01   -8.852E+01   -8.919E+01   -8.986E+01   -9.053E+01   -9.120E+01
    -9.187E+01   -9.253E+01   -9.320E+01   -9.386E+01   -9.452E+01   -9.518E+01   -9.583E+01   -9.649E+01   -9.714E+01   -9.778E+01
    -9.843E+01   -9.907E+01   -9.970E+01   -1.003E+02   -1.010E+02   -1.016E+02   -1.022E+02   -1.028E+02   -1.034E+02   -1.041E+02
    -1.047E+02   -1.053E+02   -1.059E+02   -1.064E+02   -1.070E+02   -1.076E+02   -1.082E+02   -1.088E+02   -1.093E+02   -1.099E+02
    -1.104E+02   -1.110E+02   -1.115E+02   -1.120E+02   -1.126E+02   -1.131E+02   -1.136E+02   -1.141E+02   -1.146E+02   -1.151E+02
    -1.156E+02   -1.161E+02   -1.165E+02   -1.170E+02   -1.175E+02   -1.179E+02   -1.184E+02   -1.188E+02   -1.192E+02   -1.196E+02
    -1.201E+02   -1.205E+02   -1.209E+02   -1.212E+02   -1.216E+02   -1.220E+02   -1.223E+02   -1.227E+02   -1.230E+02   -1.234E+02
    -1.237E+02   -1.240E+02   -1.243E+02   -1.246E+02   -1.249E+02   -1.252E+02   -1.255E+02   -1.257E+02   -1.260E+02   -1.262E+02
    -1.264E+02   -1.267E+02   -1.269E+02   -1.271E+02   -1.273E+02   -1.274E+02   -1.276E+02   -1.278E+02   -1.279E+02   -1.281E+02
    -1.282E+02   -1.283E+02   -1.284E+02   -1.285E+02   -1.286E+02   -1.287E+02   -1.288E+02   -1.288E+02   -1.289E+02   -1.289E+02
    -1.289E+02   -1.289E+02   -1.289E+02   -1.289E+02   -1.289E+02   -1.289E+02   -1.288E+02   -1.288E+02   -1.287E+02   -1.286E+02
    -1.286E+02   -1.285E+02   -1.284E+02   -1.282E+02   -1.281E+02   -1.280E+02   -1.278E+02   -1.276E+02   -1.275E+02   -1.273E+02
    -1.271E+02   -1.269E+02   -1.267E+02   -1.264E+02   -1.262E+02   -1.259E+02   -1.257E+02   -1.254E+02   -1.251E+02   -1.248E+02
    -1.245E+02   -1.241E+02   -1.238E+02   -1.235E+02   -1.231E+02   -1.227E+02   -1.224E+02   -1.220E+02   -1.216E+02   -1.211E+02
    -1.207E+02   -1.203E+02   -1.198E+02   -1.194E+02   -1.189E+02   -1.184E+02   -1.179E+02   -1.174E+02
 Cr       Conc. = 5.61E+01
