 LCModel (Version 6.3-1L) Copyright: S.W. Provencher.          Ref.: Magn. Reson. Med. 30:672-679 (1993).                
 Slice#1 Row#1 Col#2  PD_24_press_2_raw_act
 36 lines in following concentration table = NCONC+1
    Conc.  %SD /Cr+PCr  Metabolite                                         
  141.196  94%   0.927 Ala                                                 
   29.218  59%   0.192 Asp                                                 
    0.000 999%   0.000 Cr                                                  
  152.383 109%   1.000 PCr                                                 
   17.768  58%   0.117 GABA                                                
   17.953  58%   0.118 Glc                                                 
    0.000 999%   0.000 Gln                                                 
  294.635  97%   1.934 Glu                                                 
   91.354  25%   0.599 GPC                                                 
    0.000 999%   0.000 PCh                                                 
    0.000 999%   0.000 GSH                                                 
 1.02E+03  27%   6.671 Ins                                                 
    0.000 999%   0.000 Lac                                                 
    0.000 999%   0.000 NAA                                                 
  165.670  45%   1.087 NAAG                                                
    6.504  53% 4.3E-02 Scyllo                                              
   31.161  55%   0.204 Tau                                                 
   11.579 167% 7.6E-02 -CrCH2                                              
   91.354  25%   0.599 GPC+PCh                                             
  165.670  45%   1.087 NAA+NAAG                                            
  152.383  40%   1.000 Cr+PCr                                              
  294.635  97%   1.934 Glu+Gln                                             
  801.280  59%   5.258 Lip13a                                              
    0.000 999%   0.000 Lip13b                                              
  125.288 187%   0.822 Lip09                                               
  435.150  55%   2.856 MM09                                                
   17.611 872%   0.116 Lip20                                               
  129.579 288%   0.850 MM20                                                
  144.420 100%   0.948 MM12                                                
 1.41E+03  27%   9.225 MM14                                                
 1.53E+03  14%  10.055+MM17                                                
  801.280  59%   5.258 Lip13a+Lip13b                                       
 2.35E+03  17%  15.431 MM14+Lip13a+Lip13b+MM12                             
  560.438  32%   3.678 MM09+Lip09                                          
  147.191 236%   0.966 MM20+Lip20                                          
   6 lines in following misc. output table
  FWHM = 0.054 ppm    S/N =   2                                            
  Data shift = 0.015 ppm                                                   
  Ph:  64 deg      50.8 deg/ppm                                            
  alphaB,S = 8.5E+01,   5.1E+01                                            
   14 spline knots.   Ns = 5(1)                                            
   2 inflections.     1 extrema                                            
  498 points on ppm-axis = NY
      4.000000     3.992357     3.984714     3.977070     3.969427     3.961784     3.954141     3.946497     3.938854     3.931211
      3.923568     3.915925     3.908281     3.900638     3.892995     3.885352     3.877708     3.870065     3.862422     3.854779
      3.847136     3.839492     3.831849     3.824206     3.816563     3.808919     3.801276     3.793633     3.785990     3.778347
      3.770703     3.763060     3.755417     3.747774     3.740130     3.732487     3.724844     3.717201     3.709558     3.701914
      3.694271     3.686628     3.678985     3.671341     3.663698     3.656055     3.648412     3.640769     3.633125     3.625482
      3.617839     3.610196     3.602552     3.594909     3.587266     3.579623     3.571980     3.564336     3.556693     3.549050
      3.541407     3.533763     3.526120     3.518477     3.510834     3.503191     3.495547     3.487904     3.480261     3.472618
      3.464974     3.457331     3.449688     3.442045     3.434402     3.426758     3.419115     3.411472     3.403829     3.396185
      3.388542     3.380899     3.373256     3.365613     3.357969     3.350326     3.342683     3.335040     3.327396     3.319753
      3.312110     3.304467     3.296824     3.289180     3.281537     3.273894     3.266251     3.258607     3.250964     3.243321
      3.235678     3.228034     3.220391     3.212748     3.205105     3.197462     3.189818     3.182175     3.174532     3.166889
      3.159245     3.151602     3.143959     3.136316     3.128673     3.121029     3.113386     3.105743     3.098100     3.090456
      3.082813     3.075170     3.067527     3.059884     3.052240     3.044597     3.036954     3.029311     3.021667     3.014024
      3.006381     2.998738     2.991095     2.983451     2.975808     2.968165     2.960522     2.952878     2.945235     2.937592
      2.929949     2.922306     2.914662     2.907019     2.899376     2.891733     2.884089     2.876446     2.868803     2.861160
      2.853517     2.845873     2.838230     2.830587     2.822944     2.815300     2.807657     2.800014     2.792371     2.784728
      2.777084     2.769441     2.761798     2.754155     2.746511     2.738868     2.731225     2.723582     2.715939     2.708295
      2.700652     2.693009     2.685366     2.677722     2.670079     2.662436     2.654793     2.647150     2.639506     2.631863
      2.624220     2.616577     2.608933     2.601290     2.593647     2.586004     2.578361     2.570717     2.563074     2.555431
      2.547788     2.540144     2.532501     2.524858     2.517215     2.509572     2.501928     2.494285     2.486642     2.478999
      2.471355     2.463712     2.456069     2.448426     2.440783     2.433139     2.425496     2.417853     2.410210     2.402566
      2.394923     2.387280     2.379637     2.371994     2.364350     2.356707     2.349064     2.341421     2.333777     2.326134
      2.318491     2.310848     2.303205     2.295561     2.287918     2.280275     2.272632     2.264988     2.257345     2.249702
      2.242059     2.234416     2.226772     2.219129     2.211486     2.203843     2.196199     2.188556     2.180913     2.173270
      2.165627     2.157983     2.150340     2.142697     2.135054     2.127410     2.119767     2.112124     2.104481     2.096838
      2.089194     2.081551     2.073908     2.066265     2.058621     2.050978     2.043335     2.035692     2.028049     2.020405
      2.012762     2.005119     1.997476     1.989833     1.982190     1.974546     1.966903     1.959260     1.951617     1.943974
      1.936331     1.928688     1.921045     1.913402     1.905759     1.898115     1.890472     1.882829     1.875186     1.867543
      1.859900     1.852257     1.844614     1.836971     1.829327     1.821684     1.814041     1.806398     1.798755     1.791112
      1.783469     1.775826     1.768183     1.760540     1.752896     1.745253     1.737610     1.729967     1.722324     1.714681
      1.707038     1.699395     1.691752     1.684108     1.676465     1.668822     1.661179     1.653536     1.645893     1.638250
      1.630607     1.622964     1.615321     1.607677     1.600034     1.592391     1.584748     1.577105     1.569462     1.561819
      1.554176     1.546533     1.538890     1.531246     1.523603     1.515960     1.508317     1.500674     1.493031     1.485388
      1.477745     1.470102     1.462458     1.454815     1.447172     1.439529     1.431886     1.424243     1.416600     1.408957
      1.401314     1.393671     1.386027     1.378384     1.370741     1.363098     1.355455     1.347812     1.340169     1.332526
      1.324883     1.317240     1.309596     1.301953     1.294310     1.286667     1.279024     1.271381     1.263738     1.256095
      1.248452     1.240808     1.233165     1.225522     1.217879     1.210236     1.202593     1.194950     1.187307     1.179664
      1.172021     1.164377     1.156734     1.149091     1.141448     1.133805     1.126162     1.118519     1.110876     1.103233
      1.095590     1.087946     1.080303     1.072660     1.065017     1.057374     1.049731     1.042088     1.034445     1.026802
      1.019158     1.011515     1.003872     0.996229     0.988586     0.980943     0.973300     0.965657     0.958014     0.950371
      0.942727     0.935084     0.927441     0.919798     0.912155     0.904512     0.896869     0.889226     0.881583     0.873940
      0.866296     0.858653     0.851010     0.843367     0.835724     0.828081     0.820438     0.812795     0.805152     0.797508
      0.789865     0.782222     0.774579     0.766936     0.759293     0.751650     0.744007     0.736364     0.728721     0.721077
      0.713434     0.705791     0.698148     0.690505     0.682862     0.675219     0.667576     0.659933     0.652290     0.644646
      0.637003     0.629360     0.621717     0.614074     0.606431     0.598788     0.591145     0.583502     0.575858     0.568215
      0.560572     0.552929     0.545286     0.537643     0.530000     0.522357     0.514714     0.507071     0.499427     0.491784
      0.484141     0.476498     0.468855     0.461212     0.453569     0.445925     0.438282     0.430639     0.422996     0.415353
      0.407710     0.400067     0.392424     0.384780     0.377137     0.369494     0.361851     0.354208     0.346565     0.338922
      0.331278     0.323635     0.315992     0.308349     0.300706     0.293063     0.285420     0.277777     0.270133     0.262490
      0.254847     0.247204     0.239561     0.231918     0.224275     0.216631     0.208988     0.201345
 NY phased data points follow
   3.83910E+00 -4.27080E+00 -2.42701E+00 -4.84448E-01 -1.05685E+00  9.37039E+00  1.37510E-01  7.85486E+00 -6.09347E+00  2.80464E+00
   8.62407E+00  1.01051E+01  6.85771E+00  3.12616E+00 -1.46565E+00 -1.07203E+00  1.04208E+00  1.70584E+00  4.38491E+00 -1.02590E+00
  -3.30819E+00  4.40477E+00  1.02352E+00  6.76963E+00  6.53785E+00 -8.89544E+00 -6.04842E+00 -1.68985E+01  6.47631E+00 -3.29149E+00
   2.74994E-01  2.78806E+00  2.26460E+00  2.08971E+00  6.80094E+00 -8.21501E+00  5.22928E-01  1.38125E+00 -1.02927E+01  3.60361E-01
  -4.49101E+00  2.57953E-01  6.66820E+00  2.85376E+00  1.50992E+01  3.59290E+00 -2.55792E+00 -4.40864E+00  7.95718E-01  8.61209E+00
   1.50996E+00  2.91993E+00 -6.34843E+00  4.75983E+00  1.19826E+00  1.32138E+00  8.28810E+00  2.76165E+00  3.69283E+00  1.80510E+00
   6.61902E+00  7.50557E+00  2.87937E+00  4.23305E+00  3.48875E+00  4.79893E+00 -7.01965E-01  4.71647E-02 -6.95299E+00  1.04550E+01
  -2.56681E+00  7.33263E+00  8.15115E+00  5.50539E+00  2.17207E+00  6.61738E+00 -5.82845E-01 -1.21770E+01  7.32777E+00  1.17623E+00
   2.13980E+00  1.56026E+00  5.04183E+00 -3.68810E+00  3.84781E+00  2.20800E+00  1.97942E+00 -6.22082E+00  5.19611E+00  1.03093E-01
  -3.10180E-02 -2.51559E+00 -7.07277E+00  1.83661E+00  9.62837E-01  1.25509E-01 -2.57464E+00  3.31855E+00  2.22465E+00  1.90954E-01
   1.15209E+01  7.84535E+00  8.33202E+00  4.54526E+00 -1.29182E+00  2.49048E+00  5.26919E-01 -3.76609E+00 -7.81007E+00 -2.10384E+00
  -3.34638E+00 -9.49842E+00 -4.21312E+00 -6.33652E+00  1.84941E+00 -1.91921E+00 -1.33847E+00 -5.29233E+00 -7.43431E-01 -1.66504E+00
   4.44959E-01  4.89059E+00 -3.77328E-01  2.02424E+00  6.69860E+00  2.27896E+00  1.87522E+00  9.20487E+00 -8.32396E-01 -1.01958E+01
  -4.51029E+00 -9.34190E+00 -3.01176E+00 -6.73053E+00 -4.33544E+00 -3.74003E+00 -3.09072E+00 -4.31444E+00 -1.23961E+00  4.60805E+00
   3.13487E+00  8.02015E-01 -1.50147E+01 -8.11376E+00  1.71469E+00  5.49168E+00 -6.44863E-01  1.52817E+00  5.92957E-01  6.26113E+00
  -1.59549E+00 -1.80188E+00 -2.20879E+00 -1.71200E+00 -3.69383E+00 -6.08871E+00  1.39723E-01 -3.75613E+00 -4.81095E+00 -5.79856E+00
  -4.11874E-01 -9.46603E+00 -3.46271E-02  4.69989E-01 -7.45504E+00  7.53064E-01 -8.90246E+00 -1.00172E+01 -6.44624E+00 -1.27716E+01
  -3.12322E+00 -2.36575E+00  3.85246E+00 -1.00246E+00 -1.23501E-01 -4.65385E+00 -5.97202E+00 -1.04099E+00 -6.48743E+00 -4.95875E+00
  -1.30660E+01 -1.22765E+00 -6.70598E+00 -5.17833E+00 -5.50296E+00 -4.03728E+00 -8.28339E-01  4.50904E-01 -2.70123E+00 -1.78527E+00
   5.16692E-02 -3.07019E+00 -4.57642E+00 -4.55066E-01 -3.33548E-01 -6.02643E+00  2.89147E+00 -5.18428E+00 -1.94248E+00 -3.38086E+00
  -6.15167E+00 -5.54687E+00 -6.18741E+00 -6.65782E+00  1.22452E+00 -5.28171E-01 -3.13523E+00 -5.30448E+00  1.54295E-01 -6.38276E+00
  -1.86529E-01  5.69178E-01  2.08017E+00 -7.06480E+00 -3.43201E+00  2.23792E+00 -5.26052E+00 -4.84878E+00 -4.55980E+00 -8.22514E+00
  -5.28501E+00  1.14511E-01 -2.84551E+00 -7.17817E+00 -1.29139E+00  8.33800E-01 -5.76820E+00  3.20272E-01 -3.09766E-01  2.67288E-01
  -2.63871E+00 -3.62339E+00  9.70418E-01  1.88333E+00  1.77010E+00 -3.12674E+00 -4.79029E+00  1.38983E+00 -5.08744E-01 -5.99519E+00
   7.34691E+00 -4.77330E+00 -3.47131E-01  2.35317E-01 -3.41070E-01 -1.33045E+00 -1.72375E+00 -3.08890E+00  5.17552E+00  5.50584E+00
   1.15470E+01  7.78704E+00  1.74378E+00  7.84364E+00  1.20676E+00  6.57178E+00  2.59934E+00 -1.31820E-01  1.86263E+00 -1.61455E+00
  -2.20781E+00 -2.89737E+00  3.75702E+00 -3.92578E+00  5.89399E+00 -1.96775E+00 -1.72341E+00 -5.40288E+00 -6.45415E+00 -1.86954E-01
  -3.72935E+00 -2.87984E+00  1.36469E+00 -1.16570E+01 -6.73585E+00  1.02602E+00 -7.15740E+00 -6.59260E+00 -9.88395E+00 -1.02096E+01
  -3.66159E+00 -1.07509E+01 -1.36863E+01 -2.51001E+00  3.21141E+00 -2.46767E+00  4.97658E+00  1.35747E-02 -1.87142E+00 -6.73114E+00
  -1.28980E+01  3.94719E+00 -2.89764E+00 -5.76167E+00 -8.35909E+00 -2.36467E+00 -5.59561E+00 -5.08422E+00  7.92182E+00 -6.70247E+00
  -7.16934E+00 -5.94297E+00  3.12817E+00  1.63547E+00  5.91520E+00  8.17152E+00  2.51953E+00  9.43336E+00  2.73667E+00  9.04470E+00
   5.77062E+00  1.13430E+01  1.26964E+01  5.90553E+00  1.23388E+01  1.63861E+01  1.74640E+01  1.20422E+01  1.97455E+01  2.00380E+01
   1.08450E+01  1.67713E+01  2.40191E+01  2.04397E+01  1.59015E+01  2.15711E+01  1.74742E+01  1.48250E+01  1.66664E+01  1.11327E+01
   1.11551E+01  1.19916E+01  1.04955E+01  4.59578E+00  3.46669E+00  9.84355E-01  7.16257E+00 -1.33591E+00  9.40978E+00  1.09268E+01
   6.65858E+00  3.35144E+00  6.05087E+00  1.05765E+01  3.50378E+00  1.39467E+01  1.05200E+01  8.50247E+00  5.37725E+00  4.33784E+00
   1.16349E+01  6.35633E+00  1.16956E+01  6.47379E+00  6.61585E-01  1.17083E+01 -3.67953E+00  1.56107E+00  3.95812E+00 -2.16233E+00
  -6.40197E+00  5.59821E+00  6.90407E-01  6.62951E+00  4.27255E+00 -2.01756E-01 -7.97580E-01  1.32878E+00  2.84536E+00  6.77359E+00
   2.97760E+00  8.36578E+00  4.71879E-01 -1.98933E+00  4.61199E+00 -8.09616E-01  2.76646E+00  1.09674E+00 -1.53464E+00  4.77122E-01
  -1.09682E+00 -1.38712E+00  4.61463E+00  1.62633E+00  6.94352E-02  4.30032E+00 -1.81700E+00 -9.50333E-01  2.16837E+00 -2.64397E+00
   8.16545E+00  1.42071E+00 -2.52166E-01  3.90010E+00 -5.80027E+00 -4.66845E+00 -2.75909E+00 -5.09643E+00 -3.61369E-02  4.41863E+00
  -2.32415E+00  3.76671E+00  6.99532E+00  3.25909E+00 -2.15236E+00  5.30507E+00  3.60216E+00 -4.25992E+00  6.34783E+00  5.42371E-01
   1.17800E+00  3.16747E+00  4.07486E+00 -2.54699E+00  1.98819E+00  1.00684E+01  6.41145E-01  5.80230E+00 -4.73975E+00 -4.25930E+00
   3.11584E+00  7.79662E+00 -9.20583E+00  4.74583E+00 -8.99787E-01  3.05155E+00 -4.00831E-01  9.15298E+00 -2.48713E+00 -2.59762E+00
  -9.76332E+00 -9.43794E+00 -4.18238E+00 -5.29884E-02 -7.05147E+00 -4.88311E+00 -4.83199E+00  1.90061E+00 -4.45681E+00  6.88513E-01
   3.26806E+00  3.75964E+00  3.93221E+00  9.23640E-01 -4.16450E+00 -1.00672E-01 -1.58489E+00 -1.40324E-01  2.14327E+00  2.03346E+00
  -1.07275E+01 -4.01581E+00  1.85943E-02  2.01438E+00 -5.52007E+00  2.37678E+00  4.82412E+00 -2.74860E+00 -5.71480E+00  5.85970E-01
  -4.94558E+00 -4.43228E+00  4.69084E+00  1.67379E-01  7.32082E+00 -5.35031E+00 -3.14040E+00  1.63296E-01 -6.62086E+00  1.44446E+00
   2.88232E+00 -4.48752E+00  2.51682E+00 -7.39777E-01  3.37351E+00 -1.23117E+00  2.19146E+00 -8.21766E+00 -5.53619E+00  7.19733E+00
   7.80392E-01 -2.37326E+00  1.23103E+00 -3.04024E+00 -5.38244E+00  1.20754E+00  2.94884E+00  1.94671E+00 -6.30964E+00 -5.28658E+00
  -7.23940E+00 -4.03942E-01 -1.99380E+00 -7.77714E+00  3.92202E+00 -1.23067E+00  2.60599E+00  5.30507E+00
 NY points of the fit to the data follow
   1.21010E-01 -1.81866E-01 -2.68951E-01  4.56858E-03  7.94164E-01  1.73822E+00  2.45153E+00  2.78537E+00  2.75953E+00  2.47254E+00
   2.03112E+00  1.51968E+00  9.80581E-01  4.28280E-01 -7.06380E-02 -4.14762E-01 -5.67253E-01 -6.15127E-01 -6.00509E-01 -5.26087E-01
  -3.78327E-01 -1.89807E-01 -8.10533E-02 -1.65684E-01 -4.20078E-01 -7.51931E-01 -1.05693E+00 -1.23129E+00 -1.17536E+00 -8.25385E-01
  -2.90017E-01  2.92860E-01  8.80055E-01  1.37794E+00  1.55010E+00  1.33244E+00  8.12600E-01  1.88870E-01 -3.54789E-01 -7.53906E-01
  -9.28675E-01 -5.51006E-01  8.71855E-01  3.19687E+00  5.49101E+00  6.85060E+00  7.00127E+00  6.20616E+00  4.86438E+00  3.30071E+00
   1.72909E+00  3.27043E-01 -7.66050E-01 -1.34338E+00 -1.13958E+00 -2.90085E-01  8.19326E-01  1.79314E+00  2.34302E+00  2.38855E+00
   2.00619E+00  1.38166E+00  7.52182E-01  2.43050E-01 -7.00742E-02 -1.97523E-01 -5.55951E-02  3.78268E-01  9.29607E-01  1.39262E+00
   1.65711E+00  1.73396E+00  1.65638E+00  1.46984E+00  1.22389E+00  9.43153E-01  6.62979E-01  4.15538E-01  2.38851E-01  1.28421E-01
   4.19782E-02 -1.12684E-01 -4.75955E-01 -1.11222E+00 -1.90000E+00 -2.61722E+00 -3.09656E+00 -3.27376E+00 -3.15322E+00 -2.78275E+00
  -2.25557E+00 -1.61701E+00 -1.04328E+00 -7.13283E-01 -6.77272E-01 -8.50351E-01 -9.95368E-01 -3.80308E-01  1.60853E+00  3.96409E+00
   5.71968E+00  6.49781E+00  6.39782E+00  5.71295E+00  4.64889E+00  3.33543E+00  1.88881E+00  4.84061E-01 -6.41853E-01 -1.27192E+00
  -1.45033E+00 -1.49807E+00 -1.52318E+00 -1.54874E+00 -1.58278E+00 -1.62493E+00 -1.66671E+00 -1.69523E+00 -1.70265E+00 -1.67320E+00
  -1.53980E+00 -9.52658E-01  4.06626E-01  1.95526E+00  3.09837E+00  3.59976E+00  3.52838E+00  3.06645E+00  2.36652E+00  1.51994E+00
   5.95093E-01 -3.00157E-01 -1.02675E+00 -1.45891E+00 -1.61019E+00 -1.66096E+00 -1.68220E+00 -1.69469E+00 -1.70696E+00 -1.71730E+00
  -1.72158E+00 -1.71520E+00 -1.70293E+00 -1.69484E+00 -1.69561E+00 -1.70321E+00 -1.71274E+00 -1.72231E+00 -1.73542E+00 -1.76926E+00
  -1.82611E+00 -1.88189E+00 -1.91580E+00 -1.91444E+00 -1.88018E+00 -1.85059E+00 -1.84466E+00 -1.85853E+00 -1.88217E+00 -1.91103E+00
  -1.94616E+00 -1.98745E+00 -2.02292E+00 -2.04530E+00 -2.06246E+00 -2.08956E+00 -2.10767E+00 -2.09365E+00 -2.04730E+00 -1.98621E+00
  -1.94404E+00 -1.93909E+00 -1.95177E+00 -1.96214E+00 -1.96375E+00 -1.96449E+00 -1.97642E+00 -2.01054E+00 -2.05706E+00 -2.06649E+00
  -2.01819E+00 -1.93092E+00 -1.83521E+00 -1.74895E+00 -1.67449E+00 -1.61094E+00 -1.55445E+00 -1.49940E+00 -1.46826E+00 -1.48149E+00
  -1.52912E+00 -1.58693E+00 -1.64150E+00 -1.68758E+00 -1.71057E+00 -1.69378E+00 -1.64924E+00 -1.59422E+00 -1.53843E+00 -1.48384E+00
  -1.42982E+00 -1.37651E+00 -1.36179E+00 -1.40360E+00 -1.51914E+00 -1.71450E+00 -1.93755E+00 -2.12877E+00 -2.23518E+00 -2.19486E+00
  -1.95190E+00 -1.43325E+00 -8.40936E-01 -4.10462E-01 -2.57140E-01 -3.87826E-01 -7.94255E-01 -1.49566E+00 -2.36446E+00 -3.10430E+00
  -3.48973E+00 -3.49496E+00 -3.18346E+00 -2.67694E+00 -2.12191E+00 -1.61248E+00 -1.23144E+00 -1.01208E+00 -9.44618E-01 -9.90175E-01
  -1.05425E+00 -1.06300E+00 -1.02759E+00 -9.93464E-01 -9.68861E-01 -9.79947E-01 -1.04532E+00 -1.18032E+00 -1.37538E+00 -1.52459E+00
  -1.55066E+00 -1.46049E+00 -1.30194E+00 -1.11115E+00 -9.37002E-01 -8.35292E-01 -8.29589E-01 -8.82615E-01 -9.15215E-01 -8.53496E-01
  -4.44245E-01  8.14144E-01  2.51307E+00  3.89736E+00  4.60277E+00  4.66216E+00  4.27764E+00  3.62393E+00  2.80917E+00  1.91608E+00
   1.01028E+00  2.05782E-01 -3.43933E-01 -5.93011E-01 -7.24577E-01 -8.57715E-01 -9.93342E-01 -1.11119E+00 -1.18914E+00 -1.21115E+00
  -1.18095E+00 -1.12489E+00 -1.08173E+00 -1.06460E+00 -1.06790E+00 -1.09018E+00 -1.13068E+00 -1.18168E+00 -1.22741E+00 -1.25706E+00
  -1.26948E+00 -1.26476E+00 -1.25000E+00 -1.23546E+00 -1.22693E+00 -1.22627E+00 -1.23195E+00 -1.23319E+00 -1.22258E+00 -1.19866E+00
  -1.16274E+00 -1.11699E+00 -1.06183E+00 -9.96335E-01 -9.22135E-01 -8.33463E-01 -7.19966E-01 -5.71055E-01 -3.75283E-01 -1.21566E-01
   1.98099E-01  5.90856E-01  1.06403E+00  1.62391E+00  2.27457E+00  3.01707E+00  3.84946E+00  4.76748E+00  5.76196E+00  6.81818E+00
   7.91669E+00  9.03362E+00  1.01419E+01  1.12125E+01  1.22163E+01  1.31259E+01  1.39172E+01  1.45720E+01  1.50798E+01  1.54409E+01
   1.56719E+01  1.58238E+01  1.60003E+01  1.60657E+01  1.56978E+01  1.48539E+01  1.36783E+01  1.23531E+01  1.09959E+01  9.64751E+00
   8.49772E+00  7.88364E+00  7.79143E+00  8.02394E+00  8.36265E+00  8.61905E+00  8.70463E+00  8.64109E+00  8.44851E+00  8.13266E+00
   7.71145E+00  7.23701E+00  6.80119E+00  6.46303E+00  6.18680E+00  5.94600E+00  5.72955E+00  5.53168E+00  5.34875E+00  5.17794E+00
   5.01675E+00  4.86277E+00  4.71361E+00  4.56689E+00  4.42034E+00  4.27176E+00  4.11922E+00  3.96109E+00  3.79621E+00  3.62390E+00
   3.44396E+00  3.25662E+00  3.06258E+00  2.86293E+00  2.65914E+00  2.45291E+00  2.24610E+00  2.04062E+00  1.83839E+00  1.64130E+00
   1.45113E+00  1.26950E+00  1.09785E+00  9.37398E-01  7.89212E-01  6.54186E-01  5.33095E-01  4.26560E-01  3.35099E-01  2.59152E-01
   1.99148E-01  1.55511E-01  1.28677E-01  1.19055E-01  1.27046E-01  1.53026E-01  1.97344E-01  2.60244E-01  3.41805E-01  4.41833E-01
   5.59820E-01  6.94857E-01  8.45594E-01  1.01013E+00  1.18596E+00  1.36999E+00  1.55853E+00  1.74739E+00  1.93201E+00  2.10751E+00
   2.26891E+00  2.41135E+00  2.53028E+00  2.62172E+00  2.68242E+00  2.71002E+00  2.70319E+00  2.66167E+00  2.58632E+00  2.47907E+00
   2.34276E+00  2.18101E+00  1.99799E+00  1.79828E+00  1.58659E+00  1.36762E+00  1.14579E+00  9.25114E-01  7.09111E-01  5.00716E-01
   3.02278E-01  1.15517E-01 -5.84267E-02 -2.18961E-01 -3.65924E-01 -4.99525E-01 -6.20243E-01 -7.28793E-01 -8.26035E-01 -9.12925E-01
  -9.90423E-01 -1.05948E+00 -1.12100E+00 -1.17586E+00 -1.22486E+00 -1.26872E+00 -1.30808E+00 -1.34349E+00 -1.37543E+00 -1.40436E+00
  -1.43065E+00 -1.45464E+00 -1.47659E+00 -1.49672E+00 -1.51525E+00 -1.53237E+00 -1.54824E+00 -1.56299E+00 -1.57672E+00 -1.58953E+00
  -1.60152E+00 -1.61277E+00 -1.62335E+00 -1.63332E+00 -1.64272E+00 -1.65159E+00 -1.66000E+00 -1.66798E+00 -1.67556E+00 -1.68278E+00
  -1.68964E+00 -1.69618E+00 -1.70243E+00 -1.70842E+00 -1.71415E+00 -1.71964E+00 -1.72490E+00 -1.72994E+00 -1.73481E+00 -1.73949E+00
  -1.74400E+00 -1.74834E+00 -1.75251E+00 -1.75655E+00 -1.76046E+00 -1.76425E+00 -1.76790E+00 -1.77142E+00 -1.77484E+00 -1.77816E+00
  -1.78139E+00 -1.78452E+00 -1.78755E+00 -1.79049E+00 -1.79334E+00 -1.79613E+00 -1.79885E+00 -1.80149E+00 -1.80404E+00 -1.80652E+00
  -1.80895E+00 -1.81132E+00 -1.81363E+00 -1.81586E+00 -1.81803E+00 -1.82014E+00 -1.82220E+00 -1.82420E+00
 NY background values follow
    -1.692E+00   -1.692E+00   -1.693E+00   -1.693E+00   -1.694E+00   -1.694E+00   -1.694E+00   -1.695E+00   -1.695E+00   -1.696E+00
    -1.696E+00   -1.697E+00   -1.697E+00   -1.698E+00   -1.698E+00   -1.699E+00   -1.699E+00   -1.700E+00   -1.700E+00   -1.701E+00
    -1.701E+00   -1.702E+00   -1.702E+00   -1.703E+00   -1.703E+00   -1.703E+00   -1.704E+00   -1.704E+00   -1.705E+00   -1.705E+00
    -1.706E+00   -1.706E+00   -1.707E+00   -1.707E+00   -1.708E+00   -1.708E+00   -1.709E+00   -1.709E+00   -1.710E+00   -1.710E+00
    -1.711E+00   -1.711E+00   -1.712E+00   -1.712E+00   -1.712E+00   -1.713E+00   -1.713E+00   -1.714E+00   -1.714E+00   -1.715E+00
    -1.715E+00   -1.716E+00   -1.716E+00   -1.717E+00   -1.717E+00   -1.718E+00   -1.718E+00   -1.719E+00   -1.719E+00   -1.720E+00
    -1.720E+00   -1.721E+00   -1.721E+00   -1.721E+00   -1.722E+00   -1.722E+00   -1.723E+00   -1.723E+00   -1.724E+00   -1.724E+00
    -1.725E+00   -1.725E+00   -1.726E+00   -1.726E+00   -1.727E+00   -1.727E+00   -1.728E+00   -1.728E+00   -1.729E+00   -1.729E+00
    -1.729E+00   -1.730E+00   -1.730E+00   -1.731E+00   -1.731E+00   -1.732E+00   -1.732E+00   -1.733E+00   -1.733E+00   -1.734E+00
    -1.734E+00   -1.735E+00   -1.735E+00   -1.736E+00   -1.736E+00   -1.737E+00   -1.737E+00   -1.738E+00   -1.738E+00   -1.738E+00
    -1.739E+00   -1.739E+00   -1.740E+00   -1.740E+00   -1.741E+00   -1.741E+00   -1.742E+00   -1.742E+00   -1.743E+00   -1.743E+00
    -1.744E+00   -1.744E+00   -1.745E+00   -1.745E+00   -1.746E+00   -1.746E+00   -1.747E+00   -1.747E+00   -1.747E+00   -1.748E+00
    -1.748E+00   -1.749E+00   -1.749E+00   -1.750E+00   -1.750E+00   -1.751E+00   -1.751E+00   -1.752E+00   -1.752E+00   -1.753E+00
    -1.753E+00   -1.754E+00   -1.754E+00   -1.755E+00   -1.755E+00   -1.755E+00   -1.756E+00   -1.756E+00   -1.757E+00   -1.757E+00
    -1.758E+00   -1.758E+00   -1.759E+00   -1.759E+00   -1.760E+00   -1.760E+00   -1.761E+00   -1.761E+00   -1.762E+00   -1.762E+00
    -1.763E+00   -1.763E+00   -1.764E+00   -1.764E+00   -1.764E+00   -1.765E+00   -1.765E+00   -1.766E+00   -1.766E+00   -1.767E+00
    -1.767E+00   -1.768E+00   -1.768E+00   -1.769E+00   -1.769E+00   -1.770E+00   -1.770E+00   -1.771E+00   -1.771E+00   -1.772E+00
    -1.772E+00   -1.772E+00   -1.773E+00   -1.773E+00   -1.774E+00   -1.774E+00   -1.775E+00   -1.775E+00   -1.776E+00   -1.776E+00
    -1.777E+00   -1.777E+00   -1.778E+00   -1.778E+00   -1.779E+00   -1.779E+00   -1.780E+00   -1.780E+00   -1.781E+00   -1.781E+00
    -1.781E+00   -1.782E+00   -1.782E+00   -1.783E+00   -1.783E+00   -1.784E+00   -1.784E+00   -1.785E+00   -1.785E+00   -1.786E+00
    -1.786E+00   -1.787E+00   -1.787E+00   -1.788E+00   -1.788E+00   -1.789E+00   -1.789E+00   -1.789E+00   -1.790E+00   -1.790E+00
    -1.791E+00   -1.791E+00   -1.792E+00   -1.792E+00   -1.793E+00   -1.793E+00   -1.794E+00   -1.794E+00   -1.795E+00   -1.795E+00
    -1.796E+00   -1.796E+00   -1.797E+00   -1.797E+00   -1.797E+00   -1.798E+00   -1.798E+00   -1.799E+00   -1.799E+00   -1.800E+00
    -1.800E+00   -1.801E+00   -1.801E+00   -1.802E+00   -1.802E+00   -1.803E+00   -1.803E+00   -1.804E+00   -1.804E+00   -1.805E+00
    -1.805E+00   -1.806E+00   -1.806E+00   -1.806E+00   -1.807E+00   -1.807E+00   -1.808E+00   -1.808E+00   -1.809E+00   -1.809E+00
    -1.810E+00   -1.810E+00   -1.811E+00   -1.811E+00   -1.812E+00   -1.812E+00   -1.813E+00   -1.813E+00   -1.814E+00   -1.814E+00
    -1.814E+00   -1.815E+00   -1.815E+00   -1.816E+00   -1.816E+00   -1.817E+00   -1.817E+00   -1.818E+00   -1.818E+00   -1.819E+00
    -1.819E+00   -1.820E+00   -1.820E+00   -1.821E+00   -1.821E+00   -1.822E+00   -1.822E+00   -1.822E+00   -1.823E+00   -1.823E+00
    -1.824E+00   -1.824E+00   -1.825E+00   -1.825E+00   -1.826E+00   -1.826E+00   -1.827E+00   -1.827E+00   -1.828E+00   -1.828E+00
    -1.829E+00   -1.829E+00   -1.830E+00   -1.830E+00   -1.830E+00   -1.831E+00   -1.831E+00   -1.832E+00   -1.832E+00   -1.833E+00
    -1.833E+00   -1.834E+00   -1.834E+00   -1.835E+00   -1.835E+00   -1.836E+00   -1.836E+00   -1.837E+00   -1.837E+00   -1.838E+00
    -1.838E+00   -1.838E+00   -1.839E+00   -1.839E+00   -1.840E+00   -1.840E+00   -1.841E+00   -1.841E+00   -1.842E+00   -1.842E+00
    -1.843E+00   -1.843E+00   -1.844E+00   -1.844E+00   -1.845E+00   -1.845E+00   -1.845E+00   -1.846E+00   -1.846E+00   -1.847E+00
    -1.847E+00   -1.848E+00   -1.848E+00   -1.849E+00   -1.849E+00   -1.850E+00   -1.850E+00   -1.851E+00   -1.851E+00   -1.852E+00
    -1.852E+00   -1.853E+00   -1.853E+00   -1.853E+00   -1.854E+00   -1.854E+00   -1.855E+00   -1.855E+00   -1.856E+00   -1.856E+00
    -1.857E+00   -1.857E+00   -1.858E+00   -1.858E+00   -1.859E+00   -1.859E+00   -1.860E+00   -1.860E+00   -1.861E+00   -1.861E+00
    -1.861E+00   -1.862E+00   -1.862E+00   -1.863E+00   -1.863E+00   -1.864E+00   -1.864E+00   -1.865E+00   -1.865E+00   -1.866E+00
    -1.866E+00   -1.867E+00   -1.867E+00   -1.868E+00   -1.868E+00   -1.869E+00   -1.869E+00   -1.869E+00   -1.870E+00   -1.870E+00
    -1.871E+00   -1.871E+00   -1.872E+00   -1.872E+00   -1.873E+00   -1.873E+00   -1.874E+00   -1.874E+00   -1.875E+00   -1.875E+00
    -1.876E+00   -1.876E+00   -1.876E+00   -1.877E+00   -1.877E+00   -1.878E+00   -1.878E+00   -1.879E+00   -1.879E+00   -1.880E+00
    -1.880E+00   -1.881E+00   -1.881E+00   -1.882E+00   -1.882E+00   -1.883E+00   -1.883E+00   -1.884E+00   -1.884E+00   -1.884E+00
    -1.885E+00   -1.885E+00   -1.886E+00   -1.886E+00   -1.887E+00   -1.887E+00   -1.888E+00   -1.888E+00   -1.889E+00   -1.889E+00
    -1.890E+00   -1.890E+00   -1.891E+00   -1.891E+00   -1.892E+00   -1.892E+00   -1.892E+00   -1.893E+00   -1.893E+00   -1.894E+00
    -1.894E+00   -1.895E+00   -1.895E+00   -1.896E+00   -1.896E+00   -1.897E+00   -1.897E+00   -1.898E+00   -1.898E+00   -1.899E+00
    -1.899E+00   -1.899E+00   -1.900E+00   -1.900E+00   -1.901E+00   -1.901E+00   -1.902E+00   -1.902E+00   -1.903E+00   -1.903E+00
    -1.904E+00   -1.904E+00   -1.905E+00   -1.905E+00   -1.906E+00   -1.906E+00   -1.907E+00   -1.907E+00   -1.907E+00   -1.908E+00
    -1.908E+00   -1.909E+00   -1.909E+00   -1.910E+00   -1.910E+00   -1.911E+00   -1.911E+00   -1.912E+00   -1.912E+00   -1.913E+00
    -1.913E+00   -1.914E+00   -1.914E+00   -1.915E+00   -1.915E+00   -1.915E+00   -1.916E+00   -1.916E+00   -1.917E+00   -1.917E+00
    -1.918E+00   -1.918E+00   -1.919E+00   -1.919E+00   -1.920E+00   -1.920E+00   -1.921E+00   -1.921E+00   -1.922E+00   -1.922E+00
    -1.922E+00   -1.923E+00   -1.923E+00   -1.924E+00   -1.924E+00   -1.925E+00   -1.925E+00   -1.926E+00
 Ala      Conc. = 1.41E+02
