 LCModel (Version 6.3-1L) Copyright: S.W. Provencher.          Ref.: Magn. Reson. Med. 30:672-679 (1993).                
 Slice#1 Row#11 Col#11  PD_24_press_2_raw_act
 36 lines in following concentration table = NCONC+1
    Conc.  %SD /Cr+PCr  Metabolite                                         
    0.000 999%   0.000 Ala                                                 
  697.786  38%   0.000 Asp                                                 
    0.000 999%   0.000 Cr                                                  
    0.000 999%   0.000 PCr                                                 
   61.135 281%   0.000 GABA                                                
  248.122  67%   0.000 Glc                                                 
    0.000 999%   0.000 Gln                                                 
    0.000 999%   0.000 Glu                                                 
    0.000 999%   0.000 GPC                                                 
  108.419  42%   0.000 PCh                                                 
    0.000 999%   0.000 GSH                                                 
 1.95E+03  25%   0.000 Ins                                                 
 4.11E+03  27%   0.000 Lac                                                 
 4.87E+03   6%   0.000 NAA                                                 
    0.000 999%   0.000 NAAG                                                
  203.629  21%   0.000 Scyllo                                              
  912.749  28%   0.000 Tau                                                 
    6.589 366%   0.000 -CrCH2                                              
  108.419  42%   0.000 GPC+PCh                                             
 4.87E+03   6%   0.000 NAA+NAAG                                            
    0.000 999%   0.000 Cr+PCr                                              
    0.000 999%   0.000 Glu+Gln                                             
 2.00E+04  17%   0.000 Lip13a                                              
    0.000 999%   0.000 Lip13b                                              
 8.97E+03  16%   0.000 Lip09                                               
    0.000 999%   0.000 MM09                                                
    0.000 999%   0.000 Lip20                                               
 1.59E+04   9%   0.000 MM20                                                
    0.000 999%   0.000 MM12                                                
 8.64E+03  18%   0.000 MM14                                                
    0.000 999%   0.000 MM17                                                
 2.00E+04  17%   0.000 Lip13a+Lip13b                                       
 2.87E+04  11%   0.000 MM14+Lip13a+Lip13b+MM12                             
 8.97E+03  16%   0.000 MM09+Lip09                                          
 1.59E+04   9%   0.000 MM20+Lip20                                          
   6 lines in following misc. output table
  FWHM = 0.168 ppm    S/N =  11                                            
  Data shift = 0.145 ppm                                                   
  Ph:-117 deg     253.3 deg/ppm                                            
  alphaB,S = 2.5E-01,   1.1E+02                                            
   11 spline knots.   Ns = 9(2)                                            
  (12) 2 infls.   ( 1) 1 extrs.                                            
  498 points on ppm-axis = NY
      4.000000     3.992357     3.984714     3.977070     3.969427     3.961784     3.954141     3.946497     3.938854     3.931211
      3.923568     3.915925     3.908281     3.900638     3.892995     3.885352     3.877708     3.870065     3.862422     3.854779
      3.847136     3.839492     3.831849     3.824206     3.816563     3.808919     3.801276     3.793633     3.785990     3.778347
      3.770703     3.763060     3.755417     3.747774     3.740130     3.732487     3.724844     3.717201     3.709558     3.701914
      3.694271     3.686628     3.678985     3.671341     3.663698     3.656055     3.648412     3.640769     3.633125     3.625482
      3.617839     3.610196     3.602552     3.594909     3.587266     3.579623     3.571980     3.564336     3.556693     3.549050
      3.541407     3.533763     3.526120     3.518477     3.510834     3.503191     3.495547     3.487904     3.480261     3.472618
      3.464974     3.457331     3.449688     3.442045     3.434402     3.426758     3.419115     3.411472     3.403829     3.396185
      3.388542     3.380899     3.373256     3.365613     3.357969     3.350326     3.342683     3.335040     3.327396     3.319753
      3.312110     3.304467     3.296824     3.289180     3.281537     3.273894     3.266251     3.258607     3.250964     3.243321
      3.235678     3.228034     3.220391     3.212748     3.205105     3.197462     3.189818     3.182175     3.174532     3.166889
      3.159245     3.151602     3.143959     3.136316     3.128673     3.121029     3.113386     3.105743     3.098100     3.090456
      3.082813     3.075170     3.067527     3.059884     3.052240     3.044597     3.036954     3.029311     3.021667     3.014024
      3.006381     2.998738     2.991095     2.983451     2.975808     2.968165     2.960522     2.952878     2.945235     2.937592
      2.929949     2.922306     2.914662     2.907019     2.899376     2.891733     2.884089     2.876446     2.868803     2.861160
      2.853517     2.845873     2.838230     2.830587     2.822944     2.815300     2.807657     2.800014     2.792371     2.784728
      2.777084     2.769441     2.761798     2.754155     2.746511     2.738868     2.731225     2.723582     2.715939     2.708295
      2.700652     2.693009     2.685366     2.677722     2.670079     2.662436     2.654793     2.647150     2.639506     2.631863
      2.624220     2.616577     2.608933     2.601290     2.593647     2.586004     2.578361     2.570717     2.563074     2.555431
      2.547788     2.540144     2.532501     2.524858     2.517215     2.509572     2.501928     2.494285     2.486642     2.478999
      2.471355     2.463712     2.456069     2.448426     2.440783     2.433139     2.425496     2.417853     2.410210     2.402566
      2.394923     2.387280     2.379637     2.371994     2.364350     2.356707     2.349064     2.341421     2.333777     2.326134
      2.318491     2.310848     2.303205     2.295561     2.287918     2.280275     2.272632     2.264988     2.257345     2.249702
      2.242059     2.234416     2.226772     2.219129     2.211486     2.203843     2.196199     2.188556     2.180913     2.173270
      2.165627     2.157983     2.150340     2.142697     2.135054     2.127410     2.119767     2.112124     2.104481     2.096838
      2.089194     2.081551     2.073908     2.066265     2.058621     2.050978     2.043335     2.035692     2.028049     2.020405
      2.012762     2.005119     1.997476     1.989833     1.982190     1.974546     1.966903     1.959260     1.951617     1.943974
      1.936331     1.928688     1.921045     1.913402     1.905759     1.898115     1.890472     1.882829     1.875186     1.867543
      1.859900     1.852257     1.844614     1.836971     1.829327     1.821684     1.814041     1.806398     1.798755     1.791112
      1.783469     1.775826     1.768183     1.760540     1.752896     1.745253     1.737610     1.729967     1.722324     1.714681
      1.707038     1.699395     1.691752     1.684108     1.676465     1.668822     1.661179     1.653536     1.645893     1.638250
      1.630607     1.622964     1.615321     1.607677     1.600034     1.592391     1.584748     1.577105     1.569462     1.561819
      1.554176     1.546533     1.538890     1.531246     1.523603     1.515960     1.508317     1.500674     1.493031     1.485388
      1.477745     1.470102     1.462458     1.454815     1.447172     1.439529     1.431886     1.424243     1.416600     1.408957
      1.401314     1.393671     1.386027     1.378384     1.370741     1.363098     1.355455     1.347812     1.340169     1.332526
      1.324883     1.317240     1.309596     1.301953     1.294310     1.286667     1.279024     1.271381     1.263738     1.256095
      1.248452     1.240808     1.233165     1.225522     1.217879     1.210236     1.202593     1.194950     1.187307     1.179664
      1.172021     1.164377     1.156734     1.149091     1.141448     1.133805     1.126162     1.118519     1.110876     1.103233
      1.095590     1.087946     1.080303     1.072660     1.065017     1.057374     1.049731     1.042088     1.034445     1.026802
      1.019158     1.011515     1.003872     0.996229     0.988586     0.980943     0.973300     0.965657     0.958014     0.950371
      0.942727     0.935084     0.927441     0.919798     0.912155     0.904512     0.896869     0.889226     0.881583     0.873940
      0.866296     0.858653     0.851010     0.843367     0.835724     0.828081     0.820438     0.812795     0.805152     0.797508
      0.789865     0.782222     0.774579     0.766936     0.759293     0.751650     0.744007     0.736364     0.728721     0.721077
      0.713434     0.705791     0.698148     0.690505     0.682862     0.675219     0.667576     0.659933     0.652290     0.644646
      0.637003     0.629360     0.621717     0.614074     0.606431     0.598788     0.591145     0.583502     0.575858     0.568215
      0.560572     0.552929     0.545286     0.537643     0.530000     0.522357     0.514714     0.507071     0.499427     0.491784
      0.484141     0.476498     0.468855     0.461212     0.453569     0.445925     0.438282     0.430639     0.422996     0.415353
      0.407710     0.400067     0.392424     0.384780     0.377137     0.369494     0.361851     0.354208     0.346565     0.338922
      0.331278     0.323635     0.315992     0.308349     0.300706     0.293063     0.285420     0.277777     0.270133     0.262490
      0.254847     0.247204     0.239561     0.231918     0.224275     0.216631     0.208988     0.201345
 NY phased data points follow
   1.83946E-01 -6.38571E-01  9.23871E-01  6.61878E-01  1.05025E+00  1.57936E+00 -1.15009E+00  2.44758E+00  2.38572E-01  1.79449E+00
   2.77485E+00  1.84775E+00  3.16428E-01  3.45321E+00  3.82913E+00  2.67697E+00  4.47889E+00  1.65561E+00  2.20654E+00  2.91426E+00
   2.68349E+00  3.05470E+00  3.27189E+00  2.44945E+00  3.36797E+00  2.29639E+00  3.11026E+00  4.60906E+00  2.25177E+00  9.05946E-01
   4.25914E+00  3.18374E+00  2.93648E+00  4.06087E+00  4.95557E+00  3.94181E+00  3.19385E+00  1.74638E+00  4.80507E+00  1.84330E+00
   3.48735E+00  8.72298E-01  5.60385E+00  5.49217E+00  5.68741E+00  4.46822E+00  5.67981E+00  5.03192E+00  5.50131E+00  5.88936E+00
   5.25517E+00  4.59683E+00  5.03160E+00  3.97940E+00  5.44795E+00  3.27444E+00  5.55901E+00  6.70025E+00  5.18047E+00  4.85365E+00
   5.89956E+00  5.83640E+00  6.42907E+00  4.99822E+00  4.76475E+00  4.96626E+00  4.70631E+00  4.83293E+00  6.12082E+00  5.67051E+00
   5.34759E+00  4.66838E+00  5.04694E+00  4.47631E+00  5.03747E+00  2.90414E+00  4.49906E+00  4.19103E+00  2.98762E+00  4.35680E+00
   5.13729E+00  4.10301E+00  5.47310E+00  3.30348E+00  1.94503E-01  1.44556E+00  1.95177E+00  1.44287E+00 -3.71750E-01  2.42219E+00
  -7.32298E-01  1.91415E+00  1.18668E+00  1.80132E-01 -4.22824E-01  1.61946E-02  1.68887E-01 -2.36099E-01  2.48411E+00 -2.58961E-02
  -3.90553E-01  2.64279E-02 -1.58071E-01 -1.11198E+00 -1.20745E-01 -1.73405E+00 -3.00633E+00 -2.61096E+00 -1.29337E+00 -3.35226E+00
  -1.89062E+00 -3.30264E+00 -3.01679E+00 -2.65606E+00 -3.29985E+00 -2.70669E+00 -4.76411E+00 -1.77443E+00 -4.12326E+00 -2.04012E+00
  -5.72309E+00 -4.01434E+00 -4.60591E+00 -4.25936E+00 -2.23498E+00 -3.60449E+00 -5.27817E+00 -4.54228E+00 -3.46239E+00 -3.61679E+00
  -5.05265E+00 -5.28962E+00 -4.24491E+00 -6.45800E+00 -7.58302E+00 -7.27312E+00 -5.31616E+00 -7.20611E+00 -5.05889E+00 -9.42976E+00
  -8.40177E+00 -8.17115E+00 -8.56236E+00 -1.10576E+01 -8.64070E+00 -9.21636E+00 -9.94705E+00 -1.16039E+01 -9.33376E+00 -1.16456E+01
  -1.19096E+01 -9.99205E+00 -9.54581E+00 -9.39396E+00 -1.20906E+01 -1.13792E+01 -1.10309E+01 -1.15247E+01 -1.15137E+01 -1.15093E+01
  -1.21164E+01 -1.22851E+01 -1.11133E+01 -1.19678E+01 -1.02993E+01 -1.09125E+01 -1.07510E+01 -1.09184E+01 -1.09046E+01 -1.24543E+01
  -1.31592E+01 -1.14948E+01 -1.04911E+01 -9.80167E+00 -7.32680E+00 -7.11347E+00 -1.04545E+01 -8.84191E+00 -8.53630E+00 -8.06876E+00
  -6.40798E+00 -6.44557E+00 -5.47088E+00 -1.59096E+00 -1.89309E+00 -2.26853E+00 -3.29531E+00 -2.07906E+00 -1.95848E+00  1.08086E+00
  -1.92380E+00  1.31334E+00  1.06912E-01 -8.35947E-01  1.68559E+00  6.63587E-01  2.54109E+00  1.94344E+00  3.83305E+00  2.45506E+00
   3.32224E+00  4.30544E+00  3.82146E+00  2.87247E+00  5.92142E+00  4.05182E+00  4.25499E+00  7.34508E+00  5.54605E+00  6.62472E+00
   4.44975E+00  4.89471E+00  5.87646E+00  8.24848E+00  6.24953E+00  6.90426E+00  7.06719E+00  8.88043E+00  9.32314E+00  9.63553E+00
   9.73065E+00  8.07391E+00  8.73978E+00  9.89577E+00  1.08751E+01  1.16785E+01  1.15591E+01  1.10815E+01  1.16109E+01  1.03112E+01
   1.27269E+01  9.84894E+00  1.27209E+01  1.27648E+01  1.26368E+01  1.49193E+01  1.45725E+01  1.53289E+01  1.55027E+01  1.77080E+01
   1.91576E+01  2.04215E+01  1.96250E+01  1.90461E+01  2.07594E+01  2.09191E+01  2.13347E+01  2.49349E+01  2.45602E+01  2.66999E+01
   2.76962E+01  2.77823E+01  2.82392E+01  2.93996E+01  3.12022E+01  3.47830E+01  3.82277E+01  3.75020E+01  3.97840E+01  3.96388E+01
   4.46817E+01  4.44439E+01  4.52297E+01  4.51665E+01  4.46015E+01  4.57108E+01  4.39924E+01  4.17524E+01  3.77729E+01  3.54350E+01
   2.78514E+01  2.64501E+01  2.37811E+01  1.52906E+01  1.11863E+01  6.99175E+00  2.36212E+00 -3.30024E+00 -1.23297E+01 -1.47351E+01
  -1.90709E+01 -2.60001E+01 -3.21971E+01 -3.54762E+01 -4.17276E+01 -4.55385E+01 -4.60684E+01 -4.95811E+01 -5.47526E+01 -5.68848E+01
  -5.58850E+01 -5.80076E+01 -6.07760E+01 -5.91876E+01 -5.97165E+01 -5.99630E+01 -5.82197E+01 -5.61767E+01 -5.54884E+01 -5.48840E+01
  -5.22982E+01 -5.01443E+01 -5.07104E+01 -4.72243E+01 -4.61366E+01 -4.15259E+01 -4.25100E+01 -3.86564E+01 -3.58658E+01 -3.42419E+01
  -3.09540E+01 -2.74857E+01 -2.55680E+01 -2.27354E+01 -2.02135E+01 -1.97863E+01 -1.41353E+01 -1.32305E+01 -1.21909E+01 -8.30956E+00
  -4.70234E+00 -3.67484E+00 -2.51198E+00 -2.61092E+00  9.24935E-01 -1.53330E-01  6.90236E-01  2.20524E+00  2.22116E-02  2.95538E+00
   5.24438E+00  7.03909E+00  7.24984E+00  4.81035E+00  5.24115E+00  8.43227E+00  7.28206E+00  7.47494E+00  9.65635E+00  7.18284E+00
   8.42467E+00  8.16594E+00  7.90806E+00  8.85697E+00  9.88888E+00  9.55812E+00  9.89245E+00  1.01682E+01  1.02250E+01  1.02252E+01
   9.46821E+00  1.03541E+01  1.21960E+01  1.10162E+01  1.08113E+01  1.08903E+01  1.22857E+01  1.02931E+01  1.28713E+01  1.13884E+01
   1.06918E+01  9.78451E+00  1.28610E+01  1.17512E+01  1.17422E+01  1.02713E+01  1.20079E+01  1.20187E+01  1.05243E+01  1.25724E+01
   1.35851E+01  1.41693E+01  1.30103E+01  1.22112E+01  1.30066E+01  1.11496E+01  1.14554E+01  1.12938E+01  1.06550E+01  8.86552E+00
   1.17995E+01  1.20769E+01  1.24334E+01  1.09050E+01  1.36960E+01  1.11988E+01  9.37036E+00  9.65044E+00  1.02114E+01  9.23594E+00
   8.52628E+00  9.38689E+00  1.10245E+01  8.77563E+00  8.49460E+00  8.80929E+00  9.91884E+00  7.74617E+00  6.99515E+00  8.64526E+00
   7.08527E+00  5.81344E+00  8.95161E+00  6.58701E+00  5.78146E+00  5.93261E+00  6.95734E+00  5.05306E+00  4.05071E+00  5.00619E+00
   4.41652E+00  4.53219E+00  4.09577E+00  3.25726E+00  2.82505E+00  2.80333E+00  3.10549E+00  4.27022E+00  2.67167E+00  2.77237E+00
   2.48338E+00  1.91845E+00  1.34097E+00  1.04670E+00  2.45163E+00  1.47343E+00  1.86329E-01 -1.94668E+00 -4.64022E-01 -2.53623E-01
  -1.24377E-01 -1.00956E+00 -3.38125E-01 -6.46691E-01 -1.26888E+00 -1.43816E+00 -1.38638E+00 -1.21102E+00 -1.28508E+00 -9.75632E-01
  -2.46017E+00 -2.32549E+00 -2.92060E+00 -1.72675E+00 -2.74525E+00 -4.54772E+00 -2.23450E+00 -2.55628E+00 -5.56504E+00 -2.07666E+00
  -5.06063E+00 -5.45709E+00 -4.16501E+00 -4.05595E+00 -3.89844E+00 -4.24013E+00 -4.46700E+00 -4.58377E+00 -4.85046E+00 -4.02775E+00
  -5.27890E+00 -4.55127E+00 -5.66304E+00 -5.78422E+00 -6.24195E+00 -8.25991E+00 -2.39678E+00 -5.21730E+00 -5.86752E+00 -5.05461E+00
  -6.60253E+00 -3.82798E+00 -7.12932E+00 -7.40686E+00 -5.59566E+00 -5.17674E+00 -6.06191E+00 -5.39284E+00 -3.81631E+00 -5.35600E+00
  -4.13693E+00 -5.79796E+00 -5.76418E+00 -6.44809E+00 -7.66718E+00 -7.61957E+00 -4.73773E+00 -4.63693E+00 -5.14312E+00 -5.47919E+00
  -4.79106E+00 -4.42422E+00 -4.41141E+00 -4.97273E+00 -4.78681E+00 -3.82869E+00 -5.62054E+00 -4.09936E+00
 NY points of the fit to the data follow
   5.91484E+00  6.96213E+00  5.04737E+00  6.20257E+00  5.22875E+00  5.68466E+00  4.21465E+00  4.30268E+00  2.74027E+00  2.53747E+00
   1.04101E+00  7.52280E-01  4.93993E-01  8.99363E-01  1.21053E+00  1.59538E+00  1.95446E+00  2.49190E+00  2.64236E+00  2.66247E+00
   2.79993E+00  2.89682E+00  3.02680E+00  3.13955E+00  3.25166E+00  3.40039E+00  3.50335E+00  3.67993E+00  3.73120E+00  3.77796E+00
   3.83393E+00  3.96667E+00  4.08761E+00  4.28439E+00  4.34003E+00  4.46956E+00  4.46927E+00  4.63077E+00  4.65775E+00  4.73609E+00
   4.74383E+00  4.67463E+00  4.71377E+00  4.67329E+00  4.69497E+00  4.65532E+00  4.63897E+00  4.60597E+00  4.51720E+00  4.45054E+00
   4.30464E+00  4.24290E+00  4.03995E+00  3.91638E+00  3.64003E+00  3.52761E+00  3.24583E+00  3.24007E+00  3.08153E+00  3.29570E+00
   3.07947E+00  3.15877E+00  2.83973E+00  2.80136E+00  2.31752E+00  2.19904E+00  1.70393E+00  1.70691E+00  1.81030E+00  2.63326E+00
   2.80914E+00  3.26006E+00  3.11433E+00  3.34590E+00  3.07544E+00  3.19059E+00  2.82174E+00  2.84993E+00  2.52349E+00  2.34584E+00
   2.25259E+00  2.10894E+00  2.24275E+00  1.94085E+00  2.09071E+00  1.50615E+00  1.76007E+00  9.87287E-01  1.43218E+00  4.98989E-01
   1.15654E+00  5.32759E-02  5.91536E-01 -3.64571E-01  2.17632E-01 -6.44637E-01  2.34902E-01 -1.94877E-01  3.90791E-01  7.16552E-02
   3.06408E-01  4.96522E-02 -7.77866E-02 -2.70059E-02 -5.13427E-01 -1.38327E-01 -9.36171E-01  2.99877E-01 -2.49119E-01  6.70682E-01
  -2.74219E-01  5.32885E-01 -4.37818E-01  3.86990E-01 -6.67999E-01 -9.22448E-02 -1.21971E+00 -7.20243E-01 -1.79490E+00 -1.33609E+00
  -2.10736E+00 -2.08847E+00 -2.77287E+00 -3.00447E+00 -3.07979E+00 -3.14198E+00 -3.22685E+00 -3.45179E+00 -3.61473E+00 -3.80724E+00
  -4.02306E+00 -4.27225E+00 -4.53186E+00 -4.81953E+00 -5.11153E+00 -5.42024E+00 -5.73149E+00 -6.03511E+00 -6.33748E+00 -6.62732E+00
  -6.91347E+00 -7.19244E+00 -7.45499E+00 -7.69439E+00 -7.91786E+00 -8.16465E+00 -8.38159E+00 -8.61547E+00 -8.81289E+00 -8.95026E+00
  -9.10429E+00 -9.17230E+00 -9.29326E+00 -9.33078E+00 -9.46640E+00 -9.48286E+00 -9.66336E+00 -9.59570E+00 -9.76903E+00 -9.61862E+00
  -9.80919E+00 -9.66017E+00 -9.84123E+00 -9.71327E+00 -9.95736E+00 -9.81211E+00 -1.00568E+01 -9.80516E+00 -9.98480E+00 -9.75855E+00
  -9.92337E+00 -9.76783E+00 -9.89936E+00 -9.72674E+00 -9.82787E+00 -9.59227E+00 -9.68051E+00 -9.31157E+00 -9.32111E+00 -8.78569E+00
  -8.68983E+00 -8.04007E+00 -7.86504E+00 -7.26538E+00 -7.30524E+00 -6.54704E+00 -6.62536E+00 -5.46588E+00 -5.30991E+00 -4.07645E+00
  -3.88355E+00 -2.66991E+00 -2.42381E+00 -1.25738E+00 -9.36861E-01  1.36238E-01  4.96195E-01  1.35119E+00  1.51794E+00  1.94295E+00
   2.30092E+00  2.69757E+00  3.10033E+00  3.19019E+00  3.33943E+00  3.41647E+00  3.62099E+00  3.67496E+00  3.75464E+00  3.53330E+00
   3.36810E+00  3.45761E+00  3.30091E+00  3.55715E+00  3.26013E+00  3.59796E+00  3.30012E+00  3.80722E+00  3.61629E+00  4.54755E+00
   4.52532E+00  5.44338E+00  5.44004E+00  6.29724E+00  6.32297E+00  7.15492E+00  7.62036E+00  8.63480E+00  9.25016E+00  1.03331E+01
   1.10959E+01  1.22540E+01  1.31947E+01  1.43730E+01  1.54364E+01  1.63142E+01  1.71524E+01  1.79950E+01  1.87887E+01  1.95401E+01
   2.01970E+01  2.07375E+01  2.09893E+01  2.07159E+01  2.10779E+01  2.17730E+01  2.24964E+01  2.39679E+01  2.47713E+01  2.65285E+01
   2.71326E+01  2.86948E+01  2.92868E+01  3.14643E+01  3.24090E+01  3.55984E+01  3.66191E+01  3.96612E+01  4.04566E+01  4.30686E+01
   4.35942E+01  4.56278E+01  4.56641E+01  4.63718E+01  4.58032E+01  4.52424E+01  4.39063E+01  4.14217E+01  3.91467E+01  3.46874E+01
   3.16903E+01  2.60495E+01  2.25145E+01  1.57398E+01  1.19631E+01  5.17494E+00  1.23337E+00 -6.15627E+00 -1.09016E+01 -2.03614E+01
  -2.64354E+01 -3.80895E+01 -4.20901E+01 -4.34873E+01 -4.43857E+01 -4.51012E+01 -4.57188E+01 -4.62595E+01 -4.67406E+01 -4.71587E+01
  -4.75222E+01 -4.78359E+01 -4.80943E+01 -4.82941E+01 -4.84343E+01 -4.85029E+01 -4.85015E+01 -4.84130E+01 -4.82327E+01 -4.79464E+01
  -4.75526E+01 -4.70276E+01 -4.63710E+01 -4.55604E+01 -4.45912E+01 -4.34444E+01 -4.21155E+01 -4.05859E+01 -3.88574E+01 -3.69219E+01
  -3.47868E+01 -3.24535E+01 -2.99415E+01 -2.72678E+01 -2.44606E+01 -2.15526E+01 -1.85830E+01 -1.55944E+01 -1.26345E+01 -9.75176E+00
  -6.99573E+00 -4.41299E+00 -2.04750E+00  6.33330E-02  1.88827E+00  3.40562E+00  4.60113E+00  5.46640E+00  5.97729E+00  6.11067E+00
   6.37921E+00  6.65608E+00  6.69999E+00  6.95313E+00  6.78252E+00  6.91126E+00  6.61033E+00  6.11660E+00  5.68965E+00  5.61454E+00
   5.51608E+00  6.12067E+00  6.29899E+00  7.00207E+00  7.42859E+00  7.88845E+00  8.35840E+00  8.69094E+00  9.19010E+00  9.50731E+00
   1.03183E+01  1.05022E+01  1.14107E+01  1.11298E+01  1.20913E+01  1.15192E+01  1.27154E+01  1.20023E+01  1.32731E+01  1.24436E+01
   1.39288E+01  1.31263E+01  1.44768E+01  1.30258E+01  1.37735E+01  1.14001E+01  1.17553E+01  9.01836E+00  1.06258E+01  1.26356E+01
   1.44060E+01  1.54681E+01  1.68667E+01  1.65967E+01  1.70384E+01  1.36137E+01  1.12520E+01  9.76844E+00  8.73844E+00  7.99799E+00
   7.46749E+00  7.10220E+00  6.87223E+00  6.75705E+00  6.73914E+00  6.80406E+00  6.93729E+00  7.12631E+00  7.35822E+00  7.62183E+00
   7.90506E+00  8.19713E+00  8.48661E+00  8.76398E+00  9.01960E+00  9.24590E+00  9.43507E+00  9.58133E+00  9.67904E+00  9.72499E+00
   9.71628E+00  9.65223E+00  9.53211E+00  9.35729E+00  9.12912E+00  8.85104E+00  8.52621E+00  8.15937E+00  7.75453E+00  7.31707E+00
   6.85160E+00  6.36395E+00  5.85879E+00  5.34157E+00  4.81639E+00  4.28812E+00  3.76033E+00  3.23731E+00  2.72176E+00  2.21698E+00
   1.72472E+00  1.24754E+00  7.86564E-01  3.43664E-01 -8.07905E-02 -4.85711E-01 -8.71298E-01 -1.23682E+00 -1.58279E+00 -1.90885E+00
  -2.21594E+00 -2.50405E+00 -2.77428E+00 -3.02665E+00 -3.26230E+00 -3.48142E+00 -3.68535E+00 -3.87421E+00 -4.04917E+00 -4.21027E+00
  -4.35867E+00 -4.49449E+00 -4.61893E+00 -4.73206E+00 -4.83494E+00 -4.92751E+00 -5.01087E+00 -5.08502E+00 -5.15102E+00 -5.20877E+00
  -5.25918E+00 -5.30210E+00 -5.33849E+00 -5.36823E+00 -5.39223E+00 -5.41023E+00 -5.42303E+00 -5.43040E+00 -5.43319E+00 -5.43118E+00
  -5.42511E+00 -5.41466E+00 -5.40053E+00 -5.38244E+00 -5.36117E+00 -5.33637E+00 -5.30871E+00 -5.27780E+00 -5.24431E+00 -5.20790E+00
  -5.16929E+00 -5.12805E+00 -5.08480E+00 -5.03910E+00 -4.99163E+00 -4.94200E+00 -4.89085E+00 -4.83773E+00 -4.78321E+00 -4.72687E+00
  -4.66935E+00 -4.61025E+00 -4.55016E+00 -4.48859E+00 -4.42614E+00 -4.36237E+00 -4.29794E+00 -4.23239E+00 -4.16632E+00 -4.09925E+00
  -4.03178E+00 -3.96351E+00 -3.89509E+00 -3.82609E+00 -3.75709E+00 -3.68767E+00 -3.61850E+00 -3.54923E+00
 NY background values follow
    -1.323E+01   -1.343E+01   -1.362E+01   -1.382E+01   -1.401E+01   -1.420E+01   -1.438E+01   -1.457E+01   -1.475E+01   -1.493E+01
    -1.510E+01   -1.528E+01   -1.545E+01   -1.562E+01   -1.578E+01   -1.594E+01   -1.611E+01   -1.626E+01   -1.642E+01   -1.657E+01
    -1.672E+01   -1.687E+01   -1.702E+01   -1.716E+01   -1.731E+01   -1.745E+01   -1.759E+01   -1.772E+01   -1.786E+01   -1.799E+01
    -1.812E+01   -1.825E+01   -1.837E+01   -1.850E+01   -1.862E+01   -1.874E+01   -1.886E+01   -1.897E+01   -1.909E+01   -1.920E+01
    -1.932E+01   -1.943E+01   -1.954E+01   -1.965E+01   -1.975E+01   -1.986E+01   -1.996E+01   -2.007E+01   -2.017E+01   -2.027E+01
    -2.037E+01   -2.047E+01   -2.057E+01   -2.067E+01   -2.077E+01   -2.086E+01   -2.096E+01   -2.105E+01   -2.115E+01   -2.124E+01
    -2.134E+01   -2.143E+01   -2.153E+01   -2.162E+01   -2.172E+01   -2.181E+01   -2.190E+01   -2.200E+01   -2.209E+01   -2.218E+01
    -2.228E+01   -2.237E+01   -2.246E+01   -2.256E+01   -2.265E+01   -2.274E+01   -2.283E+01   -2.292E+01   -2.301E+01   -2.310E+01
    -2.319E+01   -2.328E+01   -2.337E+01   -2.346E+01   -2.354E+01   -2.363E+01   -2.372E+01   -2.380E+01   -2.388E+01   -2.397E+01
    -2.405E+01   -2.413E+01   -2.421E+01   -2.429E+01   -2.436E+01   -2.444E+01   -2.451E+01   -2.458E+01   -2.465E+01   -2.472E+01
    -2.479E+01   -2.485E+01   -2.492E+01   -2.498E+01   -2.504E+01   -2.510E+01   -2.515E+01   -2.520E+01   -2.525E+01   -2.530E+01
    -2.535E+01   -2.539E+01   -2.543E+01   -2.547E+01   -2.550E+01   -2.553E+01   -2.556E+01   -2.558E+01   -2.560E+01   -2.562E+01
    -2.563E+01   -2.564E+01   -2.565E+01   -2.565E+01   -2.565E+01   -2.564E+01   -2.564E+01   -2.562E+01   -2.560E+01   -2.558E+01
    -2.556E+01   -2.553E+01   -2.550E+01   -2.547E+01   -2.543E+01   -2.539E+01   -2.535E+01   -2.530E+01   -2.526E+01   -2.521E+01
    -2.516E+01   -2.511E+01   -2.505E+01   -2.500E+01   -2.494E+01   -2.489E+01   -2.483E+01   -2.477E+01   -2.472E+01   -2.466E+01
    -2.460E+01   -2.455E+01   -2.449E+01   -2.443E+01   -2.438E+01   -2.433E+01   -2.427E+01   -2.423E+01   -2.418E+01   -2.413E+01
    -2.409E+01   -2.405E+01   -2.401E+01   -2.397E+01   -2.394E+01   -2.392E+01   -2.389E+01   -2.387E+01   -2.386E+01   -2.385E+01
    -2.384E+01   -2.384E+01   -2.384E+01   -2.385E+01   -2.387E+01   -2.389E+01   -2.392E+01   -2.395E+01   -2.400E+01   -2.405E+01
    -2.410E+01   -2.417E+01   -2.424E+01   -2.432E+01   -2.441E+01   -2.451E+01   -2.461E+01   -2.473E+01   -2.486E+01   -2.499E+01
    -2.514E+01   -2.529E+01   -2.545E+01   -2.562E+01   -2.580E+01   -2.599E+01   -2.619E+01   -2.640E+01   -2.661E+01   -2.684E+01
    -2.707E+01   -2.731E+01   -2.756E+01   -2.781E+01   -2.808E+01   -2.835E+01   -2.863E+01   -2.892E+01   -2.921E+01   -2.951E+01
    -2.982E+01   -3.014E+01   -3.046E+01   -3.079E+01   -3.113E+01   -3.147E+01   -3.182E+01   -3.218E+01   -3.254E+01   -3.291E+01
    -3.328E+01   -3.366E+01   -3.405E+01   -3.444E+01   -3.483E+01   -3.523E+01   -3.564E+01   -3.605E+01   -3.646E+01   -3.688E+01
    -3.731E+01   -3.774E+01   -3.817E+01   -3.860E+01   -3.904E+01   -3.949E+01   -3.993E+01   -4.038E+01   -4.083E+01   -4.129E+01
    -4.175E+01   -4.221E+01   -4.267E+01   -4.313E+01   -4.360E+01   -4.407E+01   -4.454E+01   -4.501E+01   -4.548E+01   -4.596E+01
    -4.643E+01   -4.690E+01   -4.738E+01   -4.786E+01   -4.833E+01   -4.881E+01   -4.928E+01   -4.975E+01   -5.023E+01   -5.070E+01
    -5.117E+01   -5.164E+01   -5.211E+01   -5.257E+01   -5.304E+01   -5.350E+01   -5.395E+01   -5.441E+01   -5.486E+01   -5.531E+01
    -5.576E+01   -5.620E+01   -5.664E+01   -5.707E+01   -5.750E+01   -5.792E+01   -5.834E+01   -5.876E+01   -5.917E+01   -5.957E+01
    -5.997E+01   -6.036E+01   -6.074E+01   -6.112E+01   -6.150E+01   -6.186E+01   -6.222E+01   -6.257E+01   -6.292E+01   -6.325E+01
    -6.358E+01   -6.390E+01   -6.421E+01   -6.451E+01   -6.481E+01   -6.509E+01   -6.537E+01   -6.564E+01   -6.589E+01   -6.614E+01
    -6.638E+01   -6.660E+01   -6.682E+01   -6.702E+01   -6.722E+01   -6.740E+01   -6.757E+01   -6.773E+01   -6.788E+01   -6.802E+01
    -6.814E+01   -6.825E+01   -6.835E+01   -6.844E+01   -6.851E+01   -6.858E+01   -6.863E+01   -6.867E+01   -6.870E+01   -6.871E+01
    -6.872E+01   -6.871E+01   -6.870E+01   -6.867E+01   -6.863E+01   -6.858E+01   -6.853E+01   -6.846E+01   -6.838E+01   -6.829E+01
    -6.819E+01   -6.809E+01   -6.797E+01   -6.785E+01   -6.771E+01   -6.757E+01   -6.742E+01   -6.726E+01   -6.709E+01   -6.691E+01
    -6.673E+01   -6.654E+01   -6.634E+01   -6.613E+01   -6.592E+01   -6.569E+01   -6.547E+01   -6.523E+01   -6.499E+01   -6.474E+01
    -6.449E+01   -6.423E+01   -6.396E+01   -6.369E+01   -6.342E+01   -6.314E+01   -6.285E+01   -6.256E+01   -6.226E+01   -6.196E+01
    -6.165E+01   -6.134E+01   -6.103E+01   -6.071E+01   -6.039E+01   -6.006E+01   -5.973E+01   -5.940E+01   -5.907E+01   -5.873E+01
    -5.839E+01   -5.805E+01   -5.770E+01   -5.735E+01   -5.700E+01   -5.665E+01   -5.630E+01   -5.594E+01   -5.558E+01   -5.523E+01
    -5.487E+01   -5.450E+01   -5.414E+01   -5.378E+01   -5.341E+01   -5.305E+01   -5.268E+01   -5.231E+01   -5.195E+01   -5.158E+01
    -5.121E+01   -5.084E+01   -5.047E+01   -5.010E+01   -4.973E+01   -4.936E+01   -4.899E+01   -4.862E+01   -4.825E+01   -4.788E+01
    -4.751E+01   -4.714E+01   -4.677E+01   -4.640E+01   -4.604E+01   -4.567E+01   -4.531E+01   -4.494E+01   -4.458E+01   -4.422E+01
    -4.386E+01   -4.350E+01   -4.314E+01   -4.279E+01   -4.243E+01   -4.208E+01   -4.173E+01   -4.138E+01   -4.103E+01   -4.069E+01
    -4.034E+01   -4.000E+01   -3.967E+01   -3.933E+01   -3.899E+01   -3.866E+01   -3.833E+01   -3.801E+01   -3.768E+01   -3.736E+01
    -3.704E+01   -3.673E+01   -3.641E+01   -3.610E+01   -3.580E+01   -3.549E+01   -3.519E+01   -3.490E+01   -3.460E+01   -3.431E+01
    -3.402E+01   -3.373E+01   -3.345E+01   -3.317E+01   -3.289E+01   -3.262E+01   -3.234E+01   -3.207E+01   -3.181E+01   -3.154E+01
    -3.128E+01   -3.102E+01   -3.076E+01   -3.050E+01   -3.025E+01   -3.000E+01   -2.975E+01   -2.950E+01   -2.926E+01   -2.901E+01
    -2.877E+01   -2.853E+01   -2.829E+01   -2.806E+01   -2.782E+01   -2.759E+01   -2.736E+01   -2.713E+01   -2.690E+01   -2.668E+01
    -2.645E+01   -2.623E+01   -2.601E+01   -2.579E+01   -2.557E+01   -2.535E+01   -2.514E+01   -2.492E+01   -2.471E+01   -2.449E+01
    -2.428E+01   -2.407E+01   -2.386E+01   -2.365E+01   -2.345E+01   -2.324E+01   -2.303E+01   -2.283E+01   -2.263E+01   -2.242E+01
    -2.222E+01   -2.202E+01   -2.182E+01   -2.162E+01   -2.142E+01   -2.122E+01   -2.102E+01   -2.082E+01
 Asp      Conc. = 6.98E+02
