 LCModel (Version 6.3-1L) Copyright: S.W. Provencher.          Ref.: Magn. Reson. Med. 30:672-679 (1993).                
 Slice#2 Row#1 Col#3  PD_24_press_2_raw_act
 36 lines in following concentration table = NCONC+1
    Conc.  %SD /Cr+PCr  Metabolite                                         
    0.000 999%   0.000 Ala                                                 
   28.035  64%   0.281 Asp                                                 
    0.000 999%   0.000 Cr                                                  
   99.657  56%   1.000 PCr                                                 
   17.299  62%   0.174 GABA                                                
   17.379  62%   0.174 Glc                                                 
    0.000 999%   0.000 Gln                                                 
  184.245 123%   1.849 Glu                                                 
    0.000 999%   0.000 GPC                                                 
   59.916  36%   0.601 PCh                                                 
   69.174 109%   0.694 GSH                                                 
    0.000 999%   0.000 Ins                                                 
    0.000 999%   0.000 Lac                                                 
  296.357  23%   2.974 NAA                                                 
    0.000 999%   0.000 NAAG                                                
    5.776  62% 5.8E-02 Scyllo                                              
   29.078  62%   0.292 Tau                                                 
    9.790 116% 9.8E-02 -CrCH2                                              
   59.916  36%   0.601 GPC+PCh                                             
  296.357  23%   2.974 NAA+NAAG                                            
   99.657  56%   1.000 Cr+PCr                                              
  184.245 123%   1.849 Glu+Gln                                             
    0.000 999%   0.000 Lip13a                                              
  472.968  29%   4.746 Lip13b                                              
  136.766  49%   1.372 Lip09                                               
  133.126  93%   1.336 MM09                                                
   75.521  60%   0.758 Lip20                                               
    0.000 999%   0.000 MM20                                                
   26.081 312%   0.262 MM12                                                
    0.000 999%   0.000 MM14                                                
    0.000 999%   0.000 MM17                                                
  472.968  29%   4.746 Lip13a+Lip13b                                       
  499.049  30%   5.008 MM14+Lip13a+Lip13b+MM12                             
  269.892  47%   2.708 MM09+Lip09                                          
   75.521  60%   0.758 MM20+Lip20                                          
   6 lines in following misc. output table
  FWHM = 0.031 ppm    S/N =   1                                            
  Data shift = 0.069 ppm                                                   
  Ph:  63 deg       4.6 deg/ppm                                            
  alphaB,S = 8.5E+01,   1.3E+01                                            
   14 spline knots.   Ns = 5(1)                                            
   2 inflections.     1 extrema                                            
  498 points on ppm-axis = NY
      4.000000     3.992357     3.984714     3.977070     3.969427     3.961784     3.954141     3.946497     3.938854     3.931211
      3.923568     3.915925     3.908281     3.900638     3.892995     3.885352     3.877708     3.870065     3.862422     3.854779
      3.847136     3.839492     3.831849     3.824206     3.816563     3.808919     3.801276     3.793633     3.785990     3.778347
      3.770703     3.763060     3.755417     3.747774     3.740130     3.732487     3.724844     3.717201     3.709558     3.701914
      3.694271     3.686628     3.678985     3.671341     3.663698     3.656055     3.648412     3.640769     3.633125     3.625482
      3.617839     3.610196     3.602552     3.594909     3.587266     3.579623     3.571980     3.564336     3.556693     3.549050
      3.541407     3.533763     3.526120     3.518477     3.510834     3.503191     3.495547     3.487904     3.480261     3.472618
      3.464974     3.457331     3.449688     3.442045     3.434402     3.426758     3.419115     3.411472     3.403829     3.396185
      3.388542     3.380899     3.373256     3.365613     3.357969     3.350326     3.342683     3.335040     3.327396     3.319753
      3.312110     3.304467     3.296824     3.289180     3.281537     3.273894     3.266251     3.258607     3.250964     3.243321
      3.235678     3.228034     3.220391     3.212748     3.205105     3.197462     3.189818     3.182175     3.174532     3.166889
      3.159245     3.151602     3.143959     3.136316     3.128673     3.121029     3.113386     3.105743     3.098100     3.090456
      3.082813     3.075170     3.067527     3.059884     3.052240     3.044597     3.036954     3.029311     3.021667     3.014024
      3.006381     2.998738     2.991095     2.983451     2.975808     2.968165     2.960522     2.952878     2.945235     2.937592
      2.929949     2.922306     2.914662     2.907019     2.899376     2.891733     2.884089     2.876446     2.868803     2.861160
      2.853517     2.845873     2.838230     2.830587     2.822944     2.815300     2.807657     2.800014     2.792371     2.784728
      2.777084     2.769441     2.761798     2.754155     2.746511     2.738868     2.731225     2.723582     2.715939     2.708295
      2.700652     2.693009     2.685366     2.677722     2.670079     2.662436     2.654793     2.647150     2.639506     2.631863
      2.624220     2.616577     2.608933     2.601290     2.593647     2.586004     2.578361     2.570717     2.563074     2.555431
      2.547788     2.540144     2.532501     2.524858     2.517215     2.509572     2.501928     2.494285     2.486642     2.478999
      2.471355     2.463712     2.456069     2.448426     2.440783     2.433139     2.425496     2.417853     2.410210     2.402566
      2.394923     2.387280     2.379637     2.371994     2.364350     2.356707     2.349064     2.341421     2.333777     2.326134
      2.318491     2.310848     2.303205     2.295561     2.287918     2.280275     2.272632     2.264988     2.257345     2.249702
      2.242059     2.234416     2.226772     2.219129     2.211486     2.203843     2.196199     2.188556     2.180913     2.173270
      2.165627     2.157983     2.150340     2.142697     2.135054     2.127410     2.119767     2.112124     2.104481     2.096838
      2.089194     2.081551     2.073908     2.066265     2.058621     2.050978     2.043335     2.035692     2.028049     2.020405
      2.012762     2.005119     1.997476     1.989833     1.982190     1.974546     1.966903     1.959260     1.951617     1.943974
      1.936331     1.928688     1.921045     1.913402     1.905759     1.898115     1.890472     1.882829     1.875186     1.867543
      1.859900     1.852257     1.844614     1.836971     1.829327     1.821684     1.814041     1.806398     1.798755     1.791112
      1.783469     1.775826     1.768183     1.760540     1.752896     1.745253     1.737610     1.729967     1.722324     1.714681
      1.707038     1.699395     1.691752     1.684108     1.676465     1.668822     1.661179     1.653536     1.645893     1.638250
      1.630607     1.622964     1.615321     1.607677     1.600034     1.592391     1.584748     1.577105     1.569462     1.561819
      1.554176     1.546533     1.538890     1.531246     1.523603     1.515960     1.508317     1.500674     1.493031     1.485388
      1.477745     1.470102     1.462458     1.454815     1.447172     1.439529     1.431886     1.424243     1.416600     1.408957
      1.401314     1.393671     1.386027     1.378384     1.370741     1.363098     1.355455     1.347812     1.340169     1.332526
      1.324883     1.317240     1.309596     1.301953     1.294310     1.286667     1.279024     1.271381     1.263738     1.256095
      1.248452     1.240808     1.233165     1.225522     1.217879     1.210236     1.202593     1.194950     1.187307     1.179664
      1.172021     1.164377     1.156734     1.149091     1.141448     1.133805     1.126162     1.118519     1.110876     1.103233
      1.095590     1.087946     1.080303     1.072660     1.065017     1.057374     1.049731     1.042088     1.034445     1.026802
      1.019158     1.011515     1.003872     0.996229     0.988586     0.980943     0.973300     0.965657     0.958014     0.950371
      0.942727     0.935084     0.927441     0.919798     0.912155     0.904512     0.896869     0.889226     0.881583     0.873940
      0.866296     0.858653     0.851010     0.843367     0.835724     0.828081     0.820438     0.812795     0.805152     0.797508
      0.789865     0.782222     0.774579     0.766936     0.759293     0.751650     0.744007     0.736364     0.728721     0.721077
      0.713434     0.705791     0.698148     0.690505     0.682862     0.675219     0.667576     0.659933     0.652290     0.644646
      0.637003     0.629360     0.621717     0.614074     0.606431     0.598788     0.591145     0.583502     0.575858     0.568215
      0.560572     0.552929     0.545286     0.537643     0.530000     0.522357     0.514714     0.507071     0.499427     0.491784
      0.484141     0.476498     0.468855     0.461212     0.453569     0.445925     0.438282     0.430639     0.422996     0.415353
      0.407710     0.400067     0.392424     0.384780     0.377137     0.369494     0.361851     0.354208     0.346565     0.338922
      0.331278     0.323635     0.315992     0.308349     0.300706     0.293063     0.285420     0.277777     0.270133     0.262490
      0.254847     0.247204     0.239561     0.231918     0.224275     0.216631     0.208988     0.201345
 NY phased data points follow
  -1.18406E+01  5.51449E+00  4.33898E+00  5.49985E+00 -9.26722E+00 -1.79291E+00  9.82038E+00  1.33725E+01  7.56804E+00 -2.05259E+00
  -5.50901E+00  4.77267E+00  1.28666E+00  5.09035E+00  1.98691E+00  1.76100E+00  7.13490E+00  5.24526E+00 -2.26532E+00 -5.01314E-01
  -1.38828E+01 -1.40065E+00  7.76943E-01  3.52147E+00 -1.00406E+01  5.42826E+00  1.31400E+00  9.89747E+00  5.75369E-01 -6.85247E+00
   4.03236E+00  3.90967E+00  1.88995E+00 -1.66383E+00  6.52938E+00  8.46497E+00 -1.24338E+00  4.41717E+00 -1.48317E-01 -7.47599E+00
  -3.39758E-01  1.11183E+01 -1.38931E+00 -2.70952E+00  2.07114E+00 -6.22392E+00  1.02269E+01  6.30783E-01 -1.21417E+01 -1.94934E+00
  -9.84974E+00 -2.31755E+00 -3.80556E+00  5.42155E+00 -1.28086E+00  3.26750E+00  1.53945E+00 -3.36495E+00  1.95106E+00 -1.00431E+01
  -3.96356E+00 -2.62767E+00 -1.18155E+01  4.45411E+00 -4.81026E+00  1.00644E+00  3.75133E+00  1.17211E+01  9.50285E+00  3.16623E+00
   3.39665E+00  3.89613E-01  8.58773E+00  4.89801E+00 -2.88237E+00  2.82450E+00 -2.39687E+00  4.48150E+00 -4.48983E+00  1.52805E+00
   1.07226E+01 -6.02289E+00 -2.39355E+00  4.23635E+00  1.01307E+01 -1.00746E+00  3.86870E+00 -4.62897E+00  2.41442E+00 -1.16655E+00
  -1.60305E+01 -1.98060E+00  1.30536E+01  3.76579E+00 -8.43467E+00 -7.96835E+00 -8.22593E+00 -1.17676E+00  2.92304E+00  1.82299E+00
   5.15111E+00 -3.72303E+00  7.39891E+00  6.09958E+00  1.43906E+01  1.01750E+01  2.98440E+00 -8.80318E+00  5.90171E+00  8.18303E-01
   6.26460E+00  4.48169E+00 -4.06131E+00 -6.34185E+00 -5.45923E-01 -2.27193E+00 -3.74832E+00 -5.52071E+00  1.55526E+00 -8.78082E-01
   8.75175E+00  8.81182E-01  2.00695E+00  2.46391E+00  5.24590E+00  2.53387E+00  9.52253E-01  5.73454E+00  3.27656E+00  5.21996E+00
   5.26931E+00 -8.02118E-02 -3.23034E+00  4.35668E-02 -3.96239E+00  7.42925E+00 -6.03563E+00  6.54892E+00  1.14755E+00  2.01152E+00
  -3.20658E-01  9.89283E+00 -1.81884E+00 -4.70983E+00  4.39248E+00 -5.11375E+00 -6.10667E+00  2.04616E+00 -1.70570E+00  1.70987E+00
   1.48172E+00  1.06719E+01  1.60636E-01  5.29783E-01  9.01552E+00  4.27986E+00  4.08572E+00  7.87915E+00  1.82020E+00  8.97390E+00
   3.23926E+00  1.02418E+01  1.30466E+00  1.24592E+01 -7.79596E+00 -3.36637E-02 -7.77154E+00  1.69194E+00 -2.56305E+00  3.77139E+00
   5.68259E+00  3.72503E+00  3.83073E+00  3.97425E+00  8.16643E+00 -2.39580E+00  8.18970E-01  6.00116E+00 -1.36035E+00  7.22424E+00
   6.57578E+00  4.32685E+00  4.04836E+00  7.60527E-01  5.79605E+00 -1.16180E+00  5.11241E+00  3.57050E+00  9.27047E+00  4.84286E-01
  -2.55308E+00  1.97430E+00  2.96718E+00  2.63779E-01 -1.57316E+00  3.18437E-01 -8.15233E+00 -5.54146E+00  4.58151E-01 -4.97844E+00
  -3.21679E+00  4.15644E+00 -2.12370E+00  2.83236E+00 -4.83263E+00  2.66055E-01  1.66281E+00  1.32469E+01 -6.92043E+00  9.26830E+00
   2.87202E+00  5.19734E+00 -6.23055E+00 -2.45355E+00 -3.43179E+00  8.49487E+00  4.59678E+00  3.21386E+00 -2.30840E+00 -2.88162E+00
  -1.93919E+00 -6.46582E-01  6.27093E-01 -4.91407E-01  5.04640E-01  5.67940E+00 -1.22237E+00 -1.08845E+00  1.89666E-01  1.49952E+00
   5.97996E+00 -2.21609E+00 -1.46089E+00  1.76590E+00  1.81764E+00  7.11056E+00  8.70933E+00  5.30767E+00  1.44012E+00 -1.05892E-02
   4.27110E+00 -7.73710E+00 -1.24567E+00 -4.49167E+00 -8.80162E+00  6.63328E-01 -2.79802E+00  3.22076E+00 -1.36867E+00 -2.38451E+00
  -6.28093E+00 -2.18563E+00 -1.96603E+00 -2.55102E+00 -8.61024E-01  8.82299E+00  8.84913E-01  2.44002E+00  3.69963E+00  1.59620E+01
   1.28181E+01  2.10955E+01  8.10413E+00  2.15363E+00  1.61935E+00  2.73635E+00  6.37145E+00 -2.61303E+00  1.13904E+00 -1.35945E+00
  -2.27399E+00 -5.26389E-01 -1.18310E+01 -2.01157E+00 -7.65288E+00  2.32183E+00  4.79922E+00 -8.60183E+00 -1.68411E+00 -6.72242E+00
  -5.00723E+00 -7.88121E+00 -2.31996E+00  4.32389E-02  4.32704E+00  7.58897E-01 -1.08633E+01 -2.46571E+00 -4.13890E+00 -2.05210E+00
   4.45602E+00 -1.85637E+00 -4.67244E+00  4.06271E+00 -7.42545E-01  1.35770E+00  5.31439E+00  7.86199E+00 -4.60877E+00 -3.25143E+00
   7.96080E+00  2.81555E+00  7.08027E+00  9.64007E+00 -2.19243E+00 -1.02738E+00 -6.73220E+00 -1.67887E+00 -4.14654E+00 -6.21038E+00
   2.45479E+00 -2.00053E+00 -7.45430E+00 -6.00811E+00 -2.32355E+00 -7.01078E+00 -1.03763E+01 -9.41829E+00 -1.23459E+01 -6.23445E+00
  -7.60800E+00 -5.95523E+00 -7.09597E+00 -2.82982E+00 -4.60714E+00 -3.33300E+00 -5.40833E-01 -1.58257E+00 -1.48885E+01 -2.76499E+00
  -2.16390E+00 -1.54395E+00 -4.03752E+00 -8.12256E+00 -5.90440E+00  3.84696E-01 -8.90051E+00 -5.91888E+00 -4.95861E+00 -7.88482E+00
   1.04145E+00  1.79839E-03  5.38601E+00  1.94983E+00  7.09741E-02  1.37288E+00 -1.62831E+00  1.33648E+00  8.09542E+00  1.21177E+01
   8.78851E+00 -7.30320E-01  7.70818E+00  1.73959E+00  9.01042E+00  1.18723E+01  2.02268E+00  1.13103E+00  3.57986E-01  3.30077E+00
   2.86252E-01  3.11093E+00  4.34537E+00  3.27136E-01  5.59094E-01 -3.67116E+00 -4.28338E+00 -8.77352E+00 -5.51828E-01 -8.44919E+00
   2.76261E+00  4.54824E-01 -5.44158E+00 -4.83613E+00 -1.35704E-01  1.07807E+01  5.04849E+00 -2.34711E+00  6.16490E-03 -1.72075E+00
   3.02998E+00  8.66518E-01  1.10497E+00  2.13005E+00 -5.72511E+00  5.29576E+00  1.02794E+01  7.34249E+00  1.14866E+00  7.02652E+00
   5.10282E+00  9.34090E+00  8.27475E+00  3.01531E+00  2.22726E+00 -5.26357E+00  1.61299E+00  4.54888E+00 -2.66168E+00  7.60289E+00
   4.16776E+00  3.00907E+00 -2.45581E+00  3.98420E+00 -6.77436E-01  1.24357E+01  6.24649E+00  6.16099E+00 -3.11523E+00 -9.24639E+00
  -6.51163E+00  5.45624E+00 -1.68900E+00  1.51247E+00  4.31301E+00 -2.93662E+00 -3.24983E+00 -4.31972E+00 -6.28095E+00 -9.73499E+00
  -3.70298E+00  1.07056E+00 -3.59404E+00  6.92308E-01  3.98966E+00  7.72498E+00 -2.39185E+00  5.37703E+00  3.49785E-01  2.79785E+00
  -2.07387E-01  5.20638E+00 -5.10831E+00 -5.09761E+00  1.06044E+00 -5.63855E+00 -1.53076E+00 -8.74044E+00 -3.77558E+00  8.80127E-01
   5.29599E+00  8.37582E+00  2.71359E+00  1.05963E+00  3.67606E+00  2.19089E-01  4.95597E+00 -1.88201E-01 -5.66005E+00  1.64345E+00
  -2.76015E+00  1.40390E+00 -1.67453E+00  3.21728E+00  2.44383E+00  4.19921E+00 -5.46614E+00  7.14823E+00  2.05121E+00 -3.36793E+00
   5.07331E+00 -1.66914E-01 -2.30874E+00 -6.85086E+00  1.83400E+00  8.00523E+00 -1.38885E+00  4.83797E+00  1.66148E+00  3.78026E+00
  -1.00457E+01 -1.17499E+00 -5.59560E+00 -5.65444E+00 -2.02242E+00  9.27337E+00 -3.79653E+00  5.42448E-01  1.93147E+00  4.93862E+00
   3.71049E+00  1.76778E+00  3.66086E+00 -3.04330E+00  1.47262E+00 -4.05124E+00  4.34201E+00  1.74330E+00 -7.69755E+00  4.18717E-01
  -3.09949E+00 -1.91423E+00 -1.74637E-01 -7.36622E+00 -1.72599E+00 -5.35936E+00 -3.97327E+00  1.08953E+00
 NY points of the fit to the data follow
   6.31370E-01  6.49200E-01  6.80855E-01  7.56879E-01  9.55592E-01  1.28310E+00  1.78388E+00  2.46714E+00  3.12110E+00  3.39274E+00
   3.03288E+00  2.20077E+00  1.39837E+00  9.68953E-01  8.11603E-01  7.06454E-01  6.51051E-01  6.27818E-01  6.09521E-01  6.13475E-01
   6.60400E-01  7.37059E-01  7.94742E-01  7.94590E-01  7.81275E-01  8.60567E-01  1.04358E+00  1.35535E+00  1.86943E+00  2.52724E+00
   3.05449E+00  3.09010E+00  2.58817E+00  1.90200E+00  1.34889E+00  9.04213E-01  4.88267E-01  2.51183E-01  2.64919E-01  4.40024E-01
   6.52713E-01  7.91146E-01  7.95247E-01  6.89743E-01  5.82695E-01  5.36041E-01  5.20907E-01  5.13161E-01  5.05594E-01  4.93039E-01
   4.82229E-01  4.94832E-01  5.31843E-01  5.71222E-01  5.88941E-01  5.71885E-01  5.32444E-01  4.97461E-01  4.74421E-01  4.61652E-01
   4.60355E-01  4.64757E-01  4.70236E-01  4.77058E-01  4.90513E-01  5.03944E-01  5.06308E-01  4.92114E-01  4.62174E-01  4.27547E-01
   4.09194E-01  4.20100E-01  4.60330E-01  5.30029E-01  6.10981E-01  6.62619E-01  6.51435E-01  5.66266E-01  4.44592E-01  3.57107E-01
   3.44813E-01  4.01672E-01  4.99894E-01  6.20010E-01  7.51615E-01  8.72274E-01  9.35595E-01  8.89767E-01  7.39268E-01  5.72819E-01
   4.73125E-01  4.27125E-01  3.74851E-01  3.13574E-01  2.78918E-01  3.00861E-01  4.03797E-01  5.97735E-01  9.93852E-01  1.75194E+00
   2.88983E+00  4.63115E+00  6.83814E+00  8.61969E+00  8.82423E+00  7.02769E+00  4.26245E+00  2.14024E+00  1.22944E+00  8.70624E-01
   5.71189E-01  4.37628E-01  3.85818E-01  3.59653E-01  3.42631E-01  3.30568E-01  3.21365E-01  3.10359E-01  2.92461E-01  2.74897E-01
   2.84481E-01  4.04904E-01  7.72250E-01  1.39385E+00  2.36067E+00  3.63807E+00  4.78479E+00  5.15618E+00  4.40899E+00  2.97474E+00
   1.74969E+00  1.20272E+00  1.02054E+00  7.84363E-01  4.84849E-01  1.34828E-01 -1.67315E-01 -2.68488E-01 -1.37434E-01  1.31493E-01
   4.15302E-01  6.18138E-01  6.82215E-01  6.30969E-01  5.39975E-01  4.59780E-01  4.02744E-01  3.54419E-01  3.02799E-01  2.60666E-01
   2.26014E-01  1.94881E-01  1.67940E-01  1.52409E-01  1.51472E-01  1.58903E-01  1.59135E-01  1.35880E-01  6.64191E-02 -5.40449E-02
  -1.76451E-01 -2.33339E-01 -1.67173E-01  3.74680E-03  1.61829E-01  1.94490E-01  9.41465E-02 -5.30792E-02 -1.63444E-01 -2.11474E-01
  -2.37002E-01 -2.84505E-01 -3.49380E-01 -4.27437E-01 -5.24491E-01 -6.06959E-01 -6.22802E-01 -5.43197E-01 -4.20950E-01 -3.72549E-01
  -4.45702E-01 -5.52766E-01 -5.80933E-01 -5.31321E-01 -4.97820E-01 -5.17909E-01 -5.09410E-01 -3.50290E-01 -2.39778E-02  3.61154E-01
   6.43247E-01  7.27535E-01  6.42011E-01  4.65264E-01  2.78477E-01  1.25368E-01  2.61408E-03 -9.58410E-02 -1.32955E-01 -5.39672E-02
   1.21574E-01  3.22867E-01  4.95774E-01  6.37612E-01  7.25226E-01  6.65137E-01  4.63188E-01  2.07425E-01 -3.49661E-02 -2.35603E-01
  -3.82218E-01 -4.04169E-01 -2.50439E-01  1.10090E-01  6.22354E-01  1.07922E+00  1.20706E+00  8.35265E-01  1.08380E-01 -6.39671E-01
  -1.20448E+00 -1.54679E+00 -1.60176E+00 -1.24666E+00 -5.66449E-01  1.22079E-01  5.19465E-01  5.87333E-01  4.83876E-01  3.03196E-01
   7.85444E-02 -8.88687E-02 -7.71160E-02  1.25742E-01  4.12749E-01  6.45224E-01  7.41416E-01  6.70029E-01  3.97312E-01 -3.01675E-02
  -4.44257E-01 -6.70767E-01 -6.49388E-01 -4.28242E-01 -9.12312E-02  2.63424E-01  5.10046E-01  5.57560E-01  4.31289E-01  2.33040E-01
   4.62922E-02 -5.62755E-02 -1.73908E-02  1.56883E-01  4.49114E-01  1.12194E+00  2.41440E+00  4.46699E+00  7.63755E+00  1.14235E+01
   1.41400E+01  1.39361E+01  1.05076E+01  5.93433E+00  2.76730E+00  1.47506E+00  8.39325E-01  3.31046E-01  1.12830E-01 -7.11754E-03
  -9.41656E-02 -1.31044E-01 -1.10527E-01 -5.62371E-02  4.36200E-03  4.14816E-02  3.90496E-02  4.31262E-03 -4.62517E-02 -1.03484E-01
  -1.57637E-01 -1.97973E-01 -2.21236E-01 -2.29897E-01 -2.28851E-01 -2.24014E-01 -2.19569E-01 -2.18678E-01 -2.23352E-01 -2.31066E-01
  -2.38967E-01 -2.47574E-01 -2.57589E-01 -2.67509E-01 -2.76109E-01 -2.83640E-01 -2.90234E-01 -2.95676E-01 -3.00465E-01 -3.05161E-01
  -3.09638E-01 -3.13912E-01 -3.17899E-01 -3.21656E-01 -3.25485E-01 -3.29728E-01 -3.34348E-01 -3.38964E-01 -3.43266E-01 -3.47273E-01
  -3.51109E-01 -3.54904E-01 -3.58726E-01 -3.62526E-01 -3.66211E-01 -3.69743E-01 -3.73165E-01 -3.76559E-01 -3.79946E-01 -3.83281E-01
  -3.86498E-01 -3.89604E-01 -3.92649E-01 -3.95673E-01 -3.98639E-01 -4.01485E-01 -4.04180E-01 -4.06762E-01 -4.09286E-01 -4.11755E-01
  -4.14099E-01 -4.16241E-01 -4.18118E-01 -4.19666E-01 -4.20691E-01 -4.20723E-01 -4.18811E-01 -4.13277E-01 -4.01272E-01 -3.78126E-01
  -3.36528E-01 -2.65777E-01 -1.51331E-01  2.49467E-02  2.83508E-01  6.44443E-01  1.12333E+00  1.72590E+00  2.44257E+00  3.24438E+00
   4.08194E+00  4.88876E+00  5.58918E+00  6.10964E+00  6.39143E+00  6.40158E+00  6.13930E+00  5.63620E+00  4.95008E+00  4.15407E+00
   3.32394E+00  2.52658E+00  1.81203E+00  1.21009E+00  7.31118E-01  3.69997E-01  1.11489E-01 -6.43960E-02 -1.78074E-01 -2.47621E-01
  -2.87465E-01 -3.08221E-01 -3.17118E-01 -3.18716E-01 -3.15622E-01 -3.09156E-01 -2.99853E-01 -2.87821E-01 -2.72917E-01 -2.54832E-01
  -2.33138E-01 -2.07359E-01 -1.77019E-01 -1.41680E-01 -1.00919E-01 -5.43375E-02 -1.57496E-03  5.76078E-02  1.23286E-01  1.95332E-01
   2.73432E-01  3.57051E-01  4.45411E-01  5.37424E-01  6.31703E-01  7.26590E-01  8.20231E-01  9.10616E-01  9.95633E-01  1.07311E+00
   1.14095E+00  1.19719E+00  1.24020E+00  1.26866E+00  1.28168E+00  1.27877E+00  1.25994E+00  1.22566E+00  1.17691E+00  1.11502E+00
   1.04165E+00  9.58670E-01  8.68092E-01  7.72012E-01  6.72513E-01  5.71547E-01  4.70875E-01  3.72021E-01  2.76281E-01  1.84707E-01
   9.80990E-02  1.69818E-02 -5.83548E-02 -1.27823E-01 -1.91466E-01 -2.49447E-01 -3.02028E-01 -3.49569E-01 -3.92474E-01 -4.31160E-01
  -4.66014E-01 -4.97415E-01 -5.25729E-01 -5.51326E-01 -5.74539E-01 -5.95657E-01 -6.14913E-01 -6.32524E-01 -6.48690E-01 -6.63611E-01
  -6.77444E-01 -6.90314E-01 -7.02311E-01 -7.13531E-01 -7.24071E-01 -7.34028E-01 -7.43466E-01 -7.52425E-01 -7.60936E-01 -7.69049E-01
  -7.76817E-01 -7.84290E-01 -7.91485E-01 -7.98412E-01 -8.05081E-01 -8.11527E-01 -8.17784E-01 -8.23877E-01 -8.29802E-01 -8.35560E-01
  -8.41160E-01 -8.46633E-01 -8.52000E-01 -8.57266E-01 -8.62419E-01 -8.67459E-01 -8.72397E-01 -8.77263E-01 -8.82065E-01 -8.86800E-01
  -8.91450E-01 -8.96021E-01 -9.00528E-01 -9.04994E-01 -9.09417E-01 -9.13785E-01 -9.18087E-01 -9.22334E-01 -9.26545E-01 -9.30735E-01
  -9.34890E-01 -9.39000E-01 -9.43056E-01 -9.47078E-01 -9.51081E-01 -9.55069E-01 -9.59026E-01 -9.62941E-01 -9.66814E-01 -9.70669E-01
  -9.74515E-01 -9.78348E-01 -9.82148E-01 -9.85909E-01 -9.89639E-01 -9.93362E-01 -9.97078E-01 -1.00078E+00
 NY background values follow
     5.407E-01    5.375E-01    5.343E-01    5.312E-01    5.280E-01    5.248E-01    5.217E-01    5.185E-01    5.153E-01    5.122E-01
     5.090E-01    5.058E-01    5.027E-01    4.995E-01    4.964E-01    4.932E-01    4.900E-01    4.869E-01    4.837E-01    4.805E-01
     4.774E-01    4.742E-01    4.710E-01    4.679E-01    4.647E-01    4.615E-01    4.584E-01    4.552E-01    4.520E-01    4.489E-01
     4.457E-01    4.425E-01    4.394E-01    4.362E-01    4.330E-01    4.299E-01    4.267E-01    4.235E-01    4.204E-01    4.172E-01
     4.141E-01    4.109E-01    4.077E-01    4.046E-01    4.014E-01    3.982E-01    3.951E-01    3.919E-01    3.887E-01    3.856E-01
     3.824E-01    3.792E-01    3.761E-01    3.729E-01    3.697E-01    3.666E-01    3.634E-01    3.602E-01    3.571E-01    3.539E-01
     3.507E-01    3.476E-01    3.444E-01    3.413E-01    3.381E-01    3.349E-01    3.318E-01    3.286E-01    3.254E-01    3.223E-01
     3.191E-01    3.159E-01    3.128E-01    3.096E-01    3.064E-01    3.033E-01    3.001E-01    2.969E-01    2.938E-01    2.906E-01
     2.874E-01    2.843E-01    2.811E-01    2.779E-01    2.748E-01    2.716E-01    2.684E-01    2.653E-01    2.621E-01    2.590E-01
     2.558E-01    2.526E-01    2.495E-01    2.463E-01    2.431E-01    2.400E-01    2.368E-01    2.336E-01    2.305E-01    2.273E-01
     2.241E-01    2.210E-01    2.178E-01    2.146E-01    2.115E-01    2.083E-01    2.051E-01    2.020E-01    1.988E-01    1.956E-01
     1.925E-01    1.893E-01    1.862E-01    1.830E-01    1.798E-01    1.767E-01    1.735E-01    1.703E-01    1.672E-01    1.640E-01
     1.608E-01    1.577E-01    1.545E-01    1.513E-01    1.482E-01    1.450E-01    1.418E-01    1.387E-01    1.355E-01    1.323E-01
     1.292E-01    1.260E-01    1.228E-01    1.197E-01    1.165E-01    1.133E-01    1.102E-01    1.070E-01    1.038E-01    1.007E-01
     9.752E-02    9.435E-02    9.119E-02    8.802E-02    8.486E-02    8.169E-02    7.853E-02    7.536E-02    7.219E-02    6.903E-02
     6.586E-02    6.270E-02    5.953E-02    5.637E-02    5.320E-02    5.004E-02    4.687E-02    4.370E-02    4.054E-02    3.737E-02
     3.421E-02    3.104E-02    2.788E-02    2.471E-02    2.155E-02    1.838E-02    1.521E-02    1.205E-02    8.883E-03    5.718E-03
     2.552E-03   -6.135E-04   -3.779E-03   -6.945E-03   -1.011E-02   -1.328E-02   -1.644E-02   -1.961E-02   -2.277E-02   -2.594E-02
    -2.910E-02   -3.227E-02   -3.544E-02   -3.860E-02   -4.177E-02   -4.493E-02   -4.810E-02   -5.126E-02   -5.443E-02   -5.760E-02
    -6.076E-02   -6.393E-02   -6.709E-02   -7.026E-02   -7.342E-02   -7.659E-02   -7.976E-02   -8.292E-02   -8.609E-02   -8.925E-02
    -9.242E-02   -9.559E-02   -9.875E-02   -1.019E-01   -1.051E-01   -1.082E-01   -1.114E-01   -1.146E-01   -1.177E-01   -1.209E-01
    -1.241E-01   -1.272E-01   -1.304E-01   -1.336E-01   -1.367E-01   -1.399E-01   -1.431E-01   -1.462E-01   -1.494E-01   -1.526E-01
    -1.557E-01   -1.589E-01   -1.621E-01   -1.652E-01   -1.684E-01   -1.716E-01   -1.747E-01   -1.779E-01   -1.811E-01   -1.842E-01
    -1.874E-01   -1.906E-01   -1.937E-01   -1.969E-01   -2.001E-01   -2.032E-01   -2.064E-01   -2.096E-01   -2.127E-01   -2.159E-01
    -2.191E-01   -2.222E-01   -2.254E-01   -2.285E-01   -2.317E-01   -2.349E-01   -2.380E-01   -2.412E-01   -2.444E-01   -2.475E-01
    -2.507E-01   -2.539E-01   -2.570E-01   -2.602E-01   -2.634E-01   -2.665E-01   -2.697E-01   -2.729E-01   -2.760E-01   -2.792E-01
    -2.824E-01   -2.855E-01   -2.887E-01   -2.919E-01   -2.950E-01   -2.982E-01   -3.014E-01   -3.045E-01   -3.077E-01   -3.109E-01
    -3.140E-01   -3.172E-01   -3.204E-01   -3.235E-01   -3.267E-01   -3.298E-01   -3.330E-01   -3.362E-01   -3.393E-01   -3.425E-01
    -3.457E-01   -3.488E-01   -3.520E-01   -3.552E-01   -3.583E-01   -3.615E-01   -3.647E-01   -3.678E-01   -3.710E-01   -3.742E-01
    -3.773E-01   -3.805E-01   -3.837E-01   -3.868E-01   -3.900E-01   -3.932E-01   -3.963E-01   -3.995E-01   -4.027E-01   -4.058E-01
    -4.090E-01   -4.122E-01   -4.153E-01   -4.185E-01   -4.216E-01   -4.248E-01   -4.280E-01   -4.311E-01   -4.343E-01   -4.375E-01
    -4.406E-01   -4.438E-01   -4.470E-01   -4.501E-01   -4.533E-01   -4.565E-01   -4.596E-01   -4.628E-01   -4.660E-01   -4.691E-01
    -4.723E-01   -4.755E-01   -4.786E-01   -4.818E-01   -4.850E-01   -4.881E-01   -4.913E-01   -4.944E-01   -4.976E-01   -5.008E-01
    -5.039E-01   -5.071E-01   -5.103E-01   -5.134E-01   -5.166E-01   -5.198E-01   -5.229E-01   -5.261E-01   -5.293E-01   -5.324E-01
    -5.356E-01   -5.388E-01   -5.419E-01   -5.451E-01   -5.483E-01   -5.514E-01   -5.546E-01   -5.577E-01   -5.609E-01   -5.641E-01
    -5.672E-01   -5.704E-01   -5.736E-01   -5.767E-01   -5.799E-01   -5.831E-01   -5.862E-01   -5.894E-01   -5.926E-01   -5.957E-01
    -5.989E-01   -6.021E-01   -6.052E-01   -6.084E-01   -6.115E-01   -6.147E-01   -6.179E-01   -6.210E-01   -6.242E-01   -6.274E-01
    -6.305E-01   -6.337E-01   -6.369E-01   -6.400E-01   -6.432E-01   -6.464E-01   -6.495E-01   -6.527E-01   -6.559E-01   -6.590E-01
    -6.622E-01   -6.653E-01   -6.685E-01   -6.717E-01   -6.748E-01   -6.780E-01   -6.812E-01   -6.843E-01   -6.875E-01   -6.907E-01
    -6.938E-01   -6.970E-01   -7.002E-01   -7.033E-01   -7.065E-01   -7.097E-01   -7.128E-01   -7.160E-01   -7.191E-01   -7.223E-01
    -7.255E-01   -7.286E-01   -7.318E-01   -7.350E-01   -7.381E-01   -7.413E-01   -7.445E-01   -7.476E-01   -7.508E-01   -7.540E-01
    -7.571E-01   -7.603E-01   -7.634E-01   -7.666E-01   -7.698E-01   -7.729E-01   -7.761E-01   -7.793E-01   -7.824E-01   -7.856E-01
    -7.888E-01   -7.919E-01   -7.951E-01   -7.983E-01   -8.014E-01   -8.046E-01   -8.078E-01   -8.109E-01   -8.141E-01   -8.172E-01
    -8.204E-01   -8.236E-01   -8.267E-01   -8.299E-01   -8.331E-01   -8.362E-01   -8.394E-01   -8.426E-01   -8.457E-01   -8.489E-01
    -8.521E-01   -8.552E-01   -8.584E-01   -8.615E-01   -8.647E-01   -8.679E-01   -8.710E-01   -8.742E-01   -8.774E-01   -8.805E-01
    -8.837E-01   -8.869E-01   -8.900E-01   -8.932E-01   -8.964E-01   -8.995E-01   -9.027E-01   -9.058E-01   -9.090E-01   -9.122E-01
    -9.153E-01   -9.185E-01   -9.217E-01   -9.248E-01   -9.280E-01   -9.312E-01   -9.343E-01   -9.375E-01   -9.407E-01   -9.438E-01
    -9.470E-01   -9.502E-01   -9.533E-01   -9.565E-01   -9.596E-01   -9.628E-01   -9.660E-01   -9.691E-01   -9.723E-01   -9.755E-01
    -9.786E-01   -9.818E-01   -9.850E-01   -9.881E-01   -9.913E-01   -9.945E-01   -9.976E-01   -1.001E+00   -1.004E+00   -1.007E+00
    -1.010E+00   -1.013E+00   -1.017E+00   -1.020E+00   -1.023E+00   -1.026E+00   -1.029E+00   -1.032E+00
 Asp      Conc. = 2.80E+01
