 LCModel (Version 6.3-1L) Copyright: S.W. Provencher.          Ref.: Magn. Reson. Med. 30:672-679 (1993).                
 Slice#3 Row#5 Col#7  PD_24_press_2_raw_act
 36 lines in following concentration table = NCONC+1
    Conc.  %SD /Cr+PCr  Metabolite                                         
    0.000 999%   0.000 Ala                                                 
  107.294  87%   0.314 Asp                                                 
   69.137 383%   0.202 Cr                                                  
  272.362  99%   0.798 PCr                                                 
   54.288 103%   0.159 GABA                                                
   73.018  78%   0.214 Glc                                                 
  407.529  88%   1.193 Gln                                                 
  986.357  43%   2.888 Glu                                                 
  288.714  18%   0.845 GPC                                                 
    0.000 999%   0.000 PCh                                                 
  191.115  73%   0.560 GSH                                                 
  127.929 337%   0.375 Ins                                                 
   86.975 221%   0.255 Lac                                                 
  881.785  20%   2.582 NAA                                                 
   41.847 388%   0.123 NAAG                                                
   15.639 116% 4.6E-02 Scyllo                                              
   83.108 111%   0.243 Tau                                                 
    0.000 999%   0.000 -CrCH2                                              
  288.714  18%   0.845 GPC+PCh                                             
  923.632  21%   2.705 NAA+NAAG                                            
  341.499  33%   1.000 Cr+PCr                                              
 1.39E+03  40%   4.082 Glu+Gln                                             
    0.000 999%   0.000 Lip13a                                              
  137.473 405%   0.403 Lip13b                                              
    0.000 999%   0.000 Lip09                                               
  212.005 244%   0.621 MM09                                                
    0.000 999%   0.000 Lip20                                               
  612.963 154%   1.795 MM20                                                
   85.485 490%   0.250 MM12                                                
 1.82E+03  44%   5.333 MM14                                                
  926.463  61%   2.713 MM17                                                
  137.473 950%   0.403 Lip13a+Lip13b                                       
 2.04E+03  52%   5.986 MM14+Lip13a+Lip13b+MM12                             
  212.005 198%   0.621 MM09+Lip09                                          
  612.963 149%   1.795 MM20+Lip20                                          
   6 lines in following misc. output table
  FWHM = 0.031 ppm    S/N =   2                                            
  Data shift = 0.015 ppm                                                   
  Ph:  10 deg      27.9 deg/ppm                                            
  alphaB,S = 3.1E+00,   1.2E+01                                            
   14 spline knots.   Ns = 5(1)                                            
  ( 6) 3 infls.   ( 6) 2 extrs.                                            
  498 points on ppm-axis = NY
      4.000000     3.992357     3.984714     3.977070     3.969427     3.961784     3.954141     3.946497     3.938854     3.931211
      3.923568     3.915925     3.908281     3.900638     3.892995     3.885352     3.877708     3.870065     3.862422     3.854779
      3.847136     3.839492     3.831849     3.824206     3.816563     3.808919     3.801276     3.793633     3.785990     3.778347
      3.770703     3.763060     3.755417     3.747774     3.740130     3.732487     3.724844     3.717201     3.709558     3.701914
      3.694271     3.686628     3.678985     3.671341     3.663698     3.656055     3.648412     3.640769     3.633125     3.625482
      3.617839     3.610196     3.602552     3.594909     3.587266     3.579623     3.571980     3.564336     3.556693     3.549050
      3.541407     3.533763     3.526120     3.518477     3.510834     3.503191     3.495547     3.487904     3.480261     3.472618
      3.464974     3.457331     3.449688     3.442045     3.434402     3.426758     3.419115     3.411472     3.403829     3.396185
      3.388542     3.380899     3.373256     3.365613     3.357969     3.350326     3.342683     3.335040     3.327396     3.319753
      3.312110     3.304467     3.296824     3.289180     3.281537     3.273894     3.266251     3.258607     3.250964     3.243321
      3.235678     3.228034     3.220391     3.212748     3.205105     3.197462     3.189818     3.182175     3.174532     3.166889
      3.159245     3.151602     3.143959     3.136316     3.128673     3.121029     3.113386     3.105743     3.098100     3.090456
      3.082813     3.075170     3.067527     3.059884     3.052240     3.044597     3.036954     3.029311     3.021667     3.014024
      3.006381     2.998738     2.991095     2.983451     2.975808     2.968165     2.960522     2.952878     2.945235     2.937592
      2.929949     2.922306     2.914662     2.907019     2.899376     2.891733     2.884089     2.876446     2.868803     2.861160
      2.853517     2.845873     2.838230     2.830587     2.822944     2.815300     2.807657     2.800014     2.792371     2.784728
      2.777084     2.769441     2.761798     2.754155     2.746511     2.738868     2.731225     2.723582     2.715939     2.708295
      2.700652     2.693009     2.685366     2.677722     2.670079     2.662436     2.654793     2.647150     2.639506     2.631863
      2.624220     2.616577     2.608933     2.601290     2.593647     2.586004     2.578361     2.570717     2.563074     2.555431
      2.547788     2.540144     2.532501     2.524858     2.517215     2.509572     2.501928     2.494285     2.486642     2.478999
      2.471355     2.463712     2.456069     2.448426     2.440783     2.433139     2.425496     2.417853     2.410210     2.402566
      2.394923     2.387280     2.379637     2.371994     2.364350     2.356707     2.349064     2.341421     2.333777     2.326134
      2.318491     2.310848     2.303205     2.295561     2.287918     2.280275     2.272632     2.264988     2.257345     2.249702
      2.242059     2.234416     2.226772     2.219129     2.211486     2.203843     2.196199     2.188556     2.180913     2.173270
      2.165627     2.157983     2.150340     2.142697     2.135054     2.127410     2.119767     2.112124     2.104481     2.096838
      2.089194     2.081551     2.073908     2.066265     2.058621     2.050978     2.043335     2.035692     2.028049     2.020405
      2.012762     2.005119     1.997476     1.989833     1.982190     1.974546     1.966903     1.959260     1.951617     1.943974
      1.936331     1.928688     1.921045     1.913402     1.905759     1.898115     1.890472     1.882829     1.875186     1.867543
      1.859900     1.852257     1.844614     1.836971     1.829327     1.821684     1.814041     1.806398     1.798755     1.791112
      1.783469     1.775826     1.768183     1.760540     1.752896     1.745253     1.737610     1.729967     1.722324     1.714681
      1.707038     1.699395     1.691752     1.684108     1.676465     1.668822     1.661179     1.653536     1.645893     1.638250
      1.630607     1.622964     1.615321     1.607677     1.600034     1.592391     1.584748     1.577105     1.569462     1.561819
      1.554176     1.546533     1.538890     1.531246     1.523603     1.515960     1.508317     1.500674     1.493031     1.485388
      1.477745     1.470102     1.462458     1.454815     1.447172     1.439529     1.431886     1.424243     1.416600     1.408957
      1.401314     1.393671     1.386027     1.378384     1.370741     1.363098     1.355455     1.347812     1.340169     1.332526
      1.324883     1.317240     1.309596     1.301953     1.294310     1.286667     1.279024     1.271381     1.263738     1.256095
      1.248452     1.240808     1.233165     1.225522     1.217879     1.210236     1.202593     1.194950     1.187307     1.179664
      1.172021     1.164377     1.156734     1.149091     1.141448     1.133805     1.126162     1.118519     1.110876     1.103233
      1.095590     1.087946     1.080303     1.072660     1.065017     1.057374     1.049731     1.042088     1.034445     1.026802
      1.019158     1.011515     1.003872     0.996229     0.988586     0.980943     0.973300     0.965657     0.958014     0.950371
      0.942727     0.935084     0.927441     0.919798     0.912155     0.904512     0.896869     0.889226     0.881583     0.873940
      0.866296     0.858653     0.851010     0.843367     0.835724     0.828081     0.820438     0.812795     0.805152     0.797508
      0.789865     0.782222     0.774579     0.766936     0.759293     0.751650     0.744007     0.736364     0.728721     0.721077
      0.713434     0.705791     0.698148     0.690505     0.682862     0.675219     0.667576     0.659933     0.652290     0.644646
      0.637003     0.629360     0.621717     0.614074     0.606431     0.598788     0.591145     0.583502     0.575858     0.568215
      0.560572     0.552929     0.545286     0.537643     0.530000     0.522357     0.514714     0.507071     0.499427     0.491784
      0.484141     0.476498     0.468855     0.461212     0.453569     0.445925     0.438282     0.430639     0.422996     0.415353
      0.407710     0.400067     0.392424     0.384780     0.377137     0.369494     0.361851     0.354208     0.346565     0.338922
      0.331278     0.323635     0.315992     0.308349     0.300706     0.293063     0.285420     0.277777     0.270133     0.262490
      0.254847     0.247204     0.239561     0.231918     0.224275     0.216631     0.208988     0.201345
 NY phased data points follow
  -3.50871E+00 -3.83250E+00  8.10080E+00  1.10814E+01  1.07717E+01  2.29496E+01  5.16449E+00  1.99606E+01  1.63859E+01  1.50301E+01
   8.48254E+00  3.30713E+01 -8.08097E+00  8.02823E+00 -3.10284E+01  5.43163E-01  1.49199E+00 -7.66093E+00 -1.90807E-02 -1.80752E+00
  -8.76164E+00 -1.78199E+01 -1.14195E+01 -6.90356E+00 -1.52085E+01  5.05981E+00  6.39324E+00 -2.02034E+01 -3.78593E+00 -7.07538E+00
  -1.22893E+01  9.03998E+00 -1.35812E+01 -1.02571E+01 -2.57643E+01 -1.80384E+01 -1.95302E+01 -1.34997E+01 -1.93691E+01 -9.06166E+00
  -1.77685E+01  6.57289E+00 -3.89707E+01 -3.15889E+01 -2.39431E+01 -2.14474E+01 -3.98618E+01 -2.90732E+01 -3.16316E+01 -2.20180E+01
  -1.36248E+01 -1.52070E+01 -2.15422E+01 -2.36686E+01 -2.96984E+01 -1.56581E+01 -4.71763E+01 -2.07414E+01 -4.03583E+01 -2.21974E+01
  -3.46111E+01 -4.07625E+00 -5.51641E+01 -3.72015E+01 -6.21692E+01 -3.74487E+01 -5.34008E+01 -4.39865E+01 -4.42777E+01 -3.72032E+01
  -4.77525E+01 -4.16502E+01 -3.84846E+01 -4.27784E+01 -4.11313E+01 -3.25819E+01 -4.82257E+01 -4.21417E+01 -5.23984E+01 -4.32691E+01
  -4.98947E+01 -5.12808E+01 -4.86259E+01 -5.58232E+01 -4.45007E+01 -3.55310E+01 -7.12299E+01 -3.85489E+01 -5.22965E+01 -4.33875E+01
  -5.22016E+01 -4.73059E+01 -5.06066E+01 -5.09242E+01 -5.38804E+01 -3.93575E+01 -4.25405E+01 -4.49828E+01 -5.09466E+01 -3.30249E+01
  -2.90020E+01 -2.14959E+01 -5.66508E+00 -1.98627E+01 -2.39820E+01 -3.65018E+01 -4.81886E+01 -4.91631E+01 -6.45681E+01 -6.55144E+01
  -6.96023E+01 -6.28664E+01 -7.00235E+01 -6.64251E+01 -6.95381E+01 -6.69237E+01 -7.23140E+01 -6.20120E+01 -6.52760E+01 -6.27295E+01
  -7.01802E+01 -6.75724E+01 -6.96183E+01 -7.68962E+01 -5.79670E+01 -4.13941E+01 -5.56792E+01 -5.59064E+01 -5.75550E+01 -8.18424E+01
  -6.99346E+01 -6.72678E+01 -7.21435E+01 -5.97352E+01 -5.36949E+01 -6.25756E+01 -6.94253E+01 -6.87724E+01 -6.42296E+01 -7.48866E+01
  -7.69402E+01 -6.47424E+01 -9.17042E+01 -6.56983E+01 -8.58067E+01 -7.75640E+01 -6.27730E+01 -7.14603E+01 -6.71603E+01 -6.06101E+01
  -8.45182E+01 -6.78897E+01 -6.94540E+01 -5.16424E+01 -7.61182E+01 -5.86660E+01 -6.87939E+01 -9.42274E+01 -6.06974E+01 -8.29802E+01
  -8.05652E+01 -7.34170E+01 -7.54102E+01 -8.56473E+01 -7.46338E+01 -6.36664E+01 -9.52439E+01 -6.19985E+01 -8.46855E+01 -9.07063E+01
  -9.46506E+01 -8.08305E+01 -9.42213E+01 -1.03635E+02 -8.22154E+01 -7.69474E+01 -8.61621E+01 -7.53951E+01 -9.88297E+01 -8.93318E+01
  -8.45247E+01 -8.28980E+01 -6.28354E+01 -7.93893E+01 -9.64463E+01 -8.03993E+01 -9.22617E+01 -7.82316E+01 -9.73571E+01 -7.82338E+01
  -7.60938E+01 -8.37695E+01 -9.38167E+01 -8.12564E+01 -9.17653E+01 -6.41619E+01 -6.85554E+01 -8.68180E+01 -7.73327E+01 -8.05399E+01
  -7.50422E+01 -8.18730E+01 -7.88967E+01 -8.75109E+01 -8.23077E+01 -8.41980E+01 -9.79104E+01 -8.60832E+01 -8.70343E+01 -8.70425E+01
  -7.54891E+01 -7.78724E+01 -7.61778E+01 -7.41451E+01 -6.82883E+01 -6.95814E+01 -7.32026E+01 -7.12693E+01 -7.18066E+01 -7.95862E+01
  -1.03763E+02 -9.84260E+01 -9.33895E+01 -7.30391E+01 -8.07792E+01 -8.27430E+01 -8.08885E+01 -7.85155E+01 -1.00275E+02 -8.11884E+01
  -7.26118E+01 -6.98070E+01 -8.15379E+01 -8.92388E+01 -8.70819E+01 -7.84338E+01 -8.91566E+01 -9.81756E+01 -7.55859E+01 -8.57863E+01
  -9.51005E+01 -7.20399E+01 -8.19587E+01 -8.18634E+01 -6.14889E+01 -8.24248E+01 -8.33967E+01 -6.80787E+01 -8.10705E+01 -6.47409E+01
  -4.82626E+01 -7.34863E+01 -7.57741E+01 -8.33751E+01 -7.54813E+01 -6.74184E+01 -8.27374E+01 -6.17815E+01 -3.27060E+01 -2.59332E+01
  -6.00961E+01 -3.38460E+01 -7.81618E+01 -8.52897E+01 -8.56240E+01 -9.27508E+01 -8.77030E+01 -1.03342E+02 -8.49869E+01 -8.60930E+01
  -8.48834E+01 -7.98600E+01 -8.01144E+01 -7.12698E+01 -9.95720E+01 -6.80989E+01 -9.86692E+01 -8.46328E+01 -7.79913E+01 -7.20757E+01
  -8.25350E+01 -9.31068E+01 -7.43689E+01 -1.04395E+02 -9.31262E+01 -9.34477E+01 -9.60892E+01 -9.10347E+01 -9.03213E+01 -7.24183E+01
  -7.76743E+01 -7.76283E+01 -9.08763E+01 -8.28601E+01 -8.26809E+01 -8.69376E+01 -8.78053E+01 -6.81388E+01 -7.67956E+01 -8.63302E+01
  -1.01436E+02 -7.62891E+01 -9.41304E+01 -6.16172E+01 -6.94387E+01 -6.95958E+01 -7.75549E+01 -7.63621E+01 -8.29523E+01 -6.63785E+01
  -7.28608E+01 -7.97971E+01 -7.08761E+01 -7.44769E+01 -8.37025E+01 -8.11426E+01 -7.08981E+01 -7.86370E+01 -6.96061E+01 -6.60281E+01
  -7.83369E+01 -8.14183E+01 -7.17227E+01 -8.46411E+01 -6.43818E+01 -5.76193E+01 -8.15395E+01 -7.77550E+01 -6.42984E+01 -6.96659E+01
  -6.39801E+01 -7.54210E+01 -8.68752E+01 -6.30833E+01 -6.34423E+01 -6.78270E+01 -8.76279E+01 -7.20066E+01 -6.97307E+01 -7.22781E+01
  -8.39422E+01 -7.39377E+01 -6.49081E+01 -5.99538E+01 -8.43259E+01 -7.32363E+01 -7.32388E+01 -9.71305E+01 -8.16427E+01 -8.09150E+01
  -6.44091E+01 -6.79591E+01 -7.36386E+01 -8.00068E+01 -7.15036E+01 -6.26447E+01 -7.75219E+01 -5.88141E+01 -8.55319E+01 -7.34780E+01
  -6.72402E+01 -9.13728E+01 -8.28652E+01 -7.61929E+01 -8.91863E+01 -7.41550E+01 -8.10530E+01 -6.81246E+01 -8.73023E+01 -7.44379E+01
  -8.14419E+01 -7.60644E+01 -6.19359E+01 -6.71645E+01 -8.14706E+01 -6.84920E+01 -7.94862E+01 -6.83042E+01 -6.83669E+01 -7.63127E+01
  -7.81026E+01 -6.67027E+01 -6.94856E+01 -8.18725E+01 -8.66950E+01 -6.27410E+01 -7.19505E+01 -6.84617E+01 -4.21620E+01 -7.09640E+01
  -5.75992E+01 -7.09200E+01 -9.40722E+01 -9.87908E+01 -6.47888E+01 -7.74842E+01 -8.72738E+01 -5.01381E+01 -8.41907E+01 -6.18777E+01
  -4.95839E+01 -6.83311E+01 -7.26215E+01 -7.36342E+01 -6.43295E+01 -6.67634E+01 -8.84870E+01 -8.63519E+01 -7.05954E+01 -7.76296E+01
  -8.75782E+01 -5.81109E+01 -7.89940E+01 -6.16356E+01 -6.95966E+01 -6.07835E+01 -7.25672E+01 -6.98614E+01 -7.49939E+01 -6.58338E+01
  -7.18053E+01 -6.40240E+01 -6.45574E+01 -6.62812E+01 -6.53989E+01 -6.81578E+01 -6.14936E+01 -7.04335E+01 -6.43118E+01 -6.88751E+01
  -6.90701E+01 -8.15531E+01 -6.52782E+01 -8.70142E+01 -6.52348E+01 -6.71756E+01 -5.96780E+01 -7.25525E+01 -6.99855E+01 -6.44832E+01
  -6.40048E+01 -7.51785E+01 -7.70303E+01 -7.35880E+01 -7.61143E+01 -5.46189E+01 -6.27706E+01 -7.17635E+01 -6.50107E+01 -4.79775E+01
  -7.10826E+01 -6.17872E+01 -6.01854E+01 -6.55485E+01 -7.06728E+01 -6.35394E+01 -6.06763E+01 -7.38985E+01 -6.18244E+01 -7.33006E+01
  -6.21054E+01 -5.59429E+01 -5.22639E+01 -4.60628E+01 -5.94335E+01 -4.75286E+01 -6.79338E+01 -4.43701E+01 -4.09443E+01 -5.71670E+01
  -7.88960E+01 -6.19929E+01 -4.71890E+01 -7.25235E+01 -5.30385E+01 -6.08362E+01 -5.02347E+01 -5.21085E+01 -5.12395E+01 -5.17472E+01
  -5.03639E+01 -6.33102E+01 -4.85361E+01 -4.57385E+01 -5.66214E+01 -4.93619E+01 -3.21070E+01 -5.17381E+01 -5.91946E+01 -4.39218E+01
  -5.05069E+01 -4.60932E+01 -4.23676E+01 -5.69756E+01 -6.08042E+01 -5.74695E+01 -5.15962E+01 -5.01331E+01
 NY points of the fit to the data follow
  -5.32733E+00 -5.47595E+00 -5.43886E+00 -5.11852E+00 -4.01264E+00 -1.93140E+00  8.27838E-01  3.08662E+00  3.41901E+00  1.85276E+00
  -1.01500E+00 -4.51860E+00 -7.57095E+00 -9.65003E+00 -1.07318E+01 -1.10469E+01 -1.14615E+01 -1.20673E+01 -1.25904E+01 -1.30427E+01
  -1.34181E+01 -1.37876E+01 -1.42440E+01 -1.50736E+01 -1.63097E+01 -1.73040E+01 -1.72502E+01 -1.55519E+01 -1.30411E+01 -1.09918E+01
  -9.95495E+00 -1.06291E+01 -1.32307E+01 -1.71385E+01 -2.13926E+01 -2.44450E+01 -2.56110E+01 -2.53135E+01 -2.41047E+01 -2.29076E+01
  -2.21676E+01 -2.20877E+01 -2.26985E+01 -2.35065E+01 -2.41736E+01 -2.47369E+01 -2.53155E+01 -2.59965E+01 -2.66875E+01 -2.73908E+01
  -2.81760E+01 -2.90404E+01 -2.98132E+01 -3.04616E+01 -3.11344E+01 -3.18158E+01 -3.23555E+01 -3.27652E+01 -3.31769E+01 -3.36572E+01
  -3.42358E+01 -3.48759E+01 -3.55149E+01 -3.61160E+01 -3.66357E+01 -3.70845E+01 -3.75083E+01 -3.79349E+01 -3.83818E+01 -3.88064E+01
  -3.91546E+01 -3.94260E+01 -3.96135E+01 -3.98045E+01 -4.01940E+01 -4.08310E+01 -4.16395E+01 -4.24793E+01 -4.31966E+01 -4.37165E+01
  -4.40499E+01 -4.41850E+01 -4.41847E+01 -4.41916E+01 -4.43887E+01 -4.49599E+01 -4.58112E+01 -4.66929E+01 -4.74652E+01 -4.80787E+01
  -4.85798E+01 -4.90274E+01 -4.93960E+01 -4.97084E+01 -4.99186E+01 -4.99404E+01 -4.97163E+01 -4.89014E+01 -4.54197E+01 -3.70206E+01
  -2.44210E+01 -1.21620E+01 -7.86582E+00 -1.35180E+01 -2.48067E+01 -3.80241E+01 -4.94991E+01 -5.66998E+01 -5.96549E+01 -5.87785E+01
  -5.69523E+01 -5.67595E+01 -5.70574E+01 -5.74115E+01 -5.77619E+01 -5.81385E+01 -5.85474E+01 -5.89779E+01 -5.93859E+01 -5.97003E+01
  -5.98381E+01 -5.94015E+01 -5.72565E+01 -5.30736E+01 -4.76996E+01 -4.38066E+01 -4.39557E+01 -4.74200E+01 -5.23790E+01 -5.74305E+01
  -6.12049E+01 -6.34875E+01 -6.46423E+01 -6.50324E+01 -6.57832E+01 -6.67210E+01 -6.71316E+01 -6.68714E+01 -6.62528E+01 -6.56337E+01
  -6.53714E+01 -6.56178E+01 -6.61510E+01 -6.68053E+01 -6.74715E+01 -6.80497E+01 -6.85429E+01 -6.89748E+01 -6.93899E+01 -6.98169E+01
  -7.02220E+01 -7.05964E+01 -7.09164E+01 -7.11729E+01 -7.13708E+01 -7.15790E+01 -7.19460E+01 -7.25478E+01 -7.33285E+01 -7.40246E+01
  -7.43109E+01 -7.41898E+01 -7.38619E+01 -7.36434E+01 -7.37915E+01 -7.42348E+01 -7.48435E+01 -7.55037E+01 -7.60034E+01 -7.63213E+01
  -7.65640E+01 -7.68749E+01 -7.74107E+01 -7.80232E+01 -7.84485E+01 -7.84831E+01 -7.83063E+01 -7.82693E+01 -7.84737E+01 -7.88056E+01
  -7.90617E+01 -7.92029E+01 -7.94070E+01 -7.96621E+01 -7.98055E+01 -7.96699E+01 -7.90665E+01 -7.81666E+01 -7.72897E+01 -7.67760E+01
  -7.69183E+01 -7.77255E+01 -7.88788E+01 -8.01119E+01 -8.11054E+01 -8.16471E+01 -8.16129E+01 -8.09176E+01 -7.97496E+01 -7.83894E+01
  -7.70824E+01 -7.60868E+01 -7.57404E+01 -7.63305E+01 -7.80044E+01 -8.06576E+01 -8.37753E+01 -8.66519E+01 -8.83327E+01 -8.80510E+01
  -8.61106E+01 -8.27082E+01 -7.83592E+01 -7.44210E+01 -7.23767E+01 -7.32746E+01 -7.66480E+01 -8.12427E+01 -8.63996E+01 -9.09837E+01
  -9.34614E+01 -9.28083E+01 -8.93377E+01 -8.50641E+01 -8.13222E+01 -7.87149E+01 -7.77809E+01 -7.84843E+01 -8.02729E+01 -8.21590E+01
  -8.32008E+01 -8.34497E+01 -8.33089E+01 -8.27982E+01 -8.19467E+01 -8.10019E+01 -8.04788E+01 -8.06728E+01 -8.15484E+01 -8.29041E+01
  -8.44441E+01 -8.55011E+01 -8.55475E+01 -8.46941E+01 -8.35296E+01 -8.25354E+01 -8.20394E+01 -8.21224E+01 -8.25624E+01 -8.29316E+01
  -8.26797E+01 -8.17322E+01 -8.04085E+01 -7.91021E+01 -7.78038E+01 -7.45904E+01 -6.66655E+01 -5.40385E+01 -4.10438E+01 -3.57041E+01
  -4.05048E+01 -5.12652E+01 -6.43778E+01 -7.61960E+01 -8.38664E+01 -8.71367E+01 -8.63321E+01 -8.43944E+01 -8.41012E+01 -8.41861E+01
  -8.40963E+01 -8.38242E+01 -8.34677E+01 -8.31220E+01 -8.29256E+01 -8.29304E+01 -8.31136E+01 -8.33917E+01 -8.36870E+01 -8.38956E+01
  -8.39714E+01 -8.39510E+01 -8.38605E+01 -8.37226E+01 -8.35739E+01 -8.34344E+01 -8.33084E+01 -8.31852E+01 -8.30425E+01 -8.28747E+01
  -8.26779E+01 -8.24523E+01 -8.22000E+01 -8.19238E+01 -8.16274E+01 -8.13101E+01 -8.09728E+01 -8.06203E+01 -8.02532E+01 -7.98766E+01
  -7.94992E+01 -7.91275E+01 -7.87708E+01 -7.84373E+01 -7.81325E+01 -7.78605E+01 -7.76220E+01 -7.74172E+01 -7.72461E+01 -7.71067E+01
  -7.69966E+01 -7.69117E+01 -7.68458E+01 -7.67922E+01 -7.67435E+01 -7.66924E+01 -7.66317E+01 -7.65548E+01 -7.64561E+01 -7.63314E+01
  -7.61780E+01 -7.59949E+01 -7.57825E+01 -7.55428E+01 -7.52794E+01 -7.49975E+01 -7.47032E+01 -7.44037E+01 -7.41063E+01 -7.38185E+01
  -7.35477E+01 -7.33010E+01 -7.30847E+01 -7.29041E+01 -7.27626E+01 -7.26623E+01 -7.26034E+01 -7.25838E+01 -7.25984E+01 -7.26374E+01
  -7.26822E+01 -7.26914E+01 -7.25890E+01 -7.24244E+01 -7.23889E+01 -7.27513E+01 -7.36308E+01 -7.47277E+01 -7.57088E+01 -7.64306E+01
  -7.66743E+01 -7.63331E+01 -7.54312E+01 -7.42537E+01 -7.34040E+01 -7.30790E+01 -7.31623E+01 -7.35830E+01 -7.41644E+01 -7.47556E+01
  -7.52479E+01 -7.55462E+01 -7.57634E+01 -7.59684E+01 -7.61362E+01 -7.62578E+01 -7.63332E+01 -7.63672E+01 -7.63664E+01 -7.63377E+01
  -7.62876E+01 -7.62213E+01 -7.61427E+01 -7.60544E+01 -7.59582E+01 -7.58552E+01 -7.57460E+01 -7.56307E+01 -7.55092E+01 -7.53814E+01
  -7.52471E+01 -7.51059E+01 -7.49576E+01 -7.48018E+01 -7.46383E+01 -7.44666E+01 -7.42866E+01 -7.40983E+01 -7.39017E+01 -7.36969E+01
  -7.34843E+01 -7.32645E+01 -7.30385E+01 -7.28073E+01 -7.25724E+01 -7.23354E+01 -7.20981E+01 -7.18626E+01 -7.16311E+01 -7.14056E+01
  -7.11883E+01 -7.09808E+01 -7.07847E+01 -7.06012E+01 -7.04313E+01 -7.02752E+01 -7.01327E+01 -7.00031E+01 -6.98853E+01 -6.97780E+01
  -6.96795E+01 -6.95878E+01 -6.95009E+01 -6.94167E+01 -6.93334E+01 -6.92491E+01 -6.91624E+01 -6.90719E+01 -6.89764E+01 -6.88754E+01
  -6.87682E+01 -6.86546E+01 -6.85347E+01 -6.84083E+01 -6.82757E+01 -6.81374E+01 -6.79937E+01 -6.78451E+01 -6.76920E+01 -6.75347E+01
  -6.73738E+01 -6.72096E+01 -6.70425E+01 -6.68728E+01 -6.67008E+01 -6.65267E+01 -6.63507E+01 -6.61731E+01 -6.59941E+01 -6.58137E+01
  -6.56320E+01 -6.54492E+01 -6.52653E+01 -6.50805E+01 -6.48949E+01 -6.47084E+01 -6.45210E+01 -6.43330E+01 -6.41443E+01 -6.39549E+01
  -6.37650E+01 -6.35745E+01 -6.33833E+01 -6.31916E+01 -6.29995E+01 -6.28069E+01 -6.26138E+01 -6.24202E+01 -6.22263E+01 -6.20319E+01
  -6.18372E+01 -6.16421E+01 -6.14467E+01 -6.12509E+01 -6.10547E+01 -6.08583E+01 -6.06617E+01 -6.04647E+01 -6.02675E+01 -6.00699E+01
  -5.98722E+01 -5.96742E+01 -5.94761E+01 -5.92777E+01 -5.90791E+01 -5.88803E+01 -5.86814E+01 -5.84823E+01 -5.82831E+01 -5.80837E+01
  -5.78842E+01 -5.76845E+01 -5.74848E+01 -5.72850E+01 -5.70851E+01 -5.68851E+01 -5.66851E+01 -5.64849E+01 -5.62848E+01 -5.60846E+01
  -5.58844E+01 -5.56841E+01 -5.54838E+01 -5.52835E+01 -5.50833E+01 -5.48831E+01 -5.46828E+01 -5.44825E+01
 NY background values follow
    -6.186E+00   -6.680E+00   -7.174E+00   -7.668E+00   -8.163E+00   -8.657E+00   -9.152E+00   -9.646E+00   -1.014E+01   -1.064E+01
    -1.113E+01   -1.162E+01   -1.212E+01   -1.261E+01   -1.311E+01   -1.360E+01   -1.410E+01   -1.459E+01   -1.508E+01   -1.558E+01
    -1.607E+01   -1.656E+01   -1.706E+01   -1.755E+01   -1.804E+01   -1.853E+01   -1.902E+01   -1.951E+01   -2.001E+01   -2.050E+01
    -2.099E+01   -2.148E+01   -2.197E+01   -2.245E+01   -2.294E+01   -2.343E+01   -2.392E+01   -2.441E+01   -2.489E+01   -2.538E+01
    -2.586E+01   -2.635E+01   -2.683E+01   -2.732E+01   -2.780E+01   -2.828E+01   -2.876E+01   -2.925E+01   -2.973E+01   -3.021E+01
    -3.068E+01   -3.116E+01   -3.164E+01   -3.212E+01   -3.259E+01   -3.307E+01   -3.354E+01   -3.401E+01   -3.448E+01   -3.495E+01
    -3.542E+01   -3.589E+01   -3.636E+01   -3.683E+01   -3.729E+01   -3.775E+01   -3.822E+01   -3.868E+01   -3.914E+01   -3.960E+01
    -4.005E+01   -4.051E+01   -4.097E+01   -4.142E+01   -4.187E+01   -4.232E+01   -4.277E+01   -4.322E+01   -4.366E+01   -4.411E+01
    -4.455E+01   -4.499E+01   -4.543E+01   -4.587E+01   -4.630E+01   -4.674E+01   -4.717E+01   -4.760E+01   -4.803E+01   -4.846E+01
    -4.888E+01   -4.930E+01   -4.972E+01   -5.014E+01   -5.056E+01   -5.098E+01   -5.139E+01   -5.180E+01   -5.221E+01   -5.262E+01
    -5.302E+01   -5.342E+01   -5.382E+01   -5.422E+01   -5.462E+01   -5.501E+01   -5.541E+01   -5.579E+01   -5.618E+01   -5.657E+01
    -5.695E+01   -5.733E+01   -5.771E+01   -5.809E+01   -5.846E+01   -5.883E+01   -5.920E+01   -5.957E+01   -5.993E+01   -6.030E+01
    -6.066E+01   -6.101E+01   -6.137E+01   -6.172E+01   -6.207E+01   -6.242E+01   -6.276E+01   -6.311E+01   -6.345E+01   -6.378E+01
    -6.412E+01   -6.445E+01   -6.478E+01   -6.511E+01   -6.543E+01   -6.575E+01   -6.607E+01   -6.639E+01   -6.670E+01   -6.701E+01
    -6.732E+01   -6.763E+01   -6.793E+01   -6.823E+01   -6.853E+01   -6.882E+01   -6.912E+01   -6.941E+01   -6.969E+01   -6.998E+01
    -7.026E+01   -7.054E+01   -7.081E+01   -7.109E+01   -7.136E+01   -7.162E+01   -7.189E+01   -7.215E+01   -7.241E+01   -7.267E+01
    -7.292E+01   -7.318E+01   -7.342E+01   -7.367E+01   -7.391E+01   -7.416E+01   -7.439E+01   -7.463E+01   -7.486E+01   -7.509E+01
    -7.532E+01   -7.554E+01   -7.577E+01   -7.599E+01   -7.620E+01   -7.642E+01   -7.663E+01   -7.684E+01   -7.704E+01   -7.724E+01
    -7.744E+01   -7.764E+01   -7.784E+01   -7.803E+01   -7.822E+01   -7.840E+01   -7.859E+01   -7.877E+01   -7.895E+01   -7.913E+01
    -7.930E+01   -7.947E+01   -7.964E+01   -7.980E+01   -7.997E+01   -8.013E+01   -8.029E+01   -8.044E+01   -8.059E+01   -8.074E+01
    -8.089E+01   -8.104E+01   -8.118E+01   -8.132E+01   -8.146E+01   -8.160E+01   -8.173E+01   -8.186E+01   -8.199E+01   -8.211E+01
    -8.224E+01   -8.236E+01   -8.248E+01   -8.260E+01   -8.271E+01   -8.282E+01   -8.293E+01   -8.304E+01   -8.314E+01   -8.325E+01
    -8.335E+01   -8.345E+01   -8.354E+01   -8.364E+01   -8.373E+01   -8.382E+01   -8.390E+01   -8.399E+01   -8.407E+01   -8.415E+01
    -8.423E+01   -8.431E+01   -8.438E+01   -8.445E+01   -8.452E+01   -8.459E+01   -8.466E+01   -8.472E+01   -8.478E+01   -8.484E+01
    -8.490E+01   -8.496E+01   -8.501E+01   -8.506E+01   -8.511E+01   -8.516E+01   -8.520E+01   -8.525E+01   -8.529E+01   -8.533E+01
    -8.536E+01   -8.540E+01   -8.543E+01   -8.546E+01   -8.549E+01   -8.552E+01   -8.555E+01   -8.557E+01   -8.559E+01   -8.561E+01
    -8.563E+01   -8.564E+01   -8.566E+01   -8.567E+01   -8.568E+01   -8.569E+01   -8.569E+01   -8.570E+01   -8.570E+01   -8.570E+01
    -8.570E+01   -8.570E+01   -8.569E+01   -8.568E+01   -8.567E+01   -8.566E+01   -8.565E+01   -8.564E+01   -8.562E+01   -8.560E+01
    -8.558E+01   -8.556E+01   -8.554E+01   -8.552E+01   -8.549E+01   -8.546E+01   -8.543E+01   -8.540E+01   -8.537E+01   -8.533E+01
    -8.529E+01   -8.526E+01   -8.522E+01   -8.518E+01   -8.513E+01   -8.509E+01   -8.504E+01   -8.499E+01   -8.494E+01   -8.489E+01
    -8.484E+01   -8.478E+01   -8.473E+01   -8.467E+01   -8.461E+01   -8.455E+01   -8.449E+01   -8.442E+01   -8.436E+01   -8.429E+01
    -8.422E+01   -8.415E+01   -8.408E+01   -8.401E+01   -8.394E+01   -8.386E+01   -8.378E+01   -8.371E+01   -8.363E+01   -8.355E+01
    -8.346E+01   -8.338E+01   -8.329E+01   -8.321E+01   -8.312E+01   -8.303E+01   -8.294E+01   -8.285E+01   -8.275E+01   -8.266E+01
    -8.256E+01   -8.247E+01   -8.237E+01   -8.227E+01   -8.217E+01   -8.206E+01   -8.196E+01   -8.186E+01   -8.175E+01   -8.164E+01
    -8.153E+01   -8.142E+01   -8.131E+01   -8.120E+01   -8.109E+01   -8.097E+01   -8.086E+01   -8.074E+01   -8.062E+01   -8.050E+01
    -8.038E+01   -8.026E+01   -8.014E+01   -8.002E+01   -7.989E+01   -7.976E+01   -7.964E+01   -7.951E+01   -7.938E+01   -7.925E+01
    -7.912E+01   -7.899E+01   -7.885E+01   -7.872E+01   -7.859E+01   -7.845E+01   -7.831E+01   -7.817E+01   -7.804E+01   -7.790E+01
    -7.775E+01   -7.761E+01   -7.747E+01   -7.733E+01   -7.718E+01   -7.704E+01   -7.689E+01   -7.674E+01   -7.659E+01   -7.644E+01
    -7.629E+01   -7.614E+01   -7.599E+01   -7.584E+01   -7.568E+01   -7.553E+01   -7.537E+01   -7.522E+01   -7.506E+01   -7.490E+01
    -7.474E+01   -7.458E+01   -7.442E+01   -7.426E+01   -7.410E+01   -7.394E+01   -7.377E+01   -7.361E+01   -7.344E+01   -7.328E+01
    -7.311E+01   -7.294E+01   -7.277E+01   -7.260E+01   -7.243E+01   -7.226E+01   -7.209E+01   -7.192E+01   -7.175E+01   -7.157E+01
    -7.140E+01   -7.123E+01   -7.105E+01   -7.087E+01   -7.070E+01   -7.052E+01   -7.034E+01   -7.016E+01   -6.998E+01   -6.980E+01
    -6.962E+01   -6.944E+01   -6.926E+01   -6.908E+01   -6.890E+01   -6.871E+01   -6.853E+01   -6.834E+01   -6.816E+01   -6.797E+01
    -6.779E+01   -6.760E+01   -6.741E+01   -6.723E+01   -6.704E+01   -6.685E+01   -6.666E+01   -6.647E+01   -6.628E+01   -6.609E+01
    -6.590E+01   -6.571E+01   -6.552E+01   -6.532E+01   -6.513E+01   -6.494E+01   -6.475E+01   -6.455E+01   -6.436E+01   -6.416E+01
    -6.397E+01   -6.377E+01   -6.358E+01   -6.338E+01   -6.319E+01   -6.299E+01   -6.279E+01   -6.260E+01   -6.240E+01   -6.220E+01
    -6.200E+01   -6.181E+01   -6.161E+01   -6.141E+01   -6.121E+01   -6.101E+01   -6.081E+01   -6.061E+01   -6.041E+01   -6.021E+01
    -6.001E+01   -5.981E+01   -5.961E+01   -5.941E+01   -5.921E+01   -5.901E+01   -5.881E+01   -5.861E+01   -5.841E+01   -5.821E+01
    -5.801E+01   -5.780E+01   -5.760E+01   -5.740E+01   -5.720E+01   -5.700E+01   -5.680E+01   -5.660E+01   -5.640E+01   -5.619E+01
    -5.599E+01   -5.579E+01   -5.559E+01   -5.539E+01   -5.519E+01   -5.499E+01   -5.478E+01   -5.458E+01
 Asp      Conc. = 1.07E+02
