 LCModel (Version 6.3-1L) Copyright: S.W. Provencher.          Ref.: Magn. Reson. Med. 30:672-679 (1993).                
 Slice#2 Row#2 Col#4  PD_24_press_2_raw_act
 36 lines in following concentration table = NCONC+1
    Conc.  %SD /Cr+PCr  Metabolite                                         
  241.190  60%   0.739 Ala                                                 
   46.833  78%   0.143 Asp                                                 
    0.000 999%   0.000 Cr                                                  
  326.458  23%   1.000 PCr                                                 
   28.838  76% 8.8E-02 GABA                                                
   31.832  69% 9.8E-02 Glc                                                 
  329.510  85%   1.009 Gln                                                 
  391.075  78%   1.198 Glu                                                 
   83.400  36%   0.255 GPC                                                 
    0.000 999%   0.000 PCh                                                 
  282.027  38%   0.864 GSH                                                 
  599.597  55%   1.837 Ins                                                 
    0.000 999%   0.000 Lac                                                 
  439.378  21%   1.346 NAA                                                 
    0.000 999%   0.000 NAAG                                                
    9.989  73% 3.1E-02 Scyllo                                              
   41.165  89%   0.126 Tau                                                 
    0.000 999%   0.000 -CrCH2                                              
   83.400  36%   0.255 GPC+PCh                                             
  439.378  21%   1.346 NAA+NAAG                                            
  326.458  23%   1.000 Cr+PCr                                              
  720.585  55%   2.207 Glu+Gln                                             
    0.000 999%   0.000 Lip13a                                              
  294.114  72%   0.901 Lip13b                                              
   37.261 288%   0.114 Lip09                                               
 1.22E+03  22%   3.749 MM09                                                
   48.459 148%   0.148 Lip20                                               
 1.65E+03  27%   5.052 MM20                                                
  363.953  36%   1.115 MM12                                                
 1.60E+03  23%   4.901 MM14                                                
 1.65E+03  13%   5.069+MM17                                                
  294.114  72%   0.901 Lip13a+Lip13b                                       
 2.26E+03  20%   6.917 MM14+Lip13a+Lip13b+MM12                             
 1.26E+03  21%   3.863 MM09+Lip09                                          
 1.70E+03  27%   5.201 MM20+Lip20                                          
   6 lines in following misc. output table
  FWHM = 0.038 ppm    S/N =   1                                            
  Data shift = 0.000 ppm                                                   
  Ph: -26 deg      20.8 deg/ppm                                            
  alphaB,S = 8.5E+01,   2.0E+01                                            
   14 spline knots.   Ns = 5(1)                                            
  ( 8) 2 infls.   ( 8) 2 extrs.                                            
  498 points on ppm-axis = NY
      4.000000     3.992357     3.984714     3.977070     3.969427     3.961784     3.954141     3.946497     3.938854     3.931211
      3.923568     3.915925     3.908281     3.900638     3.892995     3.885352     3.877708     3.870065     3.862422     3.854779
      3.847136     3.839492     3.831849     3.824206     3.816563     3.808919     3.801276     3.793633     3.785990     3.778347
      3.770703     3.763060     3.755417     3.747774     3.740130     3.732487     3.724844     3.717201     3.709558     3.701914
      3.694271     3.686628     3.678985     3.671341     3.663698     3.656055     3.648412     3.640769     3.633125     3.625482
      3.617839     3.610196     3.602552     3.594909     3.587266     3.579623     3.571980     3.564336     3.556693     3.549050
      3.541407     3.533763     3.526120     3.518477     3.510834     3.503191     3.495547     3.487904     3.480261     3.472618
      3.464974     3.457331     3.449688     3.442045     3.434402     3.426758     3.419115     3.411472     3.403829     3.396185
      3.388542     3.380899     3.373256     3.365613     3.357969     3.350326     3.342683     3.335040     3.327396     3.319753
      3.312110     3.304467     3.296824     3.289180     3.281537     3.273894     3.266251     3.258607     3.250964     3.243321
      3.235678     3.228034     3.220391     3.212748     3.205105     3.197462     3.189818     3.182175     3.174532     3.166889
      3.159245     3.151602     3.143959     3.136316     3.128673     3.121029     3.113386     3.105743     3.098100     3.090456
      3.082813     3.075170     3.067527     3.059884     3.052240     3.044597     3.036954     3.029311     3.021667     3.014024
      3.006381     2.998738     2.991095     2.983451     2.975808     2.968165     2.960522     2.952878     2.945235     2.937592
      2.929949     2.922306     2.914662     2.907019     2.899376     2.891733     2.884089     2.876446     2.868803     2.861160
      2.853517     2.845873     2.838230     2.830587     2.822944     2.815300     2.807657     2.800014     2.792371     2.784728
      2.777084     2.769441     2.761798     2.754155     2.746511     2.738868     2.731225     2.723582     2.715939     2.708295
      2.700652     2.693009     2.685366     2.677722     2.670079     2.662436     2.654793     2.647150     2.639506     2.631863
      2.624220     2.616577     2.608933     2.601290     2.593647     2.586004     2.578361     2.570717     2.563074     2.555431
      2.547788     2.540144     2.532501     2.524858     2.517215     2.509572     2.501928     2.494285     2.486642     2.478999
      2.471355     2.463712     2.456069     2.448426     2.440783     2.433139     2.425496     2.417853     2.410210     2.402566
      2.394923     2.387280     2.379637     2.371994     2.364350     2.356707     2.349064     2.341421     2.333777     2.326134
      2.318491     2.310848     2.303205     2.295561     2.287918     2.280275     2.272632     2.264988     2.257345     2.249702
      2.242059     2.234416     2.226772     2.219129     2.211486     2.203843     2.196199     2.188556     2.180913     2.173270
      2.165627     2.157983     2.150340     2.142697     2.135054     2.127410     2.119767     2.112124     2.104481     2.096838
      2.089194     2.081551     2.073908     2.066265     2.058621     2.050978     2.043335     2.035692     2.028049     2.020405
      2.012762     2.005119     1.997476     1.989833     1.982190     1.974546     1.966903     1.959260     1.951617     1.943974
      1.936331     1.928688     1.921045     1.913402     1.905759     1.898115     1.890472     1.882829     1.875186     1.867543
      1.859900     1.852257     1.844614     1.836971     1.829327     1.821684     1.814041     1.806398     1.798755     1.791112
      1.783469     1.775826     1.768183     1.760540     1.752896     1.745253     1.737610     1.729967     1.722324     1.714681
      1.707038     1.699395     1.691752     1.684108     1.676465     1.668822     1.661179     1.653536     1.645893     1.638250
      1.630607     1.622964     1.615321     1.607677     1.600034     1.592391     1.584748     1.577105     1.569462     1.561819
      1.554176     1.546533     1.538890     1.531246     1.523603     1.515960     1.508317     1.500674     1.493031     1.485388
      1.477745     1.470102     1.462458     1.454815     1.447172     1.439529     1.431886     1.424243     1.416600     1.408957
      1.401314     1.393671     1.386027     1.378384     1.370741     1.363098     1.355455     1.347812     1.340169     1.332526
      1.324883     1.317240     1.309596     1.301953     1.294310     1.286667     1.279024     1.271381     1.263738     1.256095
      1.248452     1.240808     1.233165     1.225522     1.217879     1.210236     1.202593     1.194950     1.187307     1.179664
      1.172021     1.164377     1.156734     1.149091     1.141448     1.133805     1.126162     1.118519     1.110876     1.103233
      1.095590     1.087946     1.080303     1.072660     1.065017     1.057374     1.049731     1.042088     1.034445     1.026802
      1.019158     1.011515     1.003872     0.996229     0.988586     0.980943     0.973300     0.965657     0.958014     0.950371
      0.942727     0.935084     0.927441     0.919798     0.912155     0.904512     0.896869     0.889226     0.881583     0.873940
      0.866296     0.858653     0.851010     0.843367     0.835724     0.828081     0.820438     0.812795     0.805152     0.797508
      0.789865     0.782222     0.774579     0.766936     0.759293     0.751650     0.744007     0.736364     0.728721     0.721077
      0.713434     0.705791     0.698148     0.690505     0.682862     0.675219     0.667576     0.659933     0.652290     0.644646
      0.637003     0.629360     0.621717     0.614074     0.606431     0.598788     0.591145     0.583502     0.575858     0.568215
      0.560572     0.552929     0.545286     0.537643     0.530000     0.522357     0.514714     0.507071     0.499427     0.491784
      0.484141     0.476498     0.468855     0.461212     0.453569     0.445925     0.438282     0.430639     0.422996     0.415353
      0.407710     0.400067     0.392424     0.384780     0.377137     0.369494     0.361851     0.354208     0.346565     0.338922
      0.331278     0.323635     0.315992     0.308349     0.300706     0.293063     0.285420     0.277777     0.270133     0.262490
      0.254847     0.247204     0.239561     0.231918     0.224275     0.216631     0.208988     0.201345
 NY phased data points follow
   3.25374E+01  4.72902E+01  3.18072E+01  3.93773E+01  4.48525E+01  3.17757E+01  1.85472E+01  3.22947E+01  4.39905E+01  3.41307E+01
   4.93765E+01  3.67318E+01  3.63940E+01  4.18668E+01  2.76458E+01  2.90834E+01  1.66399E+01  2.37009E+01  2.31803E+01  2.43749E+01
   3.25669E+01  3.31428E+01  1.96354E+01  2.79276E+01  3.08229E+01  3.97271E+01  2.98191E+01  3.14500E+01  1.84171E+01  2.44547E+01
   3.06947E+01  3.08114E+01  3.31172E+01  4.01285E+01  3.17290E+01  2.61939E+01  2.02644E+01  2.88712E+01  2.75243E+01  3.50468E+01
   1.30006E+01  3.10888E+01  2.09950E+01  1.88067E+01  2.13236E+01  2.80824E+01  2.52778E+01  2.29607E+01  2.36929E+01  2.09176E+01
   2.80476E+01  1.82219E+01  2.34641E+01  1.89500E+01  1.63800E+01  1.57226E+01  2.77725E+01  2.75598E+01  3.52994E+01  2.50476E+01
   2.32827E+01  1.94548E+01  2.01287E+01  1.63200E+01  1.79902E+01  1.70854E+01  1.66722E+01  2.04404E+01  1.23182E+01  2.33758E+01
   1.81963E+01  1.47937E+01  1.64701E+01  2.17558E+01  1.06646E+01  1.98397E+01  8.76396E+00  2.40114E+01  1.06938E+01  2.08150E+01
   2.36343E+01  1.97066E+01  2.62666E+01  2.53684E+01  1.18743E+01  1.85160E+01  1.02381E+01  1.51408E+01  1.71622E+01  2.71691E+01
   1.31080E+01  1.70609E+01  2.15834E+01  1.53380E+01  1.56805E+01  1.80644E+01  2.11026E+01  1.95401E+01  9.32293E-01  3.66117E+00
   6.60738E+00  1.09209E+01  2.47632E+01  1.69439E+01  2.89592E+01  2.47397E+01  2.51593E+01  2.23313E+01  1.28256E+01  2.49163E+01
   2.25211E+01  1.58913E+01  1.87866E+01  1.50240E+01  1.42817E+01  1.79640E+01  1.02710E+01  1.79454E+01  1.35275E+01  1.91195E+01
   1.79484E+01  1.51458E+01  2.84440E+00  9.04761E+00  7.02443E+00  1.66558E+01  2.07342E+01  2.25750E+01  2.78150E+01  2.18569E+01
   2.35401E+01  1.99221E+01  1.47967E+01  1.00134E+01  1.82133E+01  2.16769E+01  3.15275E+00  2.13416E+01  1.07047E+01  1.48003E+01
   1.34821E+01  8.87613E+00  1.56451E+00  1.40148E+01  9.86034E+00  3.19071E+00  1.76927E+01 -2.03824E+00  1.27622E+00  1.05945E+01
   9.31985E+00  1.55267E+01  1.06839E+01  1.44224E+01  1.54229E+01  9.92636E+00  1.52785E+01  4.89667E+00  1.45965E+01  7.40679E+00
   1.62443E+01  1.65411E+01  1.82703E+01  1.67133E+01  1.71843E+01  2.35091E+01  7.34641E+00  8.76221E+00  1.89690E+01  7.14211E+00
   7.92739E+00  2.32707E+00  1.33950E+01 -1.39395E+00  1.54530E+01  4.64758E+00  1.34794E+01  3.39060E+00  9.07867E+00  6.17451E+00
   8.48168E+00  1.18767E+01  5.59052E+00  1.11673E+01  1.93365E-01  6.04111E+00  6.82981E+00 -2.32433E+00  1.33152E+01  1.33509E+00
  -3.34494E+00  2.44420E+00  1.47912E+01  1.71598E+01  3.55473E+00  8.74730E+00  1.16556E+01  1.16372E+01  1.04880E+01  1.53336E+00
   4.59291E+00  1.13530E+01  1.26433E+01  1.96633E+00  1.22407E+01  1.53908E+01  1.78743E+01  8.89157E+00  3.46990E-01  2.31542E+00
   8.73352E+00  1.22345E+01  5.31127E+00  8.17624E+00  1.31910E+01  1.02169E+01  1.33368E+01  3.31087E+00  2.38461E+01  5.97272E+00
   4.41513E+00  4.35901E+00  3.61232E+00  4.19673E+00  1.78566E+01  1.35038E+01  5.75627E+00  1.40969E+01  4.26994E+00  2.28814E+01
   1.67498E+01  3.66317E+00  1.24985E+01  1.25103E+01  1.78918E+01  1.17116E+01  1.05779E+01  9.65423E+00  5.35819E+00  6.24036E+00
   4.94024E+00  1.47674E+01  1.24656E+01  8.83564E+00  5.06311E+00 -4.23036E+00  8.44835E+00  4.75463E+00  5.60269E+00  5.33294E+00
   4.74762E+00  1.59650E+01  6.09603E+00 -2.85669E+00  3.93834E+00 -2.04154E+00  9.20143E-01 -4.60317E+00  7.24184E+00  6.49907E+00
   2.49469E+01  2.84928E+01  2.22972E+01  2.02239E+01  2.39355E+01  1.00867E+01  1.61620E+01  9.25204E+00  1.19084E+01  1.20570E+01
   1.95460E+01  4.41565E+00 -8.33938E+00  1.23178E+01 -4.40744E+00  1.49808E-01  7.24956E-01  8.19075E-01 -3.02958E+00 -1.21950E+01
   9.00621E+00  5.93314E+00 -2.21620E-01 -3.12643E+00  6.22024E+00  8.05698E+00 -7.38876E+00  7.49584E+00 -1.80061E+00  6.57319E+00
  -1.18724E+01 -3.23155E+00 -5.00301E-01  3.89874E+00 -5.95764E+00  3.87675E-01  2.89421E+00  8.76293E+00  1.52605E+00  9.95133E+00
   5.71949E+00  1.28452E+01  6.72017E+00  4.77597E+00  3.27602E+00 -1.37288E+00  4.26616E+00 -1.50484E+00  5.33020E-01  7.41996E+00
   1.07670E+01  1.07056E+01  8.97919E+00  1.68406E+01  9.77869E+00  1.33074E+01  2.40119E+01  3.05943E+01  2.50475E+01  2.63011E+01
   2.28459E+01  1.62148E+01  1.83443E+01  1.27477E+01  1.41870E+01  2.58546E+01  2.05437E+01  1.40455E+01  1.45910E+01  1.76063E+01
   1.83728E+01  2.41371E+01  1.17961E+01  5.17068E+00  1.13886E+01  7.53286E+00  5.84619E+00  4.52239E+00  7.26210E+00  7.17227E+00
   5.93503E+00  2.81874E+00  1.55882E+00  8.75123E+00 -6.76729E-01  3.32798E+00  7.90650E+00  6.14299E+00 -9.02560E-01  1.50058E+01
   1.09471E+01  1.32884E+01  4.57428E+00  1.24696E+01  1.20756E+01  1.44870E+01  1.01153E+01  4.38749E+00  1.56624E-01  5.40433E+00
   3.69533E+00  9.88822E+00  1.44848E+01  6.72824E+00  3.50845E+00 -4.57863E+00  9.92447E+00 -1.18567E+00  6.30043E+00  1.10367E+01
   2.88728E+00  2.12052E+00  7.81972E-01  1.04564E+01 -5.28064E+00  3.19992E+00  9.93027E+00 -1.42212E+00 -8.43605E+00  3.72254E+00
   1.34972E+01  3.91719E+00 -2.55159E+00  2.58328E+00 -1.05343E+00  5.09723E+00 -1.37667E-01  6.09660E+00  1.40408E+00 -1.52767E+01
   7.80321E+00  7.22151E-01 -6.46267E+00  1.11436E+01 -8.31198E+00 -9.21498E+00  1.21282E+00  7.56491E+00  1.18961E+00 -1.13770E+01
   1.40929E+01  3.45758E+00 -8.69383E+00  7.03638E+00 -5.00993E-01  9.24311E+00  8.80109E+00  1.48505E+01  8.45117E+00  5.54721E+00
   1.22468E+01  4.78040E+00  3.87200E-01 -1.04688E+01  7.24229E+00  6.36041E+00 -1.63601E+00 -2.65590E+00  3.92014E-01 -2.33518E+00
   1.87943E+01  1.34061E+01 -6.45713E+00 -6.05571E+00 -3.43592E+00  4.03028E+00  9.79602E+00  7.98756E+00  7.64480E+00  1.12817E-01
   9.92818E-01 -1.27718E+00  1.48825E+00 -3.38342E+00 -5.43168E+00 -1.53232E+00  9.67365E+00 -3.45348E+00  3.74681E+00  3.08200E+00
   3.72878E+00 -1.97053E+00  9.32121E+00  7.61240E-01  9.04974E+00  6.45022E+00  6.76110E-01 -6.80086E+00  6.31777E+00  3.76285E+00
   1.30587E+00  4.30607E+00  2.56908E-01  8.95584E-01  4.17990E+00  6.80933E+00  1.01824E+01  1.91902E+00  7.12743E+00  4.54465E+00
   1.22321E+01  3.47204E+00 -3.22618E+00 -1.27128E+01  1.26507E+01  1.57118E+01 -1.00771E+01 -1.04996E+00 -9.01766E+00  3.97081E+00
   8.14242E+00  3.21092E+00 -6.11386E+00  1.75102E+00 -4.99777E-05  1.58706E+00 -1.43366E+00 -3.71467E+00 -3.26259E+00  1.30610E+01
   1.94906E+00  1.28423E+01  3.19463E+00  6.52406E+00 -1.15382E+00  5.86188E-01 -4.50067E+00  2.58000E+00 -8.60302E+00  2.44995E+00
  -7.08442E+00  5.47444E+00 -3.46061E+00 -7.74729E+00  4.76926E+00  2.42087E+00 -2.73852E+00  2.60703E+00
 NY points of the fit to the data follow
   2.54612E+01  2.50962E+01  2.49125E+01  2.48770E+01  2.48002E+01  2.51034E+01  2.65690E+01  2.91681E+01  3.18887E+01  3.35961E+01
   3.37907E+01  3.26749E+01  3.07254E+01  2.83639E+01  2.60837E+01  2.44108E+01  2.36535E+01  2.34400E+01  2.33710E+01  2.34562E+01
   2.36962E+01  2.40667E+01  2.45273E+01  2.48657E+01  2.47322E+01  2.38490E+01  2.25948E+01  2.22031E+01  2.35466E+01  2.62964E+01
   2.93728E+01  3.17466E+01  3.28096E+01  3.23148E+01  3.03395E+01  2.74493E+01  2.46307E+01  2.27040E+01  2.17565E+01  2.13266E+01
   2.12489E+01  2.13601E+01  2.14292E+01  2.15895E+01  2.23308E+01  2.38602E+01  2.56750E+01  2.69696E+01  2.72116E+01  2.64537E+01
   2.50240E+01  2.32454E+01  2.15004E+01  2.02394E+01  1.96825E+01  1.96740E+01  1.99724E+01  2.04976E+01  2.12084E+01  2.19178E+01
   2.23716E+01  2.24114E+01  2.20294E+01  2.13514E+01  2.05645E+01  1.99017E+01  1.95393E+01  1.94726E+01  1.96457E+01  1.99915E+01
   2.03769E+01  2.06650E+01  2.07924E+01  2.07793E+01  2.06802E+01  2.04996E+01  2.02381E+01  1.99093E+01  1.95839E+01  1.93216E+01
   1.91046E+01  1.89293E+01  1.88436E+01  1.88541E+01  1.88293E+01  1.85909E+01  1.80770E+01  1.73980E+01  1.67591E+01  1.63256E+01
   1.61647E+01  1.62594E+01  1.65689E+01  1.70041E+01  1.73790E+01  1.75450E+01  1.74671E+01  1.71473E+01  1.64859E+01  1.59591E+01
   1.66646E+01  1.90287E+01  2.22305E+01  2.49299E+01  2.62246E+01  2.60163E+01  2.46543E+01  2.24739E+01  1.99712E+01  1.78572E+01
   1.67201E+01  1.63451E+01  1.61769E+01  1.60696E+01  1.59826E+01  1.59138E+01  1.58516E+01  1.57703E+01  1.56523E+01  1.54989E+01
   1.53132E+01  1.50339E+01  1.44497E+01  1.42505E+01  1.58522E+01  1.96181E+01  2.42708E+01  2.79922E+01  2.96990E+01  2.93652E+01
   2.75776E+01  2.49725E+01  2.22148E+01  1.99408E+01  1.85460E+01  1.74562E+01  1.61512E+01  1.48008E+01  1.37264E+01  1.32168E+01
   1.33841E+01  1.40687E+01  1.48859E+01  1.54824E+01  1.57151E+01  1.55860E+01  1.51939E+01  1.47187E+01  1.42703E+01  1.39163E+01
   1.36322E+01  1.33661E+01  1.30931E+01  1.28139E+01  1.25533E+01  1.23512E+01  1.22386E+01  1.21666E+01  1.20341E+01  1.17951E+01
   1.14834E+01  1.12048E+01  1.10476E+01  1.10070E+01  1.10207E+01  1.10246E+01  1.09805E+01  1.08685E+01  1.06777E+01  1.04404E+01
   1.02174E+01  1.00616E+01  9.95803E+00  9.78693E+00  9.50560E+00  9.19684E+00  8.97433E+00  8.85612E+00  8.75849E+00  8.61205E+00
   8.44039E+00  8.32152E+00  8.25037E+00  8.10683E+00  7.80968E+00  7.42365E+00  7.06061E+00  6.85165E+00  6.91296E+00  7.34383E+00
   8.10231E+00  8.96041E+00  9.62195E+00  9.88652E+00  9.66073E+00  8.86853E+00  7.59656E+00  6.20264E+00  5.18654E+00  4.87793E+00
   5.28986E+00  6.21719E+00  7.46694E+00  8.77997E+00  9.82083E+00  1.03498E+01  1.01898E+01  9.21562E+00  7.56868E+00  5.71126E+00
   4.14753E+00  3.19298E+00  3.09451E+00  3.96276E+00  5.58233E+00  7.41966E+00  8.86438E+00  9.55174E+00  9.46496E+00  8.60918E+00
   7.02166E+00  5.19971E+00  3.80219E+00  3.23898E+00  3.41866E+00  4.10208E+00  5.10063E+00  6.20960E+00  7.08188E+00  7.34524E+00
   6.98152E+00  6.35201E+00  5.74967E+00  5.20200E+00  4.80193E+00  4.83783E+00  5.47383E+00  6.50436E+00  7.55809E+00  8.26125E+00
   8.42741E+00  8.01874E+00  7.10322E+00  5.93986E+00  5.00340E+00  4.64133E+00  4.80067E+00  5.22149E+00  5.71505E+00  6.15415E+00
   6.40411E+00  6.49625E+00  6.47965E+00  6.41232E+00  6.23505E+00  5.42731E+00  3.92256E+00  3.52099E+00  6.08186E+00  1.14157E+01
   1.75181E+01  2.22996E+01  2.47511E+01  2.48683E+01  2.28767E+01  1.92402E+01  1.51082E+01  1.19332E+01  1.01953E+01  9.04587E+00
   8.13288E+00  7.39128E+00  6.78999E+00  6.30587E+00  5.92712E+00  5.62041E+00  5.34680E+00  5.06438E+00  4.74100E+00  4.36709E+00
   3.95966E+00  3.54151E+00  3.12596E+00  2.72561E+00  2.35055E+00  2.00063E+00  1.66900E+00  1.34901E+00  1.03558E+00  7.28615E-01
   4.28889E-01  1.38995E-01 -1.33821E-01 -3.79198E-01 -5.87048E-01 -7.46727E-01 -8.44709E-01 -8.66439E-01 -7.98606E-01 -6.28919E-01
  -3.45119E-01  6.19285E-02  5.98041E-01  1.26438E+00  2.05655E+00  2.96432E+00  3.97160E+00  5.05659E+00  6.19256E+00  7.34891E+00
   8.49279E+00  9.59064E+00  1.06102E+01  1.15226E+01  1.23042E+01  1.29376E+01  1.34131E+01  1.37285E+01  1.38895E+01  1.39085E+01
   1.38029E+01  1.35874E+01  1.32446E+01  1.28794E+01  1.29412E+01  1.36468E+01  1.46069E+01  1.51496E+01  1.48646E+01  1.37948E+01
   1.21506E+01  9.86609E+00  7.14254E+00  4.81751E+00  3.75710E+00  4.10949E+00  5.24100E+00  6.59021E+00  7.82524E+00  8.73814E+00
   9.11184E+00  8.86873E+00  8.20217E+00  7.54337E+00  7.00250E+00  6.54795E+00  6.17025E+00  5.87403E+00  5.66897E+00  5.56407E+00
   5.56304E+00  5.66082E+00  5.84149E+00  6.07819E+00  6.33554E+00  6.57403E+00  6.75577E+00  6.85011E+00  6.83806E+00  6.71435E+00
   6.48695E+00  6.17433E+00  5.80124E+00  5.39405E+00  4.97672E+00  4.56814E+00  4.18092E+00  3.82160E+00  3.49174E+00  3.18941E+00
   2.91070E+00  2.65094E+00  2.40567E+00  2.17119E+00  1.94474E+00  1.72454E+00  1.50966E+00  1.29995E+00  1.09592E+00  8.98658E-01
   7.09724E-01  5.31079E-01  3.65030E-01  2.14243E-01  8.17303E-02 -2.91782E-02 -1.14917E-01 -1.71772E-01 -1.95963E-01 -1.83736E-01
  -1.31507E-01 -3.60606E-02  1.05213E-01  2.94096E-01  5.31354E-01  8.16559E-01  1.14792E+00  1.52215E+00  1.93439E+00  2.37823E+00
   2.84591E+00  3.32848E+00  3.81614E+00  4.29850E+00  4.76505E+00  5.20554E+00  5.61050E+00  5.97156E+00  6.28182E+00  6.53604E+00
   6.73081E+00  6.86462E+00  6.93787E+00  6.95264E+00  6.91251E+00  6.82224E+00  6.68751E+00  6.51459E+00  6.31005E+00  6.08046E+00
   5.83210E+00  5.57082E+00  5.30186E+00  5.02983E+00  4.75865E+00  4.49149E+00  4.23084E+00  3.97854E+00  3.73589E+00  3.50376E+00
   3.28261E+00  3.07256E+00  2.87350E+00  2.68512E+00  2.50700E+00  2.33867E+00  2.17960E+00  2.02922E+00  1.88695E+00  1.75223E+00
   1.62455E+00  1.50345E+00  1.38847E+00  1.27917E+00  1.17513E+00  1.07600E+00  9.81482E-01  8.91282E-01  8.05122E-01  7.22731E-01
   6.43872E-01  5.68349E-01  4.95993E-01  4.26631E-01  3.60090E-01  2.96205E-01  2.34847E-01  1.75913E-01  1.19304E-01  6.49068E-02
   1.26027E-02 -3.77114E-02 -8.61101E-02 -1.32651E-01 -1.77399E-01 -2.20435E-01 -2.61841E-01 -3.01678E-01 -3.39985E-01 -3.76801E-01
  -4.12178E-01 -4.46184E-01 -4.78878E-01 -5.10292E-01 -5.40444E-01 -5.69364E-01 -5.97099E-01 -6.23703E-01 -6.49217E-01 -6.73654E-01
  -6.97030E-01 -7.19375E-01 -7.40739E-01 -7.61167E-01 -7.80679E-01 -7.99285E-01 -8.17001E-01 -8.33865E-01 -8.49928E-01 -8.65224E-01
  -8.79771E-01 -8.93578E-01 -9.06677E-01 -9.19119E-01 -9.30959E-01 -9.42232E-01 -9.52959E-01 -9.63171E-01
 NY background values follow
     2.286E+01    2.281E+01    2.275E+01    2.270E+01    2.265E+01    2.259E+01    2.254E+01    2.248E+01    2.243E+01    2.237E+01
     2.232E+01    2.226E+01    2.220E+01    2.215E+01    2.209E+01    2.203E+01    2.198E+01    2.192E+01    2.186E+01    2.180E+01
     2.174E+01    2.168E+01    2.162E+01    2.156E+01    2.150E+01    2.144E+01    2.138E+01    2.132E+01    2.126E+01    2.120E+01
     2.114E+01    2.107E+01    2.101E+01    2.095E+01    2.089E+01    2.082E+01    2.076E+01    2.070E+01    2.063E+01    2.057E+01
     2.050E+01    2.044E+01    2.037E+01    2.031E+01    2.024E+01    2.018E+01    2.011E+01    2.005E+01    1.998E+01    1.991E+01
     1.985E+01    1.978E+01    1.971E+01    1.964E+01    1.957E+01    1.951E+01    1.944E+01    1.937E+01    1.930E+01    1.923E+01
     1.916E+01    1.909E+01    1.902E+01    1.895E+01    1.888E+01    1.881E+01    1.874E+01    1.867E+01    1.860E+01    1.853E+01
     1.846E+01    1.839E+01    1.832E+01    1.824E+01    1.817E+01    1.810E+01    1.803E+01    1.795E+01    1.788E+01    1.781E+01
     1.773E+01    1.766E+01    1.759E+01    1.751E+01    1.744E+01    1.737E+01    1.729E+01    1.722E+01    1.714E+01    1.707E+01
     1.699E+01    1.692E+01    1.684E+01    1.677E+01    1.669E+01    1.662E+01    1.654E+01    1.647E+01    1.639E+01    1.631E+01
     1.624E+01    1.616E+01    1.608E+01    1.601E+01    1.593E+01    1.585E+01    1.578E+01    1.570E+01    1.562E+01    1.555E+01
     1.547E+01    1.539E+01    1.531E+01    1.523E+01    1.516E+01    1.508E+01    1.500E+01    1.492E+01    1.484E+01    1.477E+01
     1.469E+01    1.461E+01    1.453E+01    1.445E+01    1.437E+01    1.429E+01    1.421E+01    1.414E+01    1.406E+01    1.398E+01
     1.390E+01    1.382E+01    1.374E+01    1.366E+01    1.358E+01    1.350E+01    1.342E+01    1.334E+01    1.326E+01    1.318E+01
     1.310E+01    1.302E+01    1.294E+01    1.286E+01    1.278E+01    1.270E+01    1.262E+01    1.254E+01    1.246E+01    1.238E+01
     1.230E+01    1.222E+01    1.214E+01    1.206E+01    1.198E+01    1.190E+01    1.182E+01    1.174E+01    1.166E+01    1.158E+01
     1.150E+01    1.142E+01    1.134E+01    1.126E+01    1.118E+01    1.110E+01    1.102E+01    1.094E+01    1.085E+01    1.077E+01
     1.069E+01    1.061E+01    1.053E+01    1.045E+01    1.037E+01    1.029E+01    1.021E+01    1.013E+01    1.005E+01    9.973E+00
     9.893E+00    9.813E+00    9.733E+00    9.653E+00    9.573E+00    9.494E+00    9.414E+00    9.334E+00    9.255E+00    9.175E+00
     9.096E+00    9.016E+00    8.937E+00    8.858E+00    8.778E+00    8.699E+00    8.620E+00    8.541E+00    8.462E+00    8.383E+00
     8.305E+00    8.226E+00    8.147E+00    8.069E+00    7.990E+00    7.912E+00    7.834E+00    7.756E+00    7.678E+00    7.600E+00
     7.522E+00    7.444E+00    7.367E+00    7.289E+00    7.212E+00    7.134E+00    7.057E+00    6.980E+00    6.903E+00    6.826E+00
     6.750E+00    6.673E+00    6.597E+00    6.520E+00    6.444E+00    6.368E+00    6.292E+00    6.216E+00    6.141E+00    6.065E+00
     5.990E+00    5.914E+00    5.839E+00    5.764E+00    5.690E+00    5.615E+00    5.540E+00    5.466E+00    5.392E+00    5.318E+00
     5.244E+00    5.170E+00    5.097E+00    5.024E+00    4.950E+00    4.877E+00    4.805E+00    4.732E+00    4.659E+00    4.587E+00
     4.515E+00    4.443E+00    4.371E+00    4.300E+00    4.228E+00    4.157E+00    4.086E+00    4.015E+00    3.945E+00    3.874E+00
     3.804E+00    3.734E+00    3.664E+00    3.595E+00    3.526E+00    3.456E+00    3.387E+00    3.319E+00    3.250E+00    3.182E+00
     3.114E+00    3.046E+00    2.978E+00    2.911E+00    2.844E+00    2.777E+00    2.710E+00    2.643E+00    2.577E+00    2.511E+00
     2.445E+00    2.380E+00    2.315E+00    2.250E+00    2.185E+00    2.120E+00    2.056E+00    1.992E+00    1.928E+00    1.864E+00
     1.801E+00    1.738E+00    1.675E+00    1.613E+00    1.550E+00    1.488E+00    1.427E+00    1.365E+00    1.304E+00    1.243E+00
     1.182E+00    1.122E+00    1.062E+00    1.002E+00    9.424E-01    8.832E-01    8.242E-01    7.655E-01    7.071E-01    6.489E-01
     5.911E-01    5.335E-01    4.763E-01    4.193E-01    3.626E-01    3.063E-01    2.502E-01    1.944E-01    1.390E-01    8.379E-02
     2.893E-02   -2.563E-02   -7.987E-02   -1.338E-01   -1.874E-01   -2.407E-01   -2.937E-01   -3.464E-01   -3.988E-01   -4.508E-01
    -5.025E-01   -5.539E-01   -6.050E-01   -6.557E-01   -7.061E-01   -7.562E-01   -8.060E-01   -8.554E-01   -9.045E-01   -9.533E-01
    -1.002E+00   -1.050E+00   -1.098E+00   -1.145E+00   -1.192E+00   -1.239E+00   -1.285E+00   -1.331E+00   -1.377E+00   -1.422E+00
    -1.467E+00   -1.512E+00   -1.556E+00   -1.600E+00   -1.644E+00   -1.687E+00   -1.730E+00   -1.772E+00   -1.814E+00   -1.856E+00
    -1.897E+00   -1.938E+00   -1.979E+00   -2.019E+00   -2.059E+00   -2.099E+00   -2.138E+00   -2.177E+00   -2.215E+00   -2.253E+00
    -2.291E+00   -2.328E+00   -2.365E+00   -2.402E+00   -2.438E+00   -2.474E+00   -2.509E+00   -2.544E+00   -2.579E+00   -2.613E+00
    -2.647E+00   -2.681E+00   -2.714E+00   -2.746E+00   -2.779E+00   -2.811E+00   -2.842E+00   -2.873E+00   -2.904E+00   -2.934E+00
    -2.964E+00   -2.994E+00   -3.023E+00   -3.051E+00   -3.080E+00   -3.107E+00   -3.135E+00   -3.162E+00   -3.189E+00   -3.215E+00
    -3.241E+00   -3.266E+00   -3.291E+00   -3.316E+00   -3.340E+00   -3.364E+00   -3.387E+00   -3.410E+00   -3.433E+00   -3.455E+00
    -3.476E+00   -3.498E+00   -3.518E+00   -3.539E+00   -3.559E+00   -3.578E+00   -3.597E+00   -3.616E+00   -3.634E+00   -3.652E+00
    -3.670E+00   -3.686E+00   -3.703E+00   -3.719E+00   -3.735E+00   -3.750E+00   -3.765E+00   -3.779E+00   -3.793E+00   -3.807E+00
    -3.820E+00   -3.832E+00   -3.844E+00   -3.856E+00   -3.867E+00   -3.878E+00   -3.889E+00   -3.899E+00   -3.908E+00   -3.917E+00
    -3.926E+00   -3.934E+00   -3.942E+00   -3.949E+00   -3.956E+00   -3.962E+00   -3.968E+00   -3.973E+00   -3.978E+00   -3.983E+00
    -3.987E+00   -3.991E+00   -3.994E+00   -3.997E+00   -3.999E+00   -4.001E+00   -4.002E+00   -4.003E+00   -4.004E+00   -4.004E+00
    -4.003E+00   -4.002E+00   -4.001E+00   -3.999E+00   -3.997E+00   -3.994E+00   -3.991E+00   -3.987E+00   -3.983E+00   -3.978E+00
    -3.973E+00   -3.967E+00   -3.961E+00   -3.955E+00   -3.948E+00   -3.941E+00   -3.933E+00   -3.924E+00   -3.915E+00   -3.906E+00
    -3.896E+00   -3.886E+00   -3.876E+00   -3.864E+00   -3.853E+00   -3.841E+00   -3.828E+00   -3.815E+00   -3.801E+00   -3.787E+00
    -3.773E+00   -3.758E+00   -3.743E+00   -3.727E+00   -3.710E+00   -3.693E+00   -3.676E+00   -3.658E+00
 Ala      Conc. = 2.41E+02
