 LCModel (Version 6.3-1L) Copyright: S.W. Provencher.          Ref.: Magn. Reson. Med. 30:672-679 (1993).                
 Slice#2 Row#6 Col#1  PD_24_press_2_raw_act
 36 lines in following concentration table = NCONC+1
    Conc.  %SD /Cr+PCr  Metabolite                                         
 2.34E+03  35%   1.328 Ala                                                 
    0.000 999%   0.000 Asp                                                 
 1.76E+03   9%   1.000 Cr                                                  
    0.000 999%   0.000 PCr                                                 
  203.411  83%   0.116 GABA                                                
    0.000 999%   0.000 Glc                                                 
    0.000 999%   0.000 Gln                                                 
    0.000 999%   0.000 Glu                                                 
  447.356  13%   0.254 GPC                                                 
    0.000 999%   0.000 PCh                                                 
  996.210  20%   0.566 GSH                                                 
 3.46E+03  20%   1.964 Ins                                                 
  800.782  99%   0.455 Lac                                                 
    0.000 999%   0.000 NAA                                                 
 1.45E+03  15%   0.823 NAAG                                                
    0.000 999%   0.000 Scyllo                                              
    0.000 999%   0.000 Tau                                                 
    0.000 999%   0.000 -CrCH2                                              
  447.356  13%   0.254 GPC+PCh                                             
 1.45E+03  15%   0.823 NAA+NAAG                                            
 1.76E+03   9%   1.000 Cr+PCr                                              
    0.000 999%   0.000 Glu+Gln                                             
 5.44E+03  20%   3.090 Lip13a                                              
    0.000 999%   0.000 Lip13b                                              
    0.000 999%   0.000 Lip09                                               
 2.02E+03  19%   1.150 MM09                                                
 2.40E+03  13%   1.363+Lip20                                               
 4.18E+03  16%   2.374 MM20                                                
  594.056  36%   0.338 MM12                                                
 4.42E+03  14%   2.513+MM14                                                
    0.000 999%   0.000 MM17                                                
 5.44E+03  20%   3.090 Lip13a+Lip13b                                       
 1.05E+04  12%   5.941 MM14+Lip13a+Lip13b+MM12                             
 2.02E+03  19%   1.150 MM09+Lip09                                          
 6.57E+03  10%   3.737 MM20+Lip20                                          
   6 lines in following misc. output table
  FWHM = 0.107 ppm    S/N =   5                                            
  Data shift = 0.008 ppm                                                   
  Ph: 114 deg      52.0 deg/ppm                                            
  alphaB,S = 2.0E+00,   1.1E+02                                            
    7 spline knots.   Ns = 9(2)                                            
  (11) 4 infls.   ( 9) 1 extrs.                                            
  498 points on ppm-axis = NY
      4.000000     3.992357     3.984714     3.977070     3.969427     3.961784     3.954141     3.946497     3.938854     3.931211
      3.923568     3.915925     3.908281     3.900638     3.892995     3.885352     3.877708     3.870065     3.862422     3.854779
      3.847136     3.839492     3.831849     3.824206     3.816563     3.808919     3.801276     3.793633     3.785990     3.778347
      3.770703     3.763060     3.755417     3.747774     3.740130     3.732487     3.724844     3.717201     3.709558     3.701914
      3.694271     3.686628     3.678985     3.671341     3.663698     3.656055     3.648412     3.640769     3.633125     3.625482
      3.617839     3.610196     3.602552     3.594909     3.587266     3.579623     3.571980     3.564336     3.556693     3.549050
      3.541407     3.533763     3.526120     3.518477     3.510834     3.503191     3.495547     3.487904     3.480261     3.472618
      3.464974     3.457331     3.449688     3.442045     3.434402     3.426758     3.419115     3.411472     3.403829     3.396185
      3.388542     3.380899     3.373256     3.365613     3.357969     3.350326     3.342683     3.335040     3.327396     3.319753
      3.312110     3.304467     3.296824     3.289180     3.281537     3.273894     3.266251     3.258607     3.250964     3.243321
      3.235678     3.228034     3.220391     3.212748     3.205105     3.197462     3.189818     3.182175     3.174532     3.166889
      3.159245     3.151602     3.143959     3.136316     3.128673     3.121029     3.113386     3.105743     3.098100     3.090456
      3.082813     3.075170     3.067527     3.059884     3.052240     3.044597     3.036954     3.029311     3.021667     3.014024
      3.006381     2.998738     2.991095     2.983451     2.975808     2.968165     2.960522     2.952878     2.945235     2.937592
      2.929949     2.922306     2.914662     2.907019     2.899376     2.891733     2.884089     2.876446     2.868803     2.861160
      2.853517     2.845873     2.838230     2.830587     2.822944     2.815300     2.807657     2.800014     2.792371     2.784728
      2.777084     2.769441     2.761798     2.754155     2.746511     2.738868     2.731225     2.723582     2.715939     2.708295
      2.700652     2.693009     2.685366     2.677722     2.670079     2.662436     2.654793     2.647150     2.639506     2.631863
      2.624220     2.616577     2.608933     2.601290     2.593647     2.586004     2.578361     2.570717     2.563074     2.555431
      2.547788     2.540144     2.532501     2.524858     2.517215     2.509572     2.501928     2.494285     2.486642     2.478999
      2.471355     2.463712     2.456069     2.448426     2.440783     2.433139     2.425496     2.417853     2.410210     2.402566
      2.394923     2.387280     2.379637     2.371994     2.364350     2.356707     2.349064     2.341421     2.333777     2.326134
      2.318491     2.310848     2.303205     2.295561     2.287918     2.280275     2.272632     2.264988     2.257345     2.249702
      2.242059     2.234416     2.226772     2.219129     2.211486     2.203843     2.196199     2.188556     2.180913     2.173270
      2.165627     2.157983     2.150340     2.142697     2.135054     2.127410     2.119767     2.112124     2.104481     2.096838
      2.089194     2.081551     2.073908     2.066265     2.058621     2.050978     2.043335     2.035692     2.028049     2.020405
      2.012762     2.005119     1.997476     1.989833     1.982190     1.974546     1.966903     1.959260     1.951617     1.943974
      1.936331     1.928688     1.921045     1.913402     1.905759     1.898115     1.890472     1.882829     1.875186     1.867543
      1.859900     1.852257     1.844614     1.836971     1.829327     1.821684     1.814041     1.806398     1.798755     1.791112
      1.783469     1.775826     1.768183     1.760540     1.752896     1.745253     1.737610     1.729967     1.722324     1.714681
      1.707038     1.699395     1.691752     1.684108     1.676465     1.668822     1.661179     1.653536     1.645893     1.638250
      1.630607     1.622964     1.615321     1.607677     1.600034     1.592391     1.584748     1.577105     1.569462     1.561819
      1.554176     1.546533     1.538890     1.531246     1.523603     1.515960     1.508317     1.500674     1.493031     1.485388
      1.477745     1.470102     1.462458     1.454815     1.447172     1.439529     1.431886     1.424243     1.416600     1.408957
      1.401314     1.393671     1.386027     1.378384     1.370741     1.363098     1.355455     1.347812     1.340169     1.332526
      1.324883     1.317240     1.309596     1.301953     1.294310     1.286667     1.279024     1.271381     1.263738     1.256095
      1.248452     1.240808     1.233165     1.225522     1.217879     1.210236     1.202593     1.194950     1.187307     1.179664
      1.172021     1.164377     1.156734     1.149091     1.141448     1.133805     1.126162     1.118519     1.110876     1.103233
      1.095590     1.087946     1.080303     1.072660     1.065017     1.057374     1.049731     1.042088     1.034445     1.026802
      1.019158     1.011515     1.003872     0.996229     0.988586     0.980943     0.973300     0.965657     0.958014     0.950371
      0.942727     0.935084     0.927441     0.919798     0.912155     0.904512     0.896869     0.889226     0.881583     0.873940
      0.866296     0.858653     0.851010     0.843367     0.835724     0.828081     0.820438     0.812795     0.805152     0.797508
      0.789865     0.782222     0.774579     0.766936     0.759293     0.751650     0.744007     0.736364     0.728721     0.721077
      0.713434     0.705791     0.698148     0.690505     0.682862     0.675219     0.667576     0.659933     0.652290     0.644646
      0.637003     0.629360     0.621717     0.614074     0.606431     0.598788     0.591145     0.583502     0.575858     0.568215
      0.560572     0.552929     0.545286     0.537643     0.530000     0.522357     0.514714     0.507071     0.499427     0.491784
      0.484141     0.476498     0.468855     0.461212     0.453569     0.445925     0.438282     0.430639     0.422996     0.415353
      0.407710     0.400067     0.392424     0.384780     0.377137     0.369494     0.361851     0.354208     0.346565     0.338922
      0.331278     0.323635     0.315992     0.308349     0.300706     0.293063     0.285420     0.277777     0.270133     0.262490
      0.254847     0.247204     0.239561     0.231918     0.224275     0.216631     0.208988     0.201345
 NY phased data points follow
   1.72510E+02  1.65251E+02  1.57555E+02  1.62438E+02  1.59815E+02  1.58148E+02  1.55555E+02  1.56359E+02  1.52216E+02  1.49549E+02
   1.60903E+02  1.46715E+02  1.50100E+02  1.61281E+02  1.55525E+02  1.51134E+02  1.51913E+02  1.47121E+02  1.40075E+02  1.38739E+02
   1.38457E+02  1.30647E+02  1.33361E+02  1.34035E+02  1.31294E+02  1.25463E+02  1.21884E+02  1.22139E+02  1.16103E+02  1.18778E+02
   1.15625E+02  1.17147E+02  1.15461E+02  1.18746E+02  1.16276E+02  1.10292E+02  1.12582E+02  1.10700E+02  1.10179E+02  1.02880E+02
   1.08234E+02  1.04761E+02  1.07581E+02  1.02211E+02  1.01587E+02  1.03463E+02  9.98999E+01  9.68115E+01  9.71061E+01  1.04917E+02
   9.57651E+01  9.81716E+01  9.32250E+01  8.99071E+01  8.29152E+01  8.38076E+01  8.15082E+01  8.06045E+01  8.07417E+01  8.19007E+01
   7.74007E+01  7.91461E+01  7.85590E+01  7.63274E+01  7.49725E+01  6.75926E+01  6.65025E+01  6.80452E+01  6.14727E+01  5.55645E+01
   6.20775E+01  5.43886E+01  5.59764E+01  6.04835E+01  5.77009E+01  4.54873E+01  5.22872E+01  5.07492E+01  4.66512E+01  4.97962E+01
   4.62733E+01  4.54679E+01  4.61853E+01  3.91908E+01  4.00850E+01  4.05941E+01  3.72128E+01  4.03233E+01  2.76731E+01  3.78120E+01
   3.11229E+01  3.21524E+01  3.93274E+01  3.51385E+01  4.25526E+01  3.68083E+01  4.66773E+01  3.46047E+01  3.94321E+01  3.63011E+01
   3.29667E+01  3.47928E+01  3.25958E+01  3.66225E+01  4.00549E+01  4.21164E+01  4.65486E+01  4.93727E+01  4.21096E+01  4.53424E+01
   3.25817E+01  3.21902E+01  2.82438E+01  2.27051E+01  2.16366E+01  2.58216E+01  2.12944E+01  2.64346E+01  2.36254E+01  2.48311E+01
   2.43578E+01  2.16356E+01  2.09837E+01  2.93193E+01  3.00884E+01  3.34706E+01  3.60170E+01  3.46027E+01  3.25388E+01  3.34065E+01
   3.36608E+01  3.60048E+01  3.41725E+01  2.47611E+01  2.77015E+01  1.79207E+01  1.55448E+01  9.19563E+00  1.03922E+01  1.26449E+01
   1.12989E+00  3.67519E+00  5.59556E+00  9.65101E-01  1.49020E+01  1.39208E+01  2.44877E+00  2.09348E+00  8.81090E-01 -2.40054E-01
  -4.84171E-01  1.09795E+00 -3.73679E+00 -2.52385E+00  1.52278E-01 -6.18786E+00 -6.92867E+00 -2.91002E+00 -6.05098E+00 -1.00721E+01
  -9.82495E+00 -4.29113E+00 -1.34247E+01 -8.44463E+00 -9.15240E+00 -1.18223E+01 -1.63927E+01 -1.81564E+01 -1.75850E+01 -1.85157E+01
  -2.10422E+01 -1.55802E+01 -2.68038E+01 -2.15626E+01 -2.89863E+01 -2.34935E+01 -2.78936E+01 -2.83820E+01 -2.91201E+01 -3.64410E+01
  -3.94772E+01 -3.40380E+01 -3.04907E+01 -2.84534E+01 -4.15742E+01 -3.00410E+01 -3.69544E+01 -3.36469E+01 -3.56410E+01 -3.80558E+01
  -4.15755E+01 -3.52362E+01 -3.37157E+01 -3.02840E+01 -3.42598E+01 -3.41831E+01 -3.84769E+01 -3.74496E+01 -4.04057E+01 -3.20968E+01
  -3.48572E+01 -3.76138E+01 -3.65165E+01 -4.53749E+01 -4.34971E+01 -3.86755E+01 -4.03375E+01 -4.01887E+01 -4.08202E+01 -4.06352E+01
  -3.87317E+01 -3.85700E+01 -4.20546E+01 -4.07721E+01 -4.00824E+01 -4.09323E+01 -3.66013E+01 -4.60432E+01 -4.06978E+01 -3.33893E+01
  -4.28778E+01 -3.76051E+01 -3.95940E+01 -3.16390E+01 -4.46349E+01 -3.09303E+01 -3.64177E+01 -3.48869E+01 -3.35469E+01 -3.17925E+01
  -3.26941E+01 -3.49017E+01 -3.23879E+01 -3.47777E+01 -3.57865E+01 -3.34912E+01 -3.06295E+01 -3.13697E+01 -3.94522E+01 -3.08365E+01
  -3.07656E+01 -2.93792E+01 -2.70084E+01 -2.53523E+01 -2.28343E+01 -2.09520E+01 -2.03130E+01 -2.19782E+01 -1.35016E+01 -1.43165E+01
  -4.32591E+00 -7.69053E+00 -8.55918E+00  3.70562E+00 -1.81992E-01 -5.01171E+00 -3.56814E-01 -1.37568E+00 -5.41177E+00 -1.98200E+00
  -8.79817E+00 -2.36771E+01 -2.55849E+01 -2.02960E+01 -3.26146E+01 -3.33644E+01 -4.07779E+01 -3.74706E+01 -4.68065E+01 -4.49655E+01
  -4.52701E+01 -4.83951E+01 -5.29875E+01 -4.75007E+01 -4.67682E+01 -4.59581E+01 -5.19083E+01 -4.81233E+01 -5.29638E+01 -5.36740E+01
  -5.64861E+01 -5.55508E+01 -5.54321E+01 -6.31947E+01 -5.03749E+01 -5.64623E+01 -6.06247E+01 -5.62718E+01 -6.24174E+01 -6.26778E+01
  -5.72708E+01 -6.06253E+01 -6.32396E+01 -5.72921E+01 -5.93091E+01 -5.75945E+01 -6.37627E+01 -6.66099E+01 -6.15410E+01 -6.43743E+01
  -6.46778E+01 -6.04260E+01 -5.69195E+01 -5.81078E+01 -5.20965E+01 -6.00407E+01 -4.93603E+01 -3.85597E+01 -4.66742E+01 -4.22013E+01
  -4.32267E+01 -3.23994E+01 -3.41453E+01 -3.05124E+01 -3.44255E+01 -2.55663E+01 -2.84895E+01 -1.70403E+01 -2.60384E+01 -1.60870E+01
  -2.12093E+01 -1.82015E+01 -1.54769E+01 -1.92448E+01 -2.11268E+01 -1.50412E+01 -2.17278E+01 -2.13217E+01 -1.48737E+01 -2.10498E+01
  -2.19224E+01 -2.32646E+01 -2.10827E+01 -2.12757E+01 -2.19706E+01 -2.48126E+01 -2.59824E+01 -2.83256E+01 -2.83483E+01 -2.59265E+01
  -3.07712E+01 -3.38009E+01 -2.69428E+01 -2.96656E+01 -3.02443E+01 -3.19840E+01 -2.65956E+01 -3.11402E+01 -2.81553E+01 -3.32218E+01
  -2.62461E+01 -3.21412E+01 -3.31869E+01 -3.83175E+01 -3.34243E+01 -3.30360E+01 -3.40802E+01 -3.74596E+01 -3.88711E+01 -3.73394E+01
  -3.39274E+01 -3.32250E+01 -3.79431E+01 -3.77375E+01 -3.69445E+01 -3.52130E+01 -3.07269E+01 -3.47429E+01 -3.90142E+01 -2.96279E+01
  -3.44023E+01 -3.41395E+01 -3.48134E+01 -3.90290E+01 -3.61174E+01 -3.37812E+01 -3.05940E+01 -3.15754E+01 -3.42266E+01 -3.56236E+01
  -3.05580E+01 -3.62626E+01 -3.36031E+01 -3.77015E+01 -3.21222E+01 -3.29017E+01 -3.50025E+01 -3.88221E+01 -3.75255E+01 -2.88457E+01
  -3.96808E+01 -2.83620E+01 -3.61878E+01 -3.47350E+01 -3.48174E+01 -3.38509E+01 -2.99152E+01 -2.92346E+01 -3.04086E+01 -3.66797E+01
  -3.98531E+01 -3.38503E+01 -2.73119E+01 -3.63770E+01 -2.83627E+01 -3.57535E+01 -3.64350E+01 -2.94728E+01 -3.21402E+01 -3.16911E+01
  -2.80847E+01 -2.63788E+01 -3.18658E+01 -2.81947E+01 -2.85550E+01 -2.85688E+01 -3.51040E+01 -2.75000E+01 -2.42680E+01 -2.67547E+01
  -3.29947E+01 -3.05033E+01 -2.82089E+01 -2.45862E+01 -2.79311E+01 -3.12845E+01 -2.76026E+01 -2.81254E+01 -2.89751E+01 -2.76000E+01
  -2.58025E+01 -3.09645E+01 -2.99176E+01 -2.27888E+01 -2.56034E+01 -2.47768E+01 -1.83602E+01 -2.35853E+01 -2.61920E+01 -2.55980E+01
  -2.02495E+01 -2.48080E+01 -2.77011E+01 -2.23236E+01 -2.54062E+01 -2.26233E+01 -2.46780E+01 -2.44166E+01 -2.10641E+01 -2.62667E+01
  -2.48735E+01 -2.36942E+01 -2.79823E+01 -2.38546E+01 -2.04315E+01 -1.85615E+01 -1.94422E+01 -2.41370E+01 -2.39740E+01 -1.81111E+01
  -2.20375E+01 -2.89534E+01 -1.73763E+01 -1.93448E+01 -1.77838E+01 -2.36547E+01 -2.09349E+01 -1.46033E+01 -2.95220E+01 -1.52751E+01
  -1.32470E+01 -1.60692E+01 -1.51300E+01 -1.31662E+01 -2.16315E+01 -2.23681E+01 -1.75544E+01 -1.77588E+01 -1.43725E+01 -1.65448E+01
  -1.44038E+01 -8.99315E+00 -2.12963E+01 -1.56322E+01 -1.09643E+01 -7.40709E+00 -1.03344E+01 -1.42645E+01 -1.24905E+01 -1.63490E+01
  -7.06211E+00 -1.13299E+01 -1.39551E+01 -1.18941E+01 -1.08301E+01 -1.84976E+01 -7.36364E+00 -1.35251E+01
 NY points of the fit to the data follow
   1.62937E+02  1.61527E+02  1.60440E+02  1.58792E+02  1.58086E+02  1.56311E+02  1.55913E+02  1.54444E+02  1.54531E+02  1.53313E+02
   1.53813E+02  1.52326E+02  1.52840E+02  1.50853E+02  1.51031E+02  1.47747E+02  1.47058E+02  1.42748E+02  1.41283E+02  1.37327E+02
   1.35542E+02  1.32643E+02  1.30767E+02  1.28898E+02  1.27034E+02  1.25602E+02  1.23877E+02  1.22726E+02  1.21161E+02  1.20231E+02
   1.18831E+02  1.17995E+02  1.16992E+02  1.16537E+02  1.15424E+02  1.14847E+02  1.13342E+02  1.12158E+02  1.10551E+02  1.08675E+02
   1.07088E+02  1.04815E+02  1.03509E+02  1.01421E+02  1.00444E+02  9.89794E+01  9.82996E+01  9.73052E+01  9.65602E+01  9.57499E+01
   9.43561E+01  9.30049E+01  9.08096E+01  8.88378E+01  8.62323E+01  8.44350E+01  8.21139E+01  8.09023E+01  7.90252E+01  7.83612E+01
   7.67080E+01  7.61832E+01  7.44607E+01  7.38112E+01  7.19721E+01  7.11154E+01  6.92092E+01  6.82534E+01  6.64951E+01  6.57611E+01
   6.42172E+01  6.35520E+01  6.20409E+01  6.11944E+01  5.96081E+01  5.83682E+01  5.66642E+01  5.51170E+01  5.33698E+01  5.17359E+01
   5.00552E+01  4.84869E+01  4.68941E+01  4.53396E+01  4.38043E+01  4.22749E+01  4.08569E+01  3.94778E+01  3.83565E+01  3.75316E+01
   3.70125E+01  3.69738E+01  3.72120E+01  3.76707E+01  3.84171E+01  3.87245E+01  3.95494E+01  3.94056E+01  4.01699E+01  4.00016E+01
   4.07688E+01  4.07842E+01  4.15258E+01  4.12945E+01  4.18549E+01  4.11801E+01  4.12555E+01  3.90665E+01  3.82983E+01  3.47261E+01
   3.33809E+01  2.99694E+01  2.87690E+01  2.67017E+01  2.61314E+01  2.57422E+01  2.57994E+01  2.62666E+01  2.66365E+01  2.73132E+01
   2.78079E+01  2.85247E+01  2.91874E+01  3.02219E+01  3.11730E+01  3.26190E+01  3.36969E+01  3.45037E+01  3.53904E+01  3.52488E+01
   3.55573E+01  3.30194E+01  3.22381E+01  2.72729E+01  2.56477E+01  2.01576E+01  1.84416E+01  1.35198E+01  1.21487E+01  8.26885E+00
   7.38031E+00  4.26655E+00  3.86999E+00  1.50857E+00  1.47598E+00 -2.28334E-01 -2.90389E-01 -1.78458E+00 -2.10863E+00 -3.19168E+00
  -3.73462E+00 -4.69243E+00 -5.42723E+00 -6.30721E+00 -7.18618E+00 -8.02204E+00 -9.01757E+00 -9.82891E+00 -1.08998E+01 -1.16826E+01
  -1.27955E+01 -1.36185E+01 -1.48112E+01 -1.57266E+01 -1.69738E+01 -1.79700E+01 -1.92115E+01 -2.02172E+01 -2.14035E+01 -2.23443E+01
  -2.34545E+01 -2.43287E+01 -2.53411E+01 -2.61088E+01 -2.69775E+01 -2.76606E+01 -2.83896E+01 -2.90424E+01 -2.96190E+01 -3.01819E+01
  -3.06159E+01 -3.10731E+01 -3.14490E+01 -3.18621E+01 -3.22683E+01 -3.26132E+01 -3.29921E+01 -3.32126E+01 -3.35103E+01 -3.35920E+01
  -3.38697E+01 -3.39235E+01 -3.42710E+01 -3.44199E+01 -3.49786E+01 -3.52838E+01 -3.61010E+01 -3.64793E+01 -3.73821E+01 -3.76529E+01
  -3.84303E+01 -3.84511E+01 -3.89380E+01 -3.88414E+01 -3.91448E+01 -3.91411E+01 -3.94122E+01 -3.94982E+01 -3.97198E+01 -3.97981E+01
  -3.99219E+01 -3.98980E+01 -3.98364E+01 -3.96982E+01 -3.94738E+01 -3.92548E+01 -3.89586E+01 -3.86570E+01 -3.83215E+01 -3.79389E+01
  -3.75772E+01 -3.70674E+01 -3.66475E+01 -3.60786E+01 -3.56542E+01 -3.51721E+01 -3.48818E+01 -3.46797E+01 -3.46568E+01 -3.47934E+01
  -3.50017E+01 -3.52962E+01 -3.54984E+01 -3.57490E+01 -3.56818E+01 -3.57563E+01 -3.52473E+01 -3.50557E+01 -3.41561E+01 -3.37109E+01
  -3.24368E+01 -3.14395E+01 -2.96617E+01 -2.79039E+01 -2.55120E+01 -2.31652E+01 -2.02740E+01 -1.79300E+01 -1.49277E+01 -1.30738E+01
  -1.03082E+01 -8.78337E+00 -6.39767E+00 -5.37559E+00 -3.55256E+00 -3.70452E+00 -2.68916E+00 -4.19175E+00 -4.28235E+00 -8.01878E+00
  -9.54252E+00 -1.51689E+01 -1.77772E+01 -2.35362E+01 -2.64266E+01 -3.13290E+01 -3.40138E+01 -3.77221E+01 -4.00121E+01 -4.28859E+01
  -4.48201E+01 -4.69061E+01 -4.84576E+01 -4.97741E+01 -5.09916E+01 -5.19182E+01 -5.28859E+01 -5.33697E+01 -5.41218E+01 -5.44607E+01
  -5.50828E+01 -5.52934E+01 -5.57849E+01 -5.58785E+01 -5.62569E+01 -5.62632E+01 -5.65637E+01 -5.65114E+01 -5.67429E+01 -5.66564E+01
  -5.68021E+01 -5.66879E+01 -5.67463E+01 -5.65912E+01 -5.65592E+01 -5.63635E+01 -5.62399E+01 -5.59997E+01 -5.57744E+01 -5.54567E+01
  -5.50931E+01 -5.46389E+01 -5.40802E+01 -5.34190E+01 -5.25980E+01 -5.16557E+01 -5.05156E+01 -4.92113E+01 -4.76584E+01 -4.58735E+01
  -4.39080E+01 -4.16064E+01 -3.92486E+01 -3.63931E+01 -3.39477E+01 -3.07970E+01 -2.87578E+01 -2.56967E+01 -2.43515E+01 -2.17184E+01
  -2.10834E+01 -1.87565E+01 -1.85238E+01 -1.62197E+01 -1.64984E+01 -1.45930E+01 -1.57666E+01 -1.49738E+01 -1.71036E+01 -1.76162E+01
  -2.08123E+01 -2.24976E+01 -2.54439E+01 -2.72791E+01 -2.84958E+01 -2.97213E+01 -2.92420E+01 -2.97900E+01 -2.79672E+01 -2.88670E+01
  -2.69423E+01 -2.89208E+01 -2.75169E+01 -2.97979E+01 -2.86536E+01 -3.08187E+01 -2.97733E+01 -3.18820E+01 -3.06496E+01 -3.27987E+01
  -3.17313E+01 -3.40860E+01 -3.30142E+01 -3.50313E+01 -3.36567E+01 -3.50863E+01 -3.35537E+01 -3.42873E+01 -3.25890E+01 -3.31705E+01
  -3.17977E+01 -3.26289E+01 -3.18947E+01 -3.28093E+01 -3.25924E+01 -3.34297E+01 -3.35416E+01 -3.42618E+01 -3.45012E+01 -3.50875E+01
  -3.54123E+01 -3.59301E+01 -3.62741E+01 -3.66604E+01 -3.69334E+01 -3.72165E+01 -3.74213E+01 -3.75532E+01 -3.76238E+01 -3.76360E+01
  -3.75908E+01 -3.74889E+01 -3.73312E+01 -3.71187E+01 -3.68533E+01 -3.65375E+01 -3.61743E+01 -3.57676E+01 -3.53221E+01 -3.48430E+01
  -3.43366E+01 -3.38095E+01 -3.32694E+01 -3.27240E+01 -3.21817E+01 -3.16509E+01 -3.11398E+01 -3.06567E+01 -3.02088E+01 -2.98030E+01
  -2.94449E+01 -2.91389E+01 -2.88880E+01 -2.86937E+01 -2.85560E+01 -2.84734E+01 -2.84427E+01 -2.84598E+01 -2.85191E+01 -2.86146E+01
  -2.87391E+01 -2.88857E+01 -2.90469E+01 -2.92155E+01 -2.93850E+01 -2.95491E+01 -2.97023E+01 -2.98399E+01 -2.99581E+01 -3.00539E+01
  -3.01251E+01 -3.01703E+01 -3.01887E+01 -3.01802E+01 -3.01452E+01 -3.00845E+01 -2.99991E+01 -2.98903E+01 -2.97597E+01 -2.96087E+01
  -2.94390E+01 -2.92520E+01 -2.90495E+01 -2.88327E+01 -2.86031E+01 -2.83620E+01 -2.81105E+01 -2.78497E+01 -2.75807E+01 -2.73044E+01
  -2.70215E+01 -2.67328E+01 -2.64390E+01 -2.61407E+01 -2.58385E+01 -2.55328E+01 -2.52241E+01 -2.49128E+01 -2.45993E+01 -2.42839E+01
  -2.39669E+01 -2.36487E+01 -2.33294E+01 -2.30094E+01 -2.26888E+01 -2.23678E+01 -2.20468E+01 -2.17257E+01 -2.14049E+01 -2.10844E+01
  -2.07645E+01 -2.04452E+01 -2.01267E+01 -1.98091E+01 -1.94926E+01 -1.91772E+01 -1.88631E+01 -1.85504E+01 -1.82392E+01 -1.79295E+01
  -1.76216E+01 -1.73154E+01 -1.70111E+01 -1.67087E+01 -1.64084E+01 -1.61102E+01 -1.58141E+01 -1.55204E+01 -1.52290E+01 -1.49400E+01
  -1.46535E+01 -1.43695E+01 -1.40882E+01 -1.38095E+01 -1.35336E+01 -1.32605E+01 -1.29903E+01 -1.27229E+01 -1.24586E+01 -1.21972E+01
  -1.19389E+01 -1.16836E+01 -1.14315E+01 -1.11825E+01 -1.09367E+01 -1.06940E+01 -1.04544E+01 -1.02179E+01
 NY background values follow
     1.485E+02    1.469E+02    1.454E+02    1.438E+02    1.423E+02    1.407E+02    1.392E+02    1.377E+02    1.362E+02    1.347E+02
     1.332E+02    1.317E+02    1.302E+02    1.288E+02    1.273E+02    1.259E+02    1.244E+02    1.230E+02    1.215E+02    1.201E+02
     1.187E+02    1.173E+02    1.159E+02    1.145E+02    1.131E+02    1.117E+02    1.103E+02    1.090E+02    1.076E+02    1.062E+02
     1.049E+02    1.035E+02    1.022E+02    1.009E+02    9.956E+01    9.825E+01    9.694E+01    9.564E+01    9.435E+01    9.306E+01
     9.178E+01    9.051E+01    8.924E+01    8.798E+01    8.673E+01    8.548E+01    8.424E+01    8.301E+01    8.178E+01    8.056E+01
     7.935E+01    7.814E+01    7.694E+01    7.575E+01    7.456E+01    7.338E+01    7.220E+01    7.103E+01    6.987E+01    6.871E+01
     6.756E+01    6.642E+01    6.528E+01    6.415E+01    6.303E+01    6.191E+01    6.080E+01    5.969E+01    5.859E+01    5.750E+01
     5.641E+01    5.533E+01    5.425E+01    5.318E+01    5.212E+01    5.106E+01    5.001E+01    4.897E+01    4.793E+01    4.689E+01
     4.587E+01    4.484E+01    4.383E+01    4.282E+01    4.181E+01    4.081E+01    3.982E+01    3.883E+01    3.785E+01    3.688E+01
     3.591E+01    3.494E+01    3.398E+01    3.303E+01    3.208E+01    3.114E+01    3.020E+01    2.927E+01    2.834E+01    2.742E+01
     2.651E+01    2.560E+01    2.470E+01    2.380E+01    2.290E+01    2.202E+01    2.113E+01    2.026E+01    1.938E+01    1.852E+01
     1.765E+01    1.680E+01    1.595E+01    1.510E+01    1.426E+01    1.342E+01    1.259E+01    1.177E+01    1.095E+01    1.013E+01
     9.319E+00    8.513E+00    7.712E+00    6.916E+00    6.124E+00    5.338E+00    4.557E+00    3.780E+00    3.008E+00    2.241E+00
     1.479E+00    7.220E-01   -3.030E-02   -7.778E-01   -1.520E+00   -2.258E+00   -2.991E+00   -3.719E+00   -4.443E+00   -5.161E+00
    -5.875E+00   -6.584E+00   -7.288E+00   -7.987E+00   -8.682E+00   -9.371E+00   -1.006E+01   -1.074E+01   -1.141E+01   -1.208E+01
    -1.275E+01   -1.341E+01   -1.406E+01   -1.472E+01   -1.536E+01   -1.600E+01   -1.664E+01   -1.727E+01   -1.790E+01   -1.852E+01
    -1.914E+01   -1.975E+01   -2.036E+01   -2.097E+01   -2.157E+01   -2.216E+01   -2.275E+01   -2.333E+01   -2.391E+01   -2.449E+01
    -2.506E+01   -2.563E+01   -2.619E+01   -2.674E+01   -2.729E+01   -2.784E+01   -2.838E+01   -2.892E+01   -2.945E+01   -2.998E+01
    -3.051E+01   -3.102E+01   -3.154E+01   -3.205E+01   -3.255E+01   -3.305E+01   -3.355E+01   -3.404E+01   -3.453E+01   -3.501E+01
    -3.548E+01   -3.596E+01   -3.642E+01   -3.689E+01   -3.734E+01   -3.780E+01   -3.825E+01   -3.869E+01   -3.913E+01   -3.957E+01
    -4.000E+01   -4.042E+01   -4.084E+01   -4.126E+01   -4.167E+01   -4.208E+01   -4.248E+01   -4.288E+01   -4.327E+01   -4.366E+01
    -4.405E+01   -4.443E+01   -4.480E+01   -4.517E+01   -4.554E+01   -4.590E+01   -4.626E+01   -4.661E+01   -4.696E+01   -4.730E+01
    -4.764E+01   -4.798E+01   -4.831E+01   -4.863E+01   -4.895E+01   -4.927E+01   -4.958E+01   -4.989E+01   -5.019E+01   -5.049E+01
    -5.078E+01   -5.107E+01   -5.135E+01   -5.164E+01   -5.191E+01   -5.218E+01   -5.245E+01   -5.271E+01   -5.297E+01   -5.322E+01
    -5.347E+01   -5.372E+01   -5.396E+01   -5.419E+01   -5.442E+01   -5.465E+01   -5.487E+01   -5.509E+01   -5.530E+01   -5.551E+01
    -5.571E+01   -5.592E+01   -5.611E+01   -5.630E+01   -5.649E+01   -5.667E+01   -5.685E+01   -5.702E+01   -5.719E+01   -5.736E+01
    -5.752E+01   -5.767E+01   -5.783E+01   -5.797E+01   -5.812E+01   -5.826E+01   -5.839E+01   -5.852E+01   -5.865E+01   -5.877E+01
    -5.889E+01   -5.900E+01   -5.911E+01   -5.922E+01   -5.932E+01   -5.941E+01   -5.951E+01   -5.960E+01   -5.968E+01   -5.976E+01
    -5.984E+01   -5.991E+01   -5.997E+01   -6.004E+01   -6.010E+01   -6.015E+01   -6.020E+01   -6.025E+01   -6.029E+01   -6.033E+01
    -6.037E+01   -6.040E+01   -6.042E+01   -6.045E+01   -6.046E+01   -6.048E+01   -6.049E+01   -6.050E+01   -6.050E+01   -6.050E+01
    -6.049E+01   -6.048E+01   -6.047E+01   -6.045E+01   -6.043E+01   -6.040E+01   -6.037E+01   -6.034E+01   -6.030E+01   -6.026E+01
    -6.022E+01   -6.017E+01   -6.011E+01   -6.006E+01   -6.000E+01   -5.993E+01   -5.986E+01   -5.979E+01   -5.972E+01   -5.964E+01
    -5.955E+01   -5.946E+01   -5.937E+01   -5.928E+01   -5.918E+01   -5.908E+01   -5.897E+01   -5.886E+01   -5.875E+01   -5.863E+01
    -5.851E+01   -5.838E+01   -5.825E+01   -5.812E+01   -5.798E+01   -5.784E+01   -5.770E+01   -5.755E+01   -5.740E+01   -5.725E+01
    -5.709E+01   -5.693E+01   -5.676E+01   -5.659E+01   -5.642E+01   -5.625E+01   -5.607E+01   -5.588E+01   -5.570E+01   -5.551E+01
    -5.531E+01   -5.511E+01   -5.491E+01   -5.471E+01   -5.450E+01   -5.429E+01   -5.407E+01   -5.386E+01   -5.363E+01   -5.341E+01
    -5.318E+01   -5.295E+01   -5.271E+01   -5.247E+01   -5.223E+01   -5.198E+01   -5.173E+01   -5.148E+01   -5.122E+01   -5.096E+01
    -5.070E+01   -5.043E+01   -5.016E+01   -4.989E+01   -4.962E+01   -4.934E+01   -4.905E+01   -4.877E+01   -4.848E+01   -4.819E+01
    -4.789E+01   -4.759E+01   -4.729E+01   -4.699E+01   -4.668E+01   -4.637E+01   -4.606E+01   -4.575E+01   -4.543E+01   -4.511E+01
    -4.479E+01   -4.447E+01   -4.414E+01   -4.381E+01   -4.348E+01   -4.315E+01   -4.282E+01   -4.248E+01   -4.214E+01   -4.180E+01
    -4.146E+01   -4.112E+01   -4.077E+01   -4.043E+01   -4.008E+01   -3.973E+01   -3.938E+01   -3.903E+01   -3.867E+01   -3.832E+01
    -3.796E+01   -3.761E+01   -3.725E+01   -3.689E+01   -3.653E+01   -3.617E+01   -3.581E+01   -3.545E+01   -3.508E+01   -3.472E+01
    -3.435E+01   -3.399E+01   -3.362E+01   -3.326E+01   -3.289E+01   -3.253E+01   -3.216E+01   -3.179E+01   -3.143E+01   -3.106E+01
    -3.069E+01   -3.033E+01   -2.996E+01   -2.959E+01   -2.923E+01   -2.886E+01   -2.850E+01   -2.813E+01   -2.777E+01   -2.740E+01
    -2.704E+01   -2.668E+01   -2.632E+01   -2.596E+01   -2.560E+01   -2.524E+01   -2.488E+01   -2.452E+01   -2.417E+01   -2.381E+01
    -2.346E+01   -2.310E+01   -2.275E+01   -2.240E+01   -2.205E+01   -2.171E+01   -2.136E+01   -2.102E+01   -2.068E+01   -2.034E+01
    -2.000E+01   -1.966E+01   -1.933E+01   -1.899E+01   -1.866E+01   -1.833E+01   -1.801E+01   -1.768E+01   -1.736E+01   -1.704E+01
    -1.672E+01   -1.641E+01   -1.609E+01   -1.578E+01   -1.548E+01   -1.517E+01   -1.487E+01   -1.457E+01   -1.427E+01   -1.398E+01
    -1.369E+01   -1.340E+01   -1.312E+01   -1.284E+01   -1.256E+01   -1.228E+01   -1.201E+01   -1.174E+01   -1.148E+01   -1.122E+01
    -1.096E+01   -1.070E+01   -1.045E+01   -1.020E+01   -9.961E+00   -9.722E+00   -9.486E+00   -9.254E+00
 Ala      Conc. = 2.34E+03
