 LCModel (Version 6.3-1L) Copyright: S.W. Provencher.          Ref.: Magn. Reson. Med. 30:672-679 (1993).                
 Slice#3 Row#9 Col#5  PD_24_press_2_raw_act
 36 lines in following concentration table = NCONC+1
    Conc.  %SD /Cr+PCr  Metabolite                                         
  171.282  72% 7.5E-02 Ala                                                 
   82.945 323% 3.6E-02 Asp                                                 
 1.60E+03  15%   0.700 Cr                                                  
  687.114  35%   0.300 PCr                                                 
    0.000 999%   0.000 GABA                                                
   77.593 231% 3.4E-02 Glc                                                 
  948.986  26%   0.415 Gln                                                 
 1.67E+03  16%   0.729 Glu                                                 
  546.331   5%   0.239 GPC                                                 
    0.000 999%   0.000 PCh                                                 
  801.042  11%   0.350 GSH                                                 
 1.68E+03  17%   0.735 Ins                                                 
  196.092  66% 8.6E-02 Lac                                                 
 2.90E+03   5%   1.268 NAA                                                 
  176.972  82% 7.7E-02 NAAG                                                
   54.780  54% 2.4E-02 Scyllo                                              
    0.000 999%   0.000 Tau                                                 
    0.000 999%   0.000 -CrCH2                                              
  546.331   5%   0.239 GPC+PCh                                             
 3.08E+03   3%   1.345 NAA+NAAG                                            
 2.29E+03   3%   1.000 Cr+PCr                                              
 2.62E+03  15%   1.143 Glu+Gln                                             
 1.64E+03  30%   0.718 Lip13a                                              
    0.000 999%   0.000 Lip13b                                              
    0.000 999%   0.000 Lip09                                               
 1.86E+03  14%   0.814 MM09                                                
  188.922 104% 8.3E-02 Lip20                                               
 3.72E+03  13%   1.625 MM20                                                
  651.034  30%   0.284 MM12                                                
 3.07E+03  17%   1.339 MM14                                                
 1.88E+03  12%   0.822 MM17                                                
 1.64E+03  30%   0.718 Lip13a+Lip13b                                       
 5.36E+03  11%   2.342 MM14+Lip13a+Lip13b+MM12                             
 1.86E+03  14%   0.814 MM09+Lip09                                          
 3.91E+03  12%   1.708 MM20+Lip20                                          
   6 lines in following misc. output table
  FWHM = 0.046 ppm    S/N =  14                                            
  Data shift = 0.023 ppm                                                   
  Ph:   6 deg       4.2 deg/ppm                                            
  alphaB,S = 1.7E+00,   5.3E+01                                            
   14 spline knots.   Ns = 6(1)                                            
  ( 9) 2 infls.   ( 5) 1 extrs.                                            
  498 points on ppm-axis = NY
      4.000000     3.992357     3.984714     3.977070     3.969427     3.961784     3.954141     3.946497     3.938854     3.931211
      3.923568     3.915925     3.908281     3.900638     3.892995     3.885352     3.877708     3.870065     3.862422     3.854779
      3.847136     3.839492     3.831849     3.824206     3.816563     3.808919     3.801276     3.793633     3.785990     3.778347
      3.770703     3.763060     3.755417     3.747774     3.740130     3.732487     3.724844     3.717201     3.709558     3.701914
      3.694271     3.686628     3.678985     3.671341     3.663698     3.656055     3.648412     3.640769     3.633125     3.625482
      3.617839     3.610196     3.602552     3.594909     3.587266     3.579623     3.571980     3.564336     3.556693     3.549050
      3.541407     3.533763     3.526120     3.518477     3.510834     3.503191     3.495547     3.487904     3.480261     3.472618
      3.464974     3.457331     3.449688     3.442045     3.434402     3.426758     3.419115     3.411472     3.403829     3.396185
      3.388542     3.380899     3.373256     3.365613     3.357969     3.350326     3.342683     3.335040     3.327396     3.319753
      3.312110     3.304467     3.296824     3.289180     3.281537     3.273894     3.266251     3.258607     3.250964     3.243321
      3.235678     3.228034     3.220391     3.212748     3.205105     3.197462     3.189818     3.182175     3.174532     3.166889
      3.159245     3.151602     3.143959     3.136316     3.128673     3.121029     3.113386     3.105743     3.098100     3.090456
      3.082813     3.075170     3.067527     3.059884     3.052240     3.044597     3.036954     3.029311     3.021667     3.014024
      3.006381     2.998738     2.991095     2.983451     2.975808     2.968165     2.960522     2.952878     2.945235     2.937592
      2.929949     2.922306     2.914662     2.907019     2.899376     2.891733     2.884089     2.876446     2.868803     2.861160
      2.853517     2.845873     2.838230     2.830587     2.822944     2.815300     2.807657     2.800014     2.792371     2.784728
      2.777084     2.769441     2.761798     2.754155     2.746511     2.738868     2.731225     2.723582     2.715939     2.708295
      2.700652     2.693009     2.685366     2.677722     2.670079     2.662436     2.654793     2.647150     2.639506     2.631863
      2.624220     2.616577     2.608933     2.601290     2.593647     2.586004     2.578361     2.570717     2.563074     2.555431
      2.547788     2.540144     2.532501     2.524858     2.517215     2.509572     2.501928     2.494285     2.486642     2.478999
      2.471355     2.463712     2.456069     2.448426     2.440783     2.433139     2.425496     2.417853     2.410210     2.402566
      2.394923     2.387280     2.379637     2.371994     2.364350     2.356707     2.349064     2.341421     2.333777     2.326134
      2.318491     2.310848     2.303205     2.295561     2.287918     2.280275     2.272632     2.264988     2.257345     2.249702
      2.242059     2.234416     2.226772     2.219129     2.211486     2.203843     2.196199     2.188556     2.180913     2.173270
      2.165627     2.157983     2.150340     2.142697     2.135054     2.127410     2.119767     2.112124     2.104481     2.096838
      2.089194     2.081551     2.073908     2.066265     2.058621     2.050978     2.043335     2.035692     2.028049     2.020405
      2.012762     2.005119     1.997476     1.989833     1.982190     1.974546     1.966903     1.959260     1.951617     1.943974
      1.936331     1.928688     1.921045     1.913402     1.905759     1.898115     1.890472     1.882829     1.875186     1.867543
      1.859900     1.852257     1.844614     1.836971     1.829327     1.821684     1.814041     1.806398     1.798755     1.791112
      1.783469     1.775826     1.768183     1.760540     1.752896     1.745253     1.737610     1.729967     1.722324     1.714681
      1.707038     1.699395     1.691752     1.684108     1.676465     1.668822     1.661179     1.653536     1.645893     1.638250
      1.630607     1.622964     1.615321     1.607677     1.600034     1.592391     1.584748     1.577105     1.569462     1.561819
      1.554176     1.546533     1.538890     1.531246     1.523603     1.515960     1.508317     1.500674     1.493031     1.485388
      1.477745     1.470102     1.462458     1.454815     1.447172     1.439529     1.431886     1.424243     1.416600     1.408957
      1.401314     1.393671     1.386027     1.378384     1.370741     1.363098     1.355455     1.347812     1.340169     1.332526
      1.324883     1.317240     1.309596     1.301953     1.294310     1.286667     1.279024     1.271381     1.263738     1.256095
      1.248452     1.240808     1.233165     1.225522     1.217879     1.210236     1.202593     1.194950     1.187307     1.179664
      1.172021     1.164377     1.156734     1.149091     1.141448     1.133805     1.126162     1.118519     1.110876     1.103233
      1.095590     1.087946     1.080303     1.072660     1.065017     1.057374     1.049731     1.042088     1.034445     1.026802
      1.019158     1.011515     1.003872     0.996229     0.988586     0.980943     0.973300     0.965657     0.958014     0.950371
      0.942727     0.935084     0.927441     0.919798     0.912155     0.904512     0.896869     0.889226     0.881583     0.873940
      0.866296     0.858653     0.851010     0.843367     0.835724     0.828081     0.820438     0.812795     0.805152     0.797508
      0.789865     0.782222     0.774579     0.766936     0.759293     0.751650     0.744007     0.736364     0.728721     0.721077
      0.713434     0.705791     0.698148     0.690505     0.682862     0.675219     0.667576     0.659933     0.652290     0.644646
      0.637003     0.629360     0.621717     0.614074     0.606431     0.598788     0.591145     0.583502     0.575858     0.568215
      0.560572     0.552929     0.545286     0.537643     0.530000     0.522357     0.514714     0.507071     0.499427     0.491784
      0.484141     0.476498     0.468855     0.461212     0.453569     0.445925     0.438282     0.430639     0.422996     0.415353
      0.407710     0.400067     0.392424     0.384780     0.377137     0.369494     0.361851     0.354208     0.346565     0.338922
      0.331278     0.323635     0.315992     0.308349     0.300706     0.293063     0.285420     0.277777     0.270133     0.262490
      0.254847     0.247204     0.239561     0.231918     0.224275     0.216631     0.208988     0.201345
 NY phased data points follow
   3.29460E+01  3.57464E+01  3.88246E+01  4.36320E+01  4.52215E+01  4.99043E+01  5.97233E+01  6.18923E+01  7.77837E+01  8.52089E+01
   8.84764E+01  8.75334E+01  9.03084E+01  7.59653E+01  7.51239E+01  6.14726E+01  5.70344E+01  4.39335E+01  4.37171E+01  3.92376E+01
   4.44939E+01  3.91746E+01  4.15458E+01  4.04646E+01  4.33748E+01  4.32806E+01  4.86504E+01  5.10564E+01  4.97351E+01  5.26615E+01
   5.41178E+01  5.23057E+01  5.01935E+01  4.55357E+01  4.21900E+01  4.04400E+01  3.82902E+01  3.49188E+01  3.68372E+01  4.03989E+01
   3.84373E+01  3.71039E+01  4.09355E+01  3.72342E+01  3.99742E+01  4.11204E+01  4.49349E+01  4.07240E+01  4.03884E+01  4.04023E+01
   4.24270E+01  3.38056E+01  3.88780E+01  3.13409E+01  2.86919E+01  2.73761E+01  3.49280E+01  3.73801E+01  3.38523E+01  3.58231E+01
   3.55579E+01  2.96885E+01  3.58573E+01  2.07368E+01  2.15451E+01  2.46873E+01  1.62340E+01  1.75837E+01  2.17850E+01  1.73134E+01
   2.49439E+01  2.68948E+01  2.56359E+01  2.25323E+01  2.35060E+01  2.13478E+01  2.36742E+01  1.94643E+01  1.75860E+01  1.39378E+01
   2.13772E+01  1.84608E+01  2.39257E+01  1.91980E+01  2.02991E+01  1.90240E+01  2.36059E+01  1.84936E+01  1.68870E+01  1.70530E+01
   1.88828E+01  1.79155E+01  1.46934E+01  1.76819E+01  1.73693E+01  1.36939E+01  1.96600E+01  1.49420E+01  2.75152E+01  3.29889E+01
   3.98140E+01  5.12182E+01  6.83776E+01  6.96617E+01  6.96657E+01  6.05536E+01  5.04018E+01  3.93187E+01  2.80981E+01  2.36358E+01
   1.86392E+01  2.17130E+01  2.70869E+01  2.70527E+01  1.67350E+01  1.73807E+01  1.61158E+01  1.54456E+01  1.44456E+01  1.58523E+01
   1.33441E+01  2.11393E+01  2.85519E+01  3.72813E+01  5.43491E+01  7.53210E+01  9.33190E+01  9.05798E+01  9.06041E+01  7.99466E+01
   6.62606E+01  5.08198E+01  3.91892E+01  3.20490E+01  1.88171E+01  1.65369E+01  1.91970E+01  1.35902E+01  9.89285E+00  1.37633E+01
   1.06242E+01  1.05275E+01  1.56454E+01  9.86389E+00  4.34564E+00  9.46120E+00  9.58886E+00  1.22466E+01  5.87836E+00  6.84228E+00
   1.07096E+01  3.03652E+00  3.65091E+00  4.31715E+00  2.98317E+00  4.32219E+00  4.87005E+00  1.10009E+01  7.22866E+00  8.86458E+00
   1.60662E+01  3.08175E+00  6.23382E+00 -5.92557E+00  1.89161E-01  1.60314E+00  7.31110E-01 -4.86517E+00  4.81207E+00 -5.34161E-01
   7.55706E+00  1.06665E+00  5.06791E-01  1.01992E+00 -7.53178E+00 -2.93446E+00 -5.74591E+00 -4.01142E+00 -7.47160E+00 -6.32911E+00
  -7.34454E+00 -7.84469E+00 -6.52883E+00 -6.98627E+00 -8.44279E+00 -8.50847E+00 -1.53670E+00  4.04527E-02  4.39734E+00  7.73644E+00
   9.15445E+00  1.25856E+01  1.17785E+01  1.10749E+01  1.81780E+01  1.16815E+01  8.02709E+00  5.54254E+00  5.61943E+00  7.57379E+00
   3.64653E+00  1.21569E+01  1.19118E+01  1.06937E+01  8.50768E+00  1.22658E+01  4.56551E+00  1.64839E+00  6.95802E+00  1.08526E-01
   1.61133E+00  1.38306E+00  1.02374E+01  9.52570E+00  1.85554E+01  2.11053E+01  1.91214E+01  1.71997E+01  1.26875E+01  2.59880E+00
   6.89968E+00  5.22654E+00  6.79709E+00  5.67680E+00  4.25119E+00  1.03547E+01  1.72765E+01  1.78972E+01  1.46270E+01  1.23830E+01
   1.43482E+01  1.38883E+01  2.09900E+01  1.21328E+01  1.11910E+01  5.11873E+00  1.83893E+01  1.77069E+01  1.58498E+01  1.45913E+01
   1.79966E+01  1.03980E+01  1.10676E+01  1.27247E+01  1.09889E+01  1.46330E+01  1.62625E+01  1.63117E+01  1.40418E+01  1.78877E+01
   1.20179E+01  1.31420E+01  2.11828E+01  2.72778E+01  3.60033E+01  4.31651E+01  5.50487E+01  7.24013E+01  9.54376E+01  1.17608E+02
   1.19553E+02  1.14711E+02  9.59582E+01  6.81396E+01  5.83721E+01  4.01880E+01  3.41636E+01  1.84819E+01  2.07472E+01  1.56165E+01
   1.83440E+01  1.41937E+01  1.56501E+01  1.02832E+01  6.28346E+00  7.14930E+00  7.13834E+00  7.93508E+00  6.53598E+00  7.06800E+00
   7.83261E+00  4.60607E+00  6.21506E+00  7.78632E+00  3.65840E+00  4.43271E-01  4.46411E+00  4.16065E+00 -1.42124E-01 -1.11421E+00
   1.90833E+00  4.66518E+00  4.96979E+00  8.33329E+00  9.78544E+00  1.72998E+00  6.21842E+00 -3.26829E-01  4.69545E+00  5.64747E+00
   1.20049E+01  8.59214E+00  1.07516E+01  1.36584E+01  1.39555E+01  1.97228E+01  1.19910E+01  1.80746E+01  1.48889E+01  1.77442E+01
   2.31778E+01  2.66619E+01  2.21461E+01  2.49516E+01  2.43080E+01  2.31065E+01  2.17473E+01  1.86611E+01  2.39826E+01  2.44008E+01
   2.76462E+01  2.99028E+01  2.25911E+01  2.00393E+01  1.75831E+01  1.64688E+01  2.31408E+01  2.52683E+01  2.29700E+01  2.14439E+01
   1.80560E+01  2.05401E+01  2.03324E+01  1.43006E+01  1.97044E+01  1.86849E+01  2.06582E+01  2.68229E+01  1.81947E+01  2.26164E+01
   2.44088E+01  2.14769E+01  1.94671E+01  1.98071E+01  2.32411E+01  2.11644E+01  2.17314E+01  1.80085E+01  1.96877E+01  1.41756E+01
   1.37713E+01  1.43750E+01  2.00651E+01  1.68691E+01  1.17024E+01  1.14797E+01  1.46732E+01  1.35204E+01  1.62821E+01  1.73959E+01
   1.59926E+01  2.14909E+01  1.39458E+01  1.16288E+01  1.84629E+01  1.73371E+01  1.38948E+01  8.98411E+00  1.57802E+01  1.12358E+01
   1.54115E+01  1.35680E+01  1.22138E+01  1.25194E+01  7.31635E+00  8.43043E+00  6.18468E+00  9.28878E+00  6.72473E+00  3.56604E+00
   2.46607E+00  1.48481E+01  6.68721E+00  7.87909E+00  7.49588E+00  1.02975E+01  4.03791E+00  4.30668E+00  7.33000E+00  6.76867E+00
   1.10637E+01  7.42280E+00  1.05854E+01  7.63843E+00  1.14960E+01  1.63311E+01  1.13145E+01  8.57202E+00  1.03147E+01  1.64775E+01
   1.66692E+01  1.16542E+01  1.84553E+01  1.52407E+01  1.53345E+01  1.36197E+01  1.54745E+01  1.44094E+01  1.65341E+01  1.31677E+01
   1.61697E+01  1.02087E+01  1.03609E+01  1.37249E+01  1.63392E+01  6.18246E+00  6.89855E+00  1.37499E+01  8.48860E+00  9.03181E+00
   8.63953E+00  6.69893E+00  8.37151E+00  7.61659E+00  3.45659E+00  8.31087E+00  1.41544E+01  2.34353E+00  6.94752E+00  2.44639E+00
   3.90286E+00  3.59909E+00  7.26956E+00  2.50575E+00  5.56295E+00  5.12639E+00 -1.54617E-01  1.09849E+01  5.34356E+00  6.42694E+00
   3.30485E-02  8.60474E+00  2.16302E+00  9.99201E+00  5.64159E+00  5.08508E-01  4.95158E+00  6.25429E+00 -1.28765E+00  8.44943E+00
   3.84422E+00  6.90041E+00  7.21796E+00 -2.50056E-01  2.58305E+00  6.17369E+00  5.15140E+00  8.17387E-01 -1.02724E+00  7.43400E+00
   6.07360E+00  5.22308E+00  6.52864E-01  5.87228E+00  7.69841E-01 -2.05170E-01  1.43573E+00  3.83993E+00  3.03562E+00  8.94325E+00
   3.59647E+00 -2.28716E+00  8.86595E+00  5.60692E+00  1.27323E+01  3.63690E+00  1.20430E+01  3.82579E+00  9.11760E+00  5.86565E+00
   1.90476E+00  8.94485E+00  3.01228E+00  4.33343E+00  2.65338E+00  2.31827E+00 -8.49779E-01  3.17446E+00  1.29565E+00  2.53073E+00
   4.22665E+00  4.64884E+00  2.68541E+00  1.41446E+00  1.71232E+00  1.46517E+00  3.11013E+00  5.62445E+00
 NY points of the fit to the data follow
   4.13496E+01  4.09093E+01  4.10129E+01  4.21720E+01  4.45145E+01  4.86703E+01  5.56739E+01  6.40910E+01  7.32999E+01  8.23926E+01
   8.87492E+01  8.97031E+01  8.53870E+01  7.76160E+01  6.85384E+01  6.00856E+01  5.31999E+01  4.80958E+01  4.39503E+01  4.07938E+01
   3.94744E+01  3.87163E+01  3.80543E+01  3.80741E+01  3.87431E+01  3.97535E+01  4.22572E+01  4.63902E+01  5.06818E+01  5.36488E+01
   5.48368E+01  5.39409E+01  5.10674E+01  4.72157E+01  4.33671E+01  3.96170E+01  3.59877E+01  3.35957E+01  3.27768E+01  3.23846E+01
   3.24624E+01  3.33659E+01  3.48659E+01  3.66583E+01  3.89845E+01  4.17020E+01  4.35785E+01  4.36687E+01  4.20632E+01  3.92078E+01
   3.58408E+01  3.28385E+01  3.06824E+01  2.92346E+01  2.82584E+01  2.79642E+01  2.84809E+01  2.94048E+01  3.02625E+01  3.07296E+01
   3.05412E+01  2.96530E+01  2.82449E+01  2.67391E+01  2.55528E+01  2.48842E+01  2.46935E+01  2.48387E+01  2.52101E+01  2.57114E+01
   2.61986E+01  2.64349E+01  2.63499E+01  2.59770E+01  2.53964E+01  2.47621E+01  2.41724E+01  2.36690E+01  2.31881E+01  2.27412E+01
   2.24756E+01  2.22733E+01  2.20256E+01  2.17798E+01  2.14268E+01  2.06950E+01  1.95582E+01  1.83283E+01  1.73582E+01  1.68607E+01
   1.69362E+01  1.73961E+01  1.79149E+01  1.83071E+01  1.86003E+01  1.87423E+01  1.89392E+01  2.09272E+01  2.56709E+01  3.20727E+01
   4.18250E+01  5.46726E+01  6.60043E+01  7.09945E+01  6.88299E+01  6.10122E+01  5.03651E+01  4.02774E+01  3.25216E+01  2.65693E+01
   2.10707E+01  1.70449E+01  1.58084E+01  1.54732E+01  1.53284E+01  1.52504E+01  1.51996E+01  1.51862E+01  1.53081E+01  1.57383E+01
   1.71292E+01  2.18852E+01  3.02601E+01  4.09761E+01  5.62012E+01  7.47575E+01  8.99471E+01  9.59304E+01  9.20092E+01  8.05528E+01
   6.58204E+01  5.19970E+01  4.06567E+01  3.07822E+01  2.11178E+01  1.42216E+01  1.17053E+01  1.13243E+01  1.20277E+01  1.31054E+01
   1.39808E+01  1.44846E+01  1.45520E+01  1.41720E+01  1.35486E+01  1.28325E+01  1.20730E+01  1.13371E+01  1.05781E+01  9.92485E+00
   9.38402E+00  8.90134E+00  8.50269E+00  8.24028E+00  8.07232E+00  7.83797E+00  7.55338E+00  7.13476E+00  6.46952E+00  5.74163E+00
   5.17829E+00  5.03248E+00  5.32459E+00  5.73149E+00  5.83401E+00  5.48165E+00  4.80250E+00  4.05427E+00  3.43330E+00  2.86189E+00
   2.22809E+00  1.51870E+00  8.04710E-01  1.06305E-01 -5.24756E-01 -8.80536E-01 -7.81257E-01 -4.43910E-01 -2.56675E-01 -3.71657E-01
  -6.35457E-01 -9.13893E-01 -9.70919E-01 -7.58308E-01 -4.57468E-01  1.45627E-01  1.55297E+00  3.74363E+00  6.25996E+00  8.39062E+00
   9.51184E+00  9.41293E+00  8.34201E+00  6.81789E+00  5.19754E+00  3.78688E+00  3.07633E+00  3.38217E+00  4.65707E+00  6.66708E+00
   9.07120E+00  1.13323E+01  1.30353E+01  1.37270E+01  1.29280E+01  1.08595E+01  7.80964E+00  4.10683E+00  7.79459E-01 -1.02702E+00
  -8.37499E-01  9.42040E-01  4.18727E+00  8.34403E+00  1.21387E+01  1.42150E+01  1.41175E+01  1.21198E+01  8.65890E+00  4.71385E+00
   1.36316E+00 -4.87816E-01 -3.99193E-01  1.42983E+00  4.54577E+00  7.75847E+00  1.02188E+01  1.16594E+01  1.21830E+01  1.21220E+01
   1.17658E+01  1.16313E+01  1.19601E+01  1.26865E+01  1.36313E+01  1.46153E+01  1.51366E+01  1.49368E+01  1.43878E+01  1.35225E+01
   1.23309E+01  1.13441E+01  1.12323E+01  1.19240E+01  1.29620E+01  1.42598E+01  1.55047E+01  1.63201E+01  1.67499E+01  1.73227E+01
   1.84518E+01  1.98590E+01  2.17244E+01  2.50809E+01  3.27379E+01  4.37823E+01  5.68349E+01  7.52722E+01  9.74609E+01  1.14620E+02
   1.19784E+02  1.12632E+02  9.61084E+01  7.56827E+01  5.73843E+01  4.34917E+01  3.21741E+01  2.15074E+01  1.44574E+01  1.19456E+01
   1.07533E+01  1.00296E+01  9.62387E+00  9.34092E+00  9.03305E+00  8.67506E+00  8.25769E+00  7.79936E+00  7.33770E+00  6.90097E+00
   6.49965E+00  6.15283E+00  5.87481E+00  5.65176E+00  5.45825E+00  5.27348E+00  5.10327E+00  4.96320E+00  4.85651E+00  4.78707E+00
   4.77022E+00  4.81453E+00  4.92232E+00  5.09143E+00  5.32809E+00  5.64088E+00  6.03865E+00  6.53576E+00  7.14559E+00  7.87442E+00
   8.72746E+00  9.70275E+00  1.07889E+01  1.19688E+01  1.32211E+01  1.45210E+01  1.58391E+01  1.71410E+01  1.83931E+01  1.95618E+01
   2.06147E+01  2.15249E+01  2.22713E+01  2.28410E+01  2.32309E+01  2.34472E+01  2.35051E+01  2.34288E+01  2.32505E+01  2.30111E+01
   2.27643E+01  2.25885E+01  2.24794E+01  2.23620E+01  2.22939E+01  2.21754E+01  2.17776E+01  2.10198E+01  2.00477E+01  1.91006E+01
   1.84539E+01  1.81538E+01  1.82412E+01  1.87573E+01  1.95909E+01  2.05361E+01  2.13759E+01  2.18604E+01  2.19649E+01  2.18226E+01
   2.16158E+01  2.14847E+01  2.13402E+01  2.10821E+01  2.09003E+01  2.06419E+01  1.99966E+01  1.88737E+01  1.74660E+01  1.61271E+01
   1.51071E+01  1.45015E+01  1.44302E+01  1.48730E+01  1.55805E+01  1.63256E+01  1.69036E+01  1.70762E+01  1.68784E+01  1.64759E+01
   1.60116E+01  1.55057E+01  1.48920E+01  1.42601E+01  1.37099E+01  1.31964E+01  1.26964E+01  1.22039E+01  1.17188E+01  1.12437E+01
   1.07826E+01  1.03397E+01  9.91928E+00  9.52543E+00  9.16219E+00  8.83336E+00  8.54232E+00  8.29194E+00  8.08465E+00  7.92265E+00
   7.80800E+00  7.74255E+00  7.72783E+00  7.76500E+00  7.85495E+00  7.99839E+00  8.19571E+00  8.44673E+00  8.75046E+00  9.10498E+00
   9.50741E+00  9.95380E+00  1.04389E+01  1.09560E+01  1.14967E+01  1.20513E+01  1.26086E+01  1.31569E+01  1.36834E+01  1.41748E+01
   1.46180E+01  1.50007E+01  1.53116E+01  1.55414E+01  1.56827E+01  1.57307E+01  1.56831E+01  1.55404E+01  1.53064E+01  1.49871E+01
   1.45908E+01  1.41274E+01  1.36086E+01  1.30464E+01  1.24537E+01  1.18427E+01  1.12250E+01  1.06110E+01  1.00100E+01  9.42982E+00
   8.87670E+00  8.35526E+00  7.86856E+00  7.41831E+00  7.00516E+00  6.62886E+00  6.28834E+00  5.98182E+00  5.70711E+00  5.46179E+00
   5.24346E+00  5.04972E+00  4.87813E+00  4.72630E+00  4.59199E+00  4.47323E+00  4.36833E+00  4.27575E+00  4.19401E+00  4.12178E+00
   4.05789E+00  4.00144E+00  3.95168E+00  3.90790E+00  3.86936E+00  3.83542E+00  3.80560E+00  3.77953E+00  3.75692E+00  3.73741E+00
   3.72060E+00  3.70619E+00  3.69401E+00  3.68393E+00  3.67581E+00  3.66944E+00  3.66458E+00  3.66109E+00  3.65894E+00  3.65808E+00
   3.65842E+00  3.65979E+00  3.66206E+00  3.66519E+00  3.66920E+00  3.67408E+00  3.67973E+00  3.68599E+00  3.69281E+00  3.70022E+00
   3.70826E+00  3.71689E+00  3.72601E+00  3.73552E+00  3.74542E+00  3.75577E+00  3.76659E+00  3.77782E+00  3.78934E+00  3.80113E+00
   3.81320E+00  3.82563E+00  3.83843E+00  3.85149E+00  3.86475E+00  3.87819E+00  3.89189E+00  3.90591E+00  3.92019E+00  3.93465E+00
   3.94925E+00  3.96402E+00  3.97905E+00  3.99435E+00  4.00987E+00  4.02553E+00  4.04133E+00  4.05734E+00
 NY background values follow
     3.632E+01    3.609E+01    3.587E+01    3.564E+01    3.542E+01    3.519E+01    3.496E+01    3.474E+01    3.451E+01    3.429E+01
     3.406E+01    3.383E+01    3.361E+01    3.338E+01    3.315E+01    3.293E+01    3.270E+01    3.248E+01    3.225E+01    3.202E+01
     3.180E+01    3.157E+01    3.134E+01    3.112E+01    3.089E+01    3.067E+01    3.044E+01    3.021E+01    2.999E+01    2.976E+01
     2.954E+01    2.931E+01    2.909E+01    2.886E+01    2.863E+01    2.841E+01    2.818E+01    2.796E+01    2.773E+01    2.751E+01
     2.729E+01    2.706E+01    2.684E+01    2.661E+01    2.639E+01    2.617E+01    2.594E+01    2.572E+01    2.550E+01    2.527E+01
     2.505E+01    2.483E+01    2.461E+01    2.438E+01    2.416E+01    2.394E+01    2.372E+01    2.350E+01    2.328E+01    2.306E+01
     2.284E+01    2.262E+01    2.241E+01    2.219E+01    2.197E+01    2.176E+01    2.154E+01    2.133E+01    2.111E+01    2.090E+01
     2.068E+01    2.047E+01    2.026E+01    2.005E+01    1.984E+01    1.963E+01    1.942E+01    1.921E+01    1.901E+01    1.880E+01
     1.859E+01    1.839E+01    1.819E+01    1.798E+01    1.778E+01    1.758E+01    1.738E+01    1.718E+01    1.698E+01    1.679E+01
     1.659E+01    1.640E+01    1.620E+01    1.601E+01    1.582E+01    1.563E+01    1.544E+01    1.525E+01    1.507E+01    1.488E+01
     1.470E+01    1.452E+01    1.433E+01    1.415E+01    1.397E+01    1.380E+01    1.362E+01    1.344E+01    1.327E+01    1.310E+01
     1.292E+01    1.275E+01    1.258E+01    1.242E+01    1.225E+01    1.208E+01    1.192E+01    1.176E+01    1.160E+01    1.144E+01
     1.128E+01    1.112E+01    1.097E+01    1.081E+01    1.066E+01    1.051E+01    1.036E+01    1.021E+01    1.006E+01    9.915E+00
     9.771E+00    9.628E+00    9.487E+00    9.347E+00    9.209E+00    9.072E+00    8.937E+00    8.803E+00    8.671E+00    8.541E+00
     8.411E+00    8.284E+00    8.158E+00    8.033E+00    7.910E+00    7.789E+00    7.669E+00    7.551E+00    7.434E+00    7.318E+00
     7.204E+00    7.092E+00    6.981E+00    6.871E+00    6.763E+00    6.657E+00    6.552E+00    6.448E+00    6.346E+00    6.245E+00
     6.146E+00    6.048E+00    5.952E+00    5.857E+00    5.764E+00    5.672E+00    5.581E+00    5.492E+00    5.405E+00    5.319E+00
     5.234E+00    5.151E+00    5.069E+00    4.988E+00    4.909E+00    4.832E+00    4.756E+00    4.681E+00    4.608E+00    4.536E+00
     4.465E+00    4.396E+00    4.328E+00    4.262E+00    4.197E+00    4.133E+00    4.070E+00    4.009E+00    3.949E+00    3.891E+00
     3.833E+00    3.777E+00    3.722E+00    3.667E+00    3.614E+00    3.563E+00    3.512E+00    3.462E+00    3.413E+00    3.365E+00
     3.318E+00    3.272E+00    3.227E+00    3.183E+00    3.140E+00    3.097E+00    3.055E+00    3.014E+00    2.974E+00    2.935E+00
     2.896E+00    2.858E+00    2.821E+00    2.784E+00    2.748E+00    2.712E+00    2.677E+00    2.643E+00    2.609E+00    2.575E+00
     2.542E+00    2.510E+00    2.478E+00    2.446E+00    2.415E+00    2.384E+00    2.353E+00    2.322E+00    2.292E+00    2.263E+00
     2.233E+00    2.204E+00    2.175E+00    2.146E+00    2.118E+00    2.090E+00    2.062E+00    2.035E+00    2.008E+00    1.981E+00
     1.955E+00    1.929E+00    1.903E+00    1.878E+00    1.853E+00    1.828E+00    1.804E+00    1.779E+00    1.756E+00    1.732E+00
     1.709E+00    1.687E+00    1.664E+00    1.642E+00    1.621E+00    1.599E+00    1.578E+00    1.558E+00    1.538E+00    1.518E+00
     1.498E+00    1.479E+00    1.460E+00    1.442E+00    1.424E+00    1.406E+00    1.389E+00    1.372E+00    1.355E+00    1.339E+00
     1.323E+00    1.308E+00    1.293E+00    1.278E+00    1.264E+00    1.250E+00    1.237E+00    1.224E+00    1.211E+00    1.199E+00
     1.187E+00    1.175E+00    1.164E+00    1.153E+00    1.142E+00    1.132E+00    1.122E+00    1.112E+00    1.103E+00    1.094E+00
     1.086E+00    1.077E+00    1.069E+00    1.062E+00    1.055E+00    1.048E+00    1.041E+00    1.035E+00    1.029E+00    1.023E+00
     1.017E+00    1.012E+00    1.007E+00    1.003E+00    9.985E-01    9.945E-01    9.907E-01    9.873E-01    9.841E-01    9.812E-01
     9.785E-01    9.762E-01    9.740E-01    9.722E-01    9.705E-01    9.692E-01    9.681E-01    9.672E-01    9.666E-01    9.662E-01
     9.660E-01    9.661E-01    9.664E-01    9.670E-01    9.678E-01    9.688E-01    9.701E-01    9.715E-01    9.732E-01    9.752E-01
     9.773E-01    9.797E-01    9.823E-01    9.852E-01    9.882E-01    9.915E-01    9.949E-01    9.986E-01    1.003E+00    1.007E+00
     1.011E+00    1.016E+00    1.020E+00    1.025E+00    1.030E+00    1.036E+00    1.041E+00    1.047E+00    1.053E+00    1.059E+00
     1.066E+00    1.072E+00    1.079E+00    1.086E+00    1.093E+00    1.100E+00    1.108E+00    1.115E+00    1.123E+00    1.131E+00
     1.140E+00    1.148E+00    1.157E+00    1.165E+00    1.174E+00    1.184E+00    1.193E+00    1.202E+00    1.212E+00    1.222E+00
     1.232E+00    1.242E+00    1.253E+00    1.263E+00    1.274E+00    1.285E+00    1.296E+00    1.308E+00    1.319E+00    1.331E+00
     1.343E+00    1.356E+00    1.368E+00    1.381E+00    1.393E+00    1.406E+00    1.420E+00    1.433E+00    1.447E+00    1.461E+00
     1.475E+00    1.489E+00    1.503E+00    1.518E+00    1.533E+00    1.548E+00    1.564E+00    1.579E+00    1.595E+00    1.611E+00
     1.627E+00    1.644E+00    1.661E+00    1.677E+00    1.695E+00    1.712E+00    1.730E+00    1.747E+00    1.766E+00    1.784E+00
     1.802E+00    1.821E+00    1.840E+00    1.859E+00    1.879E+00    1.898E+00    1.918E+00    1.938E+00    1.958E+00    1.978E+00
     1.998E+00    2.019E+00    2.040E+00    2.061E+00    2.082E+00    2.103E+00    2.124E+00    2.145E+00    2.167E+00    2.188E+00
     2.210E+00    2.232E+00    2.254E+00    2.275E+00    2.297E+00    2.320E+00    2.342E+00    2.364E+00    2.386E+00    2.408E+00
     2.431E+00    2.453E+00    2.476E+00    2.498E+00    2.521E+00    2.543E+00    2.565E+00    2.588E+00    2.610E+00    2.633E+00
     2.655E+00    2.678E+00    2.700E+00    2.722E+00    2.745E+00    2.767E+00    2.789E+00    2.812E+00    2.834E+00    2.856E+00
     2.878E+00    2.900E+00    2.922E+00    2.944E+00    2.966E+00    2.988E+00    3.010E+00    3.032E+00    3.054E+00    3.076E+00
     3.097E+00    3.119E+00    3.141E+00    3.163E+00    3.184E+00    3.206E+00    3.228E+00    3.249E+00    3.271E+00    3.292E+00
     3.314E+00    3.335E+00    3.357E+00    3.378E+00    3.400E+00    3.421E+00    3.443E+00    3.464E+00    3.485E+00    3.506E+00
     3.528E+00    3.549E+00    3.570E+00    3.591E+00    3.612E+00    3.634E+00    3.655E+00    3.676E+00
 Ala      Conc. = 1.71E+02
