 LCModel (Version 6.3-1L) Copyright: S.W. Provencher.          Ref.: Magn. Reson. Med. 30:672-679 (1993).                
 Slice#3 Row#6 Col#4  PD_24_press_2_raw_act
 36 lines in following concentration table = NCONC+1
    Conc.  %SD /Cr+PCr  Metabolite                                         
  211.199  99%   0.235 Ala                                                 
  131.879 175%   0.146 Asp                                                 
  409.816  93%   0.455 Cr                                                  
  490.388  78%   0.545 PCr                                                 
  101.471 140%   0.113 GABA                                                
  103.753 138%   0.115 Glc                                                 
  944.341  46%   1.049 Gln                                                 
 1.04E+03  46%   1.155 Glu                                                 
  518.937   7%   0.576 GPC                                                 
    0.000 999%   0.000 PCh                                                 
  632.709  22%   0.703 GSH                                                 
 1.28E+03  36%   1.424 Ins                                                 
  158.108 152%   0.176 Lac                                                 
 1.77E+03   9%   1.968 NAA                                                 
  237.872  71%   0.264 NAAG                                                
   39.450  94% 4.4E-02 Scyllo                                              
    0.000 999%   0.000 Tau                                                 
    0.000 999%   0.000 -CrCH2                                              
  518.937   7%   0.576 GPC+PCh                                             
 2.01E+03   6%   2.232 NAA+NAAG                                            
  900.204  10%   1.000 Cr+PCr                                              
 1.98E+03  34%   2.204 Glu+Gln                                             
 1.42E+03  61%   1.579 Lip13a                                              
  473.576  87%   0.526 Lip13b                                              
    0.000 999%   0.000 Lip09                                               
  507.421  55%   0.564 MM09                                                
  503.634  55%   0.559 Lip20                                               
  863.493  51%   0.959 MM20                                                
  154.380  62%   0.171 MM12                                                
  263.773 108%   0.293 MM14                                                
  392.783  43%   0.436 MM17                                                
 1.89E+03  29%   2.105 Lip13a+Lip13b                                       
 2.31E+03  28%   2.569 MM14+Lip13a+Lip13b+MM12                             
  507.421  55%   0.564 MM09+Lip09                                          
 1.37E+03  36%   1.519 MM20+Lip20                                          
   6 lines in following misc. output table
  FWHM = 0.061 ppm    S/N =   4                                            
  Data shift = 0.015 ppm                                                   
  Ph:  -8 deg       3.6 deg/ppm                                            
  alphaB,S = 9.9E-01,   9.8E+01                                            
   14 spline knots.   Ns = 6(1)                                            
  (12) 2 infls.   ( 7) 1 extrs.                                            
  498 points on ppm-axis = NY
      4.000000     3.992357     3.984714     3.977070     3.969427     3.961784     3.954141     3.946497     3.938854     3.931211
      3.923568     3.915925     3.908281     3.900638     3.892995     3.885352     3.877708     3.870065     3.862422     3.854779
      3.847136     3.839492     3.831849     3.824206     3.816563     3.808919     3.801276     3.793633     3.785990     3.778347
      3.770703     3.763060     3.755417     3.747774     3.740130     3.732487     3.724844     3.717201     3.709558     3.701914
      3.694271     3.686628     3.678985     3.671341     3.663698     3.656055     3.648412     3.640769     3.633125     3.625482
      3.617839     3.610196     3.602552     3.594909     3.587266     3.579623     3.571980     3.564336     3.556693     3.549050
      3.541407     3.533763     3.526120     3.518477     3.510834     3.503191     3.495547     3.487904     3.480261     3.472618
      3.464974     3.457331     3.449688     3.442045     3.434402     3.426758     3.419115     3.411472     3.403829     3.396185
      3.388542     3.380899     3.373256     3.365613     3.357969     3.350326     3.342683     3.335040     3.327396     3.319753
      3.312110     3.304467     3.296824     3.289180     3.281537     3.273894     3.266251     3.258607     3.250964     3.243321
      3.235678     3.228034     3.220391     3.212748     3.205105     3.197462     3.189818     3.182175     3.174532     3.166889
      3.159245     3.151602     3.143959     3.136316     3.128673     3.121029     3.113386     3.105743     3.098100     3.090456
      3.082813     3.075170     3.067527     3.059884     3.052240     3.044597     3.036954     3.029311     3.021667     3.014024
      3.006381     2.998738     2.991095     2.983451     2.975808     2.968165     2.960522     2.952878     2.945235     2.937592
      2.929949     2.922306     2.914662     2.907019     2.899376     2.891733     2.884089     2.876446     2.868803     2.861160
      2.853517     2.845873     2.838230     2.830587     2.822944     2.815300     2.807657     2.800014     2.792371     2.784728
      2.777084     2.769441     2.761798     2.754155     2.746511     2.738868     2.731225     2.723582     2.715939     2.708295
      2.700652     2.693009     2.685366     2.677722     2.670079     2.662436     2.654793     2.647150     2.639506     2.631863
      2.624220     2.616577     2.608933     2.601290     2.593647     2.586004     2.578361     2.570717     2.563074     2.555431
      2.547788     2.540144     2.532501     2.524858     2.517215     2.509572     2.501928     2.494285     2.486642     2.478999
      2.471355     2.463712     2.456069     2.448426     2.440783     2.433139     2.425496     2.417853     2.410210     2.402566
      2.394923     2.387280     2.379637     2.371994     2.364350     2.356707     2.349064     2.341421     2.333777     2.326134
      2.318491     2.310848     2.303205     2.295561     2.287918     2.280275     2.272632     2.264988     2.257345     2.249702
      2.242059     2.234416     2.226772     2.219129     2.211486     2.203843     2.196199     2.188556     2.180913     2.173270
      2.165627     2.157983     2.150340     2.142697     2.135054     2.127410     2.119767     2.112124     2.104481     2.096838
      2.089194     2.081551     2.073908     2.066265     2.058621     2.050978     2.043335     2.035692     2.028049     2.020405
      2.012762     2.005119     1.997476     1.989833     1.982190     1.974546     1.966903     1.959260     1.951617     1.943974
      1.936331     1.928688     1.921045     1.913402     1.905759     1.898115     1.890472     1.882829     1.875186     1.867543
      1.859900     1.852257     1.844614     1.836971     1.829327     1.821684     1.814041     1.806398     1.798755     1.791112
      1.783469     1.775826     1.768183     1.760540     1.752896     1.745253     1.737610     1.729967     1.722324     1.714681
      1.707038     1.699395     1.691752     1.684108     1.676465     1.668822     1.661179     1.653536     1.645893     1.638250
      1.630607     1.622964     1.615321     1.607677     1.600034     1.592391     1.584748     1.577105     1.569462     1.561819
      1.554176     1.546533     1.538890     1.531246     1.523603     1.515960     1.508317     1.500674     1.493031     1.485388
      1.477745     1.470102     1.462458     1.454815     1.447172     1.439529     1.431886     1.424243     1.416600     1.408957
      1.401314     1.393671     1.386027     1.378384     1.370741     1.363098     1.355455     1.347812     1.340169     1.332526
      1.324883     1.317240     1.309596     1.301953     1.294310     1.286667     1.279024     1.271381     1.263738     1.256095
      1.248452     1.240808     1.233165     1.225522     1.217879     1.210236     1.202593     1.194950     1.187307     1.179664
      1.172021     1.164377     1.156734     1.149091     1.141448     1.133805     1.126162     1.118519     1.110876     1.103233
      1.095590     1.087946     1.080303     1.072660     1.065017     1.057374     1.049731     1.042088     1.034445     1.026802
      1.019158     1.011515     1.003872     0.996229     0.988586     0.980943     0.973300     0.965657     0.958014     0.950371
      0.942727     0.935084     0.927441     0.919798     0.912155     0.904512     0.896869     0.889226     0.881583     0.873940
      0.866296     0.858653     0.851010     0.843367     0.835724     0.828081     0.820438     0.812795     0.805152     0.797508
      0.789865     0.782222     0.774579     0.766936     0.759293     0.751650     0.744007     0.736364     0.728721     0.721077
      0.713434     0.705791     0.698148     0.690505     0.682862     0.675219     0.667576     0.659933     0.652290     0.644646
      0.637003     0.629360     0.621717     0.614074     0.606431     0.598788     0.591145     0.583502     0.575858     0.568215
      0.560572     0.552929     0.545286     0.537643     0.530000     0.522357     0.514714     0.507071     0.499427     0.491784
      0.484141     0.476498     0.468855     0.461212     0.453569     0.445925     0.438282     0.430639     0.422996     0.415353
      0.407710     0.400067     0.392424     0.384780     0.377137     0.369494     0.361851     0.354208     0.346565     0.338922
      0.331278     0.323635     0.315992     0.308349     0.300706     0.293063     0.285420     0.277777     0.270133     0.262490
      0.254847     0.247204     0.239561     0.231918     0.224275     0.216631     0.208988     0.201345
 NY phased data points follow
   6.52294E+01  7.33256E+01  7.06433E+01  6.88446E+01  7.84038E+01  7.09964E+01  8.30532E+01  8.24466E+01  8.77652E+01  8.90472E+01
   9.34035E+01  9.24962E+01  9.40296E+01  9.32363E+01  8.54337E+01  7.59879E+01  8.08511E+01  6.76173E+01  6.81726E+01  6.32093E+01
   7.80164E+01  5.92956E+01  6.53141E+01  5.52222E+01  7.64924E+01  6.40533E+01  7.44188E+01  7.02260E+01  7.20652E+01  6.77800E+01
   6.53853E+01  6.38943E+01  6.89398E+01  6.06170E+01  5.68884E+01  5.01828E+01  5.32443E+01  5.01072E+01  5.81281E+01  4.88242E+01
   5.31826E+01  4.82890E+01  4.97001E+01  5.43877E+01  4.25096E+01  4.79465E+01  4.73579E+01  5.94358E+01  6.41297E+01  5.52724E+01
   5.88685E+01  4.48858E+01  5.91203E+01  5.05579E+01  4.97951E+01  3.51689E+01  4.91134E+01  3.96786E+01  5.84868E+01  3.89943E+01
   4.42801E+01  3.26249E+01  4.16195E+01  4.33270E+01  4.66669E+01  3.40808E+01  3.55367E+01  2.83484E+01  3.37223E+01  2.90798E+01
   2.95377E+01  2.83866E+01  3.96768E+01  5.47347E+01  3.82148E+01  2.91631E+01  3.04024E+01  2.68358E+01  3.06158E+01  3.64231E+01
   2.82726E+01  3.25988E+01  3.75707E+01  3.09937E+01  2.40005E+01  2.53694E+01  3.95366E+01  3.31576E+01  4.00051E+01  1.94030E+01
   3.61987E+01  1.63400E+01  2.96798E+01  1.66145E+01  2.32838E+01  2.89296E+01  3.17789E+01  2.42932E+01  3.69698E+01  4.51503E+01
   3.89032E+01  5.92684E+01  7.23456E+01  7.40708E+01  7.08001E+01  7.12376E+01  5.14962E+01  4.63798E+01  4.39588E+01  4.17793E+01
   3.15972E+01  2.42677E+01  2.42011E+01  2.09472E+01  1.91271E+01  1.48679E+01  2.37086E+01  1.38904E+01  1.41029E+01  1.51243E+01
   1.21196E+01  1.91929E+00  1.42250E+01  2.83105E+01  2.41617E+01  2.50393E+01  3.39715E+01  4.20964E+01  4.66424E+01  4.13116E+01
   4.10383E+01  3.12633E+01  3.31702E+01  2.22534E+01  2.68008E+01  2.22578E+01  1.55604E+01  1.53057E+01  1.36337E+01  1.54944E+01
   7.38363E+00  1.66782E+01  1.44428E+01  1.79974E+01  8.98665E+00  1.11156E+01  1.34498E+01  5.70643E+00  1.69268E+01  7.49134E+00
   1.63992E+01  5.44132E+00  1.31563E+01  1.98580E+01  5.54209E+00  1.32738E+01  1.55803E+01  2.44070E+00  1.65974E+01  8.75788E-01
   2.42669E+01  1.81525E+01  1.67544E+01  1.17232E+01  8.06222E+00  9.48760E+00  6.29519E+00 -5.05128E-01  7.23913E+00 -2.65553E+00
   1.78337E+01  5.85432E+00  6.12447E+00  1.01497E+01  3.83201E+00 -5.59287E-01  1.73884E+01  4.34541E+00  1.06498E+01  5.07311E-02
  -4.22864E-01  5.35596E+00  7.64854E+00 -1.96196E+00  2.41197E+00 -1.71820E+01 -6.03025E-01  6.95231E+00  1.60937E+00  8.21704E+00
   1.21026E+01  1.46737E+01  9.14814E+00  5.64622E+00  1.53669E+01  9.28423E+00  1.73826E+01  4.16189E+00  1.13874E+01  9.83303E+00
   1.48560E+01  6.11919E+00  1.48478E+01  1.82206E+00  1.82604E+01  1.36306E+01  1.00847E+01  2.40670E+00  1.28391E+01 -2.54184E+00
  -5.53329E+00  1.18824E+01  7.20288E+00  1.22026E+01  1.78523E+01  1.03985E+01  4.44513E+00  1.90606E+01  1.14065E+01  1.92660E+01
   1.65697E+01  1.53602E+01  2.93817E+00  1.13338E+01  1.02447E+01  1.26359E+01  1.64638E+01  1.63072E+01  2.24633E+01  1.69216E+01
   1.88437E+01  1.63099E+01  8.78913E+00  1.54431E+01  2.08337E+01  1.18414E+01  8.01257E+00  1.25984E+01  2.28054E+01  1.23914E+01
   1.80957E+01  6.95868E+00  4.90705E+00  1.91974E+01  1.11647E+01  1.03101E+01  3.79048E+00  2.14332E+01  2.18168E+01  1.42935E+01
   2.51931E+01  1.24880E+01  8.55544E+00  1.76609E+01  2.81645E+01  2.84833E+01  3.65195E+01  4.36159E+01  5.34438E+01  5.78682E+01
   6.35805E+01  7.44924E+01  7.40490E+01  6.82106E+01  5.03358E+01  3.07726E+01  2.65252E+01  1.73965E+01  2.00998E+01  1.68016E+01
   2.10233E+01  1.73650E+01  1.64581E+01  9.42473E+00  9.00475E+00  4.95617E+00  2.33884E+01  6.69156E+00  1.62971E+01 -3.73800E+00
   9.41587E+00  4.97246E+00  1.30526E+01  8.49662E+00  1.06772E+01  8.44298E+00  1.83951E+01  1.50307E+01  7.58256E+00  8.78794E-01
   3.44733E+00 -1.37704E+00  1.89224E+01  1.46224E+01  5.04175E+00  4.58189E+00  4.36636E-01 -4.59739E+00  6.14614E+00  8.97303E+00
   1.48029E+01  1.05965E+01  5.43576E+00  1.49575E+01  1.34902E+01  9.43650E+00  2.35151E+01  2.20269E+01  1.86448E+01  1.62396E+01
   2.23016E+01  1.05269E+01  2.44383E+01  1.25425E+01  1.76565E+01  9.04025E+00  1.78218E+01  1.15722E+01  1.41024E+01  3.64113E+00
   1.36511E+01  1.49951E+01  5.18846E+00  4.57925E+00 -3.51237E+00 -7.08264E+00 -5.71515E+00  6.82112E+00 -1.60677E+00 -1.03280E+00
   4.20356E+00 -4.63659E-01  5.64738E-01  3.99396E+00  1.04073E+01  2.84095E+00  3.11262E+00  1.60093E+01  1.74233E+01  9.85158E+00
   1.55793E+01  8.55650E+00  1.56390E+01  7.86438E+00  2.33984E+01  1.35898E+01  1.33898E+01  7.03279E+00  1.59559E+01  1.48664E+01
   7.12322E+00  3.71779E+00  1.91870E+01  1.53292E+01  2.47222E+01  2.57333E+01  2.30026E+01  1.58240E+01  1.74324E+01  1.67019E+01
   1.38020E+01  1.29517E+01  1.28095E+01  1.46992E+01  1.86643E+01  1.94052E+01  1.03893E+01  1.64261E+01  1.35728E+01  1.83451E+01
   5.50517E+00  1.24125E+01  1.12383E+01  2.45187E+00  8.65666E+00  1.51448E+01  3.19169E+00  9.29655E+00  8.59444E+00  2.94088E+00
   3.26166E+00 -5.15218E+00  1.29222E+01  1.30103E+01  6.43809E+00  1.09721E+01  1.51693E+01  1.54909E+01  7.17734E+00  7.73048E+00
   7.86771E+00 -4.21075E+00  1.03527E+01  1.34148E+01  8.34893E+00 -6.82779E-01  6.03157E+00 -6.26436E+00  5.14621E+00  7.34854E+00
   6.93243E+00 -5.13902E-01 -2.84862E+00  4.30018E+00  1.74589E+01 -6.55464E-01  1.14809E+01  1.09218E+01 -1.41933E+00 -3.68685E+00
   5.01435E+00  5.00270E+00  1.57059E+00  5.08144E+00  1.27959E+01  1.40056E+00  4.16811E+00  7.70551E+00  1.10780E+01  1.00249E+01
   1.23115E+01  7.91085E+00  9.81942E+00  3.73791E+00  1.19857E-01 -1.23759E+00  1.99548E+00  5.56471E+00  6.39304E+00  5.42196E+00
  -1.23263E+00  4.29733E+00  1.14480E+01 -7.60412E-02  1.14700E+01  4.02713E+00  2.77832E+00  5.52546E+00  8.15029E+00  1.10320E+01
   8.01491E+00  4.61607E+00  7.16762E+00  4.93963E+00  1.05271E+01  6.09034E-01  5.75140E+00  1.98663E+00 -3.33978E+00  5.96858E+00
   6.39762E+00  5.70283E+00 -8.92341E+00 -9.47348E+00  5.93536E+00  5.43134E+00  5.01200E+00  4.91362E+00  7.35728E+00 -1.78699E+00
   7.05323E+00 -3.85372E+00 -1.69194E+00  1.24826E+00  9.33881E+00  2.09752E+00  2.16329E+00  6.84031E-01  1.25822E+00 -8.21200E+00
   2.87004E+00  8.91981E-01  1.26581E+01  1.76925E+00  9.52655E+00  1.04044E+01  2.28118E+00  8.64783E+00  1.09903E+00  9.16916E+00
   1.20116E+00  8.13970E+00  1.40378E+01  2.28047E+00  6.31379E+00  1.11798E+00  9.96162E-01 -2.52262E+00  8.56277E+00  1.51728E+01
   1.27518E+01 -1.36233E+00  4.85250E+00 -1.33286E+00  1.07460E+01  1.57467E+00  7.81954E+00 -4.79156E+00
 NY points of the fit to the data follow
   6.83419E+01  6.75151E+01  6.71032E+01  6.71473E+01  6.80048E+01  6.96992E+01  7.21024E+01  7.49227E+01  7.78217E+01  8.04160E+01
   8.22262E+01  8.27542E+01  8.16830E+01  7.90970E+01  7.54887E+01  7.14941E+01  6.76709E+01  6.44906E+01  6.23040E+01  6.09897E+01
   6.03120E+01  5.97486E+01  5.91349E+01  5.88457E+01  5.92163E+01  6.00880E+01  6.14394E+01  6.33243E+01  6.55663E+01  6.76937E+01
   6.90999E+01  6.92353E+01  6.79360E+01  6.55192E+01  6.23546E+01  5.87671E+01  5.52673E+01  5.28037E+01  5.15339E+01  5.07814E+01
   5.05047E+01  5.07000E+01  5.13381E+01  5.22566E+01  5.32948E+01  5.43492E+01  5.53027E+01  5.60020E+01  5.61184E+01  5.53007E+01
   5.35731E+01  5.12778E+01  4.87519E+01  4.63065E+01  4.43591E+01  4.32126E+01  4.29002E+01  4.31068E+01  4.34746E+01  4.37570E+01
   4.38086E+01  4.35257E+01  4.28664E+01  4.18970E+01  4.07779E+01  3.96784E+01  3.87620E+01  3.81869E+01  3.80112E+01  3.81183E+01
   3.83700E+01  3.85938E+01  3.86613E+01  3.85117E+01  3.81347E+01  3.75816E+01  3.69365E+01  3.62649E+01  3.56116E+01  3.50049E+01
   3.45678E+01  3.42609E+01  3.39388E+01  3.35282E+01  3.30187E+01  3.23907E+01  3.16076E+01  3.06811E+01  2.97093E+01  2.88510E+01
   2.82699E+01  2.80567E+01  2.81530E+01  2.84714E+01  2.89833E+01  2.95714E+01  3.04483E+01  3.29822E+01  3.77627E+01  4.40073E+01
   5.12443E+01  5.91133E+01  6.65343E+01  7.17358E+01  7.30640E+01  6.97717E+01  6.24415E+01  5.28682E+01  4.29339E+01  3.38060E+01
   2.66216E+01  2.30899E+01  2.22203E+01  2.19121E+01  2.17113E+01  2.15302E+01  2.13477E+01  2.11584E+01  2.09930E+01  2.09156E+01
   2.10817E+01  2.21003E+01  2.46780E+01  2.84615E+01  3.29811E+01  3.79988E+01  4.30642E+01  4.72818E+01  4.95441E+01  4.90441E+01
   4.57627E+01  4.04695E+01  3.42515E+01  2.79400E+01  2.21672E+01  1.80766E+01  1.61943E+01  1.53957E+01  1.52648E+01  1.56752E+01
   1.64610E+01  1.73982E+01  1.81084E+01  1.83400E+01  1.81291E+01  1.75815E+01  1.68493E+01  1.61268E+01  1.54623E+01  1.49316E+01
   1.44870E+01  1.40832E+01  1.37270E+01  1.34369E+01  1.32097E+01  1.29859E+01  1.27377E+01  1.24654E+01  1.21519E+01  1.18173E+01
   1.14744E+01  1.11498E+01  1.08953E+01  1.07529E+01  1.07020E+01  1.06498E+01  1.05252E+01  1.03044E+01  9.96987E+00  9.50007E+00
   8.93805E+00  8.35615E+00  7.85323E+00  7.47686E+00  7.13671E+00  6.77484E+00  6.44695E+00  6.23560E+00  6.14883E+00  6.12378E+00
   6.09026E+00  5.99446E+00  5.88866E+00  5.89307E+00  6.06302E+00  6.47299E+00  7.24374E+00  8.32591E+00  9.56853E+00  1.07454E+01
   1.16047E+01  1.19324E+01  1.16132E+01  1.07295E+01  9.49211E+00  8.18341E+00  7.21708E+00  6.95484E+00  7.53577E+00  8.90635E+00
   1.07777E+01  1.26778E+01  1.42105E+01  1.50556E+01  1.48281E+01  1.35363E+01  1.14917E+01  9.00648E+00  6.46654E+00  4.46625E+00
   3.57515E+00  3.95940E+00  5.49062E+00  7.82984E+00  1.04239E+01  1.26596E+01  1.40076E+01  1.40592E+01  1.27865E+01  1.08628E+01
   8.85984E+00  7.11759E+00  6.04334E+00  5.97608E+00  6.97426E+00  8.49426E+00  9.99044E+00  1.11795E+01  1.19102E+01  1.20888E+01
   1.16948E+01  1.11117E+01  1.08059E+01  1.09162E+01  1.13361E+01  1.19764E+01  1.26202E+01  1.29815E+01  1.29135E+01  1.23689E+01
   1.14733E+01  1.04635E+01  9.56884E+00  8.91695E+00  8.60831E+00  8.84893E+00  9.48888E+00  1.02608E+01  1.10761E+01  1.20244E+01
   1.32042E+01  1.45253E+01  1.60695E+01  1.81515E+01  2.19322E+01  2.83943E+01  3.65324E+01  4.53279E+01  5.43419E+01  6.27991E+01
   6.91537E+01  7.16509E+01  6.91020E+01  6.17698E+01  5.14908E+01  4.02038E+01  2.91837E+01  1.96209E+01  1.35940E+01  1.13945E+01
   1.04640E+01  9.93410E+00  9.65379E+00  9.52060E+00  9.45195E+00  9.40695E+00  9.33168E+00  9.19289E+00  8.98503E+00  8.72899E+00
   8.45468E+00  8.20371E+00  8.00997E+00  7.87998E+00  7.80602E+00  7.77048E+00  7.75924E+00  7.76550E+00  7.78144E+00  7.80022E+00
   7.82868E+00  7.87481E+00  7.93878E+00  8.01621E+00  8.10696E+00  8.20670E+00  8.31052E+00  8.41821E+00  8.52940E+00  8.64249E+00
   8.76062E+00  8.88300E+00  9.00263E+00  9.11249E+00  9.20640E+00  9.27935E+00  9.32684E+00  9.34498E+00  9.33491E+00  9.29922E+00
   9.24057E+00  9.16291E+00  9.07056E+00  8.96834E+00  8.86193E+00  8.75760E+00  8.66238E+00  8.58444E+00  8.53414E+00  8.52740E+00
   8.59729E+00  8.79310E+00  9.05257E+00  9.27253E+00  9.40729E+00  9.41158E+00  9.20492E+00  8.71110E+00  7.91825E+00  6.99135E+00
   6.18915E+00  5.68639E+00  5.57547E+00  5.90135E+00  6.68135E+00  7.84272E+00  9.07460E+00  1.01168E+01  1.08836E+01  1.13833E+01
   1.17018E+01  1.19386E+01  1.21209E+01  1.23570E+01  1.27174E+01  1.31119E+01  1.34509E+01  1.36613E+01  1.37299E+01  1.37820E+01
   1.39637E+01  1.43634E+01  1.50124E+01  1.58882E+01  1.69308E+01  1.80252E+01  1.88977E+01  1.93288E+01  1.92774E+01  1.87951E+01
   1.79794E+01  1.69234E+01  1.57467E+01  1.46441E+01  1.36699E+01  1.28002E+01  1.20268E+01  1.13432E+01  1.07401E+01  1.02069E+01
   9.73294E+00  9.30868E+00  8.92646E+00  8.58059E+00  8.26705E+00  7.98316E+00  7.72718E+00  7.49795E+00  7.29466E+00  7.11672E+00
   6.96362E+00  6.83494E+00  6.73030E+00  6.64932E+00  6.59168E+00  6.55701E+00  6.54492E+00  6.55494E+00  6.58640E+00  6.63843E+00
   6.70985E+00  6.79912E+00  6.90427E+00  7.02286E+00  7.15194E+00  7.28809E+00  7.42745E+00  7.56581E+00  7.69873E+00  7.82165E+00
   7.93011E+00  8.01991E+00  8.08731E+00  8.12919E+00  8.14322E+00  8.12795E+00  8.08289E+00  8.00850E+00  7.90620E+00  7.77825E+00
   7.62759E+00  7.45774E+00  7.27256E+00  7.07613E+00  6.87250E+00  6.66555E+00  6.45887E+00  6.25561E+00  6.05845E+00  5.86954E+00
   5.69052E+00  5.52251E+00  5.36615E+00  5.22170E+00  5.08909E+00  4.96795E+00  4.85774E+00  4.75776E+00  4.66724E+00  4.58535E+00
   4.51129E+00  4.44426E+00  4.38351E+00  4.32834E+00  4.27813E+00  4.23230E+00  4.19035E+00  4.15183E+00  4.11636E+00  4.08359E+00
   4.05322E+00  4.02500E+00  3.99870E+00  3.97413E+00  3.95113E+00  3.92954E+00  3.90923E+00  3.89010E+00  3.87203E+00  3.85495E+00
   3.83877E+00  3.82343E+00  3.80885E+00  3.79500E+00  3.78183E+00  3.76929E+00  3.75733E+00  3.74591E+00  3.73501E+00  3.72459E+00
   3.71462E+00  3.70507E+00  3.69592E+00  3.68714E+00  3.67871E+00  3.67063E+00  3.66286E+00  3.65539E+00  3.64819E+00  3.64125E+00
   3.63456E+00  3.62810E+00  3.62186E+00  3.61583E+00  3.60999E+00  3.60433E+00  3.59885E+00  3.59353E+00  3.58835E+00  3.58331E+00
   3.57839E+00  3.57358E+00  3.56889E+00  3.56428E+00  3.55977E+00  3.55532E+00  3.55094E+00  3.54662E+00  3.54234E+00  3.53810E+00
   3.53388E+00  3.52967E+00  3.52547E+00  3.52126E+00  3.51704E+00  3.51278E+00  3.50847E+00  3.50411E+00
 NY background values follow
     6.258E+01    6.217E+01    6.175E+01    6.134E+01    6.093E+01    6.051E+01    6.010E+01    5.969E+01    5.927E+01    5.886E+01
     5.844E+01    5.803E+01    5.762E+01    5.720E+01    5.679E+01    5.638E+01    5.596E+01    5.555E+01    5.514E+01    5.472E+01
     5.431E+01    5.390E+01    5.349E+01    5.308E+01    5.266E+01    5.225E+01    5.184E+01    5.143E+01    5.102E+01    5.062E+01
     5.021E+01    4.980E+01    4.939E+01    4.899E+01    4.858E+01    4.817E+01    4.777E+01    4.737E+01    4.696E+01    4.656E+01
     4.616E+01    4.576E+01    4.536E+01    4.496E+01    4.456E+01    4.417E+01    4.377E+01    4.337E+01    4.298E+01    4.259E+01
     4.220E+01    4.181E+01    4.142E+01    4.103E+01    4.064E+01    4.026E+01    3.987E+01    3.949E+01    3.911E+01    3.873E+01
     3.835E+01    3.797E+01    3.760E+01    3.722E+01    3.685E+01    3.648E+01    3.611E+01    3.574E+01    3.538E+01    3.501E+01
     3.465E+01    3.429E+01    3.393E+01    3.357E+01    3.322E+01    3.287E+01    3.251E+01    3.216E+01    3.182E+01    3.147E+01
     3.113E+01    3.079E+01    3.045E+01    3.011E+01    2.978E+01    2.944E+01    2.911E+01    2.879E+01    2.846E+01    2.814E+01
     2.782E+01    2.750E+01    2.718E+01    2.687E+01    2.656E+01    2.625E+01    2.594E+01    2.564E+01    2.534E+01    2.504E+01
     2.474E+01    2.445E+01    2.416E+01    2.387E+01    2.358E+01    2.330E+01    2.302E+01    2.274E+01    2.247E+01    2.219E+01
     2.192E+01    2.165E+01    2.139E+01    2.113E+01    2.087E+01    2.061E+01    2.035E+01    2.010E+01    1.985E+01    1.961E+01
     1.936E+01    1.912E+01    1.888E+01    1.865E+01    1.841E+01    1.818E+01    1.795E+01    1.773E+01    1.751E+01    1.729E+01
     1.707E+01    1.686E+01    1.665E+01    1.644E+01    1.623E+01    1.603E+01    1.583E+01    1.563E+01    1.544E+01    1.525E+01
     1.506E+01    1.487E+01    1.469E+01    1.451E+01    1.433E+01    1.416E+01    1.398E+01    1.382E+01    1.365E+01    1.348E+01
     1.332E+01    1.316E+01    1.301E+01    1.285E+01    1.270E+01    1.255E+01    1.241E+01    1.226E+01    1.212E+01    1.198E+01
     1.184E+01    1.171E+01    1.158E+01    1.145E+01    1.132E+01    1.120E+01    1.107E+01    1.095E+01    1.084E+01    1.072E+01
     1.061E+01    1.050E+01    1.039E+01    1.028E+01    1.018E+01    1.007E+01    9.972E+00    9.874E+00    9.778E+00    9.684E+00
     9.591E+00    9.501E+00    9.413E+00    9.327E+00    9.243E+00    9.161E+00    9.081E+00    9.003E+00    8.926E+00    8.851E+00
     8.778E+00    8.707E+00    8.638E+00    8.570E+00    8.503E+00    8.439E+00    8.376E+00    8.314E+00    8.254E+00    8.195E+00
     8.138E+00    8.083E+00    8.028E+00    7.975E+00    7.924E+00    7.873E+00    7.824E+00    7.776E+00    7.729E+00    7.684E+00
     7.639E+00    7.596E+00    7.554E+00    7.512E+00    7.472E+00    7.433E+00    7.395E+00    7.357E+00    7.320E+00    7.285E+00
     7.250E+00    7.215E+00    7.182E+00    7.149E+00    7.117E+00    7.086E+00    7.055E+00    7.024E+00    6.995E+00    6.966E+00
     6.937E+00    6.909E+00    6.881E+00    6.854E+00    6.828E+00    6.801E+00    6.776E+00    6.750E+00    6.726E+00    6.701E+00
     6.677E+00    6.653E+00    6.630E+00    6.607E+00    6.585E+00    6.562E+00    6.540E+00    6.519E+00    6.497E+00    6.476E+00
     6.455E+00    6.434E+00    6.414E+00    6.393E+00    6.373E+00    6.353E+00    6.334E+00    6.314E+00    6.295E+00    6.275E+00
     6.256E+00    6.237E+00    6.218E+00    6.199E+00    6.180E+00    6.161E+00    6.142E+00    6.123E+00    6.104E+00    6.085E+00
     6.066E+00    6.047E+00    6.027E+00    6.008E+00    5.989E+00    5.969E+00    5.950E+00    5.930E+00    5.911E+00    5.891E+00
     5.871E+00    5.852E+00    5.832E+00    5.812E+00    5.792E+00    5.772E+00    5.751E+00    5.731E+00    5.711E+00    5.690E+00
     5.670E+00    5.649E+00    5.629E+00    5.608E+00    5.587E+00    5.566E+00    5.545E+00    5.524E+00    5.503E+00    5.482E+00
     5.461E+00    5.440E+00    5.419E+00    5.397E+00    5.376E+00    5.354E+00    5.332E+00    5.311E+00    5.289E+00    5.267E+00
     5.245E+00    5.223E+00    5.201E+00    5.179E+00    5.157E+00    5.135E+00    5.112E+00    5.090E+00    5.067E+00    5.045E+00
     5.022E+00    5.000E+00    4.977E+00    4.954E+00    4.931E+00    4.909E+00    4.886E+00    4.863E+00    4.840E+00    4.817E+00
     4.794E+00    4.771E+00    4.748E+00    4.725E+00    4.702E+00    4.680E+00    4.657E+00    4.634E+00    4.611E+00    4.588E+00
     4.565E+00    4.543E+00    4.520E+00    4.497E+00    4.475E+00    4.452E+00    4.430E+00    4.407E+00    4.385E+00    4.362E+00
     4.340E+00    4.318E+00    4.296E+00    4.274E+00    4.252E+00    4.231E+00    4.209E+00    4.187E+00    4.166E+00    4.145E+00
     4.124E+00    4.103E+00    4.082E+00    4.061E+00    4.040E+00    4.020E+00    4.000E+00    3.979E+00    3.959E+00    3.939E+00
     3.920E+00    3.900E+00    3.881E+00    3.862E+00    3.843E+00    3.824E+00    3.805E+00    3.787E+00    3.768E+00    3.750E+00
     3.732E+00    3.714E+00    3.697E+00    3.679E+00    3.662E+00    3.645E+00    3.629E+00    3.612E+00    3.596E+00    3.580E+00
     3.564E+00    3.548E+00    3.533E+00    3.517E+00    3.502E+00    3.488E+00    3.473E+00    3.459E+00    3.445E+00    3.431E+00
     3.418E+00    3.404E+00    3.391E+00    3.378E+00    3.366E+00    3.354E+00    3.342E+00    3.330E+00    3.319E+00    3.307E+00
     3.296E+00    3.286E+00    3.275E+00    3.265E+00    3.255E+00    3.246E+00    3.236E+00    3.227E+00    3.218E+00    3.210E+00
     3.201E+00    3.193E+00    3.185E+00    3.177E+00    3.170E+00    3.163E+00    3.156E+00    3.149E+00    3.142E+00    3.136E+00
     3.130E+00    3.123E+00    3.118E+00    3.112E+00    3.107E+00    3.101E+00    3.096E+00    3.091E+00    3.087E+00    3.082E+00
     3.078E+00    3.074E+00    3.070E+00    3.066E+00    3.062E+00    3.059E+00    3.056E+00    3.052E+00    3.049E+00    3.047E+00
     3.044E+00    3.041E+00    3.039E+00    3.036E+00    3.034E+00    3.032E+00    3.030E+00    3.029E+00    3.027E+00    3.025E+00
     3.024E+00    3.023E+00    3.021E+00    3.020E+00    3.019E+00    3.018E+00    3.018E+00    3.017E+00    3.016E+00    3.016E+00
     3.015E+00    3.015E+00    3.014E+00    3.014E+00    3.014E+00    3.014E+00    3.013E+00    3.013E+00    3.013E+00    3.013E+00
     3.013E+00    3.013E+00    3.013E+00    3.014E+00    3.014E+00    3.014E+00    3.014E+00    3.014E+00    3.015E+00    3.015E+00
     3.015E+00    3.015E+00    3.015E+00    3.016E+00    3.016E+00    3.016E+00    3.016E+00    3.016E+00
 Ala      Conc. = 2.11E+02
