 LCModel (Version 6.3-1L) Copyright: S.W. Provencher.          Ref.: Magn. Reson. Med. 30:672-679 (1993).                
 Slice#1 Row#8 Col#3  PD_24_press_2_raw_act
 36 lines in following concentration table = NCONC+1
    Conc.  %SD /Cr+PCr  Metabolite                                         
  771.966  39%   0.326 Ala                                                 
    0.000 999%   0.000 Asp                                                 
 1.02E+03  48%   0.431 Cr                                                  
 1.35E+03  36%   0.569 PCr                                                 
    0.000 999%   0.000 GABA                                                
    0.000 999%   0.000 Glc                                                 
 2.31E+03  28%   0.975 Gln                                                 
 3.66E+03  20%   1.545 Glu                                                 
  921.764   4%   0.389 GPC                                                 
    0.000 999%   0.000 PCh                                                 
  780.062  18%   0.329 GSH                                                 
 2.29E+03  21%   0.965 Ins                                                 
  185.028 179% 7.8E-02 Lac                                                 
 4.39E+03   8%   1.853 NAA                                                 
  357.570 110%   0.151 NAAG                                                
  253.252  19%   0.107 Scyllo                                              
    0.000 999%   0.000 Tau                                                 
    0.000 999%   0.000 -CrCH2                                              
  921.764   4%   0.389 GPC+PCh                                             
 4.75E+03   3%   2.004 NAA+NAAG                                            
 2.37E+03   4%   1.000 Cr+PCr                                              
 5.97E+03  20%   2.520 Glu+Gln                                             
 3.15E+03  28%   1.328 Lip13a                                              
    0.000 999%   0.000 Lip13b                                              
  317.114 162%   0.134 Lip09                                               
 2.45E+03  22%   1.034 MM09                                                
  600.426  61%   0.253 Lip20                                               
 4.44E+03  16%   1.871 MM20                                                
  796.176  44%   0.336 MM12                                                
  938.426  60%   0.396 MM14                                                
 4.21E+03   5%   1.774+MM17                                                
 3.15E+03  28%   1.328 Lip13a+Lip13b                                       
 4.88E+03  13%   2.059 MM14+Lip13a+Lip13b+MM12                             
 2.77E+03  11%   1.168 MM09+Lip09                                          
 5.04E+03  13%   2.125 MM20+Lip20                                          
   6 lines in following misc. output table
  FWHM = 0.076 ppm    S/N =  13                                            
  Data shift =-0.015 ppm                                                   
  Ph: -19 deg      -7.1 deg/ppm                                            
  alphaB,S = 1.3E+00,   3.8E+02                                            
   14 spline knots.   Ns =10(1)                                            
  ( 9) 2 infls.   ( 3) 1 extrs.                                            
  498 points on ppm-axis = NY
      4.000000     3.992357     3.984714     3.977070     3.969427     3.961784     3.954141     3.946497     3.938854     3.931211
      3.923568     3.915925     3.908281     3.900638     3.892995     3.885352     3.877708     3.870065     3.862422     3.854779
      3.847136     3.839492     3.831849     3.824206     3.816563     3.808919     3.801276     3.793633     3.785990     3.778347
      3.770703     3.763060     3.755417     3.747774     3.740130     3.732487     3.724844     3.717201     3.709558     3.701914
      3.694271     3.686628     3.678985     3.671341     3.663698     3.656055     3.648412     3.640769     3.633125     3.625482
      3.617839     3.610196     3.602552     3.594909     3.587266     3.579623     3.571980     3.564336     3.556693     3.549050
      3.541407     3.533763     3.526120     3.518477     3.510834     3.503191     3.495547     3.487904     3.480261     3.472618
      3.464974     3.457331     3.449688     3.442045     3.434402     3.426758     3.419115     3.411472     3.403829     3.396185
      3.388542     3.380899     3.373256     3.365613     3.357969     3.350326     3.342683     3.335040     3.327396     3.319753
      3.312110     3.304467     3.296824     3.289180     3.281537     3.273894     3.266251     3.258607     3.250964     3.243321
      3.235678     3.228034     3.220391     3.212748     3.205105     3.197462     3.189818     3.182175     3.174532     3.166889
      3.159245     3.151602     3.143959     3.136316     3.128673     3.121029     3.113386     3.105743     3.098100     3.090456
      3.082813     3.075170     3.067527     3.059884     3.052240     3.044597     3.036954     3.029311     3.021667     3.014024
      3.006381     2.998738     2.991095     2.983451     2.975808     2.968165     2.960522     2.952878     2.945235     2.937592
      2.929949     2.922306     2.914662     2.907019     2.899376     2.891733     2.884089     2.876446     2.868803     2.861160
      2.853517     2.845873     2.838230     2.830587     2.822944     2.815300     2.807657     2.800014     2.792371     2.784728
      2.777084     2.769441     2.761798     2.754155     2.746511     2.738868     2.731225     2.723582     2.715939     2.708295
      2.700652     2.693009     2.685366     2.677722     2.670079     2.662436     2.654793     2.647150     2.639506     2.631863
      2.624220     2.616577     2.608933     2.601290     2.593647     2.586004     2.578361     2.570717     2.563074     2.555431
      2.547788     2.540144     2.532501     2.524858     2.517215     2.509572     2.501928     2.494285     2.486642     2.478999
      2.471355     2.463712     2.456069     2.448426     2.440783     2.433139     2.425496     2.417853     2.410210     2.402566
      2.394923     2.387280     2.379637     2.371994     2.364350     2.356707     2.349064     2.341421     2.333777     2.326134
      2.318491     2.310848     2.303205     2.295561     2.287918     2.280275     2.272632     2.264988     2.257345     2.249702
      2.242059     2.234416     2.226772     2.219129     2.211486     2.203843     2.196199     2.188556     2.180913     2.173270
      2.165627     2.157983     2.150340     2.142697     2.135054     2.127410     2.119767     2.112124     2.104481     2.096838
      2.089194     2.081551     2.073908     2.066265     2.058621     2.050978     2.043335     2.035692     2.028049     2.020405
      2.012762     2.005119     1.997476     1.989833     1.982190     1.974546     1.966903     1.959260     1.951617     1.943974
      1.936331     1.928688     1.921045     1.913402     1.905759     1.898115     1.890472     1.882829     1.875186     1.867543
      1.859900     1.852257     1.844614     1.836971     1.829327     1.821684     1.814041     1.806398     1.798755     1.791112
      1.783469     1.775826     1.768183     1.760540     1.752896     1.745253     1.737610     1.729967     1.722324     1.714681
      1.707038     1.699395     1.691752     1.684108     1.676465     1.668822     1.661179     1.653536     1.645893     1.638250
      1.630607     1.622964     1.615321     1.607677     1.600034     1.592391     1.584748     1.577105     1.569462     1.561819
      1.554176     1.546533     1.538890     1.531246     1.523603     1.515960     1.508317     1.500674     1.493031     1.485388
      1.477745     1.470102     1.462458     1.454815     1.447172     1.439529     1.431886     1.424243     1.416600     1.408957
      1.401314     1.393671     1.386027     1.378384     1.370741     1.363098     1.355455     1.347812     1.340169     1.332526
      1.324883     1.317240     1.309596     1.301953     1.294310     1.286667     1.279024     1.271381     1.263738     1.256095
      1.248452     1.240808     1.233165     1.225522     1.217879     1.210236     1.202593     1.194950     1.187307     1.179664
      1.172021     1.164377     1.156734     1.149091     1.141448     1.133805     1.126162     1.118519     1.110876     1.103233
      1.095590     1.087946     1.080303     1.072660     1.065017     1.057374     1.049731     1.042088     1.034445     1.026802
      1.019158     1.011515     1.003872     0.996229     0.988586     0.980943     0.973300     0.965657     0.958014     0.950371
      0.942727     0.935084     0.927441     0.919798     0.912155     0.904512     0.896869     0.889226     0.881583     0.873940
      0.866296     0.858653     0.851010     0.843367     0.835724     0.828081     0.820438     0.812795     0.805152     0.797508
      0.789865     0.782222     0.774579     0.766936     0.759293     0.751650     0.744007     0.736364     0.728721     0.721077
      0.713434     0.705791     0.698148     0.690505     0.682862     0.675219     0.667576     0.659933     0.652290     0.644646
      0.637003     0.629360     0.621717     0.614074     0.606431     0.598788     0.591145     0.583502     0.575858     0.568215
      0.560572     0.552929     0.545286     0.537643     0.530000     0.522357     0.514714     0.507071     0.499427     0.491784
      0.484141     0.476498     0.468855     0.461212     0.453569     0.445925     0.438282     0.430639     0.422996     0.415353
      0.407710     0.400067     0.392424     0.384780     0.377137     0.369494     0.361851     0.354208     0.346565     0.338922
      0.331278     0.323635     0.315992     0.308349     0.300706     0.293063     0.285420     0.277777     0.270133     0.262490
      0.254847     0.247204     0.239561     0.231918     0.224275     0.216631     0.208988     0.201345
 NY phased data points follow
   2.31929E+01  1.48419E+01  2.81792E+01  1.67445E+01  2.51228E+01  2.96750E+01  3.43124E+01  3.18360E+01  4.41140E+01  3.18778E+01
   4.59996E+01  4.41168E+01  4.27592E+01  3.70584E+01  3.86495E+01  2.37258E+01  3.56709E+01  1.70311E+01  2.06412E+01  1.35752E+01
   1.71706E+01  9.66641E+00  1.89903E+01  1.49427E+01  1.37212E+01  1.36503E+01  1.76741E+01  8.36808E+00  1.05811E+01  1.65845E+01
   1.67895E+01  1.54312E+01  2.40320E+01  1.92311E+01  1.72798E+01  1.00190E+01  1.74623E+01  1.33495E+01  1.69153E+01  7.48555E+00
   2.03213E+01  1.35189E+01  1.93196E+01  1.90332E+01  1.88905E+01  1.57539E+01  2.08881E+01  1.23191E+01  1.53985E+01  9.68610E+00
   1.68181E+01  1.35047E+01  9.36990E+00  8.82099E+00  1.41681E+01  3.98935E+00  1.16750E+01  3.80658E+00  1.06675E+01  3.00330E-01
   4.28697E+00  4.20672E-01  6.32440E+00 -2.67827E+00  2.94548E+00  3.25828E+00  2.13469E+00 -1.06698E+00  3.88517E+00 -1.26552E+00
   2.27314E-01  1.04212E-01  6.67526E+00  3.54363E+00  5.67354E+00 -1.62521E+00 -5.32958E-01 -2.64785E+00  3.60330E+00  4.73476E-01
   3.99521E+00  1.57705E+00  9.18136E+00  5.32861E+00  1.21570E+01  3.03104E+00  1.11626E+01  6.91500E+00  4.87101E+00  5.15126E+00
   9.68038E+00  6.83308E+00  8.83488E+00  1.54582E+01  1.74334E+01  1.46801E+01  2.08060E+01  2.53101E+01  3.13401E+01  2.78249E+01
   4.72672E+01  3.86188E+01  4.97270E+01  5.73217E+01  6.48164E+01  6.08631E+01  5.41660E+01  3.33863E+01  3.26038E+01  2.63394E+01
   1.71393E+01  9.81344E+00  1.05504E+01  9.03518E+00  3.95199E+00  2.25322E+00  8.48027E+00  3.85514E+00  1.24373E+01  7.39298E+00
   1.07084E+01  1.70136E+01  2.50124E+01  2.82658E+01  4.02039E+01  4.36426E+01  5.10978E+01  5.08022E+01  6.23850E+01  5.66826E+01
   5.05871E+01  3.35238E+01  3.99829E+01  2.37507E+01  2.11411E+01  4.20201E+00  8.93499E+00  8.88424E+00  1.08217E+01 -6.07151E+00
   1.73311E+00 -2.25736E+00 -8.62605E-02 -4.56010E-01  3.02744E+00 -1.91684E+00 -1.30241E+00  8.57010E-01  1.74754E+00 -1.93634E+00
  -7.05075E-01  1.35806E+00  2.46627E+00 -5.01087E+00  4.50993E+00  1.37192E+00 -1.08528E+00 -3.73438E+00 -3.26632E-01 -3.59322E+00
   3.69003E+00 -5.28085E+00 -7.08919E+00 -1.54414E+00 -9.06528E+00 -7.78784E+00 -7.40172E+00 -1.02108E+01 -1.58275E+01 -1.21799E+01
  -1.39445E+01 -1.71795E+01 -1.54967E+01 -2.03467E+01 -1.52590E+01 -2.14831E+01 -1.98165E+01 -1.71741E+01 -2.23036E+01 -1.97614E+01
  -1.27506E+01 -1.58065E+01 -1.08871E+01 -1.17318E+01 -5.75778E+00 -9.02680E+00 -5.30642E+00 -1.29975E+01 -2.08838E+00 -7.26414E+00
  -7.12502E+00 -1.28121E+01 -1.30330E+01 -1.06400E+01 -5.19629E+00 -4.93871E+00  7.15186E-01 -6.67492E+00 -2.69606E+00 -3.87457E+00
  -4.87205E+00 -6.53234E-01 -2.98233E+00 -8.32612E-01  9.27518E-01  9.26267E-01  1.95739E+00  4.59690E+00  2.66430E+00  2.12134E+00
   5.82657E+00  8.70379E+00  4.69771E+00  4.67682E+00  1.35777E+01  2.36309E+00  9.48423E+00  1.20614E+01  1.05610E+01  4.41781E+00
   6.93926E+00 -5.29672E+00  2.94935E+00 -6.54371E+00  2.24755E+00  2.08088E+00  2.89669E+00  4.06387E+00  1.05559E+01  7.97910E+00
   1.40261E+01  5.35931E+00  1.29564E+01  9.16255E+00  6.90172E+00  5.59412E+00  9.74213E+00  3.47270E+00  1.24084E+01  8.84173E+00
   1.22164E+01  3.41412E+00  6.49665E+00  7.59252E-01  1.06558E+01  8.29842E+00  1.60748E+01  1.22676E+01  1.59414E+01  1.68779E+01
   3.06774E+01  3.06441E+01  4.06383E+01  4.94045E+01  6.30936E+01  7.41192E+01  8.94997E+01  1.02311E+02  1.11065E+02  1.23909E+02
   1.23301E+02  1.20640E+02  1.11702E+02  1.01427E+02  8.80836E+01  6.80552E+01  5.33824E+01  3.63554E+01  3.11839E+01  2.72116E+01
   2.02779E+01  1.71346E+01  1.71652E+01  1.43881E+01  1.39049E+01  1.62387E+01  1.17730E+01  3.61280E+00  5.62276E+00  6.31637E+00
   5.84677E+00  5.27619E+00  8.22832E+00 -4.55374E-02  6.50165E+00  4.62867E-01  5.17286E+00  6.47002E+00  1.99529E+00 -9.07159E-01
   7.58294E+00  8.71665E+00  4.19073E+00  7.91648E+00  3.52200E+00  3.46221E+00  6.47639E+00  5.32696E+00  1.28550E+01  1.63026E+01
   1.33957E+01  1.67999E+01  1.59322E+01  2.39239E+01  2.90779E+01  2.72068E+01  3.13909E+01  3.05807E+01  3.36884E+01  2.64421E+01
   3.53613E+01  3.77955E+01  4.14881E+01  3.65772E+01  4.11153E+01  4.11392E+01  4.87584E+01  4.10561E+01  3.39310E+01  3.23134E+01
   3.21628E+01  2.66988E+01  2.44170E+01  1.88501E+01  2.16971E+01  1.08568E+01  2.16479E+01  1.23758E+01  6.45181E+00  1.22056E+01
   1.75138E+00  5.76554E+00  7.35977E+00  6.15147E+00  1.56941E+01  1.28508E+01  1.27534E+01  1.06457E+01  1.08897E+01  1.17960E+01
   1.08698E+01  1.05595E+01  1.89756E+01  2.19080E+01  2.05152E+01  1.99123E+01  2.27756E+01  1.76534E+01  1.90396E+01  1.69597E+01
   2.06950E+01  1.88520E+01  1.83204E+01  1.43990E+01  1.79016E+01  1.35942E+01  2.43255E+01  2.10079E+01  2.05040E+01  1.90016E+01
   2.11524E+01  2.03353E+01  1.67221E+01  1.63674E+01  1.98457E+01  1.82987E+01  2.21192E+01  1.69046E+01  1.39972E+01  1.62892E+01
   1.46324E+01  1.19858E+01  9.85744E+00  1.66425E+01  1.28133E+01  7.55982E+00  1.57203E+01  1.41999E+01  8.36069E+00  1.37186E+01
   8.33828E+00  1.46133E+01  8.21194E+00  8.33869E+00  1.05299E+01  1.29865E+01  1.21377E+01  1.00205E+01  9.30242E+00  1.31653E+01
   1.35371E+01  7.34072E+00  1.52714E+01  1.63236E+01  1.60338E+01  1.63318E+01  1.64845E+01  1.93069E+01  2.21287E+01  1.66458E+01
   1.78237E+01  1.87782E+01  2.49890E+01  2.34333E+01  1.97510E+01  1.83194E+01  1.94057E+01  1.75099E+01  2.03587E+01  2.98575E+01
   3.11383E+01  2.38917E+01  2.94569E+01  1.89202E+01  2.14854E+01  1.15157E+01  2.52940E+01  2.20957E+01  9.48879E+00  1.81593E+01
   1.24891E+01  9.49148E+00  1.02761E+01  7.88041E+00  1.07722E+01  1.09568E+01  9.16562E+00  1.21744E+01  7.04927E+00  8.01826E+00
   5.53918E+00  7.44839E+00  6.06976E+00  5.68217E+00  1.00145E+01  5.06790E+00  7.65545E+00  4.00313E+00  3.79127E+00  3.29088E+00
   4.28405E+00  3.60553E+00  5.75995E+00 -1.91315E-01  9.64355E+00  8.13215E+00  8.71659E-02  4.28098E+00  1.25212E+01  2.61029E+00
   2.75186E+00  3.25163E+00 -5.25663E-01  1.33306E+01  6.60321E+00  3.96908E+00  7.47201E+00  2.65452E+00  7.61780E+00  6.20580E+00
   6.56550E+00  3.21233E+00  4.31636E+00  5.47825E+00  2.93763E+00  1.79028E+00  8.77172E+00  9.47355E+00  7.05169E+00  9.89650E+00
   4.36590E+00  4.74211E+00  3.02569E+00  3.57688E+00  1.68746E+00  1.03285E+01  3.34126E+00 -2.68419E-01  6.24890E+00  6.32216E+00
  -8.38653E-01  1.14932E+00  2.45440E+00  5.35065E+00  7.41309E+00  2.75430E+00 -3.92155E-01  9.73668E+00  1.29627E+01  5.16785E+00
   6.00042E+00  5.80800E-01  5.80450E+00  5.86860E+00  1.00493E+01  9.54379E+00  1.85318E+00  2.09773E+00
 NY points of the fit to the data follow
   1.33334E+01  1.49277E+01  1.73541E+01  2.04151E+01  2.39305E+01  2.78081E+01  3.18539E+01  3.58821E+01  3.95676E+01  4.24142E+01
   4.39596E+01  4.39071E+01  4.22038E+01  3.90889E+01  3.50230E+01  3.05614E+01  2.61444E+01  2.20987E+01  1.84685E+01  1.53650E+01
   1.31574E+01  1.19826E+01  1.15947E+01  1.16721E+01  1.22849E+01  1.31529E+01  1.40776E+01  1.51423E+01  1.64719E+01  1.80347E+01
   1.96392E+01  2.08422E+01  2.12128E+01  2.05715E+01  1.89752E+01  1.66746E+01  1.42489E+01  1.24214E+01  1.14682E+01  1.12110E+01
   1.13434E+01  1.18412E+01  1.27613E+01  1.38795E+01  1.49967E+01  1.59734E+01  1.66789E+01  1.68595E+01  1.63171E+01  1.51080E+01
   1.34254E+01  1.15510E+01  9.79444E+00  8.28299E+00  7.12311E+00  6.37590E+00  5.93248E+00  5.61177E+00  5.38989E+00  5.34600E+00
   5.34444E+00  5.19228E+00  4.86745E+00  4.42753E+00  3.95261E+00  3.54139E+00  3.28052E+00  3.22169E+00  3.34175E+00  3.53984E+00
   3.72860E+00  3.88095E+00  3.96306E+00  3.95369E+00  3.85402E+00  3.69244E+00  3.59520E+00  3.78427E+00  4.12566E+00  4.48376E+00
   4.86965E+00  5.32127E+00  5.84131E+00  6.43680E+00  7.07696E+00  7.64925E+00  8.04080E+00  8.10350E+00  7.74945E+00  7.02767E+00
   6.11681E+00  5.27829E+00  4.95208E+00  6.36307E+00  9.95843E+00  1.44783E+01  1.92705E+01  2.43265E+01  2.99029E+01  3.61811E+01
   4.27955E+01  4.91574E+01  5.45307E+01  5.79287E+01  5.84104E+01  5.55445E+01  4.96619E+01  4.17737E+01  3.31752E+01  2.49781E+01
   1.79509E+01  1.24276E+01  8.17977E+00  4.64536E+00  1.72721E+00  2.49439E-01  5.04245E-01  2.44307E+00  6.23832E+00  1.08874E+01
   1.58367E+01  2.10956E+01  2.68020E+01  3.30019E+01  3.94799E+01  4.56869E+01  5.09032E+01  5.42769E+01  5.50005E+01  5.27132E+01
   4.76984E+01  4.07941E+01  3.30930E+01  2.55368E+01  1.88124E+01  1.32754E+01  8.84554E+00  5.15469E+00  2.14594E+00  4.44446E-01
   1.27612E-01  2.95638E-01  4.99485E-01  5.73900E-01  4.69191E-01  2.38402E-01 -4.25563E-02 -3.64823E-01 -7.09199E-01 -1.05420E+00
  -1.45110E+00 -1.94848E+00 -2.46898E+00 -2.93434E+00 -3.26868E+00 -3.48479E+00 -3.70563E+00 -3.98404E+00 -4.31559E+00 -4.68374E+00
  -5.05890E+00 -5.39485E+00 -5.66491E+00 -5.88488E+00 -6.12243E+00 -6.49209E+00 -7.09888E+00 -7.85586E+00 -8.62500E+00 -9.34545E+00
  -1.00014E+01 -1.06145E+01 -1.11665E+01 -1.16668E+01 -1.20768E+01 -1.23866E+01 -1.25725E+01 -1.26331E+01 -1.25427E+01 -1.23001E+01
  -1.19252E+01 -1.14177E+01 -1.07676E+01 -9.99483E+00 -9.12025E+00 -8.11242E+00 -6.97180E+00 -5.77594E+00 -4.70652E+00 -3.73425E+00
  -2.83657E+00 -2.06557E+00 -1.52169E+00 -1.22618E+00 -1.02134E+00 -7.30993E-01 -2.27596E-01  4.80279E-01  1.32810E+00  2.12585E+00
   2.68946E+00  3.09606E+00  3.21446E+00  2.79130E+00  1.81374E+00  3.81457E-01 -1.14200E+00 -2.61632E+00 -3.88379E+00 -4.60328E+00
  -4.50967E+00 -3.50779E+00 -1.87643E+00  2.62854E-02  1.95163E+00  3.56791E+00  4.38146E+00  4.11298E+00  2.80617E+00  8.26771E-01
  -1.28941E+00 -3.16889E+00 -4.41746E+00 -4.45065E+00 -3.24437E+00 -1.29179E+00  9.40006E-01  3.24547E+00  5.51675E+00  7.35957E+00
   8.59069E+00  9.38235E+00  9.87705E+00  1.01154E+01  1.01479E+01  1.01196E+01  1.02359E+01  1.04807E+01  1.06764E+01  1.06664E+01
   1.03720E+01  9.85932E+00  9.29795E+00  8.90061E+00  8.88243E+00  9.47867E+00  1.08147E+01  1.26407E+01  1.47037E+01  1.78335E+01
   2.43886E+01  3.36213E+01  4.37577E+01  5.43450E+01  6.54039E+01  7.69070E+01  8.86527E+01  1.00075E+02  1.10276E+02  1.17996E+02
   1.21718E+02  1.20185E+02  1.13080E+02  1.01336E+02  8.68161E+01  7.15433E+01  5.71829E+01  4.49267E+01  3.52293E+01  2.73738E+01
   2.03563E+01  1.45778E+01  1.15387E+01  1.02256E+01  9.37977E+00  8.71581E+00  8.14839E+00  7.59587E+00  7.02055E+00  6.45080E+00
   5.90093E+00  5.38887E+00  4.93132E+00  4.52721E+00  4.16527E+00  3.85436E+00  3.61115E+00  3.44028E+00  3.34321E+00  3.32720E+00
   3.41259E+00  3.62309E+00  3.97492E+00  4.48441E+00  5.17557E+00  6.07088E+00  7.18964E+00  8.54586E+00  1.01500E+01  1.20041E+01
   1.40986E+01  1.64111E+01  1.89048E+01  2.15278E+01  2.42172E+01  2.68987E+01  2.94897E+01  3.19056E+01  3.40639E+01  3.58896E+01
   3.73190E+01  3.83040E+01  3.88188E+01  3.88619E+01  3.84592E+01  3.76726E+01  3.66256E+01  3.54442E+01  3.39858E+01  3.21992E+01
   3.01848E+01  2.80398E+01  2.58074E+01  2.34647E+01  2.09781E+01  1.85313E+01  1.61964E+01  1.38833E+01  1.16010E+01  9.50057E+00
   7.81442E+00  6.76490E+00  6.47900E+00  6.97224E+00  8.14196E+00  9.75332E+00  1.14960E+01  1.31373E+01  1.45785E+01  1.57573E+01
   1.65465E+01  1.69962E+01  1.72582E+01  1.74454E+01  1.75745E+01  1.76127E+01  1.75607E+01  1.75456E+01  1.75926E+01  1.76535E+01
   1.77416E+01  1.78962E+01  1.81486E+01  1.85068E+01  1.89513E+01  1.94307E+01  1.98679E+01  2.01874E+01  2.03539E+01  2.03765E+01
   2.02525E+01  1.99703E+01  1.95660E+01  1.90796E+01  1.85338E+01  1.79281E+01  1.72642E+01  1.65847E+01  1.59204E+01  1.52660E+01
   1.46227E+01  1.39956E+01  1.33912E+01  1.28159E+01  1.22759E+01  1.17771E+01  1.13247E+01  1.09235E+01  1.05779E+01  1.02919E+01
   1.00696E+01  9.91452E+00  9.83037E+00  9.82061E+00  9.88862E+00  1.00377E+01  1.02706E+01  1.05900E+01  1.09972E+01  1.14927E+01
   1.20754E+01  1.27425E+01  1.34890E+01  1.43072E+01  1.51868E+01  1.61146E+01  1.70745E+01  1.80481E+01  1.90145E+01  1.99514E+01
   2.08355E+01  2.16436E+01  2.23537E+01  2.29457E+01  2.34023E+01  2.37104E+01  2.38609E+01  2.38499E+01  2.36783E+01  2.33521E+01
   2.28816E+01  2.22813E+01  2.15685E+01  2.07629E+01  1.98855E+01  1.89574E+01  1.79993E+01  1.70303E+01  1.60679E+01  1.51269E+01
   1.42198E+01  1.33563E+01  1.25432E+01  1.17853E+01  1.10849E+01  1.04427E+01  9.85751E+00  9.32736E+00  8.84918E+00  8.41943E+00
   8.03426E+00  7.68974E+00  7.38191E+00  7.10698E+00  6.86139E+00  6.64185E+00  6.44545E+00  6.26951E+00  6.11166E+00  5.96977E+00
   5.84201E+00  5.72680E+00  5.62275E+00  5.52864E+00  5.44339E+00  5.36606E+00  5.29583E+00  5.23203E+00  5.17405E+00  5.12134E+00
   5.07338E+00  5.02976E+00  4.99010E+00  4.95410E+00  4.92146E+00  4.89190E+00  4.86516E+00  4.84102E+00  4.81932E+00  4.79988E+00
   4.78254E+00  4.76712E+00  4.75349E+00  4.74154E+00  4.73117E+00  4.72229E+00  4.71479E+00  4.70855E+00  4.70350E+00  4.69958E+00
   4.69674E+00  4.69490E+00  4.69398E+00  4.69393E+00  4.69468E+00  4.69622E+00  4.69850E+00  4.70147E+00  4.70505E+00  4.70920E+00
   4.71390E+00  4.71913E+00  4.72485E+00  4.73100E+00  4.73753E+00  4.74441E+00  4.75163E+00  4.75917E+00  4.76697E+00  4.77499E+00
   4.78317E+00  4.79150E+00  4.79996E+00  4.80850E+00  4.81706E+00  4.82558E+00  4.83400E+00  4.84231E+00
 NY background values follow
    -1.296E+00   -1.327E+00   -1.358E+00   -1.389E+00   -1.420E+00   -1.451E+00   -1.482E+00   -1.513E+00   -1.544E+00   -1.575E+00
    -1.606E+00   -1.637E+00   -1.668E+00   -1.699E+00   -1.730E+00   -1.760E+00   -1.791E+00   -1.822E+00   -1.853E+00   -1.884E+00
    -1.914E+00   -1.945E+00   -1.976E+00   -2.006E+00   -2.037E+00   -2.067E+00   -2.098E+00   -2.128E+00   -2.158E+00   -2.189E+00
    -2.219E+00   -2.249E+00   -2.279E+00   -2.309E+00   -2.339E+00   -2.369E+00   -2.399E+00   -2.428E+00   -2.458E+00   -2.487E+00
    -2.517E+00   -2.546E+00   -2.575E+00   -2.604E+00   -2.634E+00   -2.663E+00   -2.691E+00   -2.720E+00   -2.749E+00   -2.777E+00
    -2.806E+00   -2.834E+00   -2.862E+00   -2.890E+00   -2.918E+00   -2.946E+00   -2.974E+00   -3.001E+00   -3.029E+00   -3.056E+00
    -3.083E+00   -3.110E+00   -3.137E+00   -3.163E+00   -3.190E+00   -3.216E+00   -3.243E+00   -3.269E+00   -3.295E+00   -3.321E+00
    -3.346E+00   -3.372E+00   -3.397E+00   -3.422E+00   -3.447E+00   -3.472E+00   -3.496E+00   -3.521E+00   -3.545E+00   -3.569E+00
    -3.593E+00   -3.617E+00   -3.640E+00   -3.664E+00   -3.687E+00   -3.710E+00   -3.732E+00   -3.755E+00   -3.777E+00   -3.799E+00
    -3.821E+00   -3.843E+00   -3.864E+00   -3.886E+00   -3.907E+00   -3.927E+00   -3.948E+00   -3.968E+00   -3.989E+00   -4.009E+00
    -4.028E+00   -4.048E+00   -4.067E+00   -4.086E+00   -4.105E+00   -4.123E+00   -4.142E+00   -4.160E+00   -4.178E+00   -4.195E+00
    -4.213E+00   -4.230E+00   -4.247E+00   -4.264E+00   -4.280E+00   -4.296E+00   -4.312E+00   -4.328E+00   -4.344E+00   -4.359E+00
    -4.374E+00   -4.389E+00   -4.403E+00   -4.418E+00   -4.432E+00   -4.445E+00   -4.459E+00   -4.472E+00   -4.485E+00   -4.498E+00
    -4.510E+00   -4.523E+00   -4.535E+00   -4.546E+00   -4.558E+00   -4.569E+00   -4.580E+00   -4.590E+00   -4.601E+00   -4.611E+00
    -4.621E+00   -4.630E+00   -4.640E+00   -4.648E+00   -4.657E+00   -4.665E+00   -4.674E+00   -4.681E+00   -4.689E+00   -4.696E+00
    -4.703E+00   -4.709E+00   -4.715E+00   -4.721E+00   -4.727E+00   -4.732E+00   -4.737E+00   -4.741E+00   -4.745E+00   -4.749E+00
    -4.752E+00   -4.755E+00   -4.758E+00   -4.760E+00   -4.762E+00   -4.764E+00   -4.765E+00   -4.766E+00   -4.766E+00   -4.766E+00
    -4.766E+00   -4.765E+00   -4.763E+00   -4.762E+00   -4.760E+00   -4.757E+00   -4.754E+00   -4.751E+00   -4.747E+00   -4.743E+00
    -4.738E+00   -4.733E+00   -4.728E+00   -4.722E+00   -4.715E+00   -4.709E+00   -4.701E+00   -4.694E+00   -4.686E+00   -4.677E+00
    -4.668E+00   -4.659E+00   -4.650E+00   -4.640E+00   -4.629E+00   -4.619E+00   -4.608E+00   -4.596E+00   -4.585E+00   -4.573E+00
    -4.560E+00   -4.548E+00   -4.535E+00   -4.522E+00   -4.508E+00   -4.494E+00   -4.480E+00   -4.466E+00   -4.451E+00   -4.437E+00
    -4.422E+00   -4.406E+00   -4.391E+00   -4.375E+00   -4.359E+00   -4.343E+00   -4.326E+00   -4.310E+00   -4.293E+00   -4.276E+00
    -4.259E+00   -4.242E+00   -4.224E+00   -4.207E+00   -4.189E+00   -4.171E+00   -4.153E+00   -4.135E+00   -4.117E+00   -4.099E+00
    -4.080E+00   -4.061E+00   -4.043E+00   -4.024E+00   -4.005E+00   -3.986E+00   -3.967E+00   -3.948E+00   -3.928E+00   -3.909E+00
    -3.889E+00   -3.869E+00   -3.850E+00   -3.830E+00   -3.810E+00   -3.790E+00   -3.769E+00   -3.749E+00   -3.729E+00   -3.708E+00
    -3.688E+00   -3.667E+00   -3.646E+00   -3.625E+00   -3.604E+00   -3.583E+00   -3.562E+00   -3.541E+00   -3.519E+00   -3.498E+00
    -3.477E+00   -3.455E+00   -3.433E+00   -3.412E+00   -3.390E+00   -3.368E+00   -3.346E+00   -3.324E+00   -3.302E+00   -3.279E+00
    -3.257E+00   -3.235E+00   -3.212E+00   -3.190E+00   -3.167E+00   -3.145E+00   -3.122E+00   -3.099E+00   -3.076E+00   -3.053E+00
    -3.030E+00   -3.007E+00   -2.984E+00   -2.961E+00   -2.938E+00   -2.915E+00   -2.891E+00   -2.868E+00   -2.844E+00   -2.821E+00
    -2.797E+00   -2.774E+00   -2.750E+00   -2.727E+00   -2.703E+00   -2.679E+00   -2.655E+00   -2.631E+00   -2.608E+00   -2.584E+00
    -2.560E+00   -2.536E+00   -2.512E+00   -2.488E+00   -2.463E+00   -2.439E+00   -2.415E+00   -2.391E+00   -2.367E+00   -2.342E+00
    -2.318E+00   -2.294E+00   -2.270E+00   -2.245E+00   -2.221E+00   -2.196E+00   -2.172E+00   -2.148E+00   -2.123E+00   -2.099E+00
    -2.074E+00   -2.050E+00   -2.025E+00   -2.001E+00   -1.976E+00   -1.951E+00   -1.927E+00   -1.902E+00   -1.878E+00   -1.853E+00
    -1.828E+00   -1.804E+00   -1.779E+00   -1.754E+00   -1.729E+00   -1.705E+00   -1.680E+00   -1.655E+00   -1.630E+00   -1.605E+00
    -1.580E+00   -1.556E+00   -1.531E+00   -1.506E+00   -1.481E+00   -1.456E+00   -1.431E+00   -1.406E+00   -1.381E+00   -1.355E+00
    -1.330E+00   -1.305E+00   -1.280E+00   -1.255E+00   -1.230E+00   -1.204E+00   -1.179E+00   -1.154E+00   -1.128E+00   -1.103E+00
    -1.078E+00   -1.052E+00   -1.027E+00   -1.001E+00   -9.758E-01   -9.502E-01   -9.247E-01   -8.991E-01   -8.734E-01   -8.478E-01
    -8.221E-01   -7.964E-01   -7.706E-01   -7.448E-01   -7.190E-01   -6.931E-01   -6.672E-01   -6.413E-01   -6.153E-01   -5.893E-01
    -5.633E-01   -5.372E-01   -5.111E-01   -4.849E-01   -4.587E-01   -4.324E-01   -4.061E-01   -3.798E-01   -3.534E-01   -3.270E-01
    -3.005E-01   -2.740E-01   -2.475E-01   -2.208E-01   -1.942E-01   -1.675E-01   -1.407E-01   -1.139E-01   -8.708E-02   -6.018E-02
    -3.323E-02   -6.230E-03    2.082E-02    4.793E-02    7.509E-02    1.023E-01    1.296E-01    1.569E-01    1.843E-01    2.117E-01
     2.392E-01    2.667E-01    2.943E-01    3.220E-01    3.497E-01    3.774E-01    4.053E-01    4.331E-01    4.610E-01    4.890E-01
     5.170E-01    5.450E-01    5.732E-01    6.013E-01    6.295E-01    6.578E-01    6.861E-01    7.144E-01    7.428E-01    7.713E-01
     7.998E-01    8.283E-01    8.569E-01    8.855E-01    9.142E-01    9.429E-01    9.717E-01    1.000E+00    1.029E+00    1.058E+00
     1.087E+00    1.116E+00    1.145E+00    1.174E+00    1.203E+00    1.232E+00    1.262E+00    1.291E+00    1.320E+00    1.349E+00
     1.379E+00    1.408E+00    1.437E+00    1.467E+00    1.496E+00    1.526E+00    1.555E+00    1.585E+00    1.615E+00    1.644E+00
     1.674E+00    1.703E+00    1.733E+00    1.763E+00    1.793E+00    1.822E+00    1.852E+00    1.882E+00    1.912E+00    1.942E+00
     1.972E+00    2.002E+00    2.031E+00    2.061E+00    2.091E+00    2.121E+00    2.151E+00    2.181E+00    2.211E+00    2.241E+00
     2.271E+00    2.301E+00    2.331E+00    2.361E+00    2.391E+00    2.421E+00    2.451E+00    2.481E+00    2.511E+00    2.541E+00
     2.571E+00    2.601E+00    2.631E+00    2.661E+00    2.691E+00    2.720E+00    2.750E+00    2.780E+00
 Ala      Conc. = 7.72E+02
