 LCModel (Version 6.3-1L) Copyright: S.W. Provencher.          Ref.: Magn. Reson. Med. 30:672-679 (1993).                
 Slice#1 Row#11 Col#10  PD_24_press_2_raw_act
 36 lines in following concentration table = NCONC+1
    Conc.  %SD /Cr+PCr  Metabolite                                         
    0.000 999%   0.000 Ala                                                 
  200.206  40%   0.000 Asp                                                 
    0.000 999%   0.000 Cr                                                  
    0.000 999%   0.000 PCr                                                 
   19.736 250%   0.000 GABA                                                
   44.337 110%   0.000 Glc                                                 
    0.000 999%   0.000 Gln                                                 
    0.000 999%   0.000 Glu                                                 
    2.923 649%   0.000 GPC                                                 
    0.000 999%   0.000 PCh                                                 
    0.000 999%   0.000 GSH                                                 
  383.056  52%   0.000 Ins                                                 
    0.000 999%   0.000 Lac                                                 
 1.41E+03   6%   0.000 NAA                                                 
    0.000 999%   0.000 NAAG                                                
   25.029  56%   0.000 Scyllo                                              
   99.370  76%   0.000 Tau                                                 
 1.08E-02 999%   0.000 -CrCH2                                              
    2.923 649%   0.000 GPC+PCh                                             
 1.41E+03   6%   0.000 NAA+NAAG                                            
    0.000 999%   0.000 Cr+PCr                                              
    0.000 999%   0.000 Glu+Gln                                             
    0.000 999%   0.000 Lip13a                                              
    0.000 999%   0.000 Lip13b                                              
    0.000 999%   0.000 Lip09                                               
  487.329  21%   0.000 MM09                                                
    0.000 999%   0.000 Lip20                                               
  862.639  22%   0.000 MM20                                                
  121.704  40%   0.000 MM12                                                
  468.214  25%   0.000 MM14                                                
    0.000 999%   0.000 MM17                                                
    0.000 999%   0.000 Lip13a+Lip13b                                       
  589.918  24%   0.000 MM14+Lip13a+Lip13b+MM12                             
  487.329  21%   0.000 MM09+Lip09                                          
  862.639  22%   0.000 MM20+Lip20                                          
   6 lines in following misc. output table
  FWHM = 0.138 ppm    S/N =   5                                            
  Data shift = 0.183 ppm                                                   
  Ph: 128 deg     189.9 deg/ppm                                            
  alphaB,S = 4.8E-01,   5.1E+01                                            
   12 spline knots.   Ns = 9(2)                                            
  (12) 6 infls.   (11) 1 extrs.                                            
  498 points on ppm-axis = NY
      4.000000     3.992357     3.984714     3.977070     3.969427     3.961784     3.954141     3.946497     3.938854     3.931211
      3.923568     3.915925     3.908281     3.900638     3.892995     3.885352     3.877708     3.870065     3.862422     3.854779
      3.847136     3.839492     3.831849     3.824206     3.816563     3.808919     3.801276     3.793633     3.785990     3.778347
      3.770703     3.763060     3.755417     3.747774     3.740130     3.732487     3.724844     3.717201     3.709558     3.701914
      3.694271     3.686628     3.678985     3.671341     3.663698     3.656055     3.648412     3.640769     3.633125     3.625482
      3.617839     3.610196     3.602552     3.594909     3.587266     3.579623     3.571980     3.564336     3.556693     3.549050
      3.541407     3.533763     3.526120     3.518477     3.510834     3.503191     3.495547     3.487904     3.480261     3.472618
      3.464974     3.457331     3.449688     3.442045     3.434402     3.426758     3.419115     3.411472     3.403829     3.396185
      3.388542     3.380899     3.373256     3.365613     3.357969     3.350326     3.342683     3.335040     3.327396     3.319753
      3.312110     3.304467     3.296824     3.289180     3.281537     3.273894     3.266251     3.258607     3.250964     3.243321
      3.235678     3.228034     3.220391     3.212748     3.205105     3.197462     3.189818     3.182175     3.174532     3.166889
      3.159245     3.151602     3.143959     3.136316     3.128673     3.121029     3.113386     3.105743     3.098100     3.090456
      3.082813     3.075170     3.067527     3.059884     3.052240     3.044597     3.036954     3.029311     3.021667     3.014024
      3.006381     2.998738     2.991095     2.983451     2.975808     2.968165     2.960522     2.952878     2.945235     2.937592
      2.929949     2.922306     2.914662     2.907019     2.899376     2.891733     2.884089     2.876446     2.868803     2.861160
      2.853517     2.845873     2.838230     2.830587     2.822944     2.815300     2.807657     2.800014     2.792371     2.784728
      2.777084     2.769441     2.761798     2.754155     2.746511     2.738868     2.731225     2.723582     2.715939     2.708295
      2.700652     2.693009     2.685366     2.677722     2.670079     2.662436     2.654793     2.647150     2.639506     2.631863
      2.624220     2.616577     2.608933     2.601290     2.593647     2.586004     2.578361     2.570717     2.563074     2.555431
      2.547788     2.540144     2.532501     2.524858     2.517215     2.509572     2.501928     2.494285     2.486642     2.478999
      2.471355     2.463712     2.456069     2.448426     2.440783     2.433139     2.425496     2.417853     2.410210     2.402566
      2.394923     2.387280     2.379637     2.371994     2.364350     2.356707     2.349064     2.341421     2.333777     2.326134
      2.318491     2.310848     2.303205     2.295561     2.287918     2.280275     2.272632     2.264988     2.257345     2.249702
      2.242059     2.234416     2.226772     2.219129     2.211486     2.203843     2.196199     2.188556     2.180913     2.173270
      2.165627     2.157983     2.150340     2.142697     2.135054     2.127410     2.119767     2.112124     2.104481     2.096838
      2.089194     2.081551     2.073908     2.066265     2.058621     2.050978     2.043335     2.035692     2.028049     2.020405
      2.012762     2.005119     1.997476     1.989833     1.982190     1.974546     1.966903     1.959260     1.951617     1.943974
      1.936331     1.928688     1.921045     1.913402     1.905759     1.898115     1.890472     1.882829     1.875186     1.867543
      1.859900     1.852257     1.844614     1.836971     1.829327     1.821684     1.814041     1.806398     1.798755     1.791112
      1.783469     1.775826     1.768183     1.760540     1.752896     1.745253     1.737610     1.729967     1.722324     1.714681
      1.707038     1.699395     1.691752     1.684108     1.676465     1.668822     1.661179     1.653536     1.645893     1.638250
      1.630607     1.622964     1.615321     1.607677     1.600034     1.592391     1.584748     1.577105     1.569462     1.561819
      1.554176     1.546533     1.538890     1.531246     1.523603     1.515960     1.508317     1.500674     1.493031     1.485388
      1.477745     1.470102     1.462458     1.454815     1.447172     1.439529     1.431886     1.424243     1.416600     1.408957
      1.401314     1.393671     1.386027     1.378384     1.370741     1.363098     1.355455     1.347812     1.340169     1.332526
      1.324883     1.317240     1.309596     1.301953     1.294310     1.286667     1.279024     1.271381     1.263738     1.256095
      1.248452     1.240808     1.233165     1.225522     1.217879     1.210236     1.202593     1.194950     1.187307     1.179664
      1.172021     1.164377     1.156734     1.149091     1.141448     1.133805     1.126162     1.118519     1.110876     1.103233
      1.095590     1.087946     1.080303     1.072660     1.065017     1.057374     1.049731     1.042088     1.034445     1.026802
      1.019158     1.011515     1.003872     0.996229     0.988586     0.980943     0.973300     0.965657     0.958014     0.950371
      0.942727     0.935084     0.927441     0.919798     0.912155     0.904512     0.896869     0.889226     0.881583     0.873940
      0.866296     0.858653     0.851010     0.843367     0.835724     0.828081     0.820438     0.812795     0.805152     0.797508
      0.789865     0.782222     0.774579     0.766936     0.759293     0.751650     0.744007     0.736364     0.728721     0.721077
      0.713434     0.705791     0.698148     0.690505     0.682862     0.675219     0.667576     0.659933     0.652290     0.644646
      0.637003     0.629360     0.621717     0.614074     0.606431     0.598788     0.591145     0.583502     0.575858     0.568215
      0.560572     0.552929     0.545286     0.537643     0.530000     0.522357     0.514714     0.507071     0.499427     0.491784
      0.484141     0.476498     0.468855     0.461212     0.453569     0.445925     0.438282     0.430639     0.422996     0.415353
      0.407710     0.400067     0.392424     0.384780     0.377137     0.369494     0.361851     0.354208     0.346565     0.338922
      0.331278     0.323635     0.315992     0.308349     0.300706     0.293063     0.285420     0.277777     0.270133     0.262490
      0.254847     0.247204     0.239561     0.231918     0.224275     0.216631     0.208988     0.201345
 NY phased data points follow
  -2.94905E-01 -1.28317E+00  1.90355E+00  2.78019E-01  1.54903E+00  8.23857E-01  2.34812E+00  3.89636E-01  1.03260E+00  2.16176E+00
   3.66059E-01  7.50252E-01 -1.14957E+00  1.82575E+00 -1.15192E-01  1.57407E+00  1.55724E+00  6.07354E-01  5.94100E-01  1.85698E+00
  -6.39988E-02  1.07757E+00  1.16533E+00 -7.32212E-01  2.51850E+00  1.13463E+00  1.53302E+00  2.87040E+00  1.69653E-01  1.49925E+00
   1.62559E+00  1.67095E+00  1.49363E-01  1.64879E+00  3.37644E-01 -3.04679E-01  1.73559E+00  2.54238E+00  9.44231E-01  2.10228E+00
   1.69908E+00  1.12363E+00 -1.23580E+00  2.89933E-01 -9.60884E-01  1.75851E+00 -2.09973E-01  1.20202E+00 -1.17852E+00  2.20461E-01
   6.36847E-01  2.69787E+00 -2.08309E-01  9.95637E-01  1.31885E+00  1.01795E+00  1.84942E+00  1.80957E+00 -3.93523E-01  1.88034E+00
  -2.57743E+00  1.76006E+00 -3.75963E-01  4.89486E-01  9.52879E-02  1.21225E+00  1.37865E+00  2.40541E+00 -1.30846E+00  1.50690E+00
  -1.60723E+00  1.80035E+00 -2.92899E-02  1.22104E+00  1.29244E+00  8.38344E-01  6.08570E-01  5.70650E-01 -1.06861E+00 -1.93909E+00
  -1.84388E+00 -1.30882E+00  8.44711E-01 -4.46335E-01 -9.24533E-01 -1.02794E+00 -2.04062E+00 -2.81569E+00 -1.47959E-01 -2.13597E+00
  -2.21206E+00 -4.29681E-01  6.50869E-01  2.58889E+00 -4.64011E-01 -8.23325E-01 -6.31089E-01  2.06340E+00 -2.73232E+00 -3.88262E-01
  -1.09652E+00 -1.57204E+00 -1.39360E+00 -9.32181E-01 -1.86900E+00 -7.44861E-01 -2.77731E+00 -2.04381E+00 -2.01595E+00 -7.28232E-01
  -2.06274E+00 -1.26670E+00 -1.83827E+00 -2.89763E+00 -1.19848E+00 -3.14093E+00 -2.78737E+00 -1.51641E+00 -3.01781E+00  1.06183E+00
  -2.06981E+00 -1.99049E+00 -2.09899E+00 -1.08863E+00  6.76039E-01 -3.89102E-01 -2.02229E+00  2.24822E-01 -4.15127E+00 -1.99521E+00
  -3.54874E+00 -2.78311E+00 -1.17225E+00 -5.65157E-01 -4.31057E+00 -3.52177E+00 -2.00700E+00 -1.33883E+00 -2.92661E+00 -1.21984E+00
  -1.92120E+00 -2.18951E+00 -3.13670E+00 -2.08482E+00 -5.00085E+00 -3.88722E+00 -1.55577E+00 -2.30720E+00 -3.46073E+00 -3.74378E+00
  -3.96285E+00 -3.52948E+00 -4.38616E+00 -4.46936E+00 -3.30607E+00 -4.52183E+00 -2.85537E+00 -4.07411E+00 -2.97521E+00 -1.79554E+00
  -2.68004E+00 -1.18337E+00 -2.81849E+00 -4.31023E+00 -3.39804E+00 -3.95977E+00 -2.60521E+00 -1.72311E+00 -7.78087E-01 -4.01728E+00
  -1.96874E+00 -2.27418E+00 -3.62841E+00 -3.12823E+00 -3.54143E+00 -2.82900E+00 -2.70439E+00 -2.60287E+00 -2.36879E+00 -1.39721E+00
   5.14169E-02 -4.90007E-01  6.37023E-01 -1.74541E+00  1.71309E+00  3.94776E-01  1.55635E+00  2.07104E+00 -7.33925E-01  2.40857E-01
   4.90458E-01 -2.21925E+00 -1.94448E+00  1.65492E+00 -4.65613E-01  6.48932E-01  1.44027E+00  2.17044E+00  9.00864E-01  7.98477E-01
  -6.41746E-01  9.10293E-01  1.90873E+00  1.48584E+00  1.60570E+00 -7.01547E-02 -9.12276E-02 -1.02436E+00  2.24926E+00  2.01641E+00
   5.33817E-01  1.66046E+00  2.93793E+00  3.99629E+00  4.05618E+00  3.49858E+00  6.83767E-01  1.39205E+00  1.15358E+00  5.56284E-02
   7.69592E-01  1.35049E-01  3.59732E+00  2.12399E+00  1.21054E+00  6.71117E-01 -7.06735E-01 -1.70551E-01  1.03897E+00 -2.96533E-01
   1.24265E+00  9.26232E-01  2.79924E+00  7.11895E-01 -2.06009E-01 -6.93885E-01 -6.17689E-01  1.42046E+00  3.22816E+00  3.14661E+00
   4.33756E+00  9.54988E-01  2.11950E+00  5.19878E+00  2.46725E+00  4.70203E+00  2.65079E+00  2.89640E+00  4.08633E+00  2.23320E+00
   2.43027E+00  4.80910E+00  6.04597E+00  3.58825E+00  3.45967E+00  6.99691E+00  3.57618E+00  6.74628E+00  6.47452E+00  5.83312E+00
   5.05814E+00  6.99765E+00  1.06860E+01  1.05990E+01  1.33841E+01  1.06924E+01  1.09950E+01  1.22195E+01  1.45425E+01  1.35841E+01
   1.52438E+01  1.37887E+01  1.55602E+01  1.71785E+01  1.36360E+01  1.40594E+01  1.37860E+01  9.62419E+00  1.02143E+01  9.67043E+00
   7.14652E+00  5.63478E+00  5.11656E+00  4.20193E+00  3.07158E+00 -7.54071E-02 -1.60535E+00 -3.19382E+00 -4.71966E+00 -6.59662E+00
  -5.00286E+00 -6.32787E+00 -7.33466E+00 -8.30352E+00 -7.18851E+00 -8.14565E+00 -8.04879E+00 -8.12156E+00 -6.56287E+00 -7.93426E+00
  -4.93705E+00 -7.56647E+00 -7.22417E+00 -6.36047E+00 -6.75758E+00 -4.25321E+00 -5.29028E+00 -5.42988E+00 -5.55745E+00 -4.21558E+00
  -4.52076E+00 -5.58783E+00 -4.15003E+00 -4.94332E+00 -6.73258E+00 -4.52709E+00 -2.46249E+00 -4.70953E+00  2.31003E-01 -4.19561E+00
  -7.71794E-01 -2.59776E+00 -9.20200E-01 -1.52715E-01 -1.05148E+00  6.69800E-01 -1.92626E+00 -3.54719E-01  1.95213E+00 -1.29200E+00
  -1.75676E+00 -1.17656E+00 -8.61998E-01 -1.30006E+00 -6.05349E-01 -1.47127E+00 -8.80700E-01 -2.79290E+00 -1.83316E+00 -7.63850E-01
  -1.50918E-01 -1.33348E+00 -1.89076E+00 -2.19855E+00 -2.10654E+00 -1.52761E+00 -2.46523E+00 -2.05361E+00 -9.00010E-01 -2.04532E+00
  -2.36023E+00 -2.60123E+00 -2.96613E+00 -2.60431E+00 -2.93239E+00 -2.62447E+00 -1.23333E+00 -2.79963E+00 -1.76180E+00 -2.21854E+00
  -3.84541E+00 -4.38222E+00 -2.27331E+00 -5.25491E+00 -5.03146E+00 -3.61726E+00 -4.37790E+00 -3.05517E+00 -4.08861E+00 -5.29150E+00
  -8.27670E-01 -4.24900E+00 -3.20834E+00 -1.69198E+00 -2.79896E+00 -5.54385E+00 -4.67063E+00 -3.27647E+00 -3.91311E+00 -3.43854E+00
  -2.11015E+00 -3.53478E+00 -3.60474E+00 -1.99078E+00 -4.67262E-01 -2.10629E+00 -3.56969E+00 -3.95922E+00 -2.36710E+00 -1.70690E+00
  -2.59330E+00 -2.31844E+00 -4.36041E-01 -1.75408E+00 -2.01549E+00 -1.52914E+00 -1.60922E+00 -1.83478E+00  1.79935E-01 -5.93334E-01
  -2.07311E-01 -5.80105E-01 -1.78201E+00 -2.50141E-01 -3.38057E-01 -3.10719E+00 -4.85826E-01  2.67326E-01  1.04535E+00 -5.76036E-01
  -3.61528E-01 -6.89409E-01  1.59629E+00 -8.14449E-01  2.95156E-02  3.30376E-01  2.37780E+00 -1.40000E+00  4.86765E-01 -4.27060E-01
   6.07361E-02  1.27861E+00  1.87734E+00  7.15365E-01 -1.52327E-01  1.41148E+00  1.71171E+00  7.56944E-01  1.14629E+00  3.81833E-02
   8.25063E-01  5.32495E-01  1.99660E+00  5.01966E-01 -7.46499E-01  1.61986E+00  4.62277E+00  1.70161E+00 -2.46690E-01  1.16569E+00
   3.06145E+00  1.79118E+00  5.86214E-01  2.39145E+00  2.74607E+00  2.15769E+00  2.83926E+00  1.43336E+00  1.99814E+00  1.15235E+00
   2.13350E+00  2.19446E+00  2.29052E+00  2.29367E+00  4.62490E-01  2.12408E+00  1.22794E+00  7.21940E-01  2.22361E+00  7.49301E-01
   4.90455E+00 -2.80139E-01 -3.61617E-02  1.40075E+00  2.00970E+00  1.48519E+00  1.27287E+00  4.04764E-01  1.07955E+00  2.94981E-01
   1.14301E+00  9.08782E-01  9.07259E-02  2.22741E+00  1.84318E+00  9.34960E-01  1.19083E+00  1.10961E+00  1.49438E+00  3.00575E+00
   3.34595E+00  2.03821E+00  1.25997E+00  2.50586E+00  1.09946E+00  2.73615E+00  3.66422E+00 -9.04042E-01  1.63331E+00  9.83925E-01
   2.03391E+00  1.74451E-01  4.58166E-01  1.83174E+00  2.95973E+00 -6.50263E-01 -4.46232E-02  1.60678E+00
 NY points of the fit to the data follow
   2.04216E+00  1.92760E+00  1.83586E+00  1.72317E+00  1.60716E+00  1.47629E+00  1.32491E+00  1.15661E+00  1.00926E+00  8.60023E-01
   8.02973E-01  7.33368E-01  6.33139E-01  7.01213E-01  7.17086E-01  7.19427E-01  7.99740E-01  8.53486E-01  8.98986E-01  9.09356E-01
   9.33745E-01  9.47897E-01  9.85140E-01  1.01636E+00  1.05294E+00  1.09202E+00  1.14812E+00  1.23145E+00  1.27175E+00  1.26432E+00
   1.20649E+00  1.13890E+00  1.11506E+00  1.13008E+00  1.11705E+00  1.16094E+00  1.18166E+00  1.29286E+00  1.24117E+00  1.24095E+00
   1.15558E+00  1.09448E+00  1.05864E+00  1.03362E+00  9.83873E-01  9.72067E-01  9.81888E-01  1.00977E+00  1.02166E+00  1.00312E+00
   9.40986E-01  8.83476E-01  8.25269E-01  8.22715E-01  7.64006E-01  7.44388E-01  6.90243E-01  6.77690E-01  6.44427E-01  6.65499E-01
   5.36703E-01  5.00913E-01  3.15775E-01  2.53097E-01  5.21370E-02 -1.73928E-02 -2.21927E-01 -2.14002E-01 -1.22565E-01  6.64277E-02
   8.74416E-02  1.77876E-01  1.01580E-01  1.63732E-01  5.46049E-02  9.11510E-02 -5.60091E-02 -4.06027E-02 -2.29784E-01 -2.55139E-01
  -3.27612E-01 -2.83462E-01 -3.14678E-01 -2.62228E-01 -3.36307E-01 -3.23544E-01 -4.21143E-01 -4.76175E-01 -5.52241E-01 -6.77958E-01
  -7.01990E-01 -8.40833E-01 -8.27393E-01 -9.33638E-01 -9.13374E-01 -1.05656E+00 -9.71609E-01 -1.04693E+00 -9.60810E-01 -1.08564E+00
  -1.03420E+00 -1.18085E+00 -1.16072E+00 -1.26915E+00 -1.24484E+00 -1.32575E+00 -1.32308E+00 -1.19322E+00 -1.10968E+00 -1.08985E+00
  -1.08972E+00 -1.08529E+00 -1.09555E+00 -1.04654E+00 -1.06680E+00 -1.01990E+00 -1.08069E+00 -9.98268E-01 -1.07826E+00 -9.98921E-01
  -1.02287E+00 -9.89986E-01 -1.04025E+00 -1.02918E+00 -1.06571E+00 -1.09598E+00 -1.10551E+00 -1.13542E+00 -1.15238E+00 -1.18651E+00
  -1.21247E+00 -1.25631E+00 -1.28823E+00 -1.31942E+00 -1.34638E+00 -1.37253E+00 -1.39967E+00 -1.43614E+00 -1.46308E+00 -1.49921E+00
  -1.52894E+00 -1.58679E+00 -1.63479E+00 -1.69324E+00 -1.76295E+00 -1.76120E+00 -1.79145E+00 -1.77199E+00 -1.79237E+00 -1.84021E+00
  -1.89286E+00 -1.94020E+00 -1.99495E+00 -2.00485E+00 -2.03867E+00 -2.03535E+00 -2.07193E+00 -2.09184E+00 -2.15603E+00 -2.18851E+00
  -2.19263E+00 -2.19708E+00 -2.22911E+00 -2.28007E+00 -2.40058E+00 -2.36027E+00 -2.42578E+00 -2.34973E+00 -2.40499E+00 -2.38063E+00
  -2.49166E+00 -2.40017E+00 -2.48792E+00 -2.37373E+00 -2.44860E+00 -2.36141E+00 -2.44906E+00 -2.38638E+00 -2.41503E+00 -2.25905E+00
  -2.21689E+00 -2.13165E+00 -2.11466E+00 -2.16547E+00 -2.23827E+00 -2.22619E+00 -2.24660E+00 -2.04124E+00 -2.02601E+00 -1.80932E+00
  -1.80234E+00 -1.52420E+00 -1.50471E+00 -1.23753E+00 -1.19563E+00 -9.03875E-01 -8.50106E-01 -4.87785E-01 -5.24303E-01 -3.54647E-01
  -2.87166E-01 -9.72136E-02  2.92972E-02  6.83691E-02  8.82736E-02  1.60954E-01  2.82487E-01  3.37932E-01  4.00723E-01  2.14736E-01
   1.62766E-01  6.82497E-02  5.08076E-02 -2.13163E-02 -1.45233E-01 -2.07784E-01 -3.57906E-01 -3.65119E-01 -5.00075E-01 -3.37458E-01
  -4.40725E-01 -3.11548E-01 -4.57355E-01 -3.67996E-01 -5.76445E-01 -5.32641E-01 -5.61102E-01 -4.07169E-01 -3.82728E-01 -2.00752E-01
  -1.35229E-01  7.67792E-02  2.09793E-01  4.59335E-01  6.75213E-01  7.83245E-01  8.77779E-01  9.92669E-01  1.11693E+00  1.26934E+00
   1.45600E+00  1.73778E+00  2.32980E+00  3.68544E+00  4.16436E+00  4.25885E+00  4.25025E+00  3.84332E+00  3.79607E+00  3.69190E+00
   3.98684E+00  4.67591E+00  5.02274E+00  5.11074E+00  5.35576E+00  5.58989E+00  5.89625E+00  6.06001E+00  6.35871E+00  6.41138E+00
   7.08019E+00  8.31708E+00  9.47274E+00  1.06673E+01  1.16378E+01  1.16803E+01  1.24805E+01  1.28259E+01  1.38192E+01  1.40195E+01
   1.49979E+01  1.48285E+01  1.56436E+01  1.49066E+01  1.53808E+01  1.38443E+01  1.38414E+01  1.16175E+01  1.09358E+01  7.47948E+00
   5.45019E+00 -4.03813E-01 -2.56564E+00 -3.11252E+00 -3.33514E+00 -3.45507E+00 -3.53275E+00 -3.58620E+00 -3.62753E+00 -3.65708E+00
  -3.68096E+00 -3.70503E+00 -3.72574E+00 -3.74622E+00 -3.76568E+00 -3.78291E+00 -3.80071E+00 -3.81537E+00 -3.82600E+00 -3.83352E+00
  -3.84055E+00 -3.84257E+00 -3.84432E+00 -3.84212E+00 -3.83881E+00 -3.83199E+00 -3.82364E+00 -3.80797E+00 -3.78802E+00 -3.76000E+00
  -3.72532E+00 -3.67945E+00 -3.62424E+00 -3.55696E+00 -3.47712E+00 -3.38420E+00 -3.27760E+00 -3.15703E+00 -3.02274E+00 -2.87535E+00
  -2.71604E+00 -2.54634E+00 -2.36843E+00 -2.18497E+00 -1.99924E+00 -1.81473E+00 -1.63524E+00 -1.46458E+00 -1.30662E+00 -1.16508E+00
  -1.04333E+00 -9.44177E-01 -8.69744E-01 -8.21425E-01 -7.99872E-01 -8.04941E-01 -8.35669E-01 -8.90282E-01 -9.66323E-01 -1.06083E+00
  -1.17048E+00 -1.29174E+00 -1.42093E+00 -1.55442E+00 -1.68872E+00 -1.82074E+00 -1.94775E+00 -2.06749E+00 -2.17811E+00 -2.27823E+00
  -2.36696E+00 -2.44387E+00 -2.50894E+00 -2.56248E+00 -2.60501E+00 -2.63727E+00 -2.66022E+00 -2.67494E+00 -2.68256E+00 -2.68421E+00
  -2.68098E+00 -2.67390E+00 -2.66399E+00 -2.65219E+00 -2.63932E+00 -2.62603E+00 -2.61285E+00 -2.60023E+00 -2.58851E+00 -2.57791E+00
  -2.56853E+00 -2.56031E+00 -2.55312E+00 -2.54681E+00 -2.54112E+00 -2.53577E+00 -2.53037E+00 -2.52447E+00 -2.51765E+00 -2.50945E+00
  -2.49942E+00 -2.48702E+00 -2.47168E+00 -2.45282E+00 -2.42981E+00 -2.40205E+00 -2.36885E+00 -2.32945E+00 -2.28306E+00 -2.22885E+00
  -2.16604E+00 -2.09382E+00 -2.01139E+00 -1.91802E+00 -1.81306E+00 -1.69605E+00 -1.56675E+00 -1.42518E+00 -1.27160E+00 -1.10665E+00
  -9.31311E-01 -7.47010E-01 -5.55551E-01 -3.59084E-01 -1.60052E-01  3.88462E-02  2.34724E-01  4.24609E-01  6.05582E-01  7.74904E-01
   9.30113E-01  1.06909E+00  1.19016E+00  1.29211E+00  1.37432E+00  1.43672E+00  1.47975E+00  1.50433E+00  1.51177E+00  1.50371E+00
   1.48207E+00  1.44893E+00  1.40643E+00  1.35665E+00  1.30159E+00  1.24311E+00  1.18291E+00  1.12247E+00  1.06302E+00  1.00555E+00
   9.50827E-01  8.99434E-01  8.51787E-01  8.08135E-01  7.68575E-01  7.33090E-01  7.01591E-01  6.73948E-01  6.49991E-01  6.29506E-01
   6.12241E-01  5.97951E-01  5.86399E-01  5.77378E-01  5.70680E-01  5.66091E-01  5.63401E-01  5.62425E-01  5.63014E-01  5.65033E-01
   5.68346E-01  5.72814E-01  5.78306E-01  5.84721E-01  5.91980E-01  6.00005E-01  6.08710E-01  6.18005E-01  6.27814E-01  6.38087E-01
   6.48782E-01  6.59850E-01  6.71229E-01  6.82859E-01  6.94699E-01  7.06726E-01  7.18915E-01  7.31225E-01  7.43610E-01  7.56031E-01
   7.68468E-01  7.80912E-01  7.93340E-01  8.05716E-01  8.18004E-01  8.30181E-01  8.42240E-01  8.54174E-01  8.65959E-01  8.77559E-01
   8.88948E-01  9.00116E-01  9.11059E-01  9.21765E-01  9.32206E-01  9.42348E-01  9.52172E-01  9.61672E-01  9.70841E-01  9.79655E-01
   9.88076E-01  9.96069E-01  1.00362E+00  1.01070E+00  1.01729E+00  1.02333E+00  1.02875E+00  1.03349E+00
 NY background values follow
     4.327E-01    4.012E-01    3.699E-01    3.386E-01    3.075E-01    2.765E-01    2.457E-01    2.149E-01    1.843E-01    1.538E-01
     1.235E-01    9.322E-02    6.312E-02    3.315E-02    3.307E-03   -2.640E-02   -5.597E-02   -8.541E-02   -1.147E-01   -1.439E-01
    -1.729E-01   -2.018E-01   -2.305E-01   -2.591E-01   -2.876E-01   -3.159E-01   -3.441E-01   -3.721E-01   -4.000E-01   -4.278E-01
    -4.554E-01   -4.828E-01   -5.101E-01   -5.373E-01   -5.643E-01   -5.911E-01   -6.178E-01   -6.444E-01   -6.708E-01   -6.970E-01
    -7.231E-01   -7.490E-01   -7.748E-01   -8.004E-01   -8.259E-01   -8.512E-01   -8.764E-01   -9.014E-01   -9.262E-01   -9.509E-01
    -9.754E-01   -9.997E-01   -1.024E+00   -1.048E+00   -1.072E+00   -1.095E+00   -1.119E+00   -1.142E+00   -1.166E+00   -1.189E+00
    -1.212E+00   -1.234E+00   -1.257E+00   -1.279E+00   -1.301E+00   -1.323E+00   -1.345E+00   -1.367E+00   -1.388E+00   -1.410E+00
    -1.431E+00   -1.452E+00   -1.473E+00   -1.493E+00   -1.514E+00   -1.534E+00   -1.554E+00   -1.574E+00   -1.594E+00   -1.614E+00
    -1.633E+00   -1.652E+00   -1.671E+00   -1.690E+00   -1.709E+00   -1.727E+00   -1.745E+00   -1.763E+00   -1.781E+00   -1.799E+00
    -1.816E+00   -1.834E+00   -1.851E+00   -1.868E+00   -1.884E+00   -1.901E+00   -1.917E+00   -1.933E+00   -1.949E+00   -1.965E+00
    -1.980E+00   -1.995E+00   -2.010E+00   -2.025E+00   -2.040E+00   -2.054E+00   -2.069E+00   -2.083E+00   -2.096E+00   -2.110E+00
    -2.123E+00   -2.137E+00   -2.149E+00   -2.162E+00   -2.175E+00   -2.187E+00   -2.199E+00   -2.211E+00   -2.223E+00   -2.234E+00
    -2.245E+00   -2.256E+00   -2.267E+00   -2.278E+00   -2.288E+00   -2.299E+00   -2.309E+00   -2.319E+00   -2.328E+00   -2.338E+00
    -2.347E+00   -2.357E+00   -2.366E+00   -2.375E+00   -2.383E+00   -2.392E+00   -2.400E+00   -2.409E+00   -2.417E+00   -2.425E+00
    -2.433E+00   -2.440E+00   -2.448E+00   -2.455E+00   -2.463E+00   -2.470E+00   -2.477E+00   -2.484E+00   -2.491E+00   -2.498E+00
    -2.505E+00   -2.511E+00   -2.518E+00   -2.524E+00   -2.531E+00   -2.537E+00   -2.543E+00   -2.550E+00   -2.556E+00   -2.562E+00
    -2.568E+00   -2.574E+00   -2.580E+00   -2.586E+00   -2.592E+00   -2.598E+00   -2.604E+00   -2.610E+00   -2.616E+00   -2.622E+00
    -2.628E+00   -2.634E+00   -2.640E+00   -2.646E+00   -2.652E+00   -2.658E+00   -2.664E+00   -2.671E+00   -2.677E+00   -2.683E+00
    -2.690E+00   -2.696E+00   -2.703E+00   -2.710E+00   -2.716E+00   -2.723E+00   -2.730E+00   -2.737E+00   -2.745E+00   -2.752E+00
    -2.760E+00   -2.767E+00   -2.775E+00   -2.783E+00   -2.791E+00   -2.799E+00   -2.808E+00   -2.816E+00   -2.825E+00   -2.834E+00
    -2.844E+00   -2.853E+00   -2.863E+00   -2.872E+00   -2.882E+00   -2.893E+00   -2.903E+00   -2.914E+00   -2.925E+00   -2.936E+00
    -2.948E+00   -2.959E+00   -2.971E+00   -2.984E+00   -2.996E+00   -3.009E+00   -3.022E+00   -3.036E+00   -3.049E+00   -3.064E+00
    -3.078E+00   -3.093E+00   -3.108E+00   -3.123E+00   -3.139E+00   -3.155E+00   -3.171E+00   -3.187E+00   -3.204E+00   -3.221E+00
    -3.239E+00   -3.256E+00   -3.274E+00   -3.292E+00   -3.311E+00   -3.329E+00   -3.348E+00   -3.367E+00   -3.386E+00   -3.405E+00
    -3.424E+00   -3.444E+00   -3.464E+00   -3.484E+00   -3.504E+00   -3.524E+00   -3.544E+00   -3.564E+00   -3.585E+00   -3.605E+00
    -3.625E+00   -3.646E+00   -3.667E+00   -3.687E+00   -3.708E+00   -3.728E+00   -3.749E+00   -3.769E+00   -3.790E+00   -3.810E+00
    -3.831E+00   -3.851E+00   -3.872E+00   -3.892E+00   -3.912E+00   -3.932E+00   -3.952E+00   -3.971E+00   -3.991E+00   -4.010E+00
    -4.029E+00   -4.048E+00   -4.067E+00   -4.086E+00   -4.104E+00   -4.122E+00   -4.140E+00   -4.158E+00   -4.175E+00   -4.192E+00
    -4.209E+00   -4.225E+00   -4.241E+00   -4.257E+00   -4.273E+00   -4.288E+00   -4.303E+00   -4.318E+00   -4.332E+00   -4.346E+00
    -4.359E+00   -4.373E+00   -4.385E+00   -4.398E+00   -4.410E+00   -4.422E+00   -4.433E+00   -4.444E+00   -4.455E+00   -4.465E+00
    -4.475E+00   -4.484E+00   -4.493E+00   -4.501E+00   -4.509E+00   -4.517E+00   -4.524E+00   -4.531E+00   -4.537E+00   -4.543E+00
    -4.549E+00   -4.553E+00   -4.558E+00   -4.562E+00   -4.565E+00   -4.568E+00   -4.571E+00   -4.573E+00   -4.574E+00   -4.575E+00
    -4.576E+00   -4.576E+00   -4.575E+00   -4.574E+00   -4.573E+00   -4.570E+00   -4.568E+00   -4.565E+00   -4.561E+00   -4.557E+00
    -4.552E+00   -4.546E+00   -4.541E+00   -4.534E+00   -4.527E+00   -4.519E+00   -4.511E+00   -4.503E+00   -4.493E+00   -4.484E+00
    -4.473E+00   -4.463E+00   -4.451E+00   -4.439E+00   -4.427E+00   -4.414E+00   -4.401E+00   -4.387E+00   -4.372E+00   -4.357E+00
    -4.342E+00   -4.326E+00   -4.309E+00   -4.293E+00   -4.275E+00   -4.257E+00   -4.239E+00   -4.220E+00   -4.200E+00   -4.181E+00
    -4.160E+00   -4.140E+00   -4.118E+00   -4.097E+00   -4.074E+00   -4.052E+00   -4.029E+00   -4.005E+00   -3.982E+00   -3.957E+00
    -3.933E+00   -3.907E+00   -3.882E+00   -3.856E+00   -3.830E+00   -3.803E+00   -3.776E+00   -3.748E+00   -3.720E+00   -3.692E+00
    -3.663E+00   -3.634E+00   -3.605E+00   -3.575E+00   -3.545E+00   -3.515E+00   -3.484E+00   -3.453E+00   -3.422E+00   -3.390E+00
    -3.358E+00   -3.326E+00   -3.293E+00   -3.260E+00   -3.227E+00   -3.194E+00   -3.160E+00   -3.126E+00   -3.092E+00   -3.058E+00
    -3.024E+00   -2.989E+00   -2.955E+00   -2.920E+00   -2.885E+00   -2.849E+00   -2.814E+00   -2.778E+00   -2.743E+00   -2.707E+00
    -2.671E+00   -2.635E+00   -2.600E+00   -2.563E+00   -2.527E+00   -2.491E+00   -2.455E+00   -2.419E+00   -2.383E+00   -2.347E+00
    -2.310E+00   -2.274E+00   -2.238E+00   -2.202E+00   -2.166E+00   -2.130E+00   -2.094E+00   -2.058E+00   -2.022E+00   -1.986E+00
    -1.951E+00   -1.915E+00   -1.880E+00   -1.844E+00   -1.809E+00   -1.774E+00   -1.739E+00   -1.704E+00   -1.670E+00   -1.635E+00
    -1.601E+00   -1.567E+00   -1.533E+00   -1.499E+00   -1.466E+00   -1.432E+00   -1.399E+00   -1.366E+00   -1.334E+00   -1.301E+00
    -1.269E+00   -1.237E+00   -1.205E+00   -1.174E+00   -1.143E+00   -1.112E+00   -1.081E+00   -1.051E+00   -1.021E+00   -9.909E-01
    -9.613E-01   -9.321E-01   -9.031E-01   -8.744E-01   -8.460E-01   -8.179E-01   -7.902E-01   -7.627E-01   -7.356E-01   -7.088E-01
    -6.823E-01   -6.562E-01   -6.303E-01   -6.049E-01   -5.797E-01   -5.549E-01   -5.305E-01   -5.064E-01   -4.827E-01   -4.593E-01
    -4.363E-01   -4.136E-01   -3.913E-01   -3.694E-01   -3.479E-01   -3.267E-01   -3.060E-01   -2.856E-01   -2.656E-01   -2.460E-01
    -2.267E-01   -2.079E-01   -1.895E-01   -1.715E-01   -1.538E-01   -1.366E-01   -1.198E-01   -1.033E-01
 Asp      Conc. = 2.00E+02
