 LCModel (Version 6.3-1L) Copyright: S.W. Provencher.          Ref.: Magn. Reson. Med. 30:672-679 (1993).                
 Slice#2 Row#8 Col#6  PD_24_press_2_raw_act
 36 lines in following concentration table = NCONC+1
    Conc.  %SD /Cr+PCr  Metabolite                                         
    0.000 999%   0.000 Ala                                                 
  144.611 222% 6.5E-02 Asp                                                 
 1.41E+03  21%   0.634 Cr                                                  
  811.500  36%   0.366 PCr                                                 
    0.000 999%   0.000 GABA                                                
   15.031 999% 6.8E-03 Glc                                                 
 1.21E+03  28%   0.544 Gln                                                 
 2.44E+03  15%   1.101 Glu                                                 
  575.732   6%   0.260 GPC                                                 
    0.000 999%   0.000 PCh                                                 
  875.133  13%   0.395 GSH                                                 
 1.67E+03  22%   0.755 Ins                                                 
  317.450  62%   0.143 Lac                                                 
 3.08E+03   5%   1.391 NAA                                                 
  214.697  74% 9.7E-02 NAAG                                                
   65.302  59% 2.9E-02 Scyllo                                              
    0.000 999%   0.000 Tau                                                 
    0.000 999%   0.000 -CrCH2                                              
  575.732   6%   0.260 GPC+PCh                                             
 3.30E+03   4%   1.487 NAA+NAAG                                            
 2.22E+03   4%   1.000 Cr+PCr                                              
 3.65E+03  14%   1.645 Glu+Gln                                             
  644.331 288%   0.290 Lip13a                                              
 1.38E+03 109%   0.623 Lip13b                                              
   34.655 999% 1.6E-02 Lip09                                               
 2.06E+03  22%   0.931 MM09                                                
  307.755  99%   0.139 Lip20                                               
 3.84E+03  16%   1.732 MM20                                                
  644.626  44%   0.291 MM12                                                
 1.65E+03  35%   0.746 MM14                                                
 2.55E+03  15%   1.149 MM17                                                
 2.03E+03  38%   0.914 Lip13a+Lip13b                                       
 4.33E+03  14%   1.950 MM14+Lip13a+Lip13b+MM12                             
 2.10E+03  14%   0.946 MM09+Lip09                                          
 4.15E+03  15%   1.871 MM20+Lip20                                          
   6 lines in following misc. output table
  FWHM = 0.046 ppm    S/N =  11                                            
  Data shift = 0.015 ppm                                                   
  Ph:   8 deg       1.8 deg/ppm                                            
  alphaB,S = 1.8E+00,   8.7E+01                                            
   14 spline knots.   Ns = 6(1)                                            
  (10) 4 infls.   (13) 1 extrs.                                            
  498 points on ppm-axis = NY
      4.000000     3.992357     3.984714     3.977070     3.969427     3.961784     3.954141     3.946497     3.938854     3.931211
      3.923568     3.915925     3.908281     3.900638     3.892995     3.885352     3.877708     3.870065     3.862422     3.854779
      3.847136     3.839492     3.831849     3.824206     3.816563     3.808919     3.801276     3.793633     3.785990     3.778347
      3.770703     3.763060     3.755417     3.747774     3.740130     3.732487     3.724844     3.717201     3.709558     3.701914
      3.694271     3.686628     3.678985     3.671341     3.663698     3.656055     3.648412     3.640769     3.633125     3.625482
      3.617839     3.610196     3.602552     3.594909     3.587266     3.579623     3.571980     3.564336     3.556693     3.549050
      3.541407     3.533763     3.526120     3.518477     3.510834     3.503191     3.495547     3.487904     3.480261     3.472618
      3.464974     3.457331     3.449688     3.442045     3.434402     3.426758     3.419115     3.411472     3.403829     3.396185
      3.388542     3.380899     3.373256     3.365613     3.357969     3.350326     3.342683     3.335040     3.327396     3.319753
      3.312110     3.304467     3.296824     3.289180     3.281537     3.273894     3.266251     3.258607     3.250964     3.243321
      3.235678     3.228034     3.220391     3.212748     3.205105     3.197462     3.189818     3.182175     3.174532     3.166889
      3.159245     3.151602     3.143959     3.136316     3.128673     3.121029     3.113386     3.105743     3.098100     3.090456
      3.082813     3.075170     3.067527     3.059884     3.052240     3.044597     3.036954     3.029311     3.021667     3.014024
      3.006381     2.998738     2.991095     2.983451     2.975808     2.968165     2.960522     2.952878     2.945235     2.937592
      2.929949     2.922306     2.914662     2.907019     2.899376     2.891733     2.884089     2.876446     2.868803     2.861160
      2.853517     2.845873     2.838230     2.830587     2.822944     2.815300     2.807657     2.800014     2.792371     2.784728
      2.777084     2.769441     2.761798     2.754155     2.746511     2.738868     2.731225     2.723582     2.715939     2.708295
      2.700652     2.693009     2.685366     2.677722     2.670079     2.662436     2.654793     2.647150     2.639506     2.631863
      2.624220     2.616577     2.608933     2.601290     2.593647     2.586004     2.578361     2.570717     2.563074     2.555431
      2.547788     2.540144     2.532501     2.524858     2.517215     2.509572     2.501928     2.494285     2.486642     2.478999
      2.471355     2.463712     2.456069     2.448426     2.440783     2.433139     2.425496     2.417853     2.410210     2.402566
      2.394923     2.387280     2.379637     2.371994     2.364350     2.356707     2.349064     2.341421     2.333777     2.326134
      2.318491     2.310848     2.303205     2.295561     2.287918     2.280275     2.272632     2.264988     2.257345     2.249702
      2.242059     2.234416     2.226772     2.219129     2.211486     2.203843     2.196199     2.188556     2.180913     2.173270
      2.165627     2.157983     2.150340     2.142697     2.135054     2.127410     2.119767     2.112124     2.104481     2.096838
      2.089194     2.081551     2.073908     2.066265     2.058621     2.050978     2.043335     2.035692     2.028049     2.020405
      2.012762     2.005119     1.997476     1.989833     1.982190     1.974546     1.966903     1.959260     1.951617     1.943974
      1.936331     1.928688     1.921045     1.913402     1.905759     1.898115     1.890472     1.882829     1.875186     1.867543
      1.859900     1.852257     1.844614     1.836971     1.829327     1.821684     1.814041     1.806398     1.798755     1.791112
      1.783469     1.775826     1.768183     1.760540     1.752896     1.745253     1.737610     1.729967     1.722324     1.714681
      1.707038     1.699395     1.691752     1.684108     1.676465     1.668822     1.661179     1.653536     1.645893     1.638250
      1.630607     1.622964     1.615321     1.607677     1.600034     1.592391     1.584748     1.577105     1.569462     1.561819
      1.554176     1.546533     1.538890     1.531246     1.523603     1.515960     1.508317     1.500674     1.493031     1.485388
      1.477745     1.470102     1.462458     1.454815     1.447172     1.439529     1.431886     1.424243     1.416600     1.408957
      1.401314     1.393671     1.386027     1.378384     1.370741     1.363098     1.355455     1.347812     1.340169     1.332526
      1.324883     1.317240     1.309596     1.301953     1.294310     1.286667     1.279024     1.271381     1.263738     1.256095
      1.248452     1.240808     1.233165     1.225522     1.217879     1.210236     1.202593     1.194950     1.187307     1.179664
      1.172021     1.164377     1.156734     1.149091     1.141448     1.133805     1.126162     1.118519     1.110876     1.103233
      1.095590     1.087946     1.080303     1.072660     1.065017     1.057374     1.049731     1.042088     1.034445     1.026802
      1.019158     1.011515     1.003872     0.996229     0.988586     0.980943     0.973300     0.965657     0.958014     0.950371
      0.942727     0.935084     0.927441     0.919798     0.912155     0.904512     0.896869     0.889226     0.881583     0.873940
      0.866296     0.858653     0.851010     0.843367     0.835724     0.828081     0.820438     0.812795     0.805152     0.797508
      0.789865     0.782222     0.774579     0.766936     0.759293     0.751650     0.744007     0.736364     0.728721     0.721077
      0.713434     0.705791     0.698148     0.690505     0.682862     0.675219     0.667576     0.659933     0.652290     0.644646
      0.637003     0.629360     0.621717     0.614074     0.606431     0.598788     0.591145     0.583502     0.575858     0.568215
      0.560572     0.552929     0.545286     0.537643     0.530000     0.522357     0.514714     0.507071     0.499427     0.491784
      0.484141     0.476498     0.468855     0.461212     0.453569     0.445925     0.438282     0.430639     0.422996     0.415353
      0.407710     0.400067     0.392424     0.384780     0.377137     0.369494     0.361851     0.354208     0.346565     0.338922
      0.331278     0.323635     0.315992     0.308349     0.300706     0.293063     0.285420     0.277777     0.270133     0.262490
      0.254847     0.247204     0.239561     0.231918     0.224275     0.216631     0.208988     0.201345
 NY phased data points follow
   6.82758E+01  4.74354E+01  6.46211E+01  5.17195E+01  6.90183E+01  6.35270E+01  7.62176E+01  8.46736E+01  9.88486E+01  9.08264E+01
   1.17396E+02  1.12054E+02  1.05995E+02  9.53048E+01  9.82677E+01  8.26503E+01  8.28101E+01  8.26755E+01  6.52966E+01  6.33142E+01
   6.19590E+01  5.86312E+01  5.61395E+01  5.78979E+01  6.63215E+01  6.55002E+01  7.03567E+01  6.06617E+01  7.72130E+01  6.88454E+01
   7.94324E+01  7.42644E+01  7.46311E+01  6.00153E+01  7.05042E+01  5.16746E+01  5.98174E+01  5.75555E+01  5.16959E+01  5.90588E+01
   5.49547E+01  5.17082E+01  5.78852E+01  5.21486E+01  5.30637E+01  5.93105E+01  6.65053E+01  6.18415E+01  6.39836E+01  5.53888E+01
   6.86583E+01  5.52975E+01  5.25456E+01  5.63047E+01  5.47555E+01  4.55445E+01  6.04510E+01  5.03178E+01  5.25021E+01  4.39498E+01
   4.62265E+01  4.45356E+01  4.46829E+01  3.93787E+01  4.07407E+01  3.91376E+01  4.61283E+01  2.80453E+01  3.40079E+01  3.06328E+01
   4.55286E+01  3.31481E+01  4.34069E+01  4.16436E+01  4.50736E+01  3.50382E+01  3.43537E+01  3.96301E+01  3.15301E+01  3.09697E+01
   3.78409E+01  3.12080E+01  3.90359E+01  3.32593E+01  3.56926E+01  3.57752E+01  4.67780E+01  3.66948E+01  3.55139E+01  3.84954E+01
   3.50298E+01  2.99735E+01  3.19682E+01  2.69692E+01  4.50845E+01  3.14652E+01  3.07240E+01  2.96642E+01  3.43495E+01  3.58546E+01
   4.28065E+01  5.92007E+01  8.03589E+01  8.65821E+01  9.34908E+01  8.33956E+01  7.90928E+01  6.30130E+01  6.22849E+01  4.87162E+01
   4.10351E+01  3.85427E+01  3.91527E+01  2.59545E+01  2.91401E+01  3.62098E+01  3.41070E+01  2.88463E+01  3.46227E+01  2.73832E+01
   2.67647E+01  3.06848E+01  3.60115E+01  3.67062E+01  5.69387E+01  7.41406E+01  1.04066E+02  1.13208E+02  1.07261E+02  9.64539E+01
   8.62075E+01  6.91717E+01  5.57277E+01  4.96212E+01  4.69176E+01  3.51470E+01  4.02533E+01  2.80984E+01  2.97836E+01  2.31447E+01
   3.24365E+01  3.13954E+01  2.05681E+01  2.44102E+01  1.93669E+01  2.02816E+01  2.13298E+01  2.92918E+01  2.60057E+01  2.54582E+01
   1.96113E+01  2.95369E+01  2.37356E+01  2.36223E+01  3.04805E+01  1.85765E+01  2.77518E+01  2.25302E+01  2.65885E+01  1.86615E+01
   2.94669E+01  1.88386E+01  1.29795E+01  1.20904E+01  2.79483E+01  1.82899E+01  2.57327E+01  1.46255E+01  2.21278E+01  1.87938E+01
   1.25016E+01  1.80083E+01  1.66899E+01  9.66178E+00  1.17085E+01  6.26800E+00  3.65779E+00  5.93667E+00  7.83622E+00  1.34009E+01
   9.13922E+00  4.86955E+00  1.01030E+01 -1.97658E-01  1.49662E+01  6.33115E+00  1.32206E+01  2.27646E+01  2.07786E+01  2.28990E+01
   3.02196E+01  2.20368E+01  2.73528E+01  1.26744E+01  3.29176E+01  1.84560E+01  1.96398E+01  2.45277E+01  1.08616E+01  1.91280E+01
   1.15331E+01  2.55176E+01  2.98833E+01  2.46851E+01  2.80685E+01  1.40798E+01  2.85636E+01  4.18453E+00  1.88120E+01  1.04468E+01
   1.44674E+01  1.20310E+01  1.40897E+01  1.83888E+01  4.14403E+01  3.62808E+01  4.08078E+01  2.27538E+01  3.15178E+01  2.59024E+01
   7.66638E+00  1.30124E+01  1.17033E+01  2.42791E+01  1.62489E+01  2.12502E+01  2.70959E+01  2.07829E+01  3.69088E+01  2.43443E+01
   2.50780E+01  3.24573E+01  2.81569E+01  1.56423E+01  2.55479E+01  2.75154E+01  2.77250E+01  2.08964E+01  2.88965E+01  3.00509E+01
   1.75639E+01  1.46630E+01  1.54245E+01  2.26354E+01  2.46631E+01  2.15053E+01  3.40537E+01  3.13566E+01  3.26358E+01  3.04553E+01
   3.56776E+01  3.08936E+01  3.54554E+01  4.25844E+01  4.05192E+01  4.59897E+01  4.96246E+01  7.24017E+01  1.03713E+02  1.41928E+02
   1.48872E+02  1.33631E+02  1.23603E+02  9.24679E+01  7.97338E+01  7.06541E+01  5.59853E+01  4.34547E+01  3.94515E+01  2.55232E+01
   3.02093E+01  2.17716E+01  3.00450E+01  1.92538E+01  1.75564E+01  1.90846E+01  2.38035E+01  2.40442E+01  1.32643E+01  2.22972E+01
   2.63947E+01  2.08652E+01  2.74244E+01  1.32287E+01  1.74684E+01  2.65126E+01  2.30608E+01  1.56041E+01  1.86824E+01  1.87014E+01
   1.76354E+01  1.48949E+01  1.77505E+01  1.68331E+01  1.06668E+01  2.86284E+01  1.88431E+01  1.91299E+01  2.72298E+01  2.58941E+01
   2.92386E+01  2.81887E+01  2.72411E+01  2.58199E+01  2.64191E+01  2.48787E+01  3.15885E+01  3.21270E+01  3.81052E+01  3.36828E+01
   3.61139E+01  3.67867E+01  3.64387E+01  3.70748E+01  3.99142E+01  3.44467E+01  3.38634E+01  2.93243E+01  2.63572E+01  1.81671E+01
   2.02104E+01  2.40684E+01  3.09596E+01  1.96620E+01  1.86029E+01  1.62600E+01  1.70100E+01  1.60848E+01  2.25175E+01  1.71266E+01
   1.93797E+01  2.28628E+01  1.44767E+01  2.20141E+01  2.27345E+01  1.25710E+01  1.94003E+01  1.79657E+01  2.72096E+01  1.75352E+01
   2.52521E+01  1.82126E+01  2.21108E+01  2.02859E+01  3.22849E+01  3.56623E+01  2.92945E+01  3.36716E+01  3.12993E+01  2.32757E+01
   2.15218E+01  2.50309E+01  2.86503E+01  3.36020E+01  3.61772E+01  2.84346E+01  3.24341E+01  2.83733E+01  2.26395E+01  3.16073E+01
   2.17447E+01  2.64865E+01  2.35838E+01  1.60668E+01  2.13435E+01  2.30663E+01  2.25467E+01  2.31509E+01  2.39086E+01  2.01173E+01
   1.87446E+01  1.37868E+01  1.89568E+01  1.90343E+01  1.38232E+01  1.24337E+01  1.62833E+01  1.61154E+01  2.08735E+01  1.08053E+01
   5.48020E+00  7.69602E+00  2.02211E+01  1.62718E+01  9.12950E+00  6.72022E+00  1.29160E+01  1.06462E+01  1.36841E+01  1.03776E+01
   1.11511E+01  1.93855E+01  1.94854E+01  1.33631E+01  8.38150E+00  1.53004E+01  1.34239E+01  2.28560E+01  2.33067E+01  2.21958E+01
   2.42365E+01  3.25504E+01  2.18167E+01  1.47488E+01  2.13838E+01  2.59235E+01  1.84051E+01  2.89447E+01  2.17965E+01  1.98062E+01
   2.82865E+01  2.83437E+01  1.25724E+01  1.87813E+01  1.35652E+01  1.97162E+01  1.83346E+01  1.56166E+01  2.56917E+01  1.36981E+01
   2.52098E+01  1.83940E+01  1.64681E+01  1.49635E+01  7.77390E+00  1.10286E+01  1.25169E+01  1.68665E+01  1.24541E+00  1.35286E+01
   5.38699E+00  6.83097E+00  1.23184E+01  1.12175E+01  3.49018E+00  6.26813E-01  1.04218E+01  1.04284E+01  6.66357E+00  4.94701E+00
   6.56757E+00  2.32280E-01  1.73324E+01  1.28173E+01  1.27511E+01  2.86175E+00  1.15197E+01  1.06871E+01  7.73705E+00  2.72144E+00
   4.83091E+00  9.75173E+00  1.35006E+01  8.66889E+00  7.38893E+00  7.40552E+00 -3.58121E+00  9.40851E+00  4.82073E+00  8.21264E+00
   4.55511E+00 -1.03159E+00  2.90499E+00  5.74678E+00  1.10022E+01  1.91414E+00  7.77305E+00  1.09048E+01  7.09682E+00  1.09361E+01
   1.13983E+01  8.08655E+00  6.75575E+00  1.63042E+00 -5.50363E-01  7.92552E+00  8.77716E+00  7.91893E+00  7.40562E+00  9.66479E+00
   6.43283E+00  5.09559E+00  3.86656E+00  1.00673E+01  2.20535E+00  7.25409E+00  7.04259E+00  6.25819E+00  7.06864E+00  9.68361E+00
   8.75591E+00  5.54267E+00  5.81195E+00  3.47942E+00  2.97320E+00  3.99904E+00  6.36878E+00  1.57639E+01
 NY points of the fit to the data follow
   5.99041E+01  5.90835E+01  5.87543E+01  5.89487E+01  6.02402E+01  6.33189E+01  6.90744E+01  7.75012E+01  8.76277E+01  9.76714E+01
   1.05082E+02  1.07277E+02  1.03821E+02  9.68931E+01  8.89843E+01  8.14994E+01  7.49802E+01  6.96416E+01  6.52229E+01  6.11790E+01
   5.89230E+01  5.79045E+01  5.70898E+01  5.64364E+01  5.62310E+01  5.73022E+01  6.06470E+01  6.58374E+01  7.09887E+01  7.44321E+01
   7.57148E+01  7.47859E+01  7.18878E+01  6.77707E+01  6.30653E+01  5.82379E+01  5.38270E+01  5.13276E+01  5.07165E+01  5.05741E+01
   5.06108E+01  5.09162E+01  5.17505E+01  5.32841E+01  5.57712E+01  5.90594E+01  6.18548E+01  6.26768E+01  6.12964E+01  5.85260E+01
   5.52250E+01  5.21877E+01  4.98902E+01  4.81388E+01  4.65357E+01  4.54096E+01  4.53802E+01  4.62649E+01  4.73902E+01  4.82265E+01
   4.83865E+01  4.76960E+01  4.63221E+01  4.47020E+01  4.33414E+01  4.24853E+01  4.20505E+01  4.19198E+01  4.20916E+01  4.24919E+01
   4.30176E+01  4.33964E+01  4.34232E+01  4.30973E+01  4.25246E+01  4.18635E+01  4.12551E+01  4.07229E+01  4.02309E+01  3.97276E+01
   3.93616E+01  3.92210E+01  3.93337E+01  3.96453E+01  3.97955E+01  3.92745E+01  3.79368E+01  3.62250E+01  3.47578E+01  3.39061E+01
   3.37216E+01  3.39874E+01  3.43651E+01  3.46655E+01  3.49587E+01  3.51295E+01  3.49404E+01  3.46923E+01  3.55997E+01  3.93017E+01
   4.80304E+01  6.26113E+01  7.91699E+01  9.05518E+01  9.24612E+01  8.64056E+01  7.64387E+01  6.62723E+01  5.80465E+01  5.13994E+01
   4.46404E+01  3.76714E+01  3.36354E+01  3.25575E+01  3.21775E+01  3.19459E+01  3.17337E+01  3.15231E+01  3.13888E+01  3.14516E+01
   3.19132E+01  3.34361E+01  3.74927E+01  4.61849E+01  6.19000E+01  8.31405E+01  1.02586E+02  1.12143E+02  1.09963E+02  1.00105E+02
   8.75532E+01  7.56028E+01  6.49952E+01  5.42851E+01  4.26737E+01  3.30283E+01  2.91460E+01  2.87910E+01  2.96532E+01  3.06560E+01
   3.13027E+01  3.15999E+01  3.15485E+01  3.11919E+01  3.06798E+01  3.00283E+01  2.92097E+01  2.83176E+01  2.73798E+01  2.65943E+01
   2.59164E+01  2.52996E+01  2.47941E+01  2.44643E+01  2.43129E+01  2.42256E+01  2.40404E+01  2.35460E+01  2.26069E+01  2.14520E+01
   2.05907E+01  2.04231E+01  2.08770E+01  2.14696E+01  2.16614E+01  2.12278E+01  2.04142E+01  1.96259E+01  1.90799E+01  1.86427E+01
   1.81008E+01  1.73163E+01  1.62430E+01  1.50835E+01  1.41160E+01  1.36512E+01  1.38203E+01  1.42136E+01  1.42785E+01  1.39162E+01
   1.34498E+01  1.31901E+01  1.31737E+01  1.32215E+01  1.31912E+01  1.34192E+01  1.47359E+01  1.73020E+01  2.03917E+01  2.28438E+01
   2.38619E+01  2.34408E+01  2.19827E+01  2.00879E+01  1.83012E+01  1.69692E+01  1.64480E+01  1.70283E+01  1.86001E+01  2.08868E+01
   2.35379E+01  2.61480E+01  2.83061E+01  2.93999E+01  2.86572E+01  2.59009E+01  2.15063E+01  1.64305E+01  1.21632E+01  9.98869E+00
   1.01844E+01  1.24541E+01  1.68585E+01  2.27847E+01  2.84091E+01  3.17485E+01  3.19345E+01  2.90782E+01  2.36388E+01  1.71848E+01
   1.14358E+01  7.80252E+00  7.15899E+00  9.34748E+00  1.35841E+01  1.81669E+01  2.17228E+01  2.38559E+01  2.48385E+01  2.51660E+01
   2.50455E+01  2.47439E+01  2.47312E+01  2.53195E+01  2.63432E+01  2.74890E+01  2.82401E+01  2.83138E+01  2.76379E+01  2.60130E+01
   2.38124E+01  2.21100E+01  2.17478E+01  2.25761E+01  2.39520E+01  2.55838E+01  2.69211E+01  2.76313E+01  2.79398E+01  2.84162E+01
   2.93394E+01  3.06815E+01  3.27664E+01  3.56681E+01  3.94732E+01  4.54760E+01  5.70205E+01  7.84998E+01  1.07719E+02  1.33479E+02
   1.44242E+02  1.38186E+02  1.21367E+02  1.01231E+02  8.36294E+01  6.98912E+01  5.70099E+01  4.28687E+01  3.12318E+01  2.65254E+01
   2.45313E+01  2.33924E+01  2.28040E+01  2.24446E+01  2.20319E+01  2.15504E+01  2.09935E+01  2.03859E+01  1.97708E+01  1.91805E+01
   1.86178E+01  1.81162E+01  1.77129E+01  1.73970E+01  1.71343E+01  1.69046E+01  1.67201E+01  1.66054E+01  1.65691E+01  1.66143E+01
   1.67663E+01  1.70403E+01  1.74377E+01  1.79550E+01  1.85967E+01  1.93669E+01  2.02651E+01  2.12890E+01  2.24313E+01  2.36756E+01
   2.50010E+01  2.63757E+01  2.77574E+01  2.90986E+01  3.03531E+01  3.14781E+01  3.24328E+01  3.31800E+01  3.36926E+01  3.39520E+01
   3.39494E+01  3.36894E+01  3.31878E+01  3.24692E+01  3.15666E+01  3.05186E+01  2.93682E+01  2.81605E+01  2.69394E+01  2.57451E+01
   2.46119E+01  2.35677E+01  2.26339E+01  2.18251E+01  2.11489E+01  2.06063E+01  2.01920E+01  1.98973E+01  1.97108E+01  1.96197E+01
   1.96100E+01  1.96677E+01  1.97794E+01  1.99341E+01  2.01243E+01  2.03458E+01  2.05981E+01  2.08857E+01  2.12200E+01  2.16234E+01
   2.21385E+01  2.28469E+01  2.38247E+01  2.51089E+01  2.65466E+01  2.76531E+01  2.79366E+01  2.73868E+01  2.64654E+01  2.56692E+01
   2.52836E+01  2.55237E+01  2.65149E+01  2.80803E+01  2.97525E+01  3.11167E+01  3.17755E+01  3.15218E+01  3.06185E+01  2.94035E+01
   2.80545E+01  2.65335E+01  2.47965E+01  2.31569E+01  2.17937E+01  2.06289E+01  1.96204E+01  1.87444E+01  1.79816E+01  1.73140E+01
   1.67259E+01  1.62040E+01  1.57383E+01  1.53212E+01  1.49479E+01  1.46149E+01  1.43203E+01  1.40635E+01  1.38452E+01  1.36671E+01
   1.35308E+01  1.34383E+01  1.33920E+01  1.33948E+01  1.34498E+01  1.35605E+01  1.37297E+01  1.39599E+01  1.42534E+01  1.46118E+01
   1.50360E+01  1.55254E+01  1.60772E+01  1.66868E+01  1.73474E+01  1.80503E+01  1.87842E+01  1.95351E+01  2.02867E+01  2.10212E+01
   2.17197E+01  2.23634E+01  2.29333E+01  2.34117E+01  2.37826E+01  2.40334E+01  2.41551E+01  2.41428E+01  2.39954E+01  2.37163E+01
   2.33127E+01  2.27957E+01  2.21797E+01  2.14811E+01  2.07176E+01  1.99071E+01  1.90677E+01  1.82165E+01  1.73691E+01  1.65392E+01
   1.57378E+01  1.49734E+01  1.42525E+01  1.35797E+01  1.29573E+01  1.23858E+01  1.18640E+01  1.13900E+01  1.09612E+01  1.05743E+01
   1.02261E+01  9.91276E+00  9.63040E+00  9.37561E+00  9.14538E+00  8.93697E+00  8.74771E+00  8.57501E+00  8.41668E+00  8.27098E+00
   8.13658E+00  8.01221E+00  7.89657E+00  7.78842E+00  7.68685E+00  7.59128E+00  7.50124E+00  7.41616E+00  7.33536E+00  7.25826E+00
   7.18453E+00  7.11406E+00  7.04669E+00  6.98207E+00  6.91978E+00  6.85953E+00  6.80129E+00  6.74508E+00  6.69079E+00  6.63810E+00
   6.58674E+00  6.53663E+00  6.48787E+00  6.44051E+00  6.39438E+00  6.34923E+00  6.30487E+00  6.26137E+00  6.21884E+00  6.17731E+00
   6.13657E+00  6.09640E+00  6.05676E+00  6.01777E+00  5.97957E+00  5.94207E+00  5.90505E+00  5.86835E+00  5.83204E+00  5.79627E+00
   5.76111E+00  5.72639E+00  5.69192E+00  5.65764E+00  5.62368E+00  5.59020E+00  5.55715E+00  5.52434E+00  5.49162E+00  5.45902E+00
   5.42671E+00  5.39479E+00  5.36314E+00  5.33154E+00  5.29993E+00  5.26841E+00  5.23716E+00  5.20618E+00
 NY background values follow
     5.463E+01    5.439E+01    5.415E+01    5.391E+01    5.367E+01    5.342E+01    5.318E+01    5.294E+01    5.270E+01    5.246E+01
     5.222E+01    5.198E+01    5.174E+01    5.150E+01    5.126E+01    5.102E+01    5.078E+01    5.054E+01    5.030E+01    5.006E+01
     4.982E+01    4.958E+01    4.934E+01    4.910E+01    4.887E+01    4.863E+01    4.839E+01    4.815E+01    4.791E+01    4.767E+01
     4.743E+01    4.719E+01    4.696E+01    4.672E+01    4.648E+01    4.624E+01    4.600E+01    4.577E+01    4.553E+01    4.529E+01
     4.506E+01    4.482E+01    4.459E+01    4.435E+01    4.411E+01    4.388E+01    4.365E+01    4.341E+01    4.318E+01    4.294E+01
     4.271E+01    4.248E+01    4.224E+01    4.201E+01    4.178E+01    4.155E+01    4.132E+01    4.109E+01    4.086E+01    4.063E+01
     4.040E+01    4.017E+01    3.994E+01    3.971E+01    3.949E+01    3.926E+01    3.904E+01    3.881E+01    3.859E+01    3.836E+01
     3.814E+01    3.792E+01    3.769E+01    3.747E+01    3.725E+01    3.703E+01    3.681E+01    3.659E+01    3.638E+01    3.616E+01
     3.594E+01    3.573E+01    3.551E+01    3.530E+01    3.509E+01    3.488E+01    3.467E+01    3.446E+01    3.425E+01    3.404E+01
     3.383E+01    3.362E+01    3.342E+01    3.321E+01    3.301E+01    3.281E+01    3.261E+01    3.241E+01    3.221E+01    3.201E+01
     3.181E+01    3.161E+01    3.142E+01    3.122E+01    3.103E+01    3.084E+01    3.064E+01    3.045E+01    3.026E+01    3.007E+01
     2.989E+01    2.970E+01    2.951E+01    2.933E+01    2.915E+01    2.896E+01    2.878E+01    2.860E+01    2.842E+01    2.825E+01
     2.807E+01    2.789E+01    2.772E+01    2.754E+01    2.737E+01    2.720E+01    2.703E+01    2.686E+01    2.669E+01    2.653E+01
     2.636E+01    2.620E+01    2.603E+01    2.587E+01    2.571E+01    2.555E+01    2.539E+01    2.523E+01    2.507E+01    2.492E+01
     2.476E+01    2.461E+01    2.446E+01    2.431E+01    2.416E+01    2.401E+01    2.386E+01    2.372E+01    2.357E+01    2.343E+01
     2.328E+01    2.314E+01    2.300E+01    2.286E+01    2.272E+01    2.258E+01    2.245E+01    2.231E+01    2.218E+01    2.204E+01
     2.191E+01    2.178E+01    2.165E+01    2.152E+01    2.139E+01    2.127E+01    2.114E+01    2.102E+01    2.089E+01    2.077E+01
     2.065E+01    2.053E+01    2.041E+01    2.029E+01    2.017E+01    2.006E+01    1.994E+01    1.983E+01    1.971E+01    1.960E+01
     1.949E+01    1.938E+01    1.927E+01    1.916E+01    1.905E+01    1.894E+01    1.884E+01    1.873E+01    1.863E+01    1.853E+01
     1.842E+01    1.832E+01    1.822E+01    1.812E+01    1.802E+01    1.793E+01    1.783E+01    1.773E+01    1.764E+01    1.754E+01
     1.745E+01    1.736E+01    1.727E+01    1.717E+01    1.708E+01    1.699E+01    1.690E+01    1.682E+01    1.673E+01    1.664E+01
     1.655E+01    1.647E+01    1.638E+01    1.630E+01    1.622E+01    1.613E+01    1.605E+01    1.597E+01    1.589E+01    1.581E+01
     1.573E+01    1.565E+01    1.557E+01    1.549E+01    1.541E+01    1.533E+01    1.526E+01    1.518E+01    1.511E+01    1.503E+01
     1.496E+01    1.488E+01    1.481E+01    1.473E+01    1.466E+01    1.459E+01    1.452E+01    1.445E+01    1.437E+01    1.430E+01
     1.423E+01    1.416E+01    1.410E+01    1.403E+01    1.396E+01    1.389E+01    1.382E+01    1.376E+01    1.369E+01    1.362E+01
     1.356E+01    1.349E+01    1.343E+01    1.336E+01    1.330E+01    1.323E+01    1.317E+01    1.311E+01    1.304E+01    1.298E+01
     1.292E+01    1.286E+01    1.280E+01    1.273E+01    1.267E+01    1.261E+01    1.255E+01    1.249E+01    1.243E+01    1.237E+01
     1.231E+01    1.225E+01    1.220E+01    1.214E+01    1.208E+01    1.202E+01    1.196E+01    1.191E+01    1.185E+01    1.179E+01
     1.174E+01    1.168E+01    1.163E+01    1.157E+01    1.151E+01    1.146E+01    1.140E+01    1.135E+01    1.130E+01    1.124E+01
     1.119E+01    1.113E+01    1.108E+01    1.103E+01    1.098E+01    1.092E+01    1.087E+01    1.082E+01    1.077E+01    1.071E+01
     1.066E+01    1.061E+01    1.056E+01    1.051E+01    1.046E+01    1.041E+01    1.036E+01    1.031E+01    1.026E+01    1.021E+01
     1.016E+01    1.011E+01    1.006E+01    1.001E+01    9.965E+00    9.917E+00    9.869E+00    9.821E+00    9.774E+00    9.726E+00
     9.679E+00    9.632E+00    9.585E+00    9.538E+00    9.492E+00    9.445E+00    9.399E+00    9.354E+00    9.308E+00    9.262E+00
     9.217E+00    9.172E+00    9.127E+00    9.082E+00    9.038E+00    8.994E+00    8.950E+00    8.906E+00    8.862E+00    8.819E+00
     8.775E+00    8.732E+00    8.689E+00    8.647E+00    8.604E+00    8.562E+00    8.520E+00    8.478E+00    8.437E+00    8.395E+00
     8.354E+00    8.313E+00    8.272E+00    8.231E+00    8.191E+00    8.151E+00    8.111E+00    8.071E+00    8.032E+00    7.992E+00
     7.953E+00    7.914E+00    7.875E+00    7.837E+00    7.798E+00    7.760E+00    7.722E+00    7.685E+00    7.647E+00    7.610E+00
     7.573E+00    7.536E+00    7.499E+00    7.463E+00    7.427E+00    7.391E+00    7.355E+00    7.319E+00    7.284E+00    7.249E+00
     7.214E+00    7.179E+00    7.144E+00    7.110E+00    7.076E+00    7.042E+00    7.008E+00    6.975E+00    6.941E+00    6.908E+00
     6.875E+00    6.843E+00    6.810E+00    6.778E+00    6.746E+00    6.714E+00    6.682E+00    6.651E+00    6.620E+00    6.589E+00
     6.558E+00    6.527E+00    6.497E+00    6.467E+00    6.437E+00    6.407E+00    6.377E+00    6.348E+00    6.319E+00    6.290E+00
     6.261E+00    6.233E+00    6.205E+00    6.177E+00    6.149E+00    6.121E+00    6.093E+00    6.066E+00    6.039E+00    6.012E+00
     5.985E+00    5.958E+00    5.932E+00    5.906E+00    5.880E+00    5.854E+00    5.828E+00    5.802E+00    5.777E+00    5.752E+00
     5.726E+00    5.701E+00    5.677E+00    5.652E+00    5.627E+00    5.603E+00    5.579E+00    5.555E+00    5.531E+00    5.507E+00
     5.483E+00    5.459E+00    5.436E+00    5.412E+00    5.389E+00    5.366E+00    5.343E+00    5.320E+00    5.297E+00    5.275E+00
     5.252E+00    5.230E+00    5.207E+00    5.185E+00    5.163E+00    5.141E+00    5.119E+00    5.097E+00    5.075E+00    5.053E+00
     5.031E+00    5.010E+00    4.988E+00    4.967E+00    4.945E+00    4.924E+00    4.903E+00    4.882E+00    4.860E+00    4.839E+00
     4.818E+00    4.797E+00    4.776E+00    4.756E+00    4.735E+00    4.714E+00    4.693E+00    4.672E+00    4.652E+00    4.631E+00
     4.611E+00    4.590E+00    4.569E+00    4.549E+00    4.528E+00    4.508E+00    4.487E+00    4.467E+00    4.446E+00    4.426E+00
     4.406E+00    4.385E+00    4.365E+00    4.344E+00    4.324E+00    4.303E+00    4.283E+00    4.262E+00
 Asp      Conc. = 1.45E+02
