 LCModel (Version 6.3-1L) Copyright: S.W. Provencher.          Ref.: Magn. Reson. Med. 30:672-679 (1993).                
 Slice#3 Row#5 Col#9  PD_24_press_2_raw_act
 36 lines in following concentration table = NCONC+1
    Conc.  %SD /Cr+PCr  Metabolite                                         
  306.556  76%   0.149 Ala                                                 
    0.000 999%   0.000 Asp                                                 
    0.000 999%   0.000 Cr                                                  
 2.06E+03   6%   1.000 PCr                                                 
  233.759 110%   0.114 GABA                                                
  260.797  95%   0.127 Glc                                                 
 1.47E+03  34%   0.715 Gln                                                 
 2.54E+03  23%   1.232 Glu                                                 
 1.05E+03   4%   0.509 GPC                                                 
    0.000 999%   0.000 PCh                                                 
  833.661  18%   0.405 GSH                                                 
 2.86E+03  18%   1.389 Ins                                                 
  354.687  88%   0.172 Lac                                                 
 2.63E+03   9%   1.278 NAA                                                 
  798.412  31%   0.388 NAAG                                                
  148.227  35% 7.2E-02 Scyllo                                              
    0.000 999%   0.000 Tau                                                 
  331.753  61%   0.161 -CrCH2                                              
 1.05E+03   4%   0.509 GPC+PCh                                             
 3.43E+03   4%   1.666 NAA+NAAG                                            
 2.06E+03   6%   1.000 Cr+PCr                                              
 4.01E+03  20%   1.947 Glu+Gln                                             
    0.000 999%   0.000 Lip13a                                              
  708.923  58%   0.344 Lip13b                                              
  167.806  71% 8.1E-02 Lip09                                               
 1.07E+03  26%   0.519 MM09                                                
  107.607  64% 5.2E-02 Lip20                                               
 1.79E+03  25%   0.871 MM20                                                
  311.686  35%   0.151 MM12                                                
 1.46E+03  22%   0.708 MM14                                                
  728.029  28%   0.354 MM17                                                
  708.923  58%   0.344 Lip13a+Lip13b                                       
 2.48E+03  17%   1.203 MM14+Lip13a+Lip13b+MM12                             
 1.24E+03  21%   0.600 MM09+Lip09                                          
 1.90E+03  23%   0.923 MM20+Lip20                                          
   6 lines in following misc. output table
  FWHM = 0.054 ppm    S/N =   7                                            
  Data shift = 0.015 ppm                                                   
  Ph: -30 deg      -6.5 deg/ppm                                            
  alphaB,S = 2.7E+00,   2.4E+01                                            
   14 spline knots.   Ns = 7(1)                                            
  ( 5) 4 infls.   ( 1) 1 extrs.                                            
  498 points on ppm-axis = NY
      4.000000     3.992357     3.984714     3.977070     3.969427     3.961784     3.954141     3.946497     3.938854     3.931211
      3.923568     3.915925     3.908281     3.900638     3.892995     3.885352     3.877708     3.870065     3.862422     3.854779
      3.847136     3.839492     3.831849     3.824206     3.816563     3.808919     3.801276     3.793633     3.785990     3.778347
      3.770703     3.763060     3.755417     3.747774     3.740130     3.732487     3.724844     3.717201     3.709558     3.701914
      3.694271     3.686628     3.678985     3.671341     3.663698     3.656055     3.648412     3.640769     3.633125     3.625482
      3.617839     3.610196     3.602552     3.594909     3.587266     3.579623     3.571980     3.564336     3.556693     3.549050
      3.541407     3.533763     3.526120     3.518477     3.510834     3.503191     3.495547     3.487904     3.480261     3.472618
      3.464974     3.457331     3.449688     3.442045     3.434402     3.426758     3.419115     3.411472     3.403829     3.396185
      3.388542     3.380899     3.373256     3.365613     3.357969     3.350326     3.342683     3.335040     3.327396     3.319753
      3.312110     3.304467     3.296824     3.289180     3.281537     3.273894     3.266251     3.258607     3.250964     3.243321
      3.235678     3.228034     3.220391     3.212748     3.205105     3.197462     3.189818     3.182175     3.174532     3.166889
      3.159245     3.151602     3.143959     3.136316     3.128673     3.121029     3.113386     3.105743     3.098100     3.090456
      3.082813     3.075170     3.067527     3.059884     3.052240     3.044597     3.036954     3.029311     3.021667     3.014024
      3.006381     2.998738     2.991095     2.983451     2.975808     2.968165     2.960522     2.952878     2.945235     2.937592
      2.929949     2.922306     2.914662     2.907019     2.899376     2.891733     2.884089     2.876446     2.868803     2.861160
      2.853517     2.845873     2.838230     2.830587     2.822944     2.815300     2.807657     2.800014     2.792371     2.784728
      2.777084     2.769441     2.761798     2.754155     2.746511     2.738868     2.731225     2.723582     2.715939     2.708295
      2.700652     2.693009     2.685366     2.677722     2.670079     2.662436     2.654793     2.647150     2.639506     2.631863
      2.624220     2.616577     2.608933     2.601290     2.593647     2.586004     2.578361     2.570717     2.563074     2.555431
      2.547788     2.540144     2.532501     2.524858     2.517215     2.509572     2.501928     2.494285     2.486642     2.478999
      2.471355     2.463712     2.456069     2.448426     2.440783     2.433139     2.425496     2.417853     2.410210     2.402566
      2.394923     2.387280     2.379637     2.371994     2.364350     2.356707     2.349064     2.341421     2.333777     2.326134
      2.318491     2.310848     2.303205     2.295561     2.287918     2.280275     2.272632     2.264988     2.257345     2.249702
      2.242059     2.234416     2.226772     2.219129     2.211486     2.203843     2.196199     2.188556     2.180913     2.173270
      2.165627     2.157983     2.150340     2.142697     2.135054     2.127410     2.119767     2.112124     2.104481     2.096838
      2.089194     2.081551     2.073908     2.066265     2.058621     2.050978     2.043335     2.035692     2.028049     2.020405
      2.012762     2.005119     1.997476     1.989833     1.982190     1.974546     1.966903     1.959260     1.951617     1.943974
      1.936331     1.928688     1.921045     1.913402     1.905759     1.898115     1.890472     1.882829     1.875186     1.867543
      1.859900     1.852257     1.844614     1.836971     1.829327     1.821684     1.814041     1.806398     1.798755     1.791112
      1.783469     1.775826     1.768183     1.760540     1.752896     1.745253     1.737610     1.729967     1.722324     1.714681
      1.707038     1.699395     1.691752     1.684108     1.676465     1.668822     1.661179     1.653536     1.645893     1.638250
      1.630607     1.622964     1.615321     1.607677     1.600034     1.592391     1.584748     1.577105     1.569462     1.561819
      1.554176     1.546533     1.538890     1.531246     1.523603     1.515960     1.508317     1.500674     1.493031     1.485388
      1.477745     1.470102     1.462458     1.454815     1.447172     1.439529     1.431886     1.424243     1.416600     1.408957
      1.401314     1.393671     1.386027     1.378384     1.370741     1.363098     1.355455     1.347812     1.340169     1.332526
      1.324883     1.317240     1.309596     1.301953     1.294310     1.286667     1.279024     1.271381     1.263738     1.256095
      1.248452     1.240808     1.233165     1.225522     1.217879     1.210236     1.202593     1.194950     1.187307     1.179664
      1.172021     1.164377     1.156734     1.149091     1.141448     1.133805     1.126162     1.118519     1.110876     1.103233
      1.095590     1.087946     1.080303     1.072660     1.065017     1.057374     1.049731     1.042088     1.034445     1.026802
      1.019158     1.011515     1.003872     0.996229     0.988586     0.980943     0.973300     0.965657     0.958014     0.950371
      0.942727     0.935084     0.927441     0.919798     0.912155     0.904512     0.896869     0.889226     0.881583     0.873940
      0.866296     0.858653     0.851010     0.843367     0.835724     0.828081     0.820438     0.812795     0.805152     0.797508
      0.789865     0.782222     0.774579     0.766936     0.759293     0.751650     0.744007     0.736364     0.728721     0.721077
      0.713434     0.705791     0.698148     0.690505     0.682862     0.675219     0.667576     0.659933     0.652290     0.644646
      0.637003     0.629360     0.621717     0.614074     0.606431     0.598788     0.591145     0.583502     0.575858     0.568215
      0.560572     0.552929     0.545286     0.537643     0.530000     0.522357     0.514714     0.507071     0.499427     0.491784
      0.484141     0.476498     0.468855     0.461212     0.453569     0.445925     0.438282     0.430639     0.422996     0.415353
      0.407710     0.400067     0.392424     0.384780     0.377137     0.369494     0.361851     0.354208     0.346565     0.338922
      0.331278     0.323635     0.315992     0.308349     0.300706     0.293063     0.285420     0.277777     0.270133     0.262490
      0.254847     0.247204     0.239561     0.231918     0.224275     0.216631     0.208988     0.201345
 NY phased data points follow
  -1.13021E+01  1.07440E+01 -5.61317E+00  9.75610E+00  7.33053E+00  2.42529E+01  5.91444E+00  3.21744E+01  3.23593E+01  5.36670E+01
   3.38488E+01  4.09985E+01  3.44170E+01  3.53497E+01  8.55865E+00  2.60046E+01  1.16525E+01  1.45753E+01  7.54776E+00  1.24092E+01
   7.22674E-01  1.25518E+01  9.28369E+00  1.35162E+01  7.94209E+00  1.83137E+01  1.11506E+01  2.96183E+01  1.44762E+01  2.69689E+01
   7.37463E+00  2.12682E+01  9.85586E+00  2.78611E+01  1.50311E+01  1.75235E+01  6.13363E+00  1.98700E+01  1.93860E+00  1.51969E+01
   2.71053E+00  1.70508E+01  6.62244E+00  1.63824E+01  1.78708E+01  3.23233E+01  2.58067E+01  2.95502E+01  2.07807E+01  1.96791E+01
   1.54274E+01  1.69492E+01  3.90344E+00  2.50900E+01  3.61409E+00  1.79547E+01 -2.82554E+00  1.70368E+01  8.10175E+00  2.57477E+00
   4.47007E+00  3.28993E+00 -3.05004E+00  2.89218E+00 -1.15139E+01 -6.49580E+00 -8.91781E+00 -5.84628E+00 -6.14881E+00  2.29424E+00
  -3.03487E+00  8.63389E+00  2.24163E+00  3.62970E+00 -1.58389E-01  6.09777E+00  1.24022E+00  1.07083E+01  4.71186E+00  1.10658E+01
  -4.35803E+00  4.39048E-01  8.69897E+00 -1.36024E+00 -1.56843E+00  1.15929E+01 -5.83485E+00 -1.71163E+00 -3.63254E+00  9.70743E+00
  -6.11690E+00  7.02352E+00  1.05369E+01  4.24349E+00  1.20094E+01  2.11844E+01  6.41725E+00  2.64748E+01  3.01508E+01  3.93349E+01
   4.86730E+01  7.06516E+01  7.71408E+01  9.50166E+01  9.21697E+01  8.23843E+01  4.79915E+01  4.12450E+01  1.70302E+01  8.70359E+00
   4.09016E+00  8.15085E+00 -6.35743E+00  1.09896E+01 -2.64656E+00  9.72841E+00 -7.69281E+00  1.81583E+00  2.91515E+00  7.42528E+00
  -4.58537E+00  9.23399E+00  8.64704E+00  2.50742E+01  3.12620E+01  4.39953E+01  4.90176E+01  6.62532E+01  6.83651E+01  6.49666E+01
   4.39797E+01  3.71289E+01  2.08794E+01  2.10210E+01  1.66042E+00  1.02510E+01  1.24822E+00  8.17096E+00 -4.01989E+00  6.14962E-01
  -7.18928E+00  6.94542E+00 -2.25510E+00  1.06641E+01 -5.22525E+00  5.71009E+00 -2.83565E+00 -2.00685E+00 -1.56245E+00 -2.99738E+00
  -4.26793E+00  5.42781E+00 -1.19410E+01 -1.43053E+00 -6.55574E+00 -4.60011E+00 -5.11555E+00  4.96126E+00 -5.50165E+00 -2.01863E+00
  -1.18252E+01  2.84371E+00 -7.79919E+00 -1.43054E+00 -4.66008E+00 -5.95492E+00 -7.45264E+00  1.20849E-01 -1.56779E+01 -1.48039E+01
  -2.26716E+01 -1.44665E+01 -1.71795E+01 -1.39798E+01 -2.58611E+01 -2.19759E+01 -2.19470E+01 -1.69009E+01 -1.65582E+01 -2.06440E+01
  -9.38771E+00 -1.55267E+01 -1.84028E+01 -2.02592E+01 -2.35622E+01 -2.95170E+00 -1.69005E+01 -7.78966E+00 -1.09874E+01 -4.80903E+00
  -6.80572E+00 -6.96511E+00 -9.61021E+00 -2.22812E+00 -8.25819E+00 -8.37716E+00 -1.37898E+01 -8.45981E+00 -8.45385E+00  7.37519E-01
  -1.46653E+01 -4.11509E+00 -1.76921E+01  3.22974E+00 -3.69775E+00 -6.85373E-01 -6.35187E+00 -6.42998E-01 -1.11105E+01 -5.72701E+00
  -9.27967E+00 -1.74418E+00 -1.00399E+01 -8.14296E+00  9.42992E+00  7.71921E+00  1.28375E+01  1.58637E+01  2.93857E-01  1.05503E+01
  -6.30365E+00 -3.71452E+00 -1.64592E+01 -2.24919E+00  5.38192E+00 -1.73636E-02 -5.61593E+00  4.95112E+00 -9.34081E-01  4.75120E+00
   3.53973E+00  1.30358E+01  1.04702E+01  2.04696E+00  1.78485E+00  5.42278E+00  7.13381E-01  1.21281E+01  9.01463E-01  1.25518E+01
  -5.45070E+00  1.20036E+00  1.19401E+00 -1.29368E+00 -1.19633E+00 -3.54752E+00  6.94243E+00  1.12257E+01 -1.24243E+00  1.18365E+01
   7.01778E+00  2.04351E+01  2.82013E+01  2.70401E+01  3.76753E+01  5.36279E+01  6.20013E+01  7.46180E+01  8.48023E+01  9.62997E+01
   9.57539E+01  9.05148E+01  8.60409E+01  6.28933E+01  4.71643E+01  2.73227E+01  2.47229E+01  1.03607E+01  4.39871E+00  3.11085E+00
   7.61341E+00  9.82528E+00  2.87195E-01  4.62293E+00 -5.77111E+00  1.46505E+01  2.74019E+00  7.51180E+00  3.72309E+00 -4.32452E-01
  -5.62643E+00  1.09186E+01  7.54259E+00  5.09910E+00  7.66048E+00  4.16746E+00  2.23774E+00 -1.22603E+00  3.88867E+00  8.31252E-01
   6.89845E+00  7.46704E+00  5.57898E+00  7.81346E+00  3.23854E+00 -1.12314E+00  3.33896E+00  9.97216E-01  3.85124E+00 -1.58091E+00
  -5.05968E+00  9.09124E+00 -5.14107E+00 -3.34798E+00  6.75056E+00  7.56440E+00  1.15582E+01  1.70086E+01  3.74553E+00  1.07925E+01
  -6.44072E+00  4.88768E+00  1.75277E-01  4.54642E+00  5.11278E+00  1.03529E+01 -6.33023E+00  1.37193E-01  2.71166E+00 -4.15404E+00
   4.22173E-01  9.94718E+00  3.24777E-01  1.79073E+01  3.46327E+00  9.15962E+00  1.30812E+00 -1.31233E+00  2.20321E+00  4.51124E+00
   3.28969E-01  2.65308E+00  1.79166E+01  5.19320E+00  6.26775E+00  1.01418E+01  1.92247E+01  5.15683E+00  7.64241E-01  1.22926E+01
   5.79916E+00  5.66008E+00  1.60370E+01  1.47038E+01  8.25085E+00  8.18074E+00  1.66177E+01  2.18224E+01  2.06060E+00  1.61130E+01
   1.59828E+00  1.74523E+01  4.38705E+00  6.68241E+00  2.51449E+00  1.03340E+01  8.06149E+00  1.30061E+01  5.84228E-01  1.84281E+00
  -7.47169E+00  3.76471E+00 -5.01633E+00  1.20309E+01  2.93710E+00 -7.33571E+00  6.92046E+00 -5.36106E+00  1.60156E+00  3.62280E+00
  -2.15744E+00 -4.49360E+00 -3.89163E+00  2.09864E+00 -9.06555E+00 -5.81358E+00 -1.04852E+01 -5.90396E+00 -1.04732E+01  8.89274E-01
  -5.23689E+00 -4.70836E+00 -1.35636E+00  5.99627E-01 -4.35859E+00 -2.49635E+00 -1.64988E+01 -1.39367E+01 -6.75564E+00 -5.10748E+00
  -7.98748E+00  8.52569E+00 -5.68985E+00  2.66921E-01 -2.59233E-01 -3.52500E+00  1.18594E-01  2.77920E-01 -4.90479E+00  7.12811E+00
  -5.93230E-02 -3.69537E+00  5.76496E+00 -4.59001E+00  3.01230E+00  5.34005E+00  8.46138E+00  6.79574E+00 -7.12268E-01 -2.14510E+00
  -4.84879E+00  7.54135E+00  6.08663E+00 -8.77387E-01 -1.05488E-01  4.52811E+00 -3.05759E+00 -5.43063E+00  3.20438E+00 -8.30710E+00
  -1.54001E+01 -1.01752E+00 -1.54621E+00 -5.20031E+00 -1.57899E+00 -1.78908E+00  6.34605E-01 -7.34214E+00 -3.56817E+00 -3.47463E+00
   6.29590E-01 -9.21188E+00 -1.51161E+01 -5.85162E+00 -1.52899E+01  3.37785E+00 -5.60560E+00  2.33459E+00 -8.15316E+00  2.89510E+00
  -1.18252E+01 -1.66493E+00 -1.90351E+00 -8.20721E+00 -4.94041E+00 -6.88821E+00 -6.72234E+00 -8.25106E+00 -2.75618E+00 -9.03994E+00
  -7.30446E+00 -1.11687E+01 -5.26156E+00 -1.51462E+00 -3.64098E+00  1.98879E-01  3.85062E+00 -1.41274E+01 -5.61341E+00  3.28704E+00
  -4.93329E+00 -1.54187E+01 -4.24510E+00 -2.95922E+00 -7.72072E+00 -5.39553E+00 -3.29955E+00 -3.88415E+00  2.15635E+00 -1.01087E+01
   3.10698E+00 -5.98566E+00 -1.55449E+00 -4.65522E+00  3.47295E-01  7.15281E+00  1.19858E+00 -7.63439E-01 -9.54525E+00 -3.00679E+00
  -4.61668E+00  2.52518E+00  4.82428E+00  8.93606E-01 -1.87836E+00  4.08253E-02 -7.23053E+00 -5.46511E+00 -4.56937E+00  4.62864E-01
   1.39157E+00 -2.12302E+00  5.29168E+00 -6.32596E+00 -1.02606E+01  6.65441E-01  9.07549E+00 -1.06457E+00
 NY points of the fit to the data follow
   3.45228E+00  2.98898E+00  4.26861E+00  8.09327E+00  1.25123E+01  1.68442E+01  2.12211E+01  2.73200E+01  3.43924E+01  3.99489E+01
   4.24620E+01  4.15150E+01  3.61662E+01  2.81326E+01  2.13712E+01  1.66729E+01  1.33788E+01  1.11881E+01  8.54651E+00  7.25957E+00
   6.64378E+00  6.10414E+00  6.31311E+00  7.42165E+00  8.41472E+00  9.28852E+00  1.08963E+01  1.37555E+01  1.70656E+01  1.99234E+01
   2.23826E+01  2.38727E+01  2.32319E+01  2.09714E+01  1.84412E+01  1.53402E+01  1.19469E+01  8.51765E+00  5.46610E+00  4.63655E+00
   5.92772E+00  8.42533E+00  1.11503E+01  1.37824E+01  1.70977E+01  2.05645E+01  2.30761E+01  2.40757E+01  2.29432E+01  1.94005E+01
   1.42940E+01  9.53217E+00  6.56683E+00  5.27049E+00  4.84091E+00  4.64035E+00  5.01811E+00  6.03245E+00  7.03257E+00  7.71215E+00
   7.88768E+00  7.18018E+00  5.63155E+00  3.68956E+00  2.12676E+00  1.47726E+00  1.65838E+00  2.18164E+00  3.04922E+00  4.02803E+00
   4.92551E+00  5.53293E+00  5.77830E+00  5.69125E+00  5.21497E+00  4.52125E+00  3.94126E+00  3.44380E+00  3.11496E+00  2.89430E+00
   2.87550E+00  2.70952E+00  2.39347E+00  2.12960E+00  2.17605E+00  2.20483E+00  1.84682E+00  1.10501E+00  1.62630E-01 -8.73439E-01
  -1.62146E+00 -1.62317E+00 -1.18794E+00 -5.24249E-01  4.59224E-01  3.37570E+00  1.18043E+01  2.15284E+01  3.02763E+01  3.91868E+01
   5.29984E+01  7.04683E+01  8.50484E+01  9.19809E+01  8.97900E+01  7.64389E+01  5.55236E+01  3.68094E+01  2.36611E+01  1.47059E+01
   9.02290E+00  2.76758E+00 -4.21866E-01 -1.30646E+00 -1.68554E+00 -1.89273E+00 -2.02772E+00 -2.08738E+00 -1.97000E+00 -1.21619E+00
   2.28178E+00  9.27536E+00  1.64564E+01  2.31214E+01  3.08334E+01  4.21065E+01  5.44148E+01  6.30838E+01  6.58002E+01  6.17137E+01
   5.01380E+01  3.56269E+01  2.39277E+01  1.52410E+01  8.95815E+00  3.63798E+00 -1.55923E+00 -3.33745E+00 -3.08984E+00 -1.98812E+00
  -6.12471E-01  3.83119E-01  8.17004E-01  7.85809E-01  2.53816E-01 -4.23355E-01 -9.79839E-01 -1.60359E+00 -2.15137E+00 -2.68330E+00
  -3.11586E+00 -3.46900E+00 -3.77909E+00 -4.05498E+00 -4.37038E+00 -4.63403E+00 -4.73184E+00 -4.65204E+00 -4.61262E+00 -4.92406E+00
  -5.48335E+00 -6.05424E+00 -6.38496E+00 -6.37423E+00 -6.22730E+00 -6.22914E+00 -6.53242E+00 -7.20681E+00 -8.11235E+00 -8.85419E+00
  -9.33120E+00 -9.54408E+00 -9.62803E+00 -9.92000E+00 -1.05067E+01 -1.10845E+01 -1.13400E+01 -1.12087E+01 -1.08630E+01 -1.05547E+01
  -1.05970E+01 -1.07502E+01 -1.05994E+01 -9.96406E+00 -8.89769E+00 -7.65361E+00 -6.39337E+00 -4.91654E+00 -3.22217E+00 -1.46115E+00
  -1.64951E-01  1.04198E-01 -6.45221E-01 -2.01460E+00 -3.70665E+00 -5.13183E+00 -5.74386E+00 -5.32088E+00 -3.91585E+00 -1.67062E+00
   9.84721E-01  3.34142E+00  4.91566E+00  5.09863E+00  4.01747E+00  2.04946E+00 -8.13427E-01 -4.48194E+00 -8.26847E+00 -1.07216E+01
  -1.10403E+01 -9.77299E+00 -6.90875E+00 -2.46982E+00  2.34862E+00  5.78400E+00  7.04968E+00  6.00443E+00  3.47953E+00 -5.62782E-01
  -5.46442E+00 -9.26903E+00 -1.10918E+01 -1.07705E+01 -8.78165E+00 -5.57717E+00 -1.47612E+00  1.73731E+00  3.25928E+00  3.38035E+00
   3.05533E+00  2.92106E+00  2.98134E+00  3.17860E+00  3.88027E+00  4.74811E+00  4.90257E+00  4.49355E+00  4.03241E+00  3.70198E+00
   2.78544E+00  1.37701E+00  2.86344E-01 -1.90823E-01 -2.18503E-03  7.81080E-01  2.30099E+00  3.99207E+00  5.61844E+00  8.38967E+00
   1.16939E+01  1.52627E+01  1.96373E+01  2.88861E+01  4.28202E+01  5.57263E+01  6.53464E+01  7.40930E+01  8.41851E+01  9.23186E+01
   9.57476E+01  9.36206E+01  8.40934E+01  6.64042E+01  4.62072E+01  3.09706E+01  2.06434E+01  1.38888E+01  8.12780E+00  3.08215E+00
   1.27618E+00  6.13247E-01  4.29916E-01  4.96121E-01  7.10214E-01  8.31860E-01  7.85518E-01  5.58481E-01  1.97832E-01 -2.11414E-01
  -5.53398E-01 -7.81171E-01 -9.37526E-01 -1.00575E+00 -9.69885E-01 -8.62068E-01 -7.40913E-01 -6.23322E-01 -5.20479E-01 -4.00636E-01
  -2.42435E-01 -5.12812E-02  1.51495E-01  3.72884E-01  5.84385E-01  7.65904E-01  9.17483E-01  1.04971E+00  1.16950E+00  1.29057E+00
   1.39988E+00  1.50563E+00  1.61263E+00  1.69686E+00  1.74551E+00  1.75881E+00  1.73689E+00  1.69144E+00  1.62419E+00  1.54132E+00
   1.45537E+00  1.37409E+00  1.30559E+00  1.25950E+00  1.24518E+00  1.27215E+00  1.35185E+00  1.49854E+00  1.73619E+00  2.11946E+00
   2.69577E+00  3.20469E+00  3.55334E+00  3.84464E+00  4.20792E+00  4.46130E+00  4.26535E+00  3.55197E+00  2.70340E+00  1.90769E+00
   1.30276E+00  1.18871E+00  1.66142E+00  2.70226E+00  4.14156E+00  5.56720E+00  6.96590E+00  8.04825E+00  8.43551E+00  8.39395E+00
   8.42286E+00  8.51332E+00  8.49605E+00  8.34882E+00  8.26375E+00  8.40652E+00  8.32474E+00  7.74926E+00  6.99701E+00  6.28579E+00
   5.58213E+00  5.21561E+00  5.48354E+00  6.30914E+00  7.39467E+00  8.28096E+00  8.78421E+00  8.85597E+00  8.03717E+00  6.59447E+00
   5.05996E+00  3.63624E+00  2.45993E+00  1.41263E+00  4.69161E-01 -1.97608E-01 -6.71974E-01 -1.01678E+00 -1.26944E+00 -1.45679E+00
  -1.59766E+00 -1.70544E+00 -1.78862E+00 -1.85289E+00 -1.90116E+00 -1.93495E+00 -1.95410E+00 -1.95813E+00 -1.94575E+00 -1.91591E+00
  -1.86689E+00 -1.79715E+00 -1.70456E+00 -1.58745E+00 -1.44392E+00 -1.27268E+00 -1.07215E+00 -8.41392E-01 -5.79525E-01 -2.86830E-01
   3.59467E-02  3.86718E-01  7.62852E-01  1.16020E+00  1.57371E+00  1.99659E+00  2.42120E+00  2.83858E+00  3.23950E+00  3.61388E+00
   3.95190E+00  4.24356E+00  4.48008E+00  4.65361E+00  4.75845E+00  4.79037E+00  4.74766E+00  4.63041E+00  4.44148E+00  4.18556E+00
   3.86965E+00  3.50180E+00  3.09152E+00  2.64851E+00  2.18323E+00  1.70556E+00  1.22519E+00  7.50324E-01  2.88434E-01 -1.54701E-01
  -5.74106E-01 -9.66518E-01 -1.32954E+00 -1.66242E+00 -1.96494E+00 -2.23801E+00 -2.48261E+00 -2.70062E+00 -2.89383E+00 -3.06471E+00
  -3.21526E+00 -3.34784E+00 -3.46416E+00 -3.56633E+00 -3.65593E+00 -3.73484E+00 -3.80425E+00 -3.86555E+00 -3.91949E+00 -3.96726E+00
  -4.00950E+00 -4.04719E+00 -4.08067E+00 -4.11058E+00 -4.13709E+00 -4.16086E+00 -4.18205E+00 -4.20121E+00 -4.21828E+00 -4.23362E+00
  -4.24718E+00 -4.25942E+00 -4.27031E+00 -4.28018E+00 -4.28882E+00 -4.29651E+00 -4.30313E+00 -4.30908E+00 -4.31422E+00 -4.31879E+00
  -4.32256E+00 -4.32576E+00 -4.32829E+00 -4.33047E+00 -4.33210E+00 -4.33336E+00 -4.33402E+00 -4.33434E+00 -4.33421E+00 -4.33390E+00
  -4.33317E+00 -4.33219E+00 -4.33071E+00 -4.32904E+00 -4.32702E+00 -4.32490E+00 -4.32239E+00 -4.31968E+00 -4.31656E+00 -4.31333E+00
  -4.30982E+00 -4.30623E+00 -4.30226E+00 -4.29810E+00 -4.29358E+00 -4.28898E+00 -4.28409E+00 -4.27908E+00 -4.27364E+00 -4.26801E+00
  -4.26201E+00 -4.25590E+00 -4.24941E+00 -4.24268E+00 -4.23543E+00 -4.22789E+00 -4.21985E+00 -4.21152E+00
 NY background values follow
    -3.619E+00   -3.625E+00   -3.631E+00   -3.637E+00   -3.642E+00   -3.648E+00   -3.654E+00   -3.660E+00   -3.666E+00   -3.671E+00
    -3.677E+00   -3.683E+00   -3.689E+00   -3.695E+00   -3.701E+00   -3.706E+00   -3.712E+00   -3.718E+00   -3.724E+00   -3.730E+00
    -3.736E+00   -3.742E+00   -3.747E+00   -3.753E+00   -3.759E+00   -3.765E+00   -3.771E+00   -3.777E+00   -3.783E+00   -3.789E+00
    -3.794E+00   -3.800E+00   -3.806E+00   -3.812E+00   -3.818E+00   -3.824E+00   -3.830E+00   -3.836E+00   -3.842E+00   -3.848E+00
    -3.853E+00   -3.859E+00   -3.865E+00   -3.871E+00   -3.877E+00   -3.883E+00   -3.889E+00   -3.895E+00   -3.901E+00   -3.907E+00
    -3.913E+00   -3.919E+00   -3.925E+00   -3.931E+00   -3.936E+00   -3.942E+00   -3.948E+00   -3.954E+00   -3.960E+00   -3.966E+00
    -3.972E+00   -3.978E+00   -3.984E+00   -3.990E+00   -3.996E+00   -4.001E+00   -4.007E+00   -4.013E+00   -4.019E+00   -4.025E+00
    -4.031E+00   -4.037E+00   -4.042E+00   -4.048E+00   -4.054E+00   -4.060E+00   -4.065E+00   -4.071E+00   -4.077E+00   -4.083E+00
    -4.088E+00   -4.094E+00   -4.100E+00   -4.105E+00   -4.111E+00   -4.117E+00   -4.122E+00   -4.128E+00   -4.134E+00   -4.139E+00
    -4.145E+00   -4.150E+00   -4.156E+00   -4.161E+00   -4.167E+00   -4.172E+00   -4.178E+00   -4.183E+00   -4.188E+00   -4.194E+00
    -4.199E+00   -4.204E+00   -4.210E+00   -4.215E+00   -4.220E+00   -4.225E+00   -4.231E+00   -4.236E+00   -4.241E+00   -4.246E+00
    -4.251E+00   -4.256E+00   -4.261E+00   -4.266E+00   -4.271E+00   -4.276E+00   -4.280E+00   -4.285E+00   -4.290E+00   -4.295E+00
    -4.299E+00   -4.304E+00   -4.309E+00   -4.313E+00   -4.318E+00   -4.322E+00   -4.327E+00   -4.331E+00   -4.336E+00   -4.340E+00
    -4.344E+00   -4.348E+00   -4.352E+00   -4.357E+00   -4.361E+00   -4.365E+00   -4.369E+00   -4.373E+00   -4.377E+00   -4.380E+00
    -4.384E+00   -4.388E+00   -4.391E+00   -4.395E+00   -4.399E+00   -4.402E+00   -4.405E+00   -4.409E+00   -4.412E+00   -4.415E+00
    -4.418E+00   -4.422E+00   -4.424E+00   -4.427E+00   -4.430E+00   -4.433E+00   -4.436E+00   -4.438E+00   -4.441E+00   -4.443E+00
    -4.445E+00   -4.448E+00   -4.450E+00   -4.452E+00   -4.454E+00   -4.456E+00   -4.458E+00   -4.459E+00   -4.461E+00   -4.462E+00
    -4.464E+00   -4.465E+00   -4.466E+00   -4.467E+00   -4.468E+00   -4.469E+00   -4.469E+00   -4.470E+00   -4.471E+00   -4.471E+00
    -4.471E+00   -4.471E+00   -4.471E+00   -4.471E+00   -4.471E+00   -4.470E+00   -4.470E+00   -4.469E+00   -4.469E+00   -4.468E+00
    -4.467E+00   -4.466E+00   -4.465E+00   -4.464E+00   -4.462E+00   -4.461E+00   -4.459E+00   -4.458E+00   -4.456E+00   -4.454E+00
    -4.453E+00   -4.451E+00   -4.449E+00   -4.447E+00   -4.445E+00   -4.442E+00   -4.440E+00   -4.438E+00   -4.435E+00   -4.433E+00
    -4.430E+00   -4.428E+00   -4.425E+00   -4.422E+00   -4.420E+00   -4.417E+00   -4.414E+00   -4.411E+00   -4.408E+00   -4.405E+00
    -4.402E+00   -4.399E+00   -4.396E+00   -4.393E+00   -4.390E+00   -4.387E+00   -4.384E+00   -4.381E+00   -4.377E+00   -4.374E+00
    -4.371E+00   -4.368E+00   -4.364E+00   -4.361E+00   -4.358E+00   -4.354E+00   -4.351E+00   -4.348E+00   -4.345E+00   -4.341E+00
    -4.338E+00   -4.335E+00   -4.331E+00   -4.328E+00   -4.325E+00   -4.322E+00   -4.318E+00   -4.315E+00   -4.312E+00   -4.309E+00
    -4.306E+00   -4.303E+00   -4.299E+00   -4.296E+00   -4.293E+00   -4.290E+00   -4.287E+00   -4.284E+00   -4.281E+00   -4.279E+00
    -4.276E+00   -4.273E+00   -4.270E+00   -4.268E+00   -4.265E+00   -4.262E+00   -4.260E+00   -4.257E+00   -4.255E+00   -4.253E+00
    -4.250E+00   -4.248E+00   -4.246E+00   -4.244E+00   -4.242E+00   -4.240E+00   -4.238E+00   -4.236E+00   -4.234E+00   -4.232E+00
    -4.231E+00   -4.229E+00   -4.228E+00   -4.226E+00   -4.225E+00   -4.224E+00   -4.222E+00   -4.221E+00   -4.220E+00   -4.219E+00
    -4.218E+00   -4.217E+00   -4.216E+00   -4.215E+00   -4.215E+00   -4.214E+00   -4.214E+00   -4.213E+00   -4.213E+00   -4.212E+00
    -4.212E+00   -4.212E+00   -4.212E+00   -4.211E+00   -4.211E+00   -4.211E+00   -4.212E+00   -4.212E+00   -4.212E+00   -4.212E+00
    -4.213E+00   -4.213E+00   -4.214E+00   -4.214E+00   -4.215E+00   -4.216E+00   -4.217E+00   -4.218E+00   -4.219E+00   -4.220E+00
    -4.221E+00   -4.222E+00   -4.223E+00   -4.224E+00   -4.226E+00   -4.227E+00   -4.229E+00   -4.230E+00   -4.232E+00   -4.233E+00
    -4.235E+00   -4.237E+00   -4.238E+00   -4.240E+00   -4.242E+00   -4.244E+00   -4.246E+00   -4.247E+00   -4.249E+00   -4.251E+00
    -4.253E+00   -4.255E+00   -4.257E+00   -4.259E+00   -4.261E+00   -4.263E+00   -4.265E+00   -4.267E+00   -4.269E+00   -4.272E+00
    -4.274E+00   -4.276E+00   -4.278E+00   -4.280E+00   -4.282E+00   -4.284E+00   -4.286E+00   -4.288E+00   -4.290E+00   -4.292E+00
    -4.294E+00   -4.296E+00   -4.298E+00   -4.300E+00   -4.301E+00   -4.303E+00   -4.305E+00   -4.307E+00   -4.308E+00   -4.310E+00
    -4.312E+00   -4.313E+00   -4.315E+00   -4.316E+00   -4.318E+00   -4.319E+00   -4.321E+00   -4.322E+00   -4.323E+00   -4.324E+00
    -4.326E+00   -4.327E+00   -4.328E+00   -4.329E+00   -4.330E+00   -4.330E+00   -4.331E+00   -4.332E+00   -4.333E+00   -4.333E+00
    -4.334E+00   -4.334E+00   -4.334E+00   -4.335E+00   -4.335E+00   -4.335E+00   -4.335E+00   -4.335E+00   -4.335E+00   -4.335E+00
    -4.334E+00   -4.334E+00   -4.334E+00   -4.333E+00   -4.332E+00   -4.331E+00   -4.331E+00   -4.330E+00   -4.329E+00   -4.327E+00
    -4.326E+00   -4.325E+00   -4.323E+00   -4.322E+00   -4.320E+00   -4.318E+00   -4.316E+00   -4.315E+00   -4.312E+00   -4.310E+00
    -4.308E+00   -4.306E+00   -4.303E+00   -4.301E+00   -4.298E+00   -4.296E+00   -4.293E+00   -4.290E+00   -4.287E+00   -4.285E+00
    -4.282E+00   -4.278E+00   -4.275E+00   -4.272E+00   -4.269E+00   -4.265E+00   -4.262E+00   -4.258E+00   -4.255E+00   -4.251E+00
    -4.247E+00   -4.244E+00   -4.240E+00   -4.236E+00   -4.232E+00   -4.228E+00   -4.224E+00   -4.219E+00   -4.215E+00   -4.211E+00
    -4.207E+00   -4.202E+00   -4.198E+00   -4.193E+00   -4.189E+00   -4.184E+00   -4.179E+00   -4.175E+00   -4.170E+00   -4.165E+00
    -4.160E+00   -4.156E+00   -4.151E+00   -4.146E+00   -4.141E+00   -4.136E+00   -4.131E+00   -4.126E+00   -4.121E+00   -4.115E+00
    -4.110E+00   -4.105E+00   -4.100E+00   -4.095E+00   -4.089E+00   -4.084E+00   -4.079E+00   -4.073E+00   -4.068E+00   -4.063E+00
    -4.057E+00   -4.052E+00   -4.047E+00   -4.041E+00   -4.036E+00   -4.030E+00   -4.025E+00   -4.019E+00   -4.014E+00   -4.009E+00
    -4.003E+00   -3.998E+00   -3.992E+00   -3.987E+00   -3.981E+00   -3.976E+00   -3.970E+00   -3.965E+00
 Ala      Conc. = 3.07E+02
