 LCModel (Version 6.3-1L) Copyright: S.W. Provencher.          Ref.: Magn. Reson. Med. 30:672-679 (1993).                
 Slice#2 Row#12 Col#7  PD_24_press_2_raw_act
 36 lines in following concentration table = NCONC+1
    Conc.  %SD /Cr+PCr  Metabolite                                         
    0.000 999%   0.000 Ala                                                 
    6.685  81%   0.128 Asp                                                 
   29.109 146%   0.559 Cr                                                  
   22.923 192%   0.441 PCr                                                 
    3.963  82% 7.6E-02 GABA                                                
    3.842  85% 7.4E-02 Glc                                                 
   68.668 100%   1.320 Gln                                                 
   31.006 238%   0.596 Glu                                                 
    0.000 999%   0.000 GPC                                                 
    6.561 103%   0.126 PCh                                                 
   37.136  68%   0.714 GSH                                                 
    0.000 999%   0.000 Ins                                                 
    0.000 999%   0.000 Lac                                                 
   59.280  35%   1.139 NAA                                                 
    0.000 999%   0.000 NAAG                                                
    1.362  80% 2.6E-02 Scyllo                                              
    6.190  88%   0.119 Tau                                                 
   22.134  67%   0.425 -CrCH2                                              
    6.561 103%   0.126 GPC+PCh                                             
   59.280  35%   1.139 NAA+NAAG                                            
   52.033  36%   1.000 Cr+PCr                                              
   99.674  95%   1.916 Glu+Gln                                             
    0.000 999%   0.000 Lip13a                                              
  157.134  28%   3.020 Lip13b                                              
   39.790  52%   0.765 Lip09                                               
    5.840 471%   0.112 MM09                                                
   25.408  55%   0.488 Lip20                                               
   12.956 361%   0.249 MM20                                                
    1.767 605% 3.4E-02 MM12                                                
    0.000 999%   0.000 MM14                                                
    0.000 999%   0.000 MM17                                                
  157.134  28%   3.020 Lip13a+Lip13b                                       
  158.901  28%   3.054 MM14+Lip13a+Lip13b+MM12                             
   45.629  71%   0.877 MM09+Lip09                                          
   38.364 126%   0.737 MM20+Lip20                                          
   6 lines in following misc. output table
  FWHM = 0.046 ppm    S/N =   1                                            
  Data shift = 0.008 ppm                                                   
  Ph: -79 deg       8.6 deg/ppm                                            
  alphaB,S = 8.5E+01,   2.6E+01                                            
   14 spline knots.   Ns = 5(1)                                            
   2 inflections.     1 extrema                                            
  498 points on ppm-axis = NY
      4.000000     3.992357     3.984714     3.977070     3.969427     3.961784     3.954141     3.946497     3.938854     3.931211
      3.923568     3.915925     3.908281     3.900638     3.892995     3.885352     3.877708     3.870065     3.862422     3.854779
      3.847136     3.839492     3.831849     3.824206     3.816563     3.808919     3.801276     3.793633     3.785990     3.778347
      3.770703     3.763060     3.755417     3.747774     3.740130     3.732487     3.724844     3.717201     3.709558     3.701914
      3.694271     3.686628     3.678985     3.671341     3.663698     3.656055     3.648412     3.640769     3.633125     3.625482
      3.617839     3.610196     3.602552     3.594909     3.587266     3.579623     3.571980     3.564336     3.556693     3.549050
      3.541407     3.533763     3.526120     3.518477     3.510834     3.503191     3.495547     3.487904     3.480261     3.472618
      3.464974     3.457331     3.449688     3.442045     3.434402     3.426758     3.419115     3.411472     3.403829     3.396185
      3.388542     3.380899     3.373256     3.365613     3.357969     3.350326     3.342683     3.335040     3.327396     3.319753
      3.312110     3.304467     3.296824     3.289180     3.281537     3.273894     3.266251     3.258607     3.250964     3.243321
      3.235678     3.228034     3.220391     3.212748     3.205105     3.197462     3.189818     3.182175     3.174532     3.166889
      3.159245     3.151602     3.143959     3.136316     3.128673     3.121029     3.113386     3.105743     3.098100     3.090456
      3.082813     3.075170     3.067527     3.059884     3.052240     3.044597     3.036954     3.029311     3.021667     3.014024
      3.006381     2.998738     2.991095     2.983451     2.975808     2.968165     2.960522     2.952878     2.945235     2.937592
      2.929949     2.922306     2.914662     2.907019     2.899376     2.891733     2.884089     2.876446     2.868803     2.861160
      2.853517     2.845873     2.838230     2.830587     2.822944     2.815300     2.807657     2.800014     2.792371     2.784728
      2.777084     2.769441     2.761798     2.754155     2.746511     2.738868     2.731225     2.723582     2.715939     2.708295
      2.700652     2.693009     2.685366     2.677722     2.670079     2.662436     2.654793     2.647150     2.639506     2.631863
      2.624220     2.616577     2.608933     2.601290     2.593647     2.586004     2.578361     2.570717     2.563074     2.555431
      2.547788     2.540144     2.532501     2.524858     2.517215     2.509572     2.501928     2.494285     2.486642     2.478999
      2.471355     2.463712     2.456069     2.448426     2.440783     2.433139     2.425496     2.417853     2.410210     2.402566
      2.394923     2.387280     2.379637     2.371994     2.364350     2.356707     2.349064     2.341421     2.333777     2.326134
      2.318491     2.310848     2.303205     2.295561     2.287918     2.280275     2.272632     2.264988     2.257345     2.249702
      2.242059     2.234416     2.226772     2.219129     2.211486     2.203843     2.196199     2.188556     2.180913     2.173270
      2.165627     2.157983     2.150340     2.142697     2.135054     2.127410     2.119767     2.112124     2.104481     2.096838
      2.089194     2.081551     2.073908     2.066265     2.058621     2.050978     2.043335     2.035692     2.028049     2.020405
      2.012762     2.005119     1.997476     1.989833     1.982190     1.974546     1.966903     1.959260     1.951617     1.943974
      1.936331     1.928688     1.921045     1.913402     1.905759     1.898115     1.890472     1.882829     1.875186     1.867543
      1.859900     1.852257     1.844614     1.836971     1.829327     1.821684     1.814041     1.806398     1.798755     1.791112
      1.783469     1.775826     1.768183     1.760540     1.752896     1.745253     1.737610     1.729967     1.722324     1.714681
      1.707038     1.699395     1.691752     1.684108     1.676465     1.668822     1.661179     1.653536     1.645893     1.638250
      1.630607     1.622964     1.615321     1.607677     1.600034     1.592391     1.584748     1.577105     1.569462     1.561819
      1.554176     1.546533     1.538890     1.531246     1.523603     1.515960     1.508317     1.500674     1.493031     1.485388
      1.477745     1.470102     1.462458     1.454815     1.447172     1.439529     1.431886     1.424243     1.416600     1.408957
      1.401314     1.393671     1.386027     1.378384     1.370741     1.363098     1.355455     1.347812     1.340169     1.332526
      1.324883     1.317240     1.309596     1.301953     1.294310     1.286667     1.279024     1.271381     1.263738     1.256095
      1.248452     1.240808     1.233165     1.225522     1.217879     1.210236     1.202593     1.194950     1.187307     1.179664
      1.172021     1.164377     1.156734     1.149091     1.141448     1.133805     1.126162     1.118519     1.110876     1.103233
      1.095590     1.087946     1.080303     1.072660     1.065017     1.057374     1.049731     1.042088     1.034445     1.026802
      1.019158     1.011515     1.003872     0.996229     0.988586     0.980943     0.973300     0.965657     0.958014     0.950371
      0.942727     0.935084     0.927441     0.919798     0.912155     0.904512     0.896869     0.889226     0.881583     0.873940
      0.866296     0.858653     0.851010     0.843367     0.835724     0.828081     0.820438     0.812795     0.805152     0.797508
      0.789865     0.782222     0.774579     0.766936     0.759293     0.751650     0.744007     0.736364     0.728721     0.721077
      0.713434     0.705791     0.698148     0.690505     0.682862     0.675219     0.667576     0.659933     0.652290     0.644646
      0.637003     0.629360     0.621717     0.614074     0.606431     0.598788     0.591145     0.583502     0.575858     0.568215
      0.560572     0.552929     0.545286     0.537643     0.530000     0.522357     0.514714     0.507071     0.499427     0.491784
      0.484141     0.476498     0.468855     0.461212     0.453569     0.445925     0.438282     0.430639     0.422996     0.415353
      0.407710     0.400067     0.392424     0.384780     0.377137     0.369494     0.361851     0.354208     0.346565     0.338922
      0.331278     0.323635     0.315992     0.308349     0.300706     0.293063     0.285420     0.277777     0.270133     0.262490
      0.254847     0.247204     0.239561     0.231918     0.224275     0.216631     0.208988     0.201345
 NY phased data points follow
  -4.07265E+00 -5.27463E+00 -5.99712E+00 -7.89029E+00 -2.81232E+00 -5.78240E+00 -4.58059E+00 -3.02506E+00 -4.72874E+00 -5.47486E+00
  -4.96738E+00 -3.76978E+00 -3.08367E+00 -5.25823E+00 -5.14942E+00 -3.40216E+00 -4.85056E+00 -3.40965E+00 -1.69773E+00 -4.28036E+00
  -2.06566E+00 -4.40238E+00 -3.17697E+00 -2.40154E+00 -3.11230E+00 -7.72425E-01 -3.51895E+00 -4.32347E+00 -2.87496E+00 -1.69773E-01
  -2.54069E+00 -3.06119E+00 -1.90125E+00 -2.74854E+00 -2.36912E+00 -6.46728E+00 -2.19296E+00 -3.55871E+00 -2.34943E+00 -3.66357E+00
  -3.37586E+00 -3.84178E+00 -2.66159E+00 -2.95770E+00 -1.25640E+00 -5.36600E+00 -2.14392E+00 -2.50491E+00 -1.91610E+00 -1.70607E+00
   1.88011E+00 -5.63079E+00 -4.84375E+00 -2.14710E+00 -3.29510E+00 -4.99347E+00 -5.25695E+00 -3.59386E+00 -4.43671E+00 -1.76222E+00
  -3.45845E+00 -1.65241E+00 -4.03281E+00 -4.27530E+00 -9.24738E-01 -2.50893E+00 -5.48342E+00 -3.95902E+00 -9.01965E-01 -5.46008E+00
  -4.99766E+00 -5.25772E+00 -5.44755E+00 -5.08743E+00 -1.54901E+00 -5.20176E+00 -7.03509E-01 -3.21379E+00 -3.57772E+00 -2.29896E+00
  -5.13776E+00 -3.18554E+00 -3.43362E+00 -4.08149E+00 -3.84028E+00 -1.99922E+00 -2.66668E+00 -1.89599E+00  6.05935E-01 -3.74532E+00
  -3.45368E+00 -2.75121E+00 -3.53968E+00 -3.39375E+00 -4.37924E+00 -5.27666E+00 -4.92659E+00 -3.94800E+00 -3.88575E+00 -1.19809E+00
  -2.52947E+00 -2.40120E+00 -1.52193E+00 -2.91072E+00 -1.79359E+00 -9.53857E-01 -2.79174E+00 -6.75118E+00 -3.35207E+00 -1.86380E+00
  -2.51609E+00 -2.05860E+00 -3.46569E+00 -4.55245E+00 -1.84961E+00 -4.68491E+00 -1.54987E-01 -5.13988E+00 -3.75246E+00 -3.93380E+00
  -2.78398E+00  1.30453E+00 -2.63800E+00 -2.40278E+00 -1.09776E+00  1.73702E-01 -3.78697E-01  1.39371E+00  3.33141E-01 -8.55107E-02
   1.30979E+00 -2.28497E+00 -3.40573E+00 -3.70153E+00 -2.01878E+00 -2.32138E+00 -2.13113E-01 -3.81636E+00 -2.58425E-01 -2.99765E+00
  -4.48054E+00 -2.17886E-01 -3.15463E+00 -1.76314E+00 -8.15586E-01  2.74280E-01 -6.23725E-01 -3.88185E-01 -2.24497E-01 -2.57780E+00
  -2.04146E+00 -2.12539E+00 -1.13860E+00 -2.50601E+00 -2.77640E+00 -4.32225E+00 -2.95757E+00 -3.74208E+00 -5.19581E+00 -1.58700E+00
  -1.98887E+00 -3.95961E+00 -1.30708E+00 -2.41299E+00  2.27635E+00 -2.40291E+00 -1.67243E+00 -2.37135E+00 -2.29804E+00 -1.16541E-01
   4.97350E-01 -1.64693E+00 -1.18017E+00 -4.07718E+00 -1.03041E+00 -1.46128E+00 -1.01928E+00 -3.54238E+00  3.71861E-01 -2.26756E-01
  -1.64128E+00 -2.17118E+00  3.69222E-01 -2.17157E+00 -2.03185E+00 -1.11742E-01 -2.93400E+00 -9.56680E-01 -2.42108E+00 -1.47768E+00
  -1.35478E+00 -3.87654E+00 -8.30875E-01 -9.79695E-01 -9.45958E-01 -3.30673E+00 -2.21952E+00 -3.47843E+00 -7.89810E-01 -4.47225E-01
  -8.02412E-01  1.62099E-01 -1.94833E-01 -1.86450E+00 -2.33844E+00 -2.86406E+00 -3.12493E+00 -3.79526E+00 -4.05143E+00 -3.44852E+00
  -3.33662E+00 -2.09547E-01 -1.87677E+00 -1.72226E+00 -2.50958E+00 -2.42229E+00  5.31160E-02 -2.18524E+00 -1.27140E+00 -1.23098E+00
  -1.10523E+00 -2.70802E+00 -1.09327E+00 -2.48183E+00 -3.22062E+00 -1.89336E+00 -2.68226E+00  2.96546E-02 -1.34577E+00 -1.79106E+00
  -2.04161E+00  5.85572E-01 -1.06346E-01 -2.81788E-01 -5.30857E-01  5.35576E-01  3.02578E-01  2.81907E-01 -3.34971E+00 -1.23676E+00
   8.95507E-01 -2.31825E+00 -9.63653E-01 -7.66179E-01 -1.77167E+00 -8.49025E-01 -1.11981E+00 -4.09070E-01 -1.31815E-01 -2.47439E+00
  -2.73782E+00 -2.35847E+00 -1.97024E+00 -1.98074E+00 -7.50647E-01 -7.25300E-01 -1.02240E+00 -8.62035E-01  1.33509E+00  1.68936E+00
   1.39233E+00  3.42815E+00 -1.62186E+00 -1.03271E+00 -4.51883E+00 -1.41920E+00  9.96755E-01 -2.53310E+00  1.19855E-01 -6.32998E-01
  -1.73908E+00 -2.64548E+00 -5.93760E-01 -2.77967E+00 -1.71013E+00  1.25475E-01  1.58858E-01  4.26633E-02 -2.87190E+00 -1.10503E+00
  -7.26096E-01  1.67701E+00 -3.79974E+00 -3.85517E+00 -1.53915E+00 -9.57722E-01 -1.86539E+00  2.35239E+00  4.18072E-01 -9.32415E-01
  -9.86455E-01 -3.84727E-02 -1.03565E+00 -4.07927E+00 -6.30072E-01 -3.44940E+00 -3.27157E+00 -4.34913E+00 -3.68253E+00 -2.50680E+00
  -2.57396E+00 -3.95671E+00 -1.53301E+00 -2.34998E+00 -1.91529E+00 -1.80312E+00 -3.00749E+00 -3.62740E+00 -1.99776E+00 -6.72777E+00
  -4.73701E+00 -3.76065E+00 -1.81649E+00 -3.36381E+00 -4.33288E+00 -3.22000E+00  1.56978E+00 -1.22810E+00 -1.00931E+00 -3.07452E+00
  -3.40693E+00 -1.62941E+00 -2.43339E+00 -7.46385E-01  9.68467E-01 -4.69274E+00 -6.22025E+00 -3.38120E+00 -2.80262E+00 -3.42858E+00
  -1.81941E+00 -3.35419E+00 -1.53388E+00  1.10143E+00 -2.81018E+00 -3.26326E+00 -3.90367E+00 -4.07974E+00 -3.23121E+00 -4.06155E+00
  -1.58578E+00  1.27773E+00 -1.35617E+00 -2.11948E-01 -1.83306E+00 -3.21600E+00 -9.82062E-01  1.08943E+00  1.78518E+00  8.03483E-02
   5.07616E-01  1.28495E+00  8.95602E-02  9.79000E-01  1.19527E+00 -1.06812E+00  2.96612E+00  1.86567E+00  4.42038E+00  1.55478E-01
  -1.29148E+00  4.94514E-01 -1.31017E+00 -1.65014E+00 -9.11426E-01 -7.02536E-01 -1.17062E+00 -5.56377E-01  1.43068E+00 -1.32046E-01
   9.16219E-01 -9.25478E-01 -1.37522E+00 -1.23681E+00 -1.43529E-03  3.35738E-01  1.80438E+00 -1.85570E+00  1.21916E+00 -8.53650E-01
  -1.98564E+00  2.74547E+00  1.04075E-01  7.48765E-01  2.60830E+00  4.12341E-01 -2.93635E+00 -1.54623E-01 -4.87440E-01  2.79872E+00
   8.25232E-01 -6.66981E-01 -5.53632E-01 -1.46866E+00 -2.38405E+00  4.83771E+00  3.03125E+00 -4.72982E-01 -7.37693E-01  1.25831E+00
  -1.79071E+00 -2.33961E+00 -8.35087E-01  1.58207E+00 -2.72264E-01  8.78999E-01 -2.40627E+00 -1.20375E-01  4.57565E+00 -1.95151E-01
  -2.65125E-01 -3.66810E+00  2.74180E+00 -4.01164E+00  1.66154E+00 -2.64825E+00 -1.14250E+00 -1.09576E+00 -2.93091E-01 -1.09915E+00
  -4.19458E-01  8.44960E-01 -2.85825E-01 -2.32181E+00 -3.41598E+00 -1.73827E-01  3.14388E-01 -7.69503E-03 -8.49983E-01 -1.03843E+00
  -1.10878E+00  6.90443E-01 -8.36009E-01  1.27649E+00  7.61278E-01 -3.01007E-01  2.55811E+00  1.12841E+00  2.36473E-01 -4.07959E-01
   1.07166E+00 -1.65792E+00  1.05091E+00  1.72228E+00  2.28009E-02  1.08704E+00 -5.09988E-01 -3.46669E-01  3.06332E+00 -7.84592E-01
   1.13897E+00 -1.81317E+00  7.38719E-02  6.88842E-02  6.98095E-02  2.21468E+00 -9.75608E-01  2.26606E+00  1.41855E+00 -1.66536E-01
   1.83147E+00 -2.65359E-01  1.80623E+00 -2.48433E+00 -2.36235E+00  1.39558E+00  3.68663E-01  8.26808E-01  2.17034E-01 -3.26262E+00
   2.42372E+00 -6.15581E-01  1.24831E-02 -3.44323E+00 -6.16237E-01  1.35879E-01  2.28396E+00  2.50034E-01  5.75549E-01 -1.14038E+00
  -1.27411E+00  1.79925E+00  2.88725E+00  9.51695E-01  1.57228E+00  3.30444E+00  2.95470E+00  9.55318E-01 -5.82483E-01 -1.25320E+00
  -1.29525E+00 -1.34592E-02  1.67764E+00  8.94342E-02 -9.96529E-01  2.47901E+00  3.43620E+00  3.85379E-01
 NY points of the fit to the data follow
  -3.67749E+00 -3.66747E+00 -3.65724E+00 -3.65259E+00 -3.65745E+00 -3.65044E+00 -3.58966E+00 -3.41778E+00 -3.17228E+00 -2.92355E+00
  -2.73991E+00 -2.67358E+00 -2.74260E+00 -2.92120E+00 -3.14292E+00 -3.32995E+00 -3.42962E+00 -3.44342E+00 -3.41261E+00 -3.38187E+00
  -3.35542E+00 -3.34659E+00 -3.37311E+00 -3.43845E+00 -3.50575E+00 -3.45163E+00 -3.21727E+00 -2.83896E+00 -2.40785E+00 -2.05591E+00
  -1.89909E+00 -2.00085E+00 -2.33401E+00 -2.78506E+00 -3.19420E+00 -3.44183E+00 -3.51112E+00 -3.46238E+00 -3.35596E+00 -3.24222E+00
  -3.16113E+00 -3.12847E+00 -3.13742E+00 -3.16577E+00 -3.19227E+00 -3.20616E+00 -3.21067E+00 -3.21125E+00 -3.20914E+00 -3.20478E+00
  -3.19840E+00 -3.19073E+00 -3.18274E+00 -3.17602E+00 -3.17151E+00 -3.16893E+00 -3.16712E+00 -3.16480E+00 -3.16067E+00 -3.15461E+00
  -3.14713E+00 -3.13814E+00 -3.12760E+00 -3.11734E+00 -3.10747E+00 -3.09917E+00 -3.09398E+00 -3.09146E+00 -3.08985E+00 -3.08757E+00
  -3.08023E+00 -3.06351E+00 -3.04041E+00 -3.01723E+00 -2.99991E+00 -2.99301E+00 -2.99756E+00 -3.00852E+00 -3.01873E+00 -3.02244E+00
  -3.01516E+00 -2.99054E+00 -2.95055E+00 -2.90771E+00 -2.87212E+00 -2.85088E+00 -2.84668E+00 -2.85686E+00 -2.87652E+00 -2.90024E+00
  -2.92114E+00 -2.93450E+00 -2.94134E+00 -2.94358E+00 -2.93755E+00 -2.92196E+00 -2.89886E+00 -2.86498E+00 -2.77954E+00 -2.60004E+00
  -2.37104E+00 -2.15433E+00 -2.00768E+00 -1.97137E+00 -2.05625E+00 -2.23518E+00 -2.44783E+00 -2.62352E+00 -2.71729E+00 -2.73779E+00
  -2.73198E+00 -2.73075E+00 -2.73013E+00 -2.72712E+00 -2.72220E+00 -2.71961E+00 -2.72112E+00 -2.72597E+00 -2.73296E+00 -2.73817E+00
  -2.73119E+00 -2.67598E+00 -2.42954E+00 -1.91781E+00 -1.28241E+00 -7.01507E-01 -3.33453E-01 -2.78354E-01 -5.34195E-01 -9.91463E-01
  -1.49792E+00 -1.90860E+00 -2.15133E+00 -2.28080E+00 -2.40445E+00 -2.53859E+00 -2.62596E+00 -2.62210E+00 -2.53028E+00 -2.39078E+00
  -2.26041E+00 -2.18031E+00 -2.15912E+00 -2.18427E+00 -2.23007E+00 -2.27210E+00 -2.29928E+00 -2.31301E+00 -2.32009E+00 -2.32834E+00
  -2.33858E+00 -2.34802E+00 -2.35241E+00 -2.34951E+00 -2.33910E+00 -2.32587E+00 -2.32061E+00 -2.32701E+00 -2.34101E+00 -2.35451E+00
  -2.35542E+00 -2.34147E+00 -2.31723E+00 -2.29079E+00 -2.27198E+00 -2.26725E+00 -2.27599E+00 -2.29001E+00 -2.29911E+00 -2.29959E+00
  -2.29620E+00 -2.30014E+00 -2.31585E+00 -2.33246E+00 -2.34169E+00 -2.34076E+00 -2.33461E+00 -2.32694E+00 -2.31917E+00 -2.31225E+00
  -2.31103E+00 -2.31940E+00 -2.33531E+00 -2.34858E+00 -2.34801E+00 -2.32302E+00 -2.26097E+00 -2.15826E+00 -2.03236E+00 -1.92410E+00
  -1.86840E+00 -1.88847E+00 -1.98517E+00 -2.14211E+00 -2.30840E+00 -2.42642E+00 -2.45267E+00 -2.36922E+00 -2.19332E+00 -1.96740E+00
  -1.73708E+00 -1.55277E+00 -1.46094E+00 -1.47738E+00 -1.59706E+00 -1.82368E+00 -2.10537E+00 -2.35404E+00 -2.51129E+00 -2.54009E+00
  -2.43031E+00 -2.20367E+00 -1.92816E+00 -1.68578E+00 -1.53433E+00 -1.48989E+00 -1.52738E+00 -1.61575E+00 -1.73788E+00 -1.85866E+00
  -1.93220E+00 -1.94038E+00 -1.88946E+00 -1.80102E+00 -1.69870E+00 -1.60902E+00 -1.56453E+00 -1.58573E+00 -1.65245E+00 -1.72439E+00
  -1.77921E+00 -1.82288E+00 -1.83455E+00 -1.78504E+00 -1.68748E+00 -1.57318E+00 -1.46338E+00 -1.38386E+00 -1.37548E+00 -1.45028E+00
  -1.59539E+00 -1.76499E+00 -1.89986E+00 -1.95912E+00 -1.94664E+00 -1.88348E+00 -1.78822E+00 -1.69153E+00 -1.61792E+00 -1.56690E+00
  -1.52528E+00 -1.49311E+00 -1.47616E+00 -1.47598E+00 -1.46311E+00 -1.26027E+00 -7.42833E-01 -5.81989E-02  5.96948E-01  1.03847E+00
   1.13302E+00  8.48053E-01  2.80547E-01 -3.74681E-01 -9.03625E-01 -1.18131E+00 -1.24912E+00 -1.25494E+00 -1.27550E+00 -1.29367E+00
  -1.30323E+00 -1.30457E+00 -1.29859E+00 -1.28832E+00 -1.27861E+00 -1.27290E+00 -1.27278E+00 -1.27743E+00 -1.28453E+00 -1.29152E+00
  -1.29654E+00 -1.29838E+00 -1.29664E+00 -1.29209E+00 -1.28584E+00 -1.27878E+00 -1.27179E+00 -1.26548E+00 -1.25982E+00 -1.25479E+00
  -1.25011E+00 -1.24548E+00 -1.24081E+00 -1.23606E+00 -1.23108E+00 -1.22574E+00 -1.22009E+00 -1.21424E+00 -1.20819E+00 -1.20201E+00
  -1.19577E+00 -1.18946E+00 -1.18309E+00 -1.17668E+00 -1.17024E+00 -1.16379E+00 -1.15734E+00 -1.15089E+00 -1.14442E+00 -1.13796E+00
  -1.13149E+00 -1.12504E+00 -1.11858E+00 -1.11215E+00 -1.10573E+00 -1.09933E+00 -1.09295E+00 -1.08660E+00 -1.08028E+00 -1.07402E+00
  -1.06780E+00 -1.06165E+00 -1.05556E+00 -1.04955E+00 -1.04362E+00 -1.03780E+00 -1.03209E+00 -1.02651E+00 -1.02108E+00 -1.01583E+00
  -1.01078E+00 -1.00596E+00 -1.00141E+00 -9.97164E-01 -9.93237E-01 -9.89628E-01 -9.86241E-01 -9.82842E-01 -9.78901E-01 -9.73436E-01
  -9.64732E-01 -9.50081E-01 -9.25464E-01 -8.85425E-01 -8.23141E-01 -7.30973E-01 -6.01487E-01 -4.29070E-01 -2.11824E-01  4.65178E-02
   3.35332E-01  6.36938E-01  9.28023E-01  1.18254E+00  1.37578E+00  1.48859E+00  1.51087E+00  1.44337E+00  1.29736E+00  1.09226E+00
   8.51933E-01  6.00546E-01  3.59053E-01  1.42816E-01 -3.92166E-02 -1.84082E-01 -2.93437E-01 -3.71891E-01 -4.25362E-01 -4.59862E-01
  -4.80683E-01 -4.92072E-01 -4.97157E-01 -4.98118E-01 -4.96366E-01 -4.92792E-01 -4.87907E-01 -4.82014E-01 -4.75260E-01 -4.67726E-01
  -4.59427E-01 -4.50367E-01 -4.40511E-01 -4.29831E-01 -4.18272E-01 -4.05795E-01 -3.92343E-01 -3.77879E-01 -3.62359E-01 -3.45768E-01
  -3.28095E-01 -3.09369E-01 -2.89631E-01 -2.68973E-01 -2.47505E-01 -2.25396E-01 -2.02835E-01 -1.80065E-01 -1.57343E-01 -1.34969E-01
  -1.13241E-01 -9.24795E-02 -7.29814E-02 -5.50390E-02 -3.88951E-02 -2.47655E-02 -1.27956E-02 -3.08721E-03  4.33888E-03  9.51064E-03
   1.25351E-02  1.35587E-02  1.27920E-02  1.04663E-02  6.85526E-03  2.23007E-03 -3.12003E-03 -8.93095E-03 -1.49401E-02 -2.09264E-02
  -2.66813E-02 -3.20461E-02 -3.68791E-02 -4.10884E-02 -4.45969E-02 -4.73718E-02 -4.93877E-02 -5.06554E-02 -5.11852E-02 -5.10159E-02
  -5.01785E-02 -4.87255E-02 -4.66959E-02 -4.41457E-02 -4.11141E-02 -3.76547E-02 -3.38021E-02 -2.96038E-02 -2.50877E-02 -2.02945E-02
  -1.52456E-02 -9.97560E-03 -4.49961E-03  1.15387E-03  6.97470E-03  1.29386E-02  1.90390E-02  2.52551E-02  3.15834E-02  3.80062E-02
   4.45229E-02  5.11178E-02  5.77921E-02  6.45316E-02  7.13389E-02  7.82012E-02  8.51218E-02  9.20883E-02  9.91045E-02  1.06159E-01
   1.13258E-01  1.20390E-01  1.27561E-01  1.34761E-01  1.41995E-01  1.49254E-01  1.56543E-01  1.63853E-01  1.71189E-01  1.78544E-01
   1.85922E-01  1.93316E-01  2.00733E-01  2.08163E-01  2.15613E-01  2.23075E-01  2.30554E-01  2.38043E-01  2.45549E-01  2.53063E-01
   2.60592E-01  2.68127E-01  2.75676E-01  2.83231E-01  2.90798E-01  2.98370E-01  3.05952E-01  3.13538E-01  3.21133E-01  3.28731E-01
   3.36338E-01  3.43945E-01  3.51560E-01  3.59174E-01  3.66794E-01  3.74413E-01  3.82037E-01  3.89657E-01
 NY background values follow
    -3.641E+00   -3.633E+00   -3.625E+00   -3.617E+00   -3.609E+00   -3.601E+00   -3.593E+00   -3.585E+00   -3.577E+00   -3.569E+00
    -3.561E+00   -3.552E+00   -3.544E+00   -3.536E+00   -3.528E+00   -3.520E+00   -3.512E+00   -3.504E+00   -3.496E+00   -3.488E+00
    -3.480E+00   -3.472E+00   -3.464E+00   -3.456E+00   -3.447E+00   -3.439E+00   -3.431E+00   -3.423E+00   -3.415E+00   -3.407E+00
    -3.399E+00   -3.391E+00   -3.383E+00   -3.375E+00   -3.367E+00   -3.359E+00   -3.351E+00   -3.342E+00   -3.334E+00   -3.326E+00
    -3.318E+00   -3.310E+00   -3.302E+00   -3.294E+00   -3.286E+00   -3.278E+00   -3.270E+00   -3.262E+00   -3.254E+00   -3.246E+00
    -3.237E+00   -3.229E+00   -3.221E+00   -3.213E+00   -3.205E+00   -3.197E+00   -3.189E+00   -3.181E+00   -3.173E+00   -3.165E+00
    -3.157E+00   -3.149E+00   -3.141E+00   -3.133E+00   -3.124E+00   -3.116E+00   -3.108E+00   -3.100E+00   -3.092E+00   -3.084E+00
    -3.076E+00   -3.068E+00   -3.060E+00   -3.052E+00   -3.044E+00   -3.036E+00   -3.028E+00   -3.020E+00   -3.011E+00   -3.003E+00
    -2.995E+00   -2.987E+00   -2.979E+00   -2.971E+00   -2.963E+00   -2.955E+00   -2.947E+00   -2.939E+00   -2.931E+00   -2.923E+00
    -2.915E+00   -2.907E+00   -2.898E+00   -2.890E+00   -2.882E+00   -2.874E+00   -2.866E+00   -2.858E+00   -2.850E+00   -2.842E+00
    -2.834E+00   -2.826E+00   -2.818E+00   -2.810E+00   -2.802E+00   -2.794E+00   -2.785E+00   -2.777E+00   -2.769E+00   -2.761E+00
    -2.753E+00   -2.745E+00   -2.737E+00   -2.729E+00   -2.721E+00   -2.713E+00   -2.705E+00   -2.697E+00   -2.689E+00   -2.681E+00
    -2.673E+00   -2.664E+00   -2.656E+00   -2.648E+00   -2.640E+00   -2.632E+00   -2.624E+00   -2.616E+00   -2.608E+00   -2.600E+00
    -2.592E+00   -2.584E+00   -2.576E+00   -2.568E+00   -2.560E+00   -2.552E+00   -2.543E+00   -2.535E+00   -2.527E+00   -2.519E+00
    -2.511E+00   -2.503E+00   -2.495E+00   -2.487E+00   -2.479E+00   -2.471E+00   -2.463E+00   -2.455E+00   -2.447E+00   -2.439E+00
    -2.431E+00   -2.423E+00   -2.414E+00   -2.406E+00   -2.398E+00   -2.390E+00   -2.382E+00   -2.374E+00   -2.366E+00   -2.358E+00
    -2.350E+00   -2.342E+00   -2.334E+00   -2.326E+00   -2.318E+00   -2.310E+00   -2.302E+00   -2.294E+00   -2.285E+00   -2.277E+00
    -2.269E+00   -2.261E+00   -2.253E+00   -2.245E+00   -2.237E+00   -2.229E+00   -2.221E+00   -2.213E+00   -2.205E+00   -2.197E+00
    -2.189E+00   -2.181E+00   -2.173E+00   -2.165E+00   -2.156E+00   -2.148E+00   -2.140E+00   -2.132E+00   -2.124E+00   -2.116E+00
    -2.108E+00   -2.100E+00   -2.092E+00   -2.084E+00   -2.076E+00   -2.068E+00   -2.060E+00   -2.052E+00   -2.044E+00   -2.036E+00
    -2.028E+00   -2.019E+00   -2.011E+00   -2.003E+00   -1.995E+00   -1.987E+00   -1.979E+00   -1.971E+00   -1.963E+00   -1.955E+00
    -1.947E+00   -1.939E+00   -1.931E+00   -1.923E+00   -1.915E+00   -1.907E+00   -1.899E+00   -1.891E+00   -1.883E+00   -1.874E+00
    -1.866E+00   -1.858E+00   -1.850E+00   -1.842E+00   -1.834E+00   -1.826E+00   -1.818E+00   -1.810E+00   -1.802E+00   -1.794E+00
    -1.786E+00   -1.778E+00   -1.770E+00   -1.762E+00   -1.754E+00   -1.746E+00   -1.738E+00   -1.730E+00   -1.721E+00   -1.713E+00
    -1.705E+00   -1.697E+00   -1.689E+00   -1.681E+00   -1.673E+00   -1.665E+00   -1.657E+00   -1.649E+00   -1.641E+00   -1.633E+00
    -1.625E+00   -1.617E+00   -1.609E+00   -1.601E+00   -1.593E+00   -1.585E+00   -1.577E+00   -1.568E+00   -1.560E+00   -1.552E+00
    -1.544E+00   -1.536E+00   -1.528E+00   -1.520E+00   -1.512E+00   -1.504E+00   -1.496E+00   -1.488E+00   -1.480E+00   -1.472E+00
    -1.464E+00   -1.456E+00   -1.448E+00   -1.440E+00   -1.432E+00   -1.424E+00   -1.416E+00   -1.407E+00   -1.399E+00   -1.391E+00
    -1.383E+00   -1.375E+00   -1.367E+00   -1.359E+00   -1.351E+00   -1.343E+00   -1.335E+00   -1.327E+00   -1.319E+00   -1.311E+00
    -1.303E+00   -1.295E+00   -1.287E+00   -1.279E+00   -1.271E+00   -1.263E+00   -1.255E+00   -1.247E+00   -1.238E+00   -1.230E+00
    -1.222E+00   -1.214E+00   -1.206E+00   -1.198E+00   -1.190E+00   -1.182E+00   -1.174E+00   -1.166E+00   -1.158E+00   -1.150E+00
    -1.142E+00   -1.134E+00   -1.126E+00   -1.118E+00   -1.110E+00   -1.102E+00   -1.094E+00   -1.086E+00   -1.078E+00   -1.070E+00
    -1.061E+00   -1.053E+00   -1.045E+00   -1.037E+00   -1.029E+00   -1.021E+00   -1.013E+00   -1.005E+00   -9.971E-01   -9.891E-01
    -9.810E-01   -9.730E-01   -9.650E-01   -9.569E-01   -9.489E-01   -9.408E-01   -9.328E-01   -9.247E-01   -9.167E-01   -9.087E-01
    -9.006E-01   -8.926E-01   -8.845E-01   -8.765E-01   -8.685E-01   -8.604E-01   -8.524E-01   -8.443E-01   -8.363E-01   -8.282E-01
    -8.202E-01   -8.122E-01   -8.041E-01   -7.961E-01   -7.880E-01   -7.800E-01   -7.720E-01   -7.639E-01   -7.559E-01   -7.479E-01
    -7.398E-01   -7.318E-01   -7.237E-01   -7.157E-01   -7.077E-01   -6.996E-01   -6.916E-01   -6.835E-01   -6.755E-01   -6.675E-01
    -6.594E-01   -6.514E-01   -6.433E-01   -6.353E-01   -6.273E-01   -6.192E-01   -6.112E-01   -6.032E-01   -5.951E-01   -5.871E-01
    -5.790E-01   -5.710E-01   -5.630E-01   -5.549E-01   -5.469E-01   -5.389E-01   -5.308E-01   -5.228E-01   -5.148E-01   -5.067E-01
    -4.987E-01   -4.906E-01   -4.826E-01   -4.746E-01   -4.665E-01   -4.585E-01   -4.505E-01   -4.424E-01   -4.344E-01   -4.264E-01
    -4.183E-01   -4.103E-01   -4.023E-01   -3.942E-01   -3.862E-01   -3.782E-01   -3.701E-01   -3.621E-01   -3.541E-01   -3.460E-01
    -3.380E-01   -3.300E-01   -3.219E-01   -3.139E-01   -3.059E-01   -2.978E-01   -2.898E-01   -2.818E-01   -2.737E-01   -2.657E-01
    -2.577E-01   -2.496E-01   -2.416E-01   -2.336E-01   -2.255E-01   -2.175E-01   -2.095E-01   -2.014E-01   -1.934E-01   -1.854E-01
    -1.773E-01   -1.693E-01   -1.613E-01   -1.533E-01   -1.452E-01   -1.372E-01   -1.292E-01   -1.211E-01   -1.131E-01   -1.051E-01
    -9.704E-02   -8.901E-02   -8.098E-02   -7.296E-02   -6.493E-02   -5.690E-02   -4.887E-02   -4.084E-02   -3.281E-02   -2.478E-02
    -1.675E-02   -8.724E-03   -6.955E-04    7.333E-03    1.536E-02    2.339E-02    3.142E-02    3.944E-02    4.747E-02    5.550E-02
     6.353E-02    7.155E-02    7.958E-02    8.761E-02    9.564E-02    1.037E-01    1.117E-01    1.197E-01    1.277E-01    1.358E-01
     1.438E-01    1.518E-01    1.598E-01    1.679E-01    1.759E-01    1.839E-01    1.919E-01    2.000E-01    2.080E-01    2.160E-01
     2.240E-01    2.321E-01    2.401E-01    2.481E-01    2.561E-01    2.642E-01    2.722E-01    2.802E-01    2.882E-01    2.963E-01
     3.043E-01    3.123E-01    3.203E-01    3.284E-01    3.364E-01    3.444E-01    3.524E-01    3.605E-01
 Asp      Conc. = 6.68E+00
