 LCModel (Version 6.3-1L) Copyright: S.W. Provencher.          Ref.: Magn. Reson. Med. 30:672-679 (1993).                
 Slice#1 Row#6 Col#4  PD_24_press_2_raw_act
 36 lines in following concentration table = NCONC+1
    Conc.  %SD /Cr+PCr  Metabolite                                         
 1.07E+03  31%   0.487 Ala                                                 
  157.605 260% 7.2E-02 Asp                                                 
 2.19E+03   7%   1.000 Cr                                                  
    0.000 999%   0.000 PCr                                                 
   46.055 561% 2.1E-02 GABA                                                
  237.073 108%   0.108 Glc                                                 
 1.61E+03  40%   0.735 Gln                                                 
 2.61E+03  28%   1.189 Glu                                                 
  682.671   9%   0.311 GPC                                                 
    0.000 999%   0.000 PCh                                                 
  609.890  33%   0.278 GSH                                                 
 3.01E+03  23%   1.372 Ins                                                 
    0.000 999%   0.000 Lac                                                 
 3.52E+03  10%   1.605 NAA                                                 
  206.088 184% 9.4E-02 NAAG                                                
  153.397  39% 7.0E-02 Scyllo                                              
  352.450 106%   0.161 Tau                                                 
  491.118  54%   0.224 -CrCH2                                              
  682.671   9%   0.311 GPC+PCh                                             
 3.73E+03   6%   1.699 NAA+NAAG                                            
 2.19E+03   7%   1.000 Cr+PCr                                              
 4.22E+03  25%   1.923 Glu+Gln                                             
 6.83E+03  19%   3.111 Lip13a                                              
    0.000 999%   0.000 Lip13b                                              
    0.000 999%   0.000 Lip09                                               
 4.87E+03  11%   2.220 MM09                                                
 1.95E+03  35%   0.888 Lip20                                               
 1.12E+04   9%   5.095 MM20                                                
 1.46E+03  34%   0.665 MM12                                                
 9.68E+03   5%   4.411 MM14                                                
    0.000 999%   0.000 MM17                                                
 6.83E+03  19%   3.111 Lip13a+Lip13b                                       
 1.80E+04   5%   8.188 MM14+Lip13a+Lip13b+MM12                             
 4.87E+03  11%   2.220 MM09+Lip09                                          
 1.31E+04   8%   5.984 MM20+Lip20                                          
   6 lines in following misc. output table
  FWHM = 0.054 ppm    S/N =   9                                            
  Data shift = 0.000 ppm                                                   
  Ph:  21 deg      19.5 deg/ppm                                            
  alphaB,S = 1.0E+00,   1.0E+02                                            
   14 spline knots.   Ns = 9(1)                                            
  (13) 3 infls.   (13) 1 extrs.                                            
  498 points on ppm-axis = NY
      4.000000     3.992357     3.984714     3.977070     3.969427     3.961784     3.954141     3.946497     3.938854     3.931211
      3.923568     3.915925     3.908281     3.900638     3.892995     3.885352     3.877708     3.870065     3.862422     3.854779
      3.847136     3.839492     3.831849     3.824206     3.816563     3.808919     3.801276     3.793633     3.785990     3.778347
      3.770703     3.763060     3.755417     3.747774     3.740130     3.732487     3.724844     3.717201     3.709558     3.701914
      3.694271     3.686628     3.678985     3.671341     3.663698     3.656055     3.648412     3.640769     3.633125     3.625482
      3.617839     3.610196     3.602552     3.594909     3.587266     3.579623     3.571980     3.564336     3.556693     3.549050
      3.541407     3.533763     3.526120     3.518477     3.510834     3.503191     3.495547     3.487904     3.480261     3.472618
      3.464974     3.457331     3.449688     3.442045     3.434402     3.426758     3.419115     3.411472     3.403829     3.396185
      3.388542     3.380899     3.373256     3.365613     3.357969     3.350326     3.342683     3.335040     3.327396     3.319753
      3.312110     3.304467     3.296824     3.289180     3.281537     3.273894     3.266251     3.258607     3.250964     3.243321
      3.235678     3.228034     3.220391     3.212748     3.205105     3.197462     3.189818     3.182175     3.174532     3.166889
      3.159245     3.151602     3.143959     3.136316     3.128673     3.121029     3.113386     3.105743     3.098100     3.090456
      3.082813     3.075170     3.067527     3.059884     3.052240     3.044597     3.036954     3.029311     3.021667     3.014024
      3.006381     2.998738     2.991095     2.983451     2.975808     2.968165     2.960522     2.952878     2.945235     2.937592
      2.929949     2.922306     2.914662     2.907019     2.899376     2.891733     2.884089     2.876446     2.868803     2.861160
      2.853517     2.845873     2.838230     2.830587     2.822944     2.815300     2.807657     2.800014     2.792371     2.784728
      2.777084     2.769441     2.761798     2.754155     2.746511     2.738868     2.731225     2.723582     2.715939     2.708295
      2.700652     2.693009     2.685366     2.677722     2.670079     2.662436     2.654793     2.647150     2.639506     2.631863
      2.624220     2.616577     2.608933     2.601290     2.593647     2.586004     2.578361     2.570717     2.563074     2.555431
      2.547788     2.540144     2.532501     2.524858     2.517215     2.509572     2.501928     2.494285     2.486642     2.478999
      2.471355     2.463712     2.456069     2.448426     2.440783     2.433139     2.425496     2.417853     2.410210     2.402566
      2.394923     2.387280     2.379637     2.371994     2.364350     2.356707     2.349064     2.341421     2.333777     2.326134
      2.318491     2.310848     2.303205     2.295561     2.287918     2.280275     2.272632     2.264988     2.257345     2.249702
      2.242059     2.234416     2.226772     2.219129     2.211486     2.203843     2.196199     2.188556     2.180913     2.173270
      2.165627     2.157983     2.150340     2.142697     2.135054     2.127410     2.119767     2.112124     2.104481     2.096838
      2.089194     2.081551     2.073908     2.066265     2.058621     2.050978     2.043335     2.035692     2.028049     2.020405
      2.012762     2.005119     1.997476     1.989833     1.982190     1.974546     1.966903     1.959260     1.951617     1.943974
      1.936331     1.928688     1.921045     1.913402     1.905759     1.898115     1.890472     1.882829     1.875186     1.867543
      1.859900     1.852257     1.844614     1.836971     1.829327     1.821684     1.814041     1.806398     1.798755     1.791112
      1.783469     1.775826     1.768183     1.760540     1.752896     1.745253     1.737610     1.729967     1.722324     1.714681
      1.707038     1.699395     1.691752     1.684108     1.676465     1.668822     1.661179     1.653536     1.645893     1.638250
      1.630607     1.622964     1.615321     1.607677     1.600034     1.592391     1.584748     1.577105     1.569462     1.561819
      1.554176     1.546533     1.538890     1.531246     1.523603     1.515960     1.508317     1.500674     1.493031     1.485388
      1.477745     1.470102     1.462458     1.454815     1.447172     1.439529     1.431886     1.424243     1.416600     1.408957
      1.401314     1.393671     1.386027     1.378384     1.370741     1.363098     1.355455     1.347812     1.340169     1.332526
      1.324883     1.317240     1.309596     1.301953     1.294310     1.286667     1.279024     1.271381     1.263738     1.256095
      1.248452     1.240808     1.233165     1.225522     1.217879     1.210236     1.202593     1.194950     1.187307     1.179664
      1.172021     1.164377     1.156734     1.149091     1.141448     1.133805     1.126162     1.118519     1.110876     1.103233
      1.095590     1.087946     1.080303     1.072660     1.065017     1.057374     1.049731     1.042088     1.034445     1.026802
      1.019158     1.011515     1.003872     0.996229     0.988586     0.980943     0.973300     0.965657     0.958014     0.950371
      0.942727     0.935084     0.927441     0.919798     0.912155     0.904512     0.896869     0.889226     0.881583     0.873940
      0.866296     0.858653     0.851010     0.843367     0.835724     0.828081     0.820438     0.812795     0.805152     0.797508
      0.789865     0.782222     0.774579     0.766936     0.759293     0.751650     0.744007     0.736364     0.728721     0.721077
      0.713434     0.705791     0.698148     0.690505     0.682862     0.675219     0.667576     0.659933     0.652290     0.644646
      0.637003     0.629360     0.621717     0.614074     0.606431     0.598788     0.591145     0.583502     0.575858     0.568215
      0.560572     0.552929     0.545286     0.537643     0.530000     0.522357     0.514714     0.507071     0.499427     0.491784
      0.484141     0.476498     0.468855     0.461212     0.453569     0.445925     0.438282     0.430639     0.422996     0.415353
      0.407710     0.400067     0.392424     0.384780     0.377137     0.369494     0.361851     0.354208     0.346565     0.338922
      0.331278     0.323635     0.315992     0.308349     0.300706     0.293063     0.285420     0.277777     0.270133     0.262490
      0.254847     0.247204     0.239561     0.231918     0.224275     0.216631     0.208988     0.201345
 NY phased data points follow
   1.60193E+01  2.48033E+01  2.47931E+01  1.29810E+01  3.04114E+01  1.12979E+01  2.65443E+01  2.72335E+01  2.40178E+01  2.09256E+01
   3.78400E+01  4.65562E+01  5.40819E+01  6.28964E+01  6.32473E+01  5.20925E+01  4.62731E+01  4.10839E+01  3.92895E+01  3.80099E+01
   3.83225E+01  4.63131E+01  4.15952E+01  2.74958E+01  3.12514E+01  3.04342E+01  2.53382E+01  3.05749E+01  3.43661E+01  2.98969E+01
   2.23415E+01  3.11726E+01  3.51442E+01  3.05217E+01  2.23532E+01  2.13317E+01  4.37130E+01  2.51700E+01  2.25994E+01  2.65487E+01
   2.48439E+01  2.35557E+01  1.77946E+01  3.00371E+01  2.30695E+01  2.47723E+01  2.61157E+01  3.53124E+01  2.77449E+01  3.92779E+01
   4.15952E+01  3.84588E+01  2.91607E+01  3.76396E+01  2.74632E+01  2.06083E+01  3.32602E+01  2.68853E+01  1.68649E+01  3.33952E+01
   2.65788E+01  2.08686E+01  3.87493E+01  2.16574E+01  2.99036E+01 -2.02389E-02  1.44209E+01  1.78382E+01  1.39408E+01  5.68669E+00
   9.67877E+00  9.95928E+00  1.43732E+01  9.64676E+00  1.28654E+01  2.00244E+01  1.40247E+01  1.05243E+01  1.25873E+01  7.16509E+00
   2.21659E+01  1.15232E+01  9.08846E+00  4.07470E+00  1.99009E+01  1.45136E+01  8.77800E+00 -1.78803E+00  2.48876E+01  8.55123E+00
   4.75805E+00  9.69265E+00  1.44423E+01  1.33173E+01  1.48279E+01  1.72923E+01  1.13676E+01  1.02469E+01  9.90777E+00  8.90442E+00
   1.93035E+01  2.78751E+01  3.96913E+01  5.65346E+01  5.63511E+01  5.50889E+01  6.83091E+01  4.10415E+01  5.81511E+01  2.88652E+01
   2.04638E+01  9.46246E+00  1.02487E+01  1.78332E+01  1.15275E+01  2.20753E+01  8.99610E+00  1.11343E+01 -2.32734E+00  6.15735E+00
   1.09587E+01 -9.05097E+00 -8.58094E-02  1.39366E+01  1.33102E+01  1.30482E+01  4.55288E+01  6.95637E+01  6.94375E+01  7.33327E+01
   8.36522E+01  6.74185E+01  4.83233E+01  4.26948E+01  3.15240E+01  2.95353E+01  4.09331E+01  1.87356E+01  1.23178E+01  2.81058E+01
   2.23906E+01  9.78694E+00  1.68545E+01  1.43649E+00 -7.49906E-01  6.69964E-02  6.48642E+00  1.18887E+01  6.52117E-01  1.54403E+01
   8.62326E+00 -4.51864E+00 -2.48459E+00  6.29557E+00 -3.56120E+00 -1.33895E+01 -1.05763E+00  1.95925E+00 -3.48793E+00 -6.88204E+00
  -5.14693E+00  2.10347E-01 -3.12531E+00 -4.86220E+00  5.25640E+00 -2.40450E+01 -1.35953E+01 -1.20419E+01 -1.80153E+01 -1.45791E+01
  -2.13352E+01 -1.27141E+01 -1.18984E+01 -1.83279E+01 -1.95097E+01 -2.60559E+01 -1.96956E+01 -3.25393E+01 -2.58323E+01 -2.93647E+01
  -1.71555E+01 -1.72728E+01 -1.91500E+01 -1.96968E+01 -2.56490E+01 -1.06075E+01 -2.18901E+01 -1.24622E+01 -1.66339E+01 -3.68228E+00
  -1.43759E+01 -1.41167E+01 -1.90506E+01 -4.74787E+00 -1.37782E+01 -1.97572E+01 -1.94383E+01 -1.23782E+01 -1.61096E+01 -1.17243E+01
  -1.42376E+01 -1.59111E+01 -8.18551E+00 -6.92231E+00 -8.97494E+00 -4.17942E+00 -1.83020E+01 -1.68215E+01 -2.12169E+01  9.85693E-01
  -1.39550E+01 -2.61536E+01 -6.55338E+00 -7.69906E+00  3.73655E+00  9.60158E+00  8.89633E+00  5.30959E+00  1.63175E+01 -3.59899E+00
  -1.46346E+01 -3.95266E+00 -1.32254E+01 -1.24948E+01 -1.38139E+01 -4.04589E+00  2.10378E+01  1.16011E+01  1.79041E+01  1.19755E+01
   1.04065E+01  7.25132E+00  1.71901E+01  2.05522E+01  1.40173E+01  1.02629E+01  2.34238E+01  1.29708E+01  1.75897E+01  2.21227E+01
   1.42339E+01  1.91744E+01  2.17646E+01  1.18708E+01  2.47665E+00  1.54648E+01  1.63459E+01  3.10365E+01  2.63772E+01  3.29771E+01
   1.96803E+01  4.19553E+01  2.70849E+01  4.13535E+01  4.91100E+01  5.38454E+01  7.67250E+01  8.68916E+01  1.07030E+02  1.31546E+02
   1.41335E+02  1.39253E+02  1.13761E+02  8.43895E+01  6.18045E+01  3.47319E+01  2.71039E+01  1.42622E+01  2.98592E+01  1.66869E+01
  -4.93850E-01  2.47148E+00  6.59953E+00  9.81204E+00 -3.23788E+00 -2.42315E+00 -9.19416E+00 -6.11275E+00 -3.93168E+00 -9.76678E+00
  -2.00093E+01 -3.73707E+00 -5.40715E+00 -1.33804E+01 -1.57404E+01 -2.27693E+01 -1.53488E+01 -2.17570E+01 -1.34321E+01 -1.85306E+01
  -2.07508E+01 -2.47477E+01 -2.30341E+01 -2.76030E+01 -3.27882E+01 -4.29409E+01 -3.85895E+01 -3.87026E+01 -4.51529E+01 -3.80751E+01
  -4.96869E+01 -3.59706E+01 -4.41746E+01 -5.57929E+01 -4.42078E+01 -3.35653E+01 -3.60856E+01 -3.80484E+01 -3.41458E+01 -2.81642E+01
  -2.62977E+01 -1.90410E+01 -1.04077E+01 -1.14686E+01 -3.81891E+00 -4.10607E+00  5.11336E+00  1.12251E+01  1.96955E+01  1.98259E+01
   2.31457E+01  3.58622E+01  4.17405E+01  4.09849E+01  3.82112E+01  5.38463E+01  4.87789E+01  5.26026E+01  4.06857E+01  4.90551E+01
   4.49597E+01  4.61768E+01  5.15788E+01  3.42760E+01  4.45918E+01  5.90263E+01  4.38998E+01  4.30815E+01  5.77997E+01  3.64514E+01
   3.84062E+01  3.56495E+01  3.63485E+01  3.66148E+01  3.22461E+01  2.96877E+01  3.23020E+01  2.79955E+01  3.15009E+01  2.31860E+01
   2.43425E+01  2.25964E+01  3.04861E+01  2.06804E+01  1.85315E+01  1.60458E+01  2.37173E+01  1.84104E+01  1.50095E+01  1.46932E+01
   1.72920E+00  1.23560E+01  1.13705E+01  1.19405E+01  8.10606E+00  1.17261E+01  3.70438E+00 -2.65078E+00  1.09515E+01 -5.04975E+00
   2.78389E+00 -9.87598E+00 -1.22755E+01 -4.70898E+00 -1.01631E+01 -6.85385E+00 -7.81735E+00 -3.06820E+00 -1.29546E+01 -8.96204E+00
  -1.85019E+01 -2.46800E+00 -8.78034E+00 -6.98232E+00 -6.37439E+00 -1.28325E+01 -1.00935E+00  1.08927E+01 -4.49803E+00 -6.15653E+00
   1.25174E+00  1.43073E+01 -2.21834E+00  1.98809E+00  8.01407E+00  2.83854E+00  7.22197E+00  2.89781E+00  2.12428E+00  2.43377E+00
   9.54610E+00  1.51865E+01  1.51635E+01  4.26854E-01  1.60721E+01  1.47067E+01  1.86203E+01  6.71489E+00  9.81603E+00  5.25309E-01
  -6.32786E+00 -1.68759E+01 -1.09218E+01 -1.13514E+01 -1.09529E+01 -1.41111E+01 -1.70253E+01 -1.11608E+01 -2.67435E+01 -1.42926E+01
  -1.37400E+01 -7.46297E+00 -1.65525E+01 -3.04763E+01 -2.59568E+01 -1.01465E+01 -2.43749E+01 -1.96062E+01 -2.18559E+01 -2.31323E+01
  -2.40250E+01 -3.22850E+01 -2.63526E+01 -3.25896E+01 -1.96365E+01 -2.10857E+01 -2.35851E+01 -2.40868E+01 -2.13056E+01 -6.50401E+00
  -2.30069E+01 -1.49807E+01 -1.66213E+01 -1.99693E+01 -1.58917E+01 -2.18374E+01 -1.09443E+01 -1.77834E+01 -1.39955E+01 -1.28186E+01
  -1.34453E+01 -2.63525E+01 -4.27580E+00 -1.76483E+01 -2.03196E+01 -2.69531E+01 -2.85404E+01 -1.51149E+01 -1.43951E+01 -1.96801E+01
  -1.56838E+01 -2.83595E+01 -7.23145E+00 -1.35790E+01 -1.07286E+01 -1.76445E+01 -1.62563E+01 -1.26679E+01 -1.41661E+01 -2.15640E+01
  -1.79545E+01 -3.56064E+00 -1.64001E+01 -2.03841E+01 -1.33544E+01 -1.27335E+01 -1.43677E+01 -1.16008E+01 -4.39526E+00 -3.84706E+00
  -2.74274E+01 -2.36245E+01 -1.33034E+01 -2.15750E+01 -1.35026E+01 -8.96027E+00 -1.14344E+01 -8.17754E+00 -1.46337E+01 -8.73644E+00
  -1.77330E+01 -1.66212E+01 -6.93076E+00 -2.57570E+01 -7.19297E+00 -6.43138E+00 -6.98908E+00 -4.15505E+00
 NY points of the fit to the data follow
   2.86955E+01  2.68728E+01  2.52230E+01  2.37188E+01  2.27231E+01  2.17712E+01  2.08902E+01  2.08433E+01  2.26533E+01  2.74785E+01
   3.57100E+01  4.60799E+01  5.59246E+01  6.24891E+01  6.39602E+01  6.00657E+01  5.26668E+01  4.48408E+01  3.91795E+01  3.65645E+01
   3.57945E+01  3.48734E+01  3.23709E+01  2.92871E+01  2.74182E+01  2.60616E+01  2.50563E+01  2.49661E+01  2.62169E+01  2.87369E+01
   3.20324E+01  3.51797E+01  3.70702E+01  3.69982E+01  3.49656E+01  3.17086E+01  2.84048E+01  2.57194E+01  2.37522E+01  2.22190E+01
   2.12466E+01  2.11070E+01  2.14055E+01  2.23176E+01  2.43955E+01  2.79512E+01  3.23037E+01  3.60371E+01  3.79055E+01  3.72254E+01
   3.41245E+01  2.95285E+01  2.47696E+01  2.10205E+01  1.89619E+01  1.85186E+01  1.88118E+01  1.89682E+01  1.91194E+01  1.98228E+01
   2.07812E+01  2.11732E+01  2.05936E+01  1.91920E+01  1.73623E+01  1.56333E+01  1.45310E+01  1.43000E+01  1.47655E+01  1.54705E+01
   1.61212E+01  1.66849E+01  1.71295E+01  1.74716E+01  1.75769E+01  1.72931E+01  1.66139E+01  1.56506E+01  1.45757E+01  1.36138E+01
   1.30125E+01  1.27845E+01  1.28618E+01  1.33147E+01  1.38658E+01  1.39384E+01  1.31927E+01  1.16265E+01  9.46446E+00  7.15388E+00
   5.30304E+00  4.29781E+00  4.17861E+00  4.67579E+00  5.30779E+00  5.81250E+00  5.94446E+00  6.53831E+00  8.63588E+00  1.25851E+01
   1.92812E+01  2.94007E+01  4.18890E+01  5.38443E+01  6.19447E+01  6.39128E+01  5.91112E+01  4.92283E+01  3.78318E+01  2.82099E+01
   2.21687E+01  1.93539E+01  1.75128E+01  1.42640E+01  9.79207E+00  6.99440E+00  6.07484E+00  5.64720E+00  5.42026E+00  5.60966E+00
   6.35305E+00  7.53143E+00  9.97702E+00  1.43271E+01  2.13538E+01  3.19862E+01  4.58172E+01  6.03198E+01  7.18115E+01  7.72992E+01
   7.53349E+01  6.64623E+01  5.36960E+01  4.09304E+01  3.09827E+01  2.48549E+01  2.12640E+01  1.76191E+01  1.26826E+01  8.62356E+00
   7.54439E+00  7.40383E+00  7.03403E+00  6.28562E+00  5.39438E+00  4.55720E+00  3.79763E+00  3.12862E+00  2.47815E+00  1.75132E+00
   9.64936E-01  1.44206E-01 -6.04322E-01 -1.21634E+00 -1.75783E+00 -2.26667E+00 -2.81559E+00 -3.52880E+00 -4.42931E+00 -5.42735E+00
  -6.30717E+00 -6.86613E+00 -7.03656E+00 -6.94701E+00 -6.89610E+00 -7.18816E+00 -7.97825E+00 -9.19589E+00 -1.05204E+01 -1.16269E+01
  -1.23871E+01 -1.30104E+01 -1.38461E+01 -1.49051E+01 -1.60053E+01 -1.67808E+01 -1.70770E+01 -1.71390E+01 -1.71352E+01 -1.71804E+01
  -1.73985E+01 -1.77646E+01 -1.81420E+01 -1.83421E+01 -1.81712E+01 -1.75140E+01 -1.64418E+01 -1.51422E+01 -1.35546E+01 -1.17735E+01
  -1.02280E+01 -9.48802E+00 -9.82077E+00 -1.09469E+01 -1.23711E+01 -1.35540E+01 -1.41095E+01 -1.39292E+01 -1.30166E+01 -1.12500E+01
  -8.85277E+00 -6.31565E+00 -4.11832E+00 -2.93165E+00 -3.32356E+00 -5.40122E+00 -8.87287E+00 -1.30356E+01 -1.70248E+01 -1.98231E+01
  -2.05000E+01 -1.87408E+01 -1.46811E+01 -9.18708E+00 -3.62865E+00  5.59562E-01  2.34441E+00  1.42659E+00 -1.73160E+00 -6.12068E+00
  -1.05480E+01 -1.38842E+01 -1.47924E+01 -1.30693E+01 -9.61925E+00 -5.47509E+00 -1.54373E+00  1.72077E+00  3.75172E+00  4.42171E+00
   4.48966E+00  4.87011E+00  5.87084E+00  7.13434E+00  8.47027E+00  1.01505E+01  1.21428E+01  1.40467E+01  1.56070E+01  1.66070E+01
   1.69909E+01  1.69933E+01  1.69343E+01  1.72593E+01  1.84365E+01  2.04804E+01  2.28410E+01  2.49195E+01  2.66291E+01  2.80326E+01
   2.95577E+01  3.21197E+01  3.55748E+01  4.06345E+01  4.78089E+01  5.77391E+01  7.19035E+01  9.05566E+01  1.10721E+02  1.27010E+02
   1.34452E+02  1.30297E+02  1.14634E+02  9.16035E+01  6.78212E+01  4.85778E+01  3.63304E+01  2.97644E+01  2.40947E+01  1.53030E+01
   5.33854E+00 -9.26547E-02 -2.43299E+00 -4.07567E+00 -5.44865E+00 -6.66705E+00 -7.89627E+00 -9.23964E+00 -1.06098E+01 -1.19289E+01
  -1.31252E+01 -1.41647E+01 -1.50714E+01 -1.59029E+01 -1.66704E+01 -1.73595E+01 -1.79794E+01 -1.85487E+01 -1.90711E+01 -1.95328E+01
  -1.99210E+01 -2.02466E+01 -2.05322E+01 -2.07815E+01 -2.09974E+01 -2.11850E+01 -2.13446E+01 -2.14682E+01 -2.15471E+01 -2.15750E+01
  -2.15441E+01 -2.14466E+01 -2.12751E+01 -2.10176E+01 -2.06591E+01 -2.01831E+01 -1.95668E+01 -1.87814E+01 -1.77948E+01 -1.65751E+01
  -1.50911E+01 -1.33094E+01 -1.11975E+01 -8.72649E+00 -5.87061E+00 -2.61028E+00  1.06920E+00  5.18509E+00  9.75488E+00  1.46871E+01
   1.99945E+01  2.56956E+01  3.16398E+01  3.76444E+01  4.32835E+01  4.77803E+01  5.04167E+01  5.08504E+01  4.92825E+01  4.65287E+01
   4.36848E+01  4.19020E+01  4.19590E+01  4.38874E+01  4.68444E+01  4.94787E+01  5.07633E+01  5.04703E+01  4.88852E+01  4.59882E+01
   4.21112E+01  3.82264E+01  3.50644E+01  3.27042E+01  3.05853E+01  2.81972E+01  2.59797E+01  2.44901E+01  2.35197E+01  2.28911E+01
   2.24911E+01  2.22241E+01  2.20039E+01  2.17527E+01  2.14033E+01  2.09010E+01  2.02059E+01  1.92930E+01  1.81523E+01  1.67879E+01
   1.52165E+01  1.34649E+01  1.15684E+01  9.56722E+00  7.50441E+00  5.42294E+00  3.36426E+00  1.36643E+00 -5.36714E-01 -2.31670E+00
  -3.95029E+00 -5.41971E+00 -6.71165E+00 -7.81705E+00 -8.73000E+00 -9.44761E+00 -9.96881E+00 -1.02942E+01 -1.04248E+01 -1.03629E+01
  -1.01109E+01 -9.67240E+00 -9.05201E+00 -8.25592E+00 -7.29209E+00 -6.17136E+00 -4.90769E+00 -3.51920E+00 -2.02803E+00 -4.60890E-01
   1.15144E+00  2.77385E+00  4.36805E+00  5.89311E+00  7.30737E+00  8.56960E+00  9.64111E+00  1.04869E+01  1.10780E+01  1.13922E+01
   1.14161E+01  1.11451E+01  1.05842E+01  9.74742E+00  8.65691E+00  7.34197E+00  5.83782E+00  4.18335E+00  2.41958E+00  5.87396E-01
  -1.27366E+00 -3.12721E+00 -4.94069E+00 -6.68668E+00 -8.34301E+00 -9.89325E+00 -1.13260E+01 -1.26350E+01 -1.38177E+01 -1.48758E+01
  -1.58134E+01 -1.66372E+01 -1.73549E+01 -1.79754E+01 -1.85077E+01 -1.89610E+01 -1.93442E+01 -1.96657E+01 -1.99331E+01 -2.01533E+01
  -2.03323E+01 -2.04758E+01 -2.05884E+01 -2.06744E+01 -2.07372E+01 -2.07799E+01 -2.08050E+01 -2.08149E+01 -2.08115E+01 -2.07963E+01
  -2.07708E+01 -2.07361E+01 -2.06931E+01 -2.06430E+01 -2.05864E+01 -2.05241E+01 -2.04565E+01 -2.03841E+01 -2.03074E+01 -2.02270E+01
  -2.01430E+01 -2.00559E+01 -1.99657E+01 -1.98728E+01 -1.97775E+01 -1.96799E+01 -1.95802E+01 -1.94786E+01 -1.93751E+01 -1.92700E+01
  -1.91633E+01 -1.90552E+01 -1.89458E+01 -1.88351E+01 -1.87231E+01 -1.86100E+01 -1.84959E+01 -1.83810E+01 -1.82650E+01 -1.81482E+01
  -1.80305E+01 -1.79121E+01 -1.77929E+01 -1.76732E+01 -1.75526E+01 -1.74315E+01 -1.73097E+01 -1.71874E+01 -1.70646E+01 -1.69413E+01
  -1.68174E+01 -1.66930E+01 -1.65682E+01 -1.64430E+01 -1.63173E+01 -1.61911E+01 -1.60645E+01 -1.59374E+01 -1.58099E+01 -1.56821E+01
  -1.55538E+01 -1.54250E+01 -1.52957E+01 -1.51659E+01 -1.50357E+01 -1.49050E+01 -1.47736E+01 -1.46415E+01
 NY background values follow
     2.223E+01    2.203E+01    2.184E+01    2.165E+01    2.145E+01    2.126E+01    2.106E+01    2.087E+01    2.067E+01    2.048E+01
     2.028E+01    2.009E+01    1.989E+01    1.970E+01    1.950E+01    1.931E+01    1.911E+01    1.892E+01    1.872E+01    1.853E+01
     1.833E+01    1.814E+01    1.794E+01    1.775E+01    1.755E+01    1.735E+01    1.716E+01    1.696E+01    1.677E+01    1.657E+01
     1.637E+01    1.618E+01    1.598E+01    1.578E+01    1.558E+01    1.539E+01    1.519E+01    1.499E+01    1.480E+01    1.460E+01
     1.440E+01    1.420E+01    1.400E+01    1.381E+01    1.361E+01    1.341E+01    1.321E+01    1.301E+01    1.281E+01    1.261E+01
     1.242E+01    1.222E+01    1.202E+01    1.182E+01    1.162E+01    1.142E+01    1.122E+01    1.102E+01    1.082E+01    1.062E+01
     1.042E+01    1.022E+01    1.002E+01    9.817E+00    9.617E+00    9.416E+00    9.215E+00    9.015E+00    8.814E+00    8.613E+00
     8.412E+00    8.211E+00    8.010E+00    7.809E+00    7.608E+00    7.407E+00    7.206E+00    7.005E+00    6.804E+00    6.603E+00
     6.401E+00    6.200E+00    5.999E+00    5.797E+00    5.596E+00    5.395E+00    5.193E+00    4.992E+00    4.791E+00    4.590E+00
     4.388E+00    4.187E+00    3.986E+00    3.785E+00    3.583E+00    3.382E+00    3.181E+00    2.980E+00    2.779E+00    2.578E+00
     2.377E+00    2.176E+00    1.976E+00    1.775E+00    1.574E+00    1.374E+00    1.174E+00    9.734E-01    7.732E-01    5.732E-01
     3.732E-01    1.734E-01   -2.622E-02   -2.258E-01   -4.251E-01   -6.244E-01   -8.235E-01   -1.022E+00   -1.221E+00   -1.420E+00
    -1.618E+00   -1.816E+00   -2.014E+00   -2.212E+00   -2.410E+00   -2.607E+00   -2.805E+00   -3.002E+00   -3.198E+00   -3.395E+00
    -3.591E+00   -3.787E+00   -3.983E+00   -4.179E+00   -4.374E+00   -4.569E+00   -4.764E+00   -4.959E+00   -5.153E+00   -5.347E+00
    -5.541E+00   -5.734E+00   -5.927E+00   -6.120E+00   -6.312E+00   -6.504E+00   -6.696E+00   -6.887E+00   -7.078E+00   -7.269E+00
    -7.459E+00   -7.649E+00   -7.838E+00   -8.027E+00   -8.215E+00   -8.403E+00   -8.590E+00   -8.777E+00   -8.964E+00   -9.150E+00
    -9.335E+00   -9.521E+00   -9.705E+00   -9.889E+00   -1.007E+01   -1.026E+01   -1.044E+01   -1.062E+01   -1.080E+01   -1.098E+01
    -1.116E+01   -1.134E+01   -1.152E+01   -1.170E+01   -1.187E+01   -1.205E+01   -1.223E+01   -1.240E+01   -1.258E+01   -1.275E+01
    -1.292E+01   -1.310E+01   -1.327E+01   -1.344E+01   -1.361E+01   -1.378E+01   -1.395E+01   -1.412E+01   -1.429E+01   -1.445E+01
    -1.462E+01   -1.478E+01   -1.495E+01   -1.511E+01   -1.528E+01   -1.544E+01   -1.560E+01   -1.576E+01   -1.592E+01   -1.608E+01
    -1.624E+01   -1.640E+01   -1.655E+01   -1.671E+01   -1.686E+01   -1.702E+01   -1.717E+01   -1.733E+01   -1.748E+01   -1.763E+01
    -1.778E+01   -1.793E+01   -1.808E+01   -1.823E+01   -1.838E+01   -1.852E+01   -1.867E+01   -1.881E+01   -1.896E+01   -1.910E+01
    -1.924E+01   -1.939E+01   -1.953E+01   -1.967E+01   -1.981E+01   -1.995E+01   -2.008E+01   -2.022E+01   -2.036E+01   -2.049E+01
    -2.063E+01   -2.076E+01   -2.089E+01   -2.103E+01   -2.116E+01   -2.129E+01   -2.142E+01   -2.154E+01   -2.167E+01   -2.180E+01
    -2.192E+01   -2.205E+01   -2.217E+01   -2.229E+01   -2.241E+01   -2.253E+01   -2.265E+01   -2.277E+01   -2.288E+01   -2.300E+01
    -2.311E+01   -2.323E+01   -2.334E+01   -2.345E+01   -2.356E+01   -2.367E+01   -2.377E+01   -2.388E+01   -2.398E+01   -2.409E+01
    -2.419E+01   -2.429E+01   -2.439E+01   -2.448E+01   -2.458E+01   -2.468E+01   -2.477E+01   -2.486E+01   -2.495E+01   -2.504E+01
    -2.513E+01   -2.522E+01   -2.530E+01   -2.538E+01   -2.547E+01   -2.555E+01   -2.563E+01   -2.570E+01   -2.578E+01   -2.585E+01
    -2.593E+01   -2.600E+01   -2.607E+01   -2.614E+01   -2.620E+01   -2.627E+01   -2.633E+01   -2.639E+01   -2.645E+01   -2.651E+01
    -2.657E+01   -2.663E+01   -2.668E+01   -2.673E+01   -2.678E+01   -2.683E+01   -2.688E+01   -2.693E+01   -2.697E+01   -2.701E+01
    -2.706E+01   -2.710E+01   -2.713E+01   -2.717E+01   -2.720E+01   -2.724E+01   -2.727E+01   -2.730E+01   -2.733E+01   -2.735E+01
    -2.738E+01   -2.740E+01   -2.742E+01   -2.744E+01   -2.746E+01   -2.748E+01   -2.749E+01   -2.751E+01   -2.752E+01   -2.753E+01
    -2.753E+01   -2.754E+01   -2.755E+01   -2.755E+01   -2.755E+01   -2.755E+01   -2.755E+01   -2.754E+01   -2.754E+01   -2.753E+01
    -2.752E+01   -2.751E+01   -2.750E+01   -2.749E+01   -2.748E+01   -2.746E+01   -2.744E+01   -2.743E+01   -2.741E+01   -2.738E+01
    -2.736E+01   -2.734E+01   -2.731E+01   -2.728E+01   -2.726E+01   -2.723E+01   -2.719E+01   -2.716E+01   -2.713E+01   -2.709E+01
    -2.706E+01   -2.702E+01   -2.698E+01   -2.694E+01   -2.690E+01   -2.686E+01   -2.681E+01   -2.677E+01   -2.672E+01   -2.667E+01
    -2.662E+01   -2.657E+01   -2.652E+01   -2.647E+01   -2.642E+01   -2.636E+01   -2.631E+01   -2.625E+01   -2.619E+01   -2.613E+01
    -2.607E+01   -2.601E+01   -2.595E+01   -2.589E+01   -2.582E+01   -2.576E+01   -2.569E+01   -2.562E+01   -2.555E+01   -2.549E+01
    -2.541E+01   -2.534E+01   -2.527E+01   -2.520E+01   -2.512E+01   -2.505E+01   -2.497E+01   -2.489E+01   -2.481E+01   -2.473E+01
    -2.465E+01   -2.457E+01   -2.449E+01   -2.441E+01   -2.432E+01   -2.424E+01   -2.415E+01   -2.407E+01   -2.398E+01   -2.389E+01
    -2.380E+01   -2.371E+01   -2.362E+01   -2.353E+01   -2.343E+01   -2.334E+01   -2.324E+01   -2.315E+01   -2.305E+01   -2.296E+01
    -2.286E+01   -2.276E+01   -2.266E+01   -2.256E+01   -2.246E+01   -2.236E+01   -2.225E+01   -2.215E+01   -2.205E+01   -2.194E+01
    -2.184E+01   -2.173E+01   -2.162E+01   -2.152E+01   -2.141E+01   -2.130E+01   -2.119E+01   -2.108E+01   -2.097E+01   -2.086E+01
    -2.075E+01   -2.064E+01   -2.053E+01   -2.041E+01   -2.030E+01   -2.019E+01   -2.007E+01   -1.996E+01   -1.984E+01   -1.973E+01
    -1.961E+01   -1.949E+01   -1.938E+01   -1.926E+01   -1.914E+01   -1.903E+01   -1.891E+01   -1.879E+01   -1.867E+01   -1.855E+01
    -1.843E+01   -1.831E+01   -1.819E+01   -1.807E+01   -1.795E+01   -1.783E+01   -1.771E+01   -1.759E+01   -1.747E+01   -1.735E+01
    -1.722E+01   -1.710E+01   -1.698E+01   -1.686E+01   -1.674E+01   -1.661E+01   -1.649E+01   -1.637E+01   -1.624E+01   -1.612E+01
    -1.600E+01   -1.587E+01   -1.575E+01   -1.563E+01   -1.550E+01   -1.538E+01   -1.526E+01   -1.513E+01   -1.501E+01   -1.488E+01
    -1.476E+01   -1.464E+01   -1.451E+01   -1.439E+01   -1.426E+01   -1.414E+01   -1.402E+01   -1.389E+01   -1.377E+01   -1.364E+01
    -1.352E+01   -1.339E+01   -1.327E+01   -1.315E+01   -1.302E+01   -1.290E+01   -1.277E+01   -1.265E+01
 Ala      Conc. = 1.07E+03
