 LCModel (Version 6.3-1L) Copyright: S.W. Provencher.          Ref.: Magn. Reson. Med. 30:672-679 (1993).                
 Slice#3 Row#1 Col#4  PD_24_press_2_raw_act
 36 lines in following concentration table = NCONC+1
    Conc.  %SD /Cr+PCr  Metabolite                                         
    0.000 999%   0.000 Ala                                                 
   15.733 100%   0.109 Asp                                                 
  144.492  45%   1.000 Cr                                                  
    0.000 999%   0.000 PCr                                                 
    9.814  96% 6.8E-02 GABA                                                
    9.708  97% 6.7E-02 Glc                                                 
    0.000 999%   0.000 Gln                                                 
    0.000 999%   0.000 Glu                                                 
   38.570  59%   0.267 GPC                                                 
    0.000 999%   0.000 PCh                                                 
   11.809 564% 8.2E-02 GSH                                                 
  512.187  53%   3.545 Ins                                                 
    0.000 999%   0.000 Lac                                                 
   69.352  90%   0.480 NAA                                                 
    0.000 999%   0.000 NAAG                                                
    3.519  89% 2.4E-02 Scyllo                                              
   17.844  88%   0.123 Tau                                                 
   27.491 106%   0.190 -CrCH2                                              
   38.570  59%   0.267 GPC+PCh                                             
   69.352  90%   0.480 NAA+NAAG                                            
  144.492  45%   1.000 Cr+PCr                                              
    0.000 999%   0.000 Glu+Gln                                             
 1.00E+03  70%   6.923 Lip13a                                              
  215.422 126%   1.491 Lip13b                                              
  323.893  43%   2.242 Lip09                                               
  295.980  64%   2.048 MM09                                                
  182.407  43%   1.262 Lip20                                               
  344.309  86%   2.383 MM20                                                
   82.786 101%   0.573 MM12                                                
 1.20E+03  20%   8.293+MM14                                                
    0.000 999%   0.000 MM17                                                
 1.22E+03  43%   8.414 Lip13a+Lip13b                                       
 2.50E+03  16%  17.280 MM14+Lip13a+Lip13b+MM12                             
  619.873  26%   4.290 MM09+Lip09                                          
  526.715  51%   3.645 MM20+Lip20                                          
   6 lines in following misc. output table
  FWHM = 0.023 ppm    S/N =   1                                            
  Data shift = 0.061 ppm                                                   
  Ph:-143 deg     -29.2 deg/ppm                                            
  alphaB,S = 8.5E+01,   3.2E+00                                            
   14 spline knots.   Ns = 5(1)                                            
   2 inflections.     1 extrema                                            
  498 points on ppm-axis = NY
      4.000000     3.992357     3.984714     3.977070     3.969427     3.961784     3.954141     3.946497     3.938854     3.931211
      3.923568     3.915925     3.908281     3.900638     3.892995     3.885352     3.877708     3.870065     3.862422     3.854779
      3.847136     3.839492     3.831849     3.824206     3.816563     3.808919     3.801276     3.793633     3.785990     3.778347
      3.770703     3.763060     3.755417     3.747774     3.740130     3.732487     3.724844     3.717201     3.709558     3.701914
      3.694271     3.686628     3.678985     3.671341     3.663698     3.656055     3.648412     3.640769     3.633125     3.625482
      3.617839     3.610196     3.602552     3.594909     3.587266     3.579623     3.571980     3.564336     3.556693     3.549050
      3.541407     3.533763     3.526120     3.518477     3.510834     3.503191     3.495547     3.487904     3.480261     3.472618
      3.464974     3.457331     3.449688     3.442045     3.434402     3.426758     3.419115     3.411472     3.403829     3.396185
      3.388542     3.380899     3.373256     3.365613     3.357969     3.350326     3.342683     3.335040     3.327396     3.319753
      3.312110     3.304467     3.296824     3.289180     3.281537     3.273894     3.266251     3.258607     3.250964     3.243321
      3.235678     3.228034     3.220391     3.212748     3.205105     3.197462     3.189818     3.182175     3.174532     3.166889
      3.159245     3.151602     3.143959     3.136316     3.128673     3.121029     3.113386     3.105743     3.098100     3.090456
      3.082813     3.075170     3.067527     3.059884     3.052240     3.044597     3.036954     3.029311     3.021667     3.014024
      3.006381     2.998738     2.991095     2.983451     2.975808     2.968165     2.960522     2.952878     2.945235     2.937592
      2.929949     2.922306     2.914662     2.907019     2.899376     2.891733     2.884089     2.876446     2.868803     2.861160
      2.853517     2.845873     2.838230     2.830587     2.822944     2.815300     2.807657     2.800014     2.792371     2.784728
      2.777084     2.769441     2.761798     2.754155     2.746511     2.738868     2.731225     2.723582     2.715939     2.708295
      2.700652     2.693009     2.685366     2.677722     2.670079     2.662436     2.654793     2.647150     2.639506     2.631863
      2.624220     2.616577     2.608933     2.601290     2.593647     2.586004     2.578361     2.570717     2.563074     2.555431
      2.547788     2.540144     2.532501     2.524858     2.517215     2.509572     2.501928     2.494285     2.486642     2.478999
      2.471355     2.463712     2.456069     2.448426     2.440783     2.433139     2.425496     2.417853     2.410210     2.402566
      2.394923     2.387280     2.379637     2.371994     2.364350     2.356707     2.349064     2.341421     2.333777     2.326134
      2.318491     2.310848     2.303205     2.295561     2.287918     2.280275     2.272632     2.264988     2.257345     2.249702
      2.242059     2.234416     2.226772     2.219129     2.211486     2.203843     2.196199     2.188556     2.180913     2.173270
      2.165627     2.157983     2.150340     2.142697     2.135054     2.127410     2.119767     2.112124     2.104481     2.096838
      2.089194     2.081551     2.073908     2.066265     2.058621     2.050978     2.043335     2.035692     2.028049     2.020405
      2.012762     2.005119     1.997476     1.989833     1.982190     1.974546     1.966903     1.959260     1.951617     1.943974
      1.936331     1.928688     1.921045     1.913402     1.905759     1.898115     1.890472     1.882829     1.875186     1.867543
      1.859900     1.852257     1.844614     1.836971     1.829327     1.821684     1.814041     1.806398     1.798755     1.791112
      1.783469     1.775826     1.768183     1.760540     1.752896     1.745253     1.737610     1.729967     1.722324     1.714681
      1.707038     1.699395     1.691752     1.684108     1.676465     1.668822     1.661179     1.653536     1.645893     1.638250
      1.630607     1.622964     1.615321     1.607677     1.600034     1.592391     1.584748     1.577105     1.569462     1.561819
      1.554176     1.546533     1.538890     1.531246     1.523603     1.515960     1.508317     1.500674     1.493031     1.485388
      1.477745     1.470102     1.462458     1.454815     1.447172     1.439529     1.431886     1.424243     1.416600     1.408957
      1.401314     1.393671     1.386027     1.378384     1.370741     1.363098     1.355455     1.347812     1.340169     1.332526
      1.324883     1.317240     1.309596     1.301953     1.294310     1.286667     1.279024     1.271381     1.263738     1.256095
      1.248452     1.240808     1.233165     1.225522     1.217879     1.210236     1.202593     1.194950     1.187307     1.179664
      1.172021     1.164377     1.156734     1.149091     1.141448     1.133805     1.126162     1.118519     1.110876     1.103233
      1.095590     1.087946     1.080303     1.072660     1.065017     1.057374     1.049731     1.042088     1.034445     1.026802
      1.019158     1.011515     1.003872     0.996229     0.988586     0.980943     0.973300     0.965657     0.958014     0.950371
      0.942727     0.935084     0.927441     0.919798     0.912155     0.904512     0.896869     0.889226     0.881583     0.873940
      0.866296     0.858653     0.851010     0.843367     0.835724     0.828081     0.820438     0.812795     0.805152     0.797508
      0.789865     0.782222     0.774579     0.766936     0.759293     0.751650     0.744007     0.736364     0.728721     0.721077
      0.713434     0.705791     0.698148     0.690505     0.682862     0.675219     0.667576     0.659933     0.652290     0.644646
      0.637003     0.629360     0.621717     0.614074     0.606431     0.598788     0.591145     0.583502     0.575858     0.568215
      0.560572     0.552929     0.545286     0.537643     0.530000     0.522357     0.514714     0.507071     0.499427     0.491784
      0.484141     0.476498     0.468855     0.461212     0.453569     0.445925     0.438282     0.430639     0.422996     0.415353
      0.407710     0.400067     0.392424     0.384780     0.377137     0.369494     0.361851     0.354208     0.346565     0.338922
      0.331278     0.323635     0.315992     0.308349     0.300706     0.293063     0.285420     0.277777     0.270133     0.262490
      0.254847     0.247204     0.239561     0.231918     0.224275     0.216631     0.208988     0.201345
 NY phased data points follow
   1.39680E+01  1.35376E+01 -2.51579E+00  6.22018E+00  9.28682E+00  1.75274E+01  9.42620E+00  5.62492E+00  9.58785E+00  9.47125E+00
   3.97094E+00  1.17440E+01  7.38443E+00  1.48420E+01  1.71460E+01  1.11416E+01  6.92810E+00  6.53197E+00  1.80460E+01  9.37056E+00
   1.79810E+01  1.35830E+01  7.63512E+00  1.49945E+01  1.34716E+01  4.11630E+00  7.52382E+00  8.79694E+00  8.06657E+00  4.43037E+00
   1.33566E+01  1.01741E+01  1.10789E+01  9.77632E+00  9.73074E+00  3.25111E+00  1.03373E+01 -2.52373E+00  1.62509E+01  1.24566E+01
   1.88310E+01  1.74955E+01  8.80258E+00  1.18439E+01  6.61124E+00  9.89907E+00  1.26903E+01  1.34574E+01  1.52093E+01  2.37526E+01
   1.16468E+01  6.56047E+00  1.38550E+01  2.26558E+00  1.53245E+01  6.01932E+00  5.67622E+00  1.29603E+01  1.26073E+01  1.26960E+01
   1.84443E+01  1.03802E+01  1.53803E+01  1.09098E+01  2.04722E+01  2.01037E+01  1.52069E+01  1.87291E+01  6.53935E+00  9.87688E+00
   7.51499E+00 -5.75706E-02  1.22408E+01  1.59885E+01  8.55226E+00  6.66032E+00  1.56630E+01  8.39056E+00  1.19902E+01  6.68879E+00
   8.14223E+00  4.43945E+00  1.87564E+01  4.93776E+00  1.12164E+01  8.45171E+00  1.43577E+01  1.46187E+01  9.51369E+00  5.57260E+00
   9.25399E+00  8.77112E+00  1.22249E+01 -1.07497E+00  1.69608E+01  1.00823E+01  1.02624E+01  1.73680E+01  7.22998E+00  1.36304E+01
   1.30879E+01  9.02978E+00  1.18545E+01  1.42259E+01  1.80065E+01  8.74192E+00  1.57697E+01  6.00968E+00  1.19269E+01  4.16594E+00
   8.38021E+00  2.34922E+01  6.93141E+00  1.05242E+01  1.40464E+01  3.66020E+00  7.77381E+00  1.17276E+01  1.72283E+01  1.28375E+01
   2.18537E+01  5.10483E+00  8.19815E+00  5.99534E+00  1.23599E+01  1.38284E+01  1.12996E+01  1.76224E+01  1.93407E+01  2.01959E+01
   1.13050E+01  1.37067E+01  1.09419E+01  9.10029E+00  7.57609E+00  1.06584E+01  9.15282E+00  9.22990E+00  1.20820E+01  8.64643E+00
   1.44131E+01  1.27036E+01  1.24888E+01  1.96166E+01  1.36038E+01  1.82183E+01  1.59197E+01  1.75020E+01  8.60309E+00  1.44713E+01
   3.32114E+00  6.08212E+00  1.68045E+01  1.43205E+01  1.01834E+01  7.75244E+00  5.81651E+00  1.61955E+01  1.11829E+01  1.41792E+01
   1.39929E+01  6.17544E+00  4.90736E+00  5.58010E+00  4.08679E+00  1.31948E+01  1.39034E+01  4.90699E+00  2.33798E+00  8.05754E+00
   1.30098E+01  1.50948E+01  3.15014E+00  5.68635E+00  6.25015E+00  6.00704E+00  7.63125E+00  1.00978E+01  5.65479E+00  8.21775E+00
   3.46901E+00 -7.54363E-02  1.60236E+00  1.55429E+01  1.17624E+01  4.99973E+00  1.32044E+01  8.74958E+00  3.64600E+00  1.24732E+00
   8.26122E+00  5.59819E+00  1.08878E+01  1.44501E+01  1.39339E+01  6.35393E-02  3.54072E+00  1.60095E+01  1.76689E+01  7.69612E+00
  -8.41349E-01  8.76729E+00  5.86562E+00  6.33441E+00  6.71057E+00  2.54311E+00  9.09500E+00  1.15411E+01  7.83734E+00  1.47004E+01
   5.93567E+00  9.87327E+00  6.02543E+00  5.15893E+00  1.15600E+01  8.11711E+00  8.79842E+00  6.76106E+00  4.43180E+00  5.73847E+00
   7.75735E+00  8.60905E+00  7.85220E+00  5.76920E+00  1.71371E+01  8.98925E+00  4.73823E+00  1.37161E+01  9.45002E+00  2.58560E+01
   9.80931E+00  7.40558E+00  9.07369E+00  1.57928E+01  1.65020E+01  1.19633E+01  5.87806E+00  1.29265E+01  6.27470E+00  1.34799E+00
   7.63828E+00  1.25463E+01  4.00340E+00  1.83425E+01  1.34674E+01  1.86432E+01  4.43450E+00  2.29491E+00 -1.09480E+00  9.21549E+00
   6.03158E+00  2.73590E+00  1.03741E+01 -3.04157E+00  2.78660E+00  5.96289E+00  2.57711E+00  1.44884E+01  1.81671E+00  1.16927E+01
   1.01320E+01  1.74565E+01  1.35665E+01  6.15584E+00  8.66228E+00  7.05166E+00  8.66423E+00  7.58012E+00  7.04692E+00  1.14080E+01
   1.23841E+01  4.28891E+00  4.83654E+00 -7.41645E+00  1.37005E+01  9.13894E+00 -2.77341E+00  8.00238E+00  2.57055E+00  5.04547E+00
  -9.84768E-01  6.96717E+00  1.08463E+01  4.52400E+00  5.75198E+00  1.03770E+01  4.69807E+00  1.63075E+01  5.91018E+00  8.88336E+00
   2.04848E+01  1.12443E+01  6.90706E+00  7.51989E+00  6.62246E+00  8.56134E+00  6.51418E+00  4.69965E+00  3.24035E+00  3.97467E+00
  -1.15357E+00  5.97905E+00 -5.25056E+00  2.67832E+00  2.33461E+00  3.98264E+00  1.85035E+00  4.81202E+00 -6.29750E+00  6.68227E+00
   4.07363E+00  1.30680E+01  1.49007E+00 -2.63451E+00  5.20178E+00  1.04019E+01  1.18753E+01  6.37420E+00  1.13444E+01  9.99985E+00
   1.87381E+01  2.32838E+01  1.32276E+01  1.00048E+01  2.41886E+01  1.93830E+01  1.25748E+01  2.11166E+01  1.12415E+01  1.54879E+01
   2.39773E+01  1.76667E+01  2.35424E+01  2.54671E+01  1.75504E+01  3.08506E+01  2.23886E+01  8.47056E+00  2.60688E+01  2.03043E+01
   2.63511E+01  1.63490E+01  1.78433E+01  2.13791E+01  1.88531E+01  1.33140E+01  1.28438E+01  1.14560E+01  9.45784E+00  2.19323E+01
   1.57689E+01  9.90197E+00  1.70037E+01  1.44889E+01  1.39371E+01  1.80035E+01  1.40435E+01  1.38960E+01  1.97384E+01  1.12463E+01
   7.82608E+00  3.98432E+00  5.58908E+00  6.87260E+00  1.73217E+01 -4.55311E+00  1.17214E+01  7.75265E+00  6.47419E+00  7.68191E+00
   1.36946E+00  1.20067E+01  1.28709E+00  3.13391E+00  1.60615E+01  6.89814E+00  7.65333E+00 -3.29868E+00 -1.36356E+00  1.35205E+01
   1.23210E+01 -1.22485E+00  1.24119E+01  6.16575E-01  2.23096E+01  2.62938E+01  1.07948E+01  1.24980E+01  5.63431E+00  5.06842E+00
  -1.85587E+00 -5.08964E+00  6.49907E+00 -7.56326E-01  1.20902E+00  9.08889E+00  1.48363E+01  2.16166E+01  1.34967E+01  1.20952E+01
   1.80781E+00  7.82837E+00  8.13693E+00  5.70744E+00  1.57277E+01  9.01720E+00  7.84523E+00  4.23687E+00  1.26837E+00  7.08943E+00
   6.79003E+00  4.82170E+00  6.79052E+00  6.20439E+00  1.04192E+01  1.49067E+01  2.63861E+00  8.50411E+00 -3.59145E+00  9.86085E+00
   2.99184E+00  8.84974E+00  5.00341E+00  1.38368E+01  3.50576E+00  1.53460E+01  3.52093E+00  3.32916E+00  1.14951E+01 -3.41707E+00
   7.72996E+00  4.73708E+00  4.08137E+00  9.10519E+00  4.13377E+00  2.18259E+00 -2.96823E+00  8.28731E-01  5.56722E+00  1.00253E+01
   5.32987E+00 -8.81052E-01  8.95200E+00  1.53897E+00  9.31689E+00  8.47058E+00  1.79406E+01  7.88039E+00  1.40276E+01  6.43849E+00
  -1.27821E-01  6.86125E+00  1.75911E+01  1.61094E+01 -3.49266E-01  9.21888E+00  1.59133E+01  1.39845E+00  4.59793E+00  3.54388E+00
   2.61628E+00  1.09946E+01  1.11473E+01  1.02382E+01  8.15582E+00  8.30929E+00  1.16009E+00  2.15698E+00 -3.64279E+00  1.14735E+00
   5.62934E-01  2.13831E+00  1.45852E+01  6.72069E+00  1.00376E+01 -1.22103E+00  1.03069E+01  2.09456E+00  6.41403E+00  9.90421E+00
   8.95296E+00  3.66722E+00  8.57667E-02  5.27398E+00  7.44945E+00  1.09115E+01  5.15015E+00  3.53724E+00  3.78033E+00  7.63567E-01
   4.59776E+00  1.03657E+01  9.40662E-01 -1.02983E+00 -6.27690E-01  4.72774E+00  1.37714E+01  3.09218E+00
 NY points of the fit to the data follow
   1.12609E+01  1.07780E+01  1.05050E+01  1.03996E+01  1.03903E+01  1.03502E+01  1.01948E+01  1.02017E+01  1.03700E+01  1.02072E+01
   1.05955E+01  1.27733E+01  1.52332E+01  1.56632E+01  1.42230E+01  1.24351E+01  1.11685E+01  1.05287E+01  1.02731E+01  1.01388E+01
   1.00333E+01  9.98582E+00  9.99924E+00  1.00232E+01  1.00134E+01  9.97674E+00  9.98188E+00  1.00434E+01  1.01066E+01  1.02436E+01
   1.05043E+01  1.06993E+01  1.06694E+01  1.05167E+01  1.04552E+01  1.05340E+01  1.06630E+01  1.09421E+01  1.13405E+01  1.13401E+01
   1.06478E+01  9.70999E+00  9.10244E+00  9.02913E+00  9.43888E+00  1.00595E+01  1.09905E+01  1.29833E+01  1.56828E+01  1.69918E+01
   1.56708E+01  1.28468E+01  1.03217E+01  8.90879E+00  8.42951E+00  8.50548E+00  8.94894E+00  9.43576E+00  9.82073E+00  1.04482E+01
   1.13850E+01  1.21803E+01  1.23648E+01  1.18049E+01  1.07926E+01  9.80992E+00  9.20823E+00  9.09004E+00  9.41569E+00  9.96256E+00
   1.03519E+01  1.06099E+01  1.09858E+01  1.12888E+01  1.12280E+01  1.09301E+01  1.06236E+01  1.03654E+01  1.01583E+01  1.00099E+01
   9.90046E+00  9.83534E+00  9.86252E+00  9.90518E+00  9.85973E+00  9.79765E+00  9.64689E+00  9.12029E+00  8.22691E+00  7.44698E+00
   7.24217E+00  7.62378E+00  8.27728E+00  8.96315E+00  9.50513E+00  9.82880E+00  1.00085E+01  9.92540E+00  9.45903E+00  9.16471E+00
   9.14017E+00  9.27373E+00  1.08613E+01  1.37441E+01  1.52253E+01  1.41882E+01  1.21248E+01  1.03886E+01  9.36129E+00  8.93478E+00
   8.83390E+00  8.83654E+00  8.87079E+00  8.91774E+00  8.96233E+00  8.99032E+00  8.99648E+00  8.99162E+00  8.98534E+00  8.97008E+00
   8.94462E+00  8.89213E+00  8.72118E+00  8.85001E+00  9.46834E+00  9.96716E+00  1.13632E+01  1.47371E+01  1.76029E+01  1.72568E+01
   1.46239E+01  1.18884E+01  1.00468E+01  9.15742E+00  8.86301E+00  8.75145E+00  8.65604E+00  8.57693E+00  8.53383E+00  8.54930E+00
   8.61543E+00  8.69251E+00  8.74155E+00  8.74947E+00  8.73191E+00  8.71928E+00  8.72020E+00  8.71242E+00  8.68433E+00  8.65104E+00
   8.62454E+00  8.60435E+00  8.58887E+00  8.57683E+00  8.56491E+00  8.55395E+00  8.54771E+00  8.53954E+00  8.52412E+00  8.49939E+00
   8.44540E+00  8.36978E+00  8.31756E+00  8.31402E+00  8.35774E+00  8.41348E+00  8.42946E+00  8.39999E+00  8.35697E+00  8.31786E+00
   8.28542E+00  8.26033E+00  8.23520E+00  8.20274E+00  8.17551E+00  8.14417E+00  8.08768E+00  8.04283E+00  8.05703E+00  8.10579E+00
   8.12007E+00  8.07730E+00  8.02442E+00  8.00834E+00  8.03112E+00  8.06183E+00  8.05164E+00  8.00563E+00  7.99932E+00  8.06530E+00
   8.15993E+00  8.23418E+00  8.25642E+00  8.22774E+00  8.17582E+00  8.13581E+00  8.13104E+00  8.12783E+00  8.08925E+00  8.05033E+00
   8.05662E+00  8.08585E+00  8.10968E+00  8.15297E+00  8.22092E+00  8.26580E+00  8.26325E+00  8.23739E+00  8.21655E+00  8.20379E+00
   8.19687E+00  8.19821E+00  8.18269E+00  8.14068E+00  8.11912E+00  8.15141E+00  8.21200E+00  8.26621E+00  8.30621E+00  8.34134E+00
   8.37960E+00  8.42177E+00  8.46986E+00  8.53155E+00  8.60266E+00  8.65729E+00  8.67377E+00  8.65584E+00  8.62583E+00  8.60185E+00
   8.57500E+00  8.54160E+00  8.54450E+00  8.62012E+00  8.74389E+00  8.86146E+00  8.95213E+00  9.03260E+00  9.09414E+00  9.10351E+00
   9.06891E+00  9.03963E+00  9.04901E+00  9.08964E+00  9.14604E+00  9.22388E+00  9.31994E+00  9.40475E+00  9.45532E+00  9.47488E+00
   9.47661E+00  9.46768E+00  9.44992E+00  9.42428E+00  9.38097E+00  9.26839E+00  9.22881E+00  9.44284E+00  9.63308E+00  1.00537E+01
   1.14177E+01  1.28884E+01  1.29535E+01  1.17148E+01  1.02648E+01  9.20805E+00  8.61858E+00  8.35804E+00  8.24201E+00  8.15092E+00
   8.06171E+00  7.98445E+00  7.92531E+00  7.88125E+00  7.84510E+00  7.81166E+00  7.78308E+00  7.75568E+00  7.71820E+00  7.67085E+00
   7.62238E+00  7.57695E+00  7.53682E+00  7.50298E+00  7.47531E+00  7.45750E+00  7.45090E+00  7.44840E+00  7.44399E+00  7.43918E+00
   7.43528E+00  7.43087E+00  7.42670E+00  7.42390E+00  7.42204E+00  7.42170E+00  7.42430E+00  7.43004E+00  7.43859E+00  7.44978E+00
   7.46372E+00  7.48071E+00  7.50125E+00  7.52606E+00  7.55613E+00  7.59275E+00  7.63741E+00  7.69183E+00  7.75807E+00  7.83860E+00
   7.93626E+00  8.05423E+00  8.19591E+00  8.36486E+00  8.56472E+00  8.79911E+00  9.07146E+00  9.38463E+00  9.74063E+00  1.01404E+01
   1.05835E+01  1.10680E+01  1.15904E+01  1.21450E+01  1.27242E+01  1.33186E+01  1.39170E+01  1.45071E+01  1.50755E+01  1.56086E+01
   1.60929E+01  1.65157E+01  1.68663E+01  1.71359E+01  1.73183E+01  1.74107E+01  1.74131E+01  1.73292E+01  1.71662E+01  1.69344E+01
   1.66470E+01  1.63199E+01  1.59711E+01  1.56205E+01  1.52884E+01  1.49947E+01  1.47564E+01  1.45858E+01  1.44878E+01  1.44576E+01
   1.44800E+01  1.45290E+01  1.45713E+01  1.45701E+01  1.44915E+01  1.43102E+01  1.40140E+01  1.36061E+01  1.31041E+01  1.25367E+01
   1.19376E+01  1.13404E+01  1.07734E+01  1.02562E+01  9.79929E+00  9.40472E+00  9.06858E+00  8.78335E+00  8.54027E+00  8.33097E+00
   8.14862E+00  7.98820E+00  7.84647E+00  7.72151E+00  7.61232E+00  7.51849E+00  7.43996E+00  7.37689E+00  7.32953E+00  7.29806E+00
   7.28260E+00  7.28327E+00  7.30020E+00  7.33351E+00  7.38329E+00  7.44944E+00  7.53172E+00  7.62974E+00  7.74288E+00  7.87026E+00
   8.01056E+00  8.16202E+00  8.32239E+00  8.48896E+00  8.65864E+00  8.82785E+00  8.99266E+00  9.14879E+00  9.29192E+00  9.41778E+00
   9.52237E+00  9.60206E+00  9.65372E+00  9.67496E+00  9.66427E+00  9.62108E+00  9.54581E+00  9.43976E+00  9.30508E+00  9.14467E+00
   8.96210E+00  8.76142E+00  8.54691E+00  8.32288E+00  8.09353E+00  7.86282E+00  7.63440E+00  7.41148E+00  7.19667E+00  6.99202E+00
   6.79903E+00  6.61873E+00  6.45172E+00  6.29818E+00  6.15792E+00  6.03042E+00  5.91503E+00  5.81097E+00  5.71742E+00  5.63344E+00
   5.55811E+00  5.49048E+00  5.42971E+00  5.37504E+00  5.32579E+00  5.28128E+00  5.24090E+00  5.20409E+00  5.17043E+00  5.13955E+00
   5.11112E+00  5.08480E+00  5.06031E+00  5.03739E+00  5.01591E+00  4.99571E+00  4.97665E+00  4.95856E+00  4.94130E+00  4.92479E+00
   4.90899E+00  4.89384E+00  4.87925E+00  4.86513E+00  4.85142E+00  4.83811E+00  4.82519E+00  4.81262E+00  4.80035E+00  4.78831E+00
   4.77649E+00  4.76490E+00  4.75355E+00  4.74240E+00  4.73140E+00  4.72052E+00  4.70977E+00  4.69918E+00  4.68874E+00  4.67841E+00
   4.66814E+00  4.65794E+00  4.64784E+00  4.63785E+00  4.62796E+00  4.61811E+00  4.60830E+00  4.59852E+00  4.58883E+00  4.57923E+00
   4.56967E+00  4.56012E+00  4.55059E+00  4.54111E+00  4.53169E+00  4.52234E+00  4.51300E+00  4.50366E+00  4.49433E+00  4.48506E+00
   4.47586E+00  4.46668E+00  4.45751E+00  4.44833E+00  4.43919E+00  4.43011E+00  4.42109E+00  4.41209E+00
 NY background values follow
     9.711E+00    9.701E+00    9.691E+00    9.680E+00    9.670E+00    9.660E+00    9.649E+00    9.639E+00    9.629E+00    9.618E+00
     9.608E+00    9.598E+00    9.587E+00    9.577E+00    9.567E+00    9.556E+00    9.546E+00    9.536E+00    9.526E+00    9.515E+00
     9.505E+00    9.495E+00    9.484E+00    9.474E+00    9.464E+00    9.453E+00    9.443E+00    9.433E+00    9.422E+00    9.412E+00
     9.402E+00    9.391E+00    9.381E+00    9.371E+00    9.360E+00    9.350E+00    9.340E+00    9.329E+00    9.319E+00    9.309E+00
     9.298E+00    9.288E+00    9.278E+00    9.267E+00    9.257E+00    9.247E+00    9.236E+00    9.226E+00    9.216E+00    9.205E+00
     9.195E+00    9.185E+00    9.174E+00    9.164E+00    9.154E+00    9.144E+00    9.133E+00    9.123E+00    9.113E+00    9.102E+00
     9.092E+00    9.082E+00    9.071E+00    9.061E+00    9.051E+00    9.040E+00    9.030E+00    9.020E+00    9.009E+00    8.999E+00
     8.989E+00    8.978E+00    8.968E+00    8.958E+00    8.947E+00    8.937E+00    8.927E+00    8.917E+00    8.906E+00    8.896E+00
     8.886E+00    8.875E+00    8.865E+00    8.855E+00    8.844E+00    8.834E+00    8.824E+00    8.813E+00    8.803E+00    8.793E+00
     8.782E+00    8.772E+00    8.762E+00    8.751E+00    8.741E+00    8.731E+00    8.721E+00    8.710E+00    8.700E+00    8.690E+00
     8.679E+00    8.669E+00    8.659E+00    8.648E+00    8.638E+00    8.628E+00    8.617E+00    8.607E+00    8.597E+00    8.586E+00
     8.576E+00    8.566E+00    8.556E+00    8.545E+00    8.535E+00    8.525E+00    8.514E+00    8.504E+00    8.494E+00    8.483E+00
     8.473E+00    8.463E+00    8.452E+00    8.442E+00    8.432E+00    8.421E+00    8.411E+00    8.401E+00    8.391E+00    8.380E+00
     8.370E+00    8.360E+00    8.349E+00    8.339E+00    8.329E+00    8.318E+00    8.308E+00    8.298E+00    8.287E+00    8.277E+00
     8.267E+00    8.257E+00    8.246E+00    8.236E+00    8.226E+00    8.215E+00    8.205E+00    8.195E+00    8.184E+00    8.174E+00
     8.164E+00    8.154E+00    8.143E+00    8.133E+00    8.123E+00    8.112E+00    8.102E+00    8.092E+00    8.081E+00    8.071E+00
     8.061E+00    8.051E+00    8.040E+00    8.030E+00    8.020E+00    8.009E+00    7.999E+00    7.989E+00    7.978E+00    7.968E+00
     7.958E+00    7.948E+00    7.937E+00    7.927E+00    7.917E+00    7.906E+00    7.896E+00    7.886E+00    7.875E+00    7.865E+00
     7.855E+00    7.845E+00    7.834E+00    7.824E+00    7.814E+00    7.803E+00    7.793E+00    7.783E+00    7.772E+00    7.762E+00
     7.752E+00    7.742E+00    7.731E+00    7.721E+00    7.711E+00    7.700E+00    7.690E+00    7.680E+00    7.670E+00    7.659E+00
     7.649E+00    7.639E+00    7.628E+00    7.618E+00    7.608E+00    7.598E+00    7.587E+00    7.577E+00    7.567E+00    7.556E+00
     7.546E+00    7.536E+00    7.526E+00    7.515E+00    7.505E+00    7.495E+00    7.484E+00    7.474E+00    7.464E+00    7.454E+00
     7.443E+00    7.433E+00    7.423E+00    7.412E+00    7.402E+00    7.392E+00    7.382E+00    7.371E+00    7.361E+00    7.351E+00
     7.340E+00    7.330E+00    7.320E+00    7.310E+00    7.299E+00    7.289E+00    7.279E+00    7.268E+00    7.258E+00    7.248E+00
     7.238E+00    7.227E+00    7.217E+00    7.207E+00    7.197E+00    7.186E+00    7.176E+00    7.166E+00    7.155E+00    7.145E+00
     7.135E+00    7.125E+00    7.114E+00    7.104E+00    7.094E+00    7.083E+00    7.073E+00    7.063E+00    7.053E+00    7.042E+00
     7.032E+00    7.022E+00    7.012E+00    7.001E+00    6.991E+00    6.981E+00    6.971E+00    6.960E+00    6.950E+00    6.940E+00
     6.929E+00    6.919E+00    6.909E+00    6.899E+00    6.888E+00    6.878E+00    6.868E+00    6.858E+00    6.847E+00    6.837E+00
     6.827E+00    6.817E+00    6.806E+00    6.796E+00    6.786E+00    6.775E+00    6.765E+00    6.755E+00    6.745E+00    6.734E+00
     6.724E+00    6.714E+00    6.704E+00    6.693E+00    6.683E+00    6.673E+00    6.663E+00    6.652E+00    6.642E+00    6.632E+00
     6.622E+00    6.611E+00    6.601E+00    6.591E+00    6.581E+00    6.570E+00    6.560E+00    6.550E+00    6.540E+00    6.529E+00
     6.519E+00    6.509E+00    6.498E+00    6.488E+00    6.478E+00    6.468E+00    6.457E+00    6.447E+00    6.437E+00    6.427E+00
     6.416E+00    6.406E+00    6.396E+00    6.386E+00    6.375E+00    6.365E+00    6.355E+00    6.345E+00    6.335E+00    6.324E+00
     6.314E+00    6.304E+00    6.294E+00    6.283E+00    6.273E+00    6.263E+00    6.253E+00    6.242E+00    6.232E+00    6.222E+00
     6.212E+00    6.201E+00    6.191E+00    6.181E+00    6.171E+00    6.160E+00    6.150E+00    6.140E+00    6.130E+00    6.119E+00
     6.109E+00    6.099E+00    6.089E+00    6.078E+00    6.068E+00    6.058E+00    6.048E+00    6.038E+00    6.027E+00    6.017E+00
     6.007E+00    5.997E+00    5.986E+00    5.976E+00    5.966E+00    5.956E+00    5.945E+00    5.935E+00    5.925E+00    5.915E+00
     5.905E+00    5.894E+00    5.884E+00    5.874E+00    5.864E+00    5.853E+00    5.843E+00    5.833E+00    5.823E+00    5.812E+00
     5.802E+00    5.792E+00    5.782E+00    5.772E+00    5.761E+00    5.751E+00    5.741E+00    5.731E+00    5.720E+00    5.710E+00
     5.700E+00    5.690E+00    5.680E+00    5.669E+00    5.659E+00    5.649E+00    5.639E+00    5.628E+00    5.618E+00    5.608E+00
     5.598E+00    5.588E+00    5.577E+00    5.567E+00    5.557E+00    5.547E+00    5.537E+00    5.526E+00    5.516E+00    5.506E+00
     5.496E+00    5.485E+00    5.475E+00    5.465E+00    5.455E+00    5.445E+00    5.434E+00    5.424E+00    5.414E+00    5.404E+00
     5.394E+00    5.383E+00    5.373E+00    5.363E+00    5.353E+00    5.343E+00    5.332E+00    5.322E+00    5.312E+00    5.302E+00
     5.292E+00    5.281E+00    5.271E+00    5.261E+00    5.251E+00    5.241E+00    5.230E+00    5.220E+00    5.210E+00    5.200E+00
     5.190E+00    5.179E+00    5.169E+00    5.159E+00    5.149E+00    5.139E+00    5.128E+00    5.118E+00    5.108E+00    5.098E+00
     5.088E+00    5.077E+00    5.067E+00    5.057E+00    5.047E+00    5.037E+00    5.026E+00    5.016E+00    5.006E+00    4.996E+00
     4.986E+00    4.975E+00    4.965E+00    4.955E+00    4.945E+00    4.935E+00    4.925E+00    4.914E+00    4.904E+00    4.894E+00
     4.884E+00    4.874E+00    4.863E+00    4.853E+00    4.843E+00    4.833E+00    4.823E+00    4.813E+00    4.802E+00    4.792E+00
     4.782E+00    4.772E+00    4.762E+00    4.751E+00    4.741E+00    4.731E+00    4.721E+00    4.711E+00    4.701E+00    4.690E+00
     4.680E+00    4.670E+00    4.660E+00    4.650E+00    4.640E+00    4.629E+00    4.619E+00    4.609E+00
 Asp      Conc. = 1.57E+01
