 LCModel (Version 6.3-1L) Copyright: S.W. Provencher.          Ref.: Magn. Reson. Med. 30:672-679 (1993).                
 Slice#3 Row#8 Col#3  PD_24_press_2_raw_act
 36 lines in following concentration table = NCONC+1
    Conc.  %SD /Cr+PCr  Metabolite                                         
   42.548 416% 1.3E-02 Ala                                                 
    0.000 999%   0.000 Asp                                                 
  762.584  50%   0.234 Cr                                                  
 2.49E+03  16%   0.766 PCr                                                 
    0.000 999%   0.000 GABA                                                
   40.952 733% 1.3E-02 Glc                                                 
 1.12E+03  32%   0.343 Gln                                                 
 2.19E+03  18%   0.672 Glu                                                 
 1.27E+03   3%   0.390 GPC                                                 
    0.000 999%   0.000 PCh                                                 
  984.083  13%   0.302 GSH                                                 
 2.41E+03  19%   0.741 Ins                                                 
  327.945  58%   0.101 Lac                                                 
 4.23E+03   5%   1.301 NAA                                                 
  728.764  27%   0.224 NAAG                                                
  249.290  20% 7.7E-02 Scyllo                                              
    0.000 999%   0.000 Tau                                                 
  323.194  62% 9.9E-02 -CrCH2                                              
 1.27E+03   3%   0.390 GPC+PCh                                             
 4.96E+03   3%   1.525 NAA+NAAG                                            
 3.25E+03   3%   1.000 Cr+PCr                                              
 3.30E+03  17%   1.015 Glu+Gln                                             
 1.04E+03  68%   0.319 Lip13a                                              
    0.000 999%   0.000 Lip13b                                              
   63.555 513% 2.0E-02 Lip09                                               
 1.76E+03  23%   0.541 MM09                                                
  108.503 198% 3.3E-02 Lip20                                               
 2.80E+03  24%   0.861 MM20                                                
  641.065  38%   0.197 MM12                                                
 1.58E+03  35%   0.486 MM14                                                
 2.35E+03  11%   0.723 MM17                                                
 1.04E+03  68%   0.319 Lip13a+Lip13b                                       
 3.26E+03  25%   1.001 MM14+Lip13a+Lip13b+MM12                             
 1.83E+03  21%   0.561 MM09+Lip09                                          
 2.91E+03  22%   0.894 MM20+Lip20                                          
   6 lines in following misc. output table
  FWHM = 0.046 ppm    S/N =  14                                            
  Data shift = 0.023 ppm                                                   
  Ph: -23 deg     -14.5 deg/ppm                                            
  alphaB,S = 6.9E-01,   1.6E+02                                            
   14 spline knots.   Ns = 7(1)                                            
  (10) 3 infls.   ( 7) 1 extrs.                                            
  498 points on ppm-axis = NY
      4.000000     3.992357     3.984714     3.977070     3.969427     3.961784     3.954141     3.946497     3.938854     3.931211
      3.923568     3.915925     3.908281     3.900638     3.892995     3.885352     3.877708     3.870065     3.862422     3.854779
      3.847136     3.839492     3.831849     3.824206     3.816563     3.808919     3.801276     3.793633     3.785990     3.778347
      3.770703     3.763060     3.755417     3.747774     3.740130     3.732487     3.724844     3.717201     3.709558     3.701914
      3.694271     3.686628     3.678985     3.671341     3.663698     3.656055     3.648412     3.640769     3.633125     3.625482
      3.617839     3.610196     3.602552     3.594909     3.587266     3.579623     3.571980     3.564336     3.556693     3.549050
      3.541407     3.533763     3.526120     3.518477     3.510834     3.503191     3.495547     3.487904     3.480261     3.472618
      3.464974     3.457331     3.449688     3.442045     3.434402     3.426758     3.419115     3.411472     3.403829     3.396185
      3.388542     3.380899     3.373256     3.365613     3.357969     3.350326     3.342683     3.335040     3.327396     3.319753
      3.312110     3.304467     3.296824     3.289180     3.281537     3.273894     3.266251     3.258607     3.250964     3.243321
      3.235678     3.228034     3.220391     3.212748     3.205105     3.197462     3.189818     3.182175     3.174532     3.166889
      3.159245     3.151602     3.143959     3.136316     3.128673     3.121029     3.113386     3.105743     3.098100     3.090456
      3.082813     3.075170     3.067527     3.059884     3.052240     3.044597     3.036954     3.029311     3.021667     3.014024
      3.006381     2.998738     2.991095     2.983451     2.975808     2.968165     2.960522     2.952878     2.945235     2.937592
      2.929949     2.922306     2.914662     2.907019     2.899376     2.891733     2.884089     2.876446     2.868803     2.861160
      2.853517     2.845873     2.838230     2.830587     2.822944     2.815300     2.807657     2.800014     2.792371     2.784728
      2.777084     2.769441     2.761798     2.754155     2.746511     2.738868     2.731225     2.723582     2.715939     2.708295
      2.700652     2.693009     2.685366     2.677722     2.670079     2.662436     2.654793     2.647150     2.639506     2.631863
      2.624220     2.616577     2.608933     2.601290     2.593647     2.586004     2.578361     2.570717     2.563074     2.555431
      2.547788     2.540144     2.532501     2.524858     2.517215     2.509572     2.501928     2.494285     2.486642     2.478999
      2.471355     2.463712     2.456069     2.448426     2.440783     2.433139     2.425496     2.417853     2.410210     2.402566
      2.394923     2.387280     2.379637     2.371994     2.364350     2.356707     2.349064     2.341421     2.333777     2.326134
      2.318491     2.310848     2.303205     2.295561     2.287918     2.280275     2.272632     2.264988     2.257345     2.249702
      2.242059     2.234416     2.226772     2.219129     2.211486     2.203843     2.196199     2.188556     2.180913     2.173270
      2.165627     2.157983     2.150340     2.142697     2.135054     2.127410     2.119767     2.112124     2.104481     2.096838
      2.089194     2.081551     2.073908     2.066265     2.058621     2.050978     2.043335     2.035692     2.028049     2.020405
      2.012762     2.005119     1.997476     1.989833     1.982190     1.974546     1.966903     1.959260     1.951617     1.943974
      1.936331     1.928688     1.921045     1.913402     1.905759     1.898115     1.890472     1.882829     1.875186     1.867543
      1.859900     1.852257     1.844614     1.836971     1.829327     1.821684     1.814041     1.806398     1.798755     1.791112
      1.783469     1.775826     1.768183     1.760540     1.752896     1.745253     1.737610     1.729967     1.722324     1.714681
      1.707038     1.699395     1.691752     1.684108     1.676465     1.668822     1.661179     1.653536     1.645893     1.638250
      1.630607     1.622964     1.615321     1.607677     1.600034     1.592391     1.584748     1.577105     1.569462     1.561819
      1.554176     1.546533     1.538890     1.531246     1.523603     1.515960     1.508317     1.500674     1.493031     1.485388
      1.477745     1.470102     1.462458     1.454815     1.447172     1.439529     1.431886     1.424243     1.416600     1.408957
      1.401314     1.393671     1.386027     1.378384     1.370741     1.363098     1.355455     1.347812     1.340169     1.332526
      1.324883     1.317240     1.309596     1.301953     1.294310     1.286667     1.279024     1.271381     1.263738     1.256095
      1.248452     1.240808     1.233165     1.225522     1.217879     1.210236     1.202593     1.194950     1.187307     1.179664
      1.172021     1.164377     1.156734     1.149091     1.141448     1.133805     1.126162     1.118519     1.110876     1.103233
      1.095590     1.087946     1.080303     1.072660     1.065017     1.057374     1.049731     1.042088     1.034445     1.026802
      1.019158     1.011515     1.003872     0.996229     0.988586     0.980943     0.973300     0.965657     0.958014     0.950371
      0.942727     0.935084     0.927441     0.919798     0.912155     0.904512     0.896869     0.889226     0.881583     0.873940
      0.866296     0.858653     0.851010     0.843367     0.835724     0.828081     0.820438     0.812795     0.805152     0.797508
      0.789865     0.782222     0.774579     0.766936     0.759293     0.751650     0.744007     0.736364     0.728721     0.721077
      0.713434     0.705791     0.698148     0.690505     0.682862     0.675219     0.667576     0.659933     0.652290     0.644646
      0.637003     0.629360     0.621717     0.614074     0.606431     0.598788     0.591145     0.583502     0.575858     0.568215
      0.560572     0.552929     0.545286     0.537643     0.530000     0.522357     0.514714     0.507071     0.499427     0.491784
      0.484141     0.476498     0.468855     0.461212     0.453569     0.445925     0.438282     0.430639     0.422996     0.415353
      0.407710     0.400067     0.392424     0.384780     0.377137     0.369494     0.361851     0.354208     0.346565     0.338922
      0.331278     0.323635     0.315992     0.308349     0.300706     0.293063     0.285420     0.277777     0.270133     0.262490
      0.254847     0.247204     0.239561     0.231918     0.224275     0.216631     0.208988     0.201345
 NY phased data points follow
  -1.55177E+02 -1.37822E+02 -1.44316E+02 -1.33403E+02 -1.22400E+02 -1.13490E+02 -9.16761E+01 -8.97011E+01 -6.69597E+01 -5.79092E+01
  -5.85906E+01 -6.20608E+01 -7.56443E+01 -7.96340E+01 -1.01091E+02 -1.00579E+02 -1.14897E+02 -1.17439E+02 -1.22762E+02 -1.12694E+02
  -1.16771E+02 -1.07581E+02 -1.12772E+02 -1.12423E+02 -1.14368E+02 -1.10242E+02 -9.86111E+01 -9.62642E+01 -9.45087E+01 -9.32464E+01
  -8.45382E+01 -8.08612E+01 -8.39407E+01 -8.37335E+01 -9.85168E+01 -8.84110E+01 -9.69105E+01 -8.15599E+01 -8.53032E+01 -8.48224E+01
  -8.65807E+01 -8.46285E+01 -8.36490E+01 -8.04472E+01 -7.33930E+01 -7.55837E+01 -7.12196E+01 -6.70475E+01 -6.74071E+01 -6.78292E+01
  -7.81802E+01 -7.94623E+01 -8.47429E+01 -8.34224E+01 -7.61050E+01 -8.23354E+01 -7.29866E+01 -7.25371E+01 -7.21413E+01 -8.11863E+01
  -8.64925E+01 -7.81274E+01 -8.84518E+01 -8.78072E+01 -8.24589E+01 -8.32887E+01 -8.23240E+01 -8.73050E+01 -8.60305E+01 -7.69806E+01
  -8.30943E+01 -8.03551E+01 -7.43446E+01 -7.08857E+01 -7.05721E+01 -7.20095E+01 -6.68719E+01 -7.49868E+01 -6.21650E+01 -6.46533E+01
  -6.59269E+01 -6.30975E+01 -6.83086E+01 -6.32456E+01 -5.43832E+01 -6.09377E+01 -5.59790E+01 -6.11733E+01 -5.29423E+01 -5.32143E+01
  -5.89651E+01 -5.42535E+01 -4.69337E+01 -4.73496E+01 -5.23291E+01 -4.51750E+01 -3.81749E+01 -3.12405E+01 -1.36890E+01 -2.73968E+00
   1.72740E+01  4.43944E+01  5.90954E+01  6.10238E+01  4.80496E+01  2.98372E+01 -5.05534E+00 -1.95325E+01 -2.45045E+01 -2.91352E+01
  -4.17759E+01 -3.75465E+01 -3.94528E+01 -3.85837E+01 -4.61285E+01 -4.46200E+01 -4.35340E+01 -4.37250E+01 -4.08877E+01 -3.77158E+01
  -3.69274E+01 -2.39036E+01 -1.93101E+01 -6.65136E+00  1.15498E+01  3.97888E+01  6.56328E+01  6.66632E+01  6.76811E+01  3.66852E+01
   1.26838E+01 -3.16842E+00 -1.18470E+01 -1.93888E+01 -2.65237E+01 -3.84808E+01 -4.62511E+01 -4.32165E+01 -3.24813E+01 -4.31267E+01
  -4.55240E+01 -3.50536E+01 -4.16101E+01 -4.48040E+01 -3.77552E+01 -4.91456E+01 -4.12321E+01 -4.25864E+01 -4.21330E+01 -4.31043E+01
  -3.88725E+01 -3.97354E+01 -4.13662E+01 -4.13078E+01 -4.34130E+01 -3.91235E+01 -3.84719E+01 -3.59392E+01 -3.83401E+01 -4.59736E+01
  -4.37374E+01 -4.01682E+01 -3.92483E+01 -4.64212E+01 -3.67372E+01 -3.63174E+01 -3.76361E+01 -3.81543E+01 -3.95992E+01 -4.58339E+01
  -4.14639E+01 -4.48074E+01 -5.11939E+01 -5.37499E+01 -5.33943E+01 -6.11852E+01 -5.50799E+01 -5.09110E+01 -5.29986E+01 -5.12795E+01
  -5.29335E+01 -5.20221E+01 -5.42982E+01 -5.09468E+01 -4.87555E+01 -4.44835E+01 -3.82365E+01 -3.60152E+01 -3.36105E+01 -2.61445E+01
  -1.72506E+01 -1.24599E+01 -8.53427E+00 -1.56852E+01 -1.64572E+01 -1.70255E+01 -1.51249E+01 -2.62255E+01 -2.08849E+01 -2.87335E+01
  -3.10928E+01 -1.70942E+01 -2.30109E+01 -1.62557E+01 -2.05332E+01 -1.81717E+01 -2.44031E+01 -3.03802E+01 -2.71425E+01 -3.08770E+01
  -2.48350E+01 -3.11731E+01 -2.39520E+01 -1.46518E+01 -1.53951E+00 -6.08838E+00  3.49554E-01 -1.58557E+00 -4.94281E+00 -1.52410E+01
  -2.18301E+01 -2.24226E+01 -1.73467E+01 -2.32445E+01 -1.79823E+01 -1.53997E+01 -4.16067E+00 -8.65855E+00 -8.46868E+00 -3.58320E+00
  -4.45967E+00 -1.08794E+01 -1.09497E+01 -1.10606E+01 -2.40252E+00 -5.43135E+00 -5.97085E+00 -6.92072E+00 -7.83994E+00 -1.04930E+01
  -1.36886E+01 -1.26072E+01 -2.06341E+01 -1.84114E+01 -1.70503E+01 -5.57458E+00 -6.47519E+00 -4.04218E-01 -5.48363E-01  4.18457E-01
   4.82731E+00  1.15759E+01  2.30725E+01  3.05209E+01  4.63379E+01  5.56421E+01  7.20848E+01  8.98461E+01  1.19717E+02  1.40439E+02
   1.50825E+02  1.44996E+02  1.24854E+02  8.08425E+01  5.07755E+01  3.62727E+01  2.00277E+01  1.69976E+01  1.55585E+01  1.29965E+01
   6.47055E+00  2.53046E+00  5.53448E+00 -2.49912E+00 -2.31893E+00 -4.95007E+00 -4.34996E+00 -3.74395E+00 -4.43096E+00 -3.28953E+00
  -3.49705E+00 -1.37287E+00 -5.45261E+00 -5.10060E+00 -9.73469E+00 -7.91577E+00 -1.19851E+01 -1.09177E+01 -1.02230E+01  5.03247E-01
  -5.60555E+00 -6.65995E+00 -3.89820E+00 -1.06952E+01 -4.38514E+00 -1.12510E+01 -9.11585E+00 -4.42957E+00 -9.07061E-02 -2.65343E+00
  -5.97830E+00 -2.85029E-01  1.17926E+00  4.72917E-01  9.29584E+00  9.91863E+00  7.81786E+00  1.63891E+01  1.63965E+01  2.33170E+01
   2.01602E+01  1.81607E+01  2.19144E+01  2.50163E+01  2.14769E+01  2.21724E+01  2.46518E+01  2.09922E+01  2.67793E+01  1.97443E+01
   1.63452E+01  1.29314E+01  1.79782E+01  1.35761E+01  1.35933E+01  8.86005E+00  6.62624E+00  6.33175E+00  1.33812E+01  7.55042E+00
   1.48330E+01  1.06079E+01  1.17910E+01  5.73311E+00  1.33818E+01  1.59677E+01  1.39307E+01  1.46989E+01  1.68349E+01  1.54363E+01
   1.06402E+01  1.67713E+01  1.06859E+01  9.78548E+00  1.44216E+01  9.77414E+00  1.33898E+01  1.15003E+01  1.00568E+01  9.32321E+00
   1.19113E+01  1.09007E+00  1.10612E+01  1.08716E+01  1.45656E+01  1.74683E+01  1.13857E+01  1.09951E+01  1.53318E+01  1.68864E+01
   1.67551E+01  1.32924E+01  1.71704E+01  1.76220E+01  1.70739E+01  1.05181E+01  1.38368E+01  1.82581E+01  1.39629E+01  1.45353E+01
   1.09133E+01  1.69673E+01  1.24529E+01  1.14140E+01  1.55486E+01  1.74572E+01  1.22991E+01  1.35010E+01  1.41816E+01  9.38566E+00
   1.12120E+01  1.70894E+01  9.55649E+00  1.52504E+01  1.67591E+01  9.94888E+00  1.47966E+01  1.28640E+01  1.26091E+01  1.24227E+01
   7.40569E+00  8.95920E+00  2.36852E+01  1.98380E+01  1.57443E+01  1.91434E+01  2.12846E+01  1.35923E+01  2.00385E+01  1.84992E+01
   2.09848E+01  1.83074E+01  2.12583E+01  1.68490E+01  2.28738E+01  1.84225E+01  2.54983E+01  2.21052E+01  2.65635E+01  2.04638E+01
   1.99211E+01  2.26528E+01  1.80589E+01  1.54700E+01  2.26295E+01  1.85796E+01  1.86921E+01  1.41367E+01  1.49507E+01  1.57442E+01
   1.74338E+01  1.44061E+01  1.33118E+01  7.30477E+00  1.16852E+01  1.14947E+01  1.56545E+01  1.71142E+01  1.22852E+01  1.69352E+01
   1.02398E+01  1.34184E+01  1.02088E+01  1.34256E+01  1.99242E+01  1.17907E+01  1.73738E+01  1.00063E+01  1.33957E+01  6.65210E+00
   1.70915E+01  7.27226E+00  1.17156E+01  6.10411E+00  1.03433E+01  8.07887E+00  1.44361E+01  1.84617E+01  1.08915E+01  9.04774E+00
   1.47363E+01  1.74361E+01  1.45894E+01  1.54236E+01  1.57407E+01  1.73951E+01  1.50410E+01  1.60307E+01  1.05209E+01  7.36912E+00
   1.01467E+01  7.16108E+00  1.94101E+01  1.14214E+01  1.45501E+01  1.29561E+01  1.59321E+01  1.44615E+01  1.29439E+01  1.63557E+01
   1.32945E+01  1.70191E+01  1.65897E+01  1.24161E+01  1.54102E+01  1.76817E+01  1.07349E+01  1.01656E+01  9.70312E+00  1.22775E+01
   1.80288E+01  1.05824E+01  1.01401E+01  1.16260E+01  1.07380E+01  1.25424E+01  1.01375E+01  1.64887E+01  1.12344E+01  1.38780E+01
   1.33531E+01  1.30982E+01  1.37444E+01  1.82130E+01  1.23419E+01  1.40694E+01  1.14006E+01  6.81790E+00
 NY points of the fit to the data follow
  -1.38099E+02 -1.36747E+02 -1.33274E+02 -1.27120E+02 -1.19238E+02 -1.09520E+02 -9.75322E+01 -8.36812E+01 -7.03000E+01 -6.10078E+01
  -5.87780E+01 -6.42794E+01 -7.50655E+01 -8.67272E+01 -9.57563E+01 -1.01416E+02 -1.05181E+02 -1.08760E+02 -1.11753E+02 -1.13223E+02
  -1.13713E+02 -1.13750E+02 -1.13722E+02 -1.13016E+02 -1.11413E+02 -1.09176E+02 -1.05807E+02 -1.00688E+02 -9.40003E+01 -8.71640E+01
  -8.19223E+01 -7.95745E+01 -8.06167E+01 -8.41832E+01 -8.84679E+01 -9.19630E+01 -9.41766E+01 -9.57272E+01 -9.68651E+01 -9.65869E+01
  -9.44929E+01 -9.14177E+01 -8.79382E+01 -8.40379E+01 -7.97436E+01 -7.56942E+01 -7.27610E+01 -7.17432E+01 -7.30769E+01 -7.62794E+01
  -8.00949E+01 -8.30811E+01 -8.44444E+01 -8.46280E+01 -8.42984E+01 -8.35480E+01 -8.21805E+01 -8.03670E+01 -7.86179E+01 -7.73459E+01
  -7.68422E+01 -7.72145E+01 -7.81811E+01 -7.91868E+01 -7.95743E+01 -7.90555E+01 -7.78990E+01 -7.64467E+01 -7.48642E+01 -7.33157E+01
  -7.19297E+01 -7.08390E+01 -7.01299E+01 -6.97760E+01 -6.96598E+01 -6.95779E+01 -6.93456E+01 -6.89438E+01 -6.84193E+01 -6.77572E+01
  -6.65406E+01 -6.50106E+01 -6.33769E+01 -6.14118E+01 -5.90669E+01 -5.67662E+01 -5.52127E+01 -5.49133E+01 -5.58597E+01 -5.74182E+01
  -5.87094E+01 -5.90883E+01 -5.85667E+01 -5.76022E+01 -5.63369E+01 -5.29678E+01 -4.44975E+01 -3.29574E+01 -1.88530E+01 -2.45056E-01
   2.26679E+01  4.52322E+01  6.01100E+01  6.15145E+01  4.84969E+01  2.59411E+01  2.30255E+00 -1.56795E+01 -2.68825E+01 -3.44642E+01
  -4.15927E+01 -4.77287E+01 -5.02495E+01 -5.07425E+01 -5.06973E+01 -5.04355E+01 -5.00341E+01 -4.94775E+01 -4.85994E+01 -4.65008E+01
  -3.99906E+01 -2.94123E+01 -1.69964E+01 -1.27306E+00  1.90554E+01  4.14413E+01  5.95612E+01  6.68203E+01  6.00116E+01  4.14522E+01
   1.85960E+01 -5.75678E-01 -1.29978E+01 -2.10748E+01 -2.88678E+01 -3.73312E+01 -4.28485E+01 -4.44268E+01 -4.40081E+01 -4.23852E+01
  -4.03950E+01 -3.88117E+01 -3.79588E+01 -3.77232E+01 -3.79442E+01 -3.83766E+01 -3.87580E+01 -3.90742E+01 -3.94020E+01 -3.97293E+01
  -4.00717E+01 -4.03224E+01 -4.04640E+01 -4.04949E+01 -4.04852E+01 -4.04068E+01 -4.02475E+01 -4.01768E+01 -4.03142E+01 -4.07606E+01
  -4.13314E+01 -4.15393E+01 -4.11205E+01 -4.03019E+01 -3.96151E+01 -3.95563E+01 -4.02345E+01 -4.12941E+01 -4.22063E+01 -4.27210E+01
  -4.29935E+01 -4.31429E+01 -4.34254E+01 -4.39656E+01 -4.45579E+01 -4.48581E+01 -4.45474E+01 -4.36469E+01 -4.26377E+01 -4.20326E+01
  -4.19719E+01 -4.20452E+01 -4.16717E+01 -4.07027E+01 -3.93382E+01 -3.77988E+01 -3.59872E+01 -3.34835E+01 -3.02069E+01 -2.67112E+01
  -2.39623E+01 -2.28585E+01 -2.33029E+01 -2.45671E+01 -2.60073E+01 -2.71877E+01 -2.78012E+01 -2.74038E+01 -2.58742E+01 -2.34989E+01
  -2.06520E+01 -1.79212E+01 -1.60243E+01 -1.55629E+01 -1.64506E+01 -1.85608E+01 -2.17767E+01 -2.55377E+01 -2.86314E+01 -2.99210E+01
  -2.90610E+01 -2.66300E+01 -2.30699E+01 -1.87405E+01 -1.44112E+01 -1.11760E+01 -1.00674E+01 -1.14266E+01 -1.47960E+01 -1.93299E+01
  -2.35226E+01 -2.61042E+01 -2.65896E+01 -2.49429E+01 -2.16376E+01 -1.75265E+01 -1.35955E+01 -1.09419E+01 -9.87103E+00 -9.90575E+00
  -1.01668E+01 -1.01529E+01 -9.84392E+00 -9.02329E+00 -7.48249E+00 -5.67523E+00 -4.29631E+00 -3.80219E+00 -4.38382E+00 -5.94018E+00
  -8.18319E+00 -1.03879E+01 -1.15209E+01 -1.10186E+01 -9.16446E+00 -6.67853E+00 -4.13348E+00 -1.91527E+00  1.20329E-01  2.71918E+00
   5.81365E+00  9.65060E+00  1.52839E+01  2.59648E+01  4.26039E+01  5.99478E+01  7.74610E+01  9.75645E+01  1.20106E+02  1.39996E+02
   1.49541E+02  1.42980E+02  1.20266E+02  8.84631E+01  5.86893E+01  3.83092E+01  2.61087E+01  1.68754E+01  7.34832E+00  6.33507E-02
  -2.40850E+00 -3.21152E+00 -3.55702E+00 -3.68024E+00 -3.73237E+00 -3.87230E+00 -4.10322E+00 -4.38497E+00 -4.65616E+00 -4.85255E+00
  -4.95251E+00 -4.99390E+00 -5.01338E+00 -5.01044E+00 -4.98532E+00 -4.96404E+00 -4.96177E+00 -4.94985E+00 -4.88626E+00 -4.74660E+00
  -4.53138E+00 -4.24295E+00 -3.88541E+00 -3.47137E+00 -3.01253E+00 -2.49938E+00 -1.90528E+00 -1.19796E+00 -3.53060E-01  6.40801E-01
   1.79090E+00  3.09858E+00  4.54344E+00  6.09665E+00  7.72931E+00  9.41226E+00  1.11120E+01  1.27862E+01  1.43863E+01  1.58700E+01
   1.71940E+01  1.83177E+01  1.92084E+01  1.98438E+01  2.02134E+01  2.03182E+01  2.01711E+01  1.97963E+01  1.92291E+01  1.85155E+01
   1.77087E+01  1.68369E+01  1.59304E+01  1.50368E+01  1.41838E+01  1.33700E+01  1.25833E+01  1.18275E+01  1.11531E+01  1.06246E+01
   1.02768E+01  1.01279E+01  1.01690E+01  1.03651E+01  1.06665E+01  1.10252E+01  1.14006E+01  1.17451E+01  1.20542E+01  1.24038E+01
   1.29092E+01  1.34665E+01  1.39315E+01  1.43419E+01  1.46631E+01  1.46817E+01  1.41152E+01  1.28837E+01  1.13544E+01  9.95514E+00
   9.04208E+00  8.91856E+00  9.63768E+00  1.09673E+01  1.25300E+01  1.39869E+01  1.51162E+01  1.56607E+01  1.55920E+01  1.52456E+01
   1.49181E+01  1.46804E+01  1.44211E+01  1.40495E+01  1.37070E+01  1.34547E+01  1.32400E+01  1.30408E+01  1.28499E+01  1.26657E+01
   1.24888E+01  1.23216E+01  1.21665E+01  1.20268E+01  1.19061E+01  1.18080E+01  1.17362E+01  1.16941E+01  1.16847E+01  1.17113E+01
   1.17768E+01  1.18843E+01  1.20365E+01  1.22353E+01  1.24827E+01  1.27801E+01  1.31287E+01  1.35287E+01  1.39793E+01  1.44786E+01
   1.50231E+01  1.56083E+01  1.62282E+01  1.68748E+01  1.75383E+01  1.82075E+01  1.88697E+01  1.95117E+01  2.01193E+01  2.06783E+01
   2.11750E+01  2.15965E+01  2.19322E+01  2.21734E+01  2.23144E+01  2.23520E+01  2.22862E+01  2.21203E+01  2.18604E+01  2.15156E+01
   2.10968E+01  2.06162E+01  2.00872E+01  1.95237E+01  1.89396E+01  1.83478E+01  1.77600E+01  1.71863E+01  1.66353E+01  1.61139E+01
   1.56272E+01  1.51787E+01  1.47701E+01  1.44017E+01  1.40730E+01  1.37827E+01  1.35288E+01  1.33088E+01  1.31196E+01  1.29584E+01
   1.28224E+01  1.27088E+01  1.26153E+01  1.25391E+01  1.24780E+01  1.24300E+01  1.23935E+01  1.23670E+01  1.23491E+01  1.23385E+01
   1.23342E+01  1.23352E+01  1.23409E+01  1.23507E+01  1.23640E+01  1.23800E+01  1.23984E+01  1.24188E+01  1.24410E+01  1.24647E+01
   1.24895E+01  1.25151E+01  1.25413E+01  1.25681E+01  1.25953E+01  1.26229E+01  1.26506E+01  1.26783E+01  1.27059E+01  1.27336E+01
   1.27613E+01  1.27889E+01  1.28162E+01  1.28432E+01  1.28700E+01  1.28966E+01  1.29230E+01  1.29491E+01  1.29748E+01  1.30001E+01
   1.30252E+01  1.30501E+01  1.30747E+01  1.30989E+01  1.31226E+01  1.31461E+01  1.31694E+01  1.31925E+01  1.32153E+01  1.32378E+01
   1.32599E+01  1.32818E+01  1.33037E+01  1.33254E+01  1.33468E+01  1.33679E+01  1.33890E+01  1.34100E+01  1.34310E+01  1.34519E+01
   1.34727E+01  1.34934E+01  1.35142E+01  1.35352E+01  1.35563E+01  1.35775E+01  1.35988E+01  1.36203E+01
 NY background values follow
    -1.453E+02   -1.443E+02   -1.432E+02   -1.422E+02   -1.411E+02   -1.401E+02   -1.391E+02   -1.380E+02   -1.370E+02   -1.360E+02
    -1.349E+02   -1.339E+02   -1.329E+02   -1.318E+02   -1.308E+02   -1.298E+02   -1.288E+02   -1.277E+02   -1.267E+02   -1.257E+02
    -1.247E+02   -1.237E+02   -1.227E+02   -1.217E+02   -1.207E+02   -1.197E+02   -1.187E+02   -1.177E+02   -1.167E+02   -1.157E+02
    -1.147E+02   -1.137E+02   -1.128E+02   -1.118E+02   -1.108E+02   -1.099E+02   -1.089E+02   -1.080E+02   -1.070E+02   -1.061E+02
    -1.051E+02   -1.042E+02   -1.033E+02   -1.024E+02   -1.014E+02   -1.005E+02   -9.963E+01   -9.873E+01   -9.784E+01   -9.695E+01
    -9.607E+01   -9.520E+01   -9.433E+01   -9.347E+01   -9.262E+01   -9.177E+01   -9.093E+01   -9.009E+01   -8.926E+01   -8.844E+01
    -8.762E+01   -8.681E+01   -8.601E+01   -8.521E+01   -8.442E+01   -8.364E+01   -8.286E+01   -8.209E+01   -8.133E+01   -8.058E+01
    -7.983E+01   -7.909E+01   -7.836E+01   -7.763E+01   -7.691E+01   -7.620E+01   -7.549E+01   -7.480E+01   -7.411E+01   -7.343E+01
    -7.275E+01   -7.208E+01   -7.143E+01   -7.077E+01   -7.013E+01   -6.950E+01   -6.887E+01   -6.825E+01   -6.764E+01   -6.703E+01
    -6.644E+01   -6.585E+01   -6.527E+01   -6.470E+01   -6.414E+01   -6.358E+01   -6.303E+01   -6.249E+01   -6.196E+01   -6.144E+01
    -6.092E+01   -6.041E+01   -5.991E+01   -5.941E+01   -5.892E+01   -5.844E+01   -5.796E+01   -5.749E+01   -5.703E+01   -5.658E+01
    -5.613E+01   -5.568E+01   -5.525E+01   -5.481E+01   -5.439E+01   -5.397E+01   -5.356E+01   -5.315E+01   -5.275E+01   -5.235E+01
    -5.196E+01   -5.158E+01   -5.120E+01   -5.082E+01   -5.045E+01   -5.009E+01   -4.973E+01   -4.937E+01   -4.902E+01   -4.867E+01
    -4.833E+01   -4.799E+01   -4.766E+01   -4.733E+01   -4.701E+01   -4.669E+01   -4.637E+01   -4.605E+01   -4.575E+01   -4.544E+01
    -4.514E+01   -4.484E+01   -4.454E+01   -4.425E+01   -4.395E+01   -4.367E+01   -4.338E+01   -4.310E+01   -4.281E+01   -4.253E+01
    -4.226E+01   -4.198E+01   -4.170E+01   -4.143E+01   -4.116E+01   -4.089E+01   -4.061E+01   -4.035E+01   -4.008E+01   -3.981E+01
    -3.954E+01   -3.927E+01   -3.900E+01   -3.873E+01   -3.846E+01   -3.819E+01   -3.792E+01   -3.765E+01   -3.738E+01   -3.711E+01
    -3.683E+01   -3.656E+01   -3.628E+01   -3.600E+01   -3.572E+01   -3.544E+01   -3.515E+01   -3.486E+01   -3.457E+01   -3.428E+01
    -3.398E+01   -3.369E+01   -3.338E+01   -3.308E+01   -3.277E+01   -3.246E+01   -3.215E+01   -3.184E+01   -3.152E+01   -3.121E+01
    -3.089E+01   -3.057E+01   -3.024E+01   -2.992E+01   -2.960E+01   -2.927E+01   -2.895E+01   -2.862E+01   -2.829E+01   -2.797E+01
    -2.764E+01   -2.731E+01   -2.699E+01   -2.666E+01   -2.634E+01   -2.602E+01   -2.569E+01   -2.537E+01   -2.505E+01   -2.474E+01
    -2.442E+01   -2.411E+01   -2.379E+01   -2.348E+01   -2.318E+01   -2.287E+01   -2.257E+01   -2.227E+01   -2.197E+01   -2.168E+01
    -2.139E+01   -2.111E+01   -2.082E+01   -2.055E+01   -2.027E+01   -2.000E+01   -1.974E+01   -1.948E+01   -1.922E+01   -1.897E+01
    -1.872E+01   -1.848E+01   -1.824E+01   -1.801E+01   -1.778E+01   -1.755E+01   -1.733E+01   -1.711E+01   -1.689E+01   -1.668E+01
    -1.647E+01   -1.626E+01   -1.606E+01   -1.586E+01   -1.566E+01   -1.546E+01   -1.527E+01   -1.508E+01   -1.489E+01   -1.471E+01
    -1.452E+01   -1.434E+01   -1.416E+01   -1.398E+01   -1.381E+01   -1.363E+01   -1.346E+01   -1.329E+01   -1.312E+01   -1.295E+01
    -1.278E+01   -1.261E+01   -1.245E+01   -1.228E+01   -1.212E+01   -1.195E+01   -1.179E+01   -1.162E+01   -1.146E+01   -1.130E+01
    -1.113E+01   -1.097E+01   -1.080E+01   -1.064E+01   -1.048E+01   -1.031E+01   -1.015E+01   -9.980E+00   -9.814E+00   -9.649E+00
    -9.482E+00   -9.316E+00   -9.150E+00   -8.983E+00   -8.816E+00   -8.648E+00   -8.481E+00   -8.313E+00   -8.145E+00   -7.977E+00
    -7.809E+00   -7.640E+00   -7.472E+00   -7.303E+00   -7.133E+00   -6.964E+00   -6.794E+00   -6.625E+00   -6.455E+00   -6.285E+00
    -6.114E+00   -5.944E+00   -5.773E+00   -5.602E+00   -5.431E+00   -5.260E+00   -5.089E+00   -4.917E+00   -4.745E+00   -4.574E+00
    -4.402E+00   -4.229E+00   -4.057E+00   -3.885E+00   -3.712E+00   -3.539E+00   -3.366E+00   -3.193E+00   -3.020E+00   -2.847E+00
    -2.674E+00   -2.501E+00   -2.328E+00   -2.155E+00   -1.982E+00   -1.809E+00   -1.637E+00   -1.465E+00   -1.293E+00   -1.122E+00
    -9.511E-01   -7.807E-01   -6.108E-01   -4.415E-01   -2.727E-01   -1.047E-01    6.271E-02    2.294E-01    3.952E-01    5.602E-01
     7.244E-01    8.876E-01    1.050E+00    1.211E+00    1.371E+00    1.530E+00    1.688E+00    1.845E+00    2.001E+00    2.155E+00
     2.308E+00    2.460E+00    2.610E+00    2.759E+00    2.906E+00    3.052E+00    3.196E+00    3.338E+00    3.479E+00    3.618E+00
     3.756E+00    3.891E+00    4.025E+00    4.157E+00    4.287E+00    4.415E+00    4.542E+00    4.667E+00    4.790E+00    4.911E+00
     5.031E+00    5.150E+00    5.267E+00    5.382E+00    5.496E+00    5.608E+00    5.720E+00    5.829E+00    5.938E+00    6.045E+00
     6.151E+00    6.256E+00    6.360E+00    6.462E+00    6.564E+00    6.664E+00    6.763E+00    6.862E+00    6.959E+00    7.056E+00
     7.152E+00    7.247E+00    7.341E+00    7.434E+00    7.527E+00    7.619E+00    7.710E+00    7.801E+00    7.891E+00    7.980E+00
     8.069E+00    8.158E+00    8.246E+00    8.334E+00    8.421E+00    8.508E+00    8.595E+00    8.682E+00    8.768E+00    8.854E+00
     8.940E+00    9.025E+00    9.111E+00    9.195E+00    9.280E+00    9.364E+00    9.448E+00    9.531E+00    9.614E+00    9.696E+00
     9.778E+00    9.859E+00    9.940E+00    1.002E+01    1.010E+01    1.018E+01    1.026E+01    1.033E+01    1.041E+01    1.049E+01
     1.056E+01    1.064E+01    1.071E+01    1.079E+01    1.086E+01    1.093E+01    1.100E+01    1.107E+01    1.114E+01    1.121E+01
     1.127E+01    1.134E+01    1.140E+01    1.147E+01    1.153E+01    1.159E+01    1.165E+01    1.171E+01    1.177E+01    1.183E+01
     1.189E+01    1.194E+01    1.200E+01    1.205E+01    1.210E+01    1.215E+01    1.220E+01    1.225E+01    1.229E+01    1.234E+01
     1.238E+01    1.243E+01    1.247E+01    1.251E+01    1.255E+01    1.259E+01    1.263E+01    1.267E+01    1.271E+01    1.274E+01
     1.278E+01    1.281E+01    1.285E+01    1.288E+01    1.291E+01    1.294E+01    1.298E+01    1.301E+01    1.304E+01    1.307E+01
     1.309E+01    1.312E+01    1.315E+01    1.318E+01    1.321E+01    1.323E+01    1.326E+01    1.328E+01    1.331E+01    1.333E+01
     1.336E+01    1.338E+01    1.341E+01    1.343E+01    1.345E+01    1.348E+01    1.350E+01    1.353E+01
 Ala      Conc. = 4.25E+01
