 LCModel (Version 6.3-1L) Copyright: S.W. Provencher.          Ref.: Magn. Reson. Med. 30:672-679 (1993).                
 Slice#1 Row#6 Col#3  PD_24_press_2_raw_act
 36 lines in following concentration table = NCONC+1
    Conc.  %SD /Cr+PCr  Metabolite                                         
    0.000 999%   0.000 Ala                                                 
    0.000 999%   0.000 Asp                                                 
 1.52E+03   9%   1.000 Cr                                                  
    0.000 999%   0.000 PCr                                                 
  175.934 145%   0.115 GABA                                                
  196.603 126%   0.129 Glc                                                 
 1.88E+03  38%   1.233 Gln                                                 
 1.75E+03  46%   1.148 Glu                                                 
  774.992   7%   0.508 GPC                                                 
    0.000 999%   0.000 PCh                                                 
  890.364  22%   0.584 GSH                                                 
 3.15E+03  20%   2.066 Ins                                                 
    0.000 999%   0.000 Lac                                                 
 3.54E+03  10%   2.321 NAA                                                 
   54.762 762% 3.6E-02 NAAG                                                
  189.633  31%   0.124 Scyllo                                              
  451.979  81%   0.296 Tau                                                 
  358.303  68%   0.235 -CrCH2                                              
  774.992   7%   0.508 GPC+PCh                                             
 3.59E+03   6%   2.357 NAA+NAAG                                            
 1.52E+03   9%   1.000 Cr+PCr                                              
 3.63E+03  34%   2.381 Glu+Gln                                             
    0.000 999%   0.000 Lip13a                                              
  995.398  52%   0.653 Lip13b                                              
    0.000 999%   0.000 Lip09                                               
 3.16E+03  13%   2.074 MM09                                                
  214.493 103%   0.141 Lip20                                               
 7.94E+03  10%   5.211 MM20                                                
 1.06E+03  32%   0.692 MM12                                                
 4.00E+03   9%   2.623 MM14                                                
    0.000 999%   0.000 MM17                                                
  995.398  52%   0.653 Lip13a+Lip13b                                       
 6.05E+03   8%   3.968 MM14+Lip13a+Lip13b+MM12                             
 3.16E+03  13%   2.074 MM09+Lip09                                          
 8.16E+03  10%   5.352 MM20+Lip20                                          
   6 lines in following misc. output table
  FWHM = 0.069 ppm    S/N =   7                                            
  Data shift =-0.015 ppm                                                   
  Ph:  -4 deg       8.8 deg/ppm                                            
  alphaB,S = 2.2E+00,   1.5E+02                                            
   14 spline knots.   Ns = 8(1)                                            
  (14) 2 infls.   (13) 1 extrs.                                            
  498 points on ppm-axis = NY
      4.000000     3.992357     3.984714     3.977070     3.969427     3.961784     3.954141     3.946497     3.938854     3.931211
      3.923568     3.915925     3.908281     3.900638     3.892995     3.885352     3.877708     3.870065     3.862422     3.854779
      3.847136     3.839492     3.831849     3.824206     3.816563     3.808919     3.801276     3.793633     3.785990     3.778347
      3.770703     3.763060     3.755417     3.747774     3.740130     3.732487     3.724844     3.717201     3.709558     3.701914
      3.694271     3.686628     3.678985     3.671341     3.663698     3.656055     3.648412     3.640769     3.633125     3.625482
      3.617839     3.610196     3.602552     3.594909     3.587266     3.579623     3.571980     3.564336     3.556693     3.549050
      3.541407     3.533763     3.526120     3.518477     3.510834     3.503191     3.495547     3.487904     3.480261     3.472618
      3.464974     3.457331     3.449688     3.442045     3.434402     3.426758     3.419115     3.411472     3.403829     3.396185
      3.388542     3.380899     3.373256     3.365613     3.357969     3.350326     3.342683     3.335040     3.327396     3.319753
      3.312110     3.304467     3.296824     3.289180     3.281537     3.273894     3.266251     3.258607     3.250964     3.243321
      3.235678     3.228034     3.220391     3.212748     3.205105     3.197462     3.189818     3.182175     3.174532     3.166889
      3.159245     3.151602     3.143959     3.136316     3.128673     3.121029     3.113386     3.105743     3.098100     3.090456
      3.082813     3.075170     3.067527     3.059884     3.052240     3.044597     3.036954     3.029311     3.021667     3.014024
      3.006381     2.998738     2.991095     2.983451     2.975808     2.968165     2.960522     2.952878     2.945235     2.937592
      2.929949     2.922306     2.914662     2.907019     2.899376     2.891733     2.884089     2.876446     2.868803     2.861160
      2.853517     2.845873     2.838230     2.830587     2.822944     2.815300     2.807657     2.800014     2.792371     2.784728
      2.777084     2.769441     2.761798     2.754155     2.746511     2.738868     2.731225     2.723582     2.715939     2.708295
      2.700652     2.693009     2.685366     2.677722     2.670079     2.662436     2.654793     2.647150     2.639506     2.631863
      2.624220     2.616577     2.608933     2.601290     2.593647     2.586004     2.578361     2.570717     2.563074     2.555431
      2.547788     2.540144     2.532501     2.524858     2.517215     2.509572     2.501928     2.494285     2.486642     2.478999
      2.471355     2.463712     2.456069     2.448426     2.440783     2.433139     2.425496     2.417853     2.410210     2.402566
      2.394923     2.387280     2.379637     2.371994     2.364350     2.356707     2.349064     2.341421     2.333777     2.326134
      2.318491     2.310848     2.303205     2.295561     2.287918     2.280275     2.272632     2.264988     2.257345     2.249702
      2.242059     2.234416     2.226772     2.219129     2.211486     2.203843     2.196199     2.188556     2.180913     2.173270
      2.165627     2.157983     2.150340     2.142697     2.135054     2.127410     2.119767     2.112124     2.104481     2.096838
      2.089194     2.081551     2.073908     2.066265     2.058621     2.050978     2.043335     2.035692     2.028049     2.020405
      2.012762     2.005119     1.997476     1.989833     1.982190     1.974546     1.966903     1.959260     1.951617     1.943974
      1.936331     1.928688     1.921045     1.913402     1.905759     1.898115     1.890472     1.882829     1.875186     1.867543
      1.859900     1.852257     1.844614     1.836971     1.829327     1.821684     1.814041     1.806398     1.798755     1.791112
      1.783469     1.775826     1.768183     1.760540     1.752896     1.745253     1.737610     1.729967     1.722324     1.714681
      1.707038     1.699395     1.691752     1.684108     1.676465     1.668822     1.661179     1.653536     1.645893     1.638250
      1.630607     1.622964     1.615321     1.607677     1.600034     1.592391     1.584748     1.577105     1.569462     1.561819
      1.554176     1.546533     1.538890     1.531246     1.523603     1.515960     1.508317     1.500674     1.493031     1.485388
      1.477745     1.470102     1.462458     1.454815     1.447172     1.439529     1.431886     1.424243     1.416600     1.408957
      1.401314     1.393671     1.386027     1.378384     1.370741     1.363098     1.355455     1.347812     1.340169     1.332526
      1.324883     1.317240     1.309596     1.301953     1.294310     1.286667     1.279024     1.271381     1.263738     1.256095
      1.248452     1.240808     1.233165     1.225522     1.217879     1.210236     1.202593     1.194950     1.187307     1.179664
      1.172021     1.164377     1.156734     1.149091     1.141448     1.133805     1.126162     1.118519     1.110876     1.103233
      1.095590     1.087946     1.080303     1.072660     1.065017     1.057374     1.049731     1.042088     1.034445     1.026802
      1.019158     1.011515     1.003872     0.996229     0.988586     0.980943     0.973300     0.965657     0.958014     0.950371
      0.942727     0.935084     0.927441     0.919798     0.912155     0.904512     0.896869     0.889226     0.881583     0.873940
      0.866296     0.858653     0.851010     0.843367     0.835724     0.828081     0.820438     0.812795     0.805152     0.797508
      0.789865     0.782222     0.774579     0.766936     0.759293     0.751650     0.744007     0.736364     0.728721     0.721077
      0.713434     0.705791     0.698148     0.690505     0.682862     0.675219     0.667576     0.659933     0.652290     0.644646
      0.637003     0.629360     0.621717     0.614074     0.606431     0.598788     0.591145     0.583502     0.575858     0.568215
      0.560572     0.552929     0.545286     0.537643     0.530000     0.522357     0.514714     0.507071     0.499427     0.491784
      0.484141     0.476498     0.468855     0.461212     0.453569     0.445925     0.438282     0.430639     0.422996     0.415353
      0.407710     0.400067     0.392424     0.384780     0.377137     0.369494     0.361851     0.354208     0.346565     0.338922
      0.331278     0.323635     0.315992     0.308349     0.300706     0.293063     0.285420     0.277777     0.270133     0.262490
      0.254847     0.247204     0.239561     0.231918     0.224275     0.216631     0.208988     0.201345
 NY phased data points follow
   9.32509E+00  1.03872E+01  1.98341E+01  1.99732E+01  1.90077E+01  1.49372E+01  1.41435E+01  2.53474E+01  3.23061E+01  2.00513E+01
   2.60443E+01  3.39071E+01  4.48287E+01  3.84841E+01  2.69191E+01  4.09884E+01  3.15246E+01  2.46684E+01  2.20410E+01  2.63105E+01
   1.18453E+01  2.58045E+01  2.46124E+01  2.42708E+01  2.26462E+01  2.29100E+01  1.37888E+01  3.59053E+01  2.15027E+01  3.32972E+01
   2.68503E+01  2.92441E+01  2.70790E+01  2.80656E+01  2.43439E+01  2.53602E+01  1.56925E+01  2.14929E+01  2.46254E+01  2.67318E+01
   2.03344E+01  2.51095E+01  2.51096E+01  2.76224E+01  2.89455E+01  3.21043E+01  2.17069E+01  2.68804E+01  3.08298E+01  3.54025E+01
   1.88123E+01  3.95376E+01  2.90096E+01  2.75766E+01  2.62617E+01  3.02799E+01  1.81385E+01  3.45059E+01  2.12410E+01  1.17876E+01
   1.92663E+01  2.19524E+01  1.80969E+01  2.42575E+01  1.88348E+01  4.96661E+00  1.35633E+01  9.55094E+00  6.55254E+00  1.73826E+01
   1.63806E+01  5.45260E+00  1.54255E+01  1.78251E+00  1.34141E+01  1.09237E+01  1.85445E+01  6.84147E+00  1.33413E+01  1.67329E+01
   1.57402E+01  1.24046E+01  1.65995E+01  9.76875E+00  1.50296E+01  2.01769E+01  7.75167E+00  2.36069E+01  1.11357E+01  1.68574E+01
   1.23699E+01  1.36998E+01  1.29703E+01  1.32765E+01  1.93563E+01  1.78189E+01  1.69272E+01  2.03572E+01  3.11523E+01  3.52013E+01
   4.36679E+01  4.50200E+01  5.62615E+01  7.01184E+01  5.75358E+01  6.50264E+01  5.45987E+01  5.55941E+01  3.99114E+01  3.45722E+01
   3.46968E+01  1.33893E+01  1.69206E+01  1.32622E+01  1.09205E+01  1.89570E+01  3.42895E+00  1.85559E+01 -4.81131E+00  8.54792E+00
   8.32676E+00  1.63818E+01  2.40466E+01  1.78113E+01  2.11766E+01  3.74174E+01  4.07386E+01  4.09681E+01  5.23423E+01  6.48898E+01
   5.49788E+01  5.23711E+01  5.53989E+01  3.41681E+01  2.36108E+01  1.67186E+01  2.04488E+01  2.14336E+01  1.81389E+01  1.84374E+01
   8.77415E+00  1.37797E+01  1.70447E+01  9.41434E+00  2.18453E+01  5.54550E+00  8.03035E+00  8.97350E+00  7.93013E+00  9.35793E+00
   7.68156E+00  8.01128E+00  1.54359E+01  3.27422E+00  2.84749E+00  1.68414E+01 -2.77001E-01  3.94373E+00  3.56105E+00  7.87240E+00
   9.35997E+00 -7.95891E-01  1.20431E+01 -4.61398E-01 -1.60086E+00  5.77069E-01 -4.14024E+00 -3.68532E+00 -3.56436E+00 -5.28840E+00
  -1.24084E+01 -1.96945E+01 -1.89680E+01 -9.31094E+00 -1.38482E+01 -1.83790E+01 -1.89505E+01 -2.00959E+01 -1.33463E+01 -2.72025E+01
  -1.95881E+01 -8.47934E+00 -1.94594E+00 -1.18410E+01 -8.39067E+00 -1.01638E+01 -1.50524E+01  8.96367E+00 -3.90183E+00 -3.92575E+00
   5.04931E-02  8.30420E+00 -6.06922E+00 -2.55748E+00 -1.22709E+01  2.51158E+00 -3.76548E+00 -6.87304E+00 -4.70332E-01  9.61246E-01
  -2.20757E+00 -9.94602E-02  2.83257E+00  2.79578E+00  9.09194E+00  1.00330E+01  9.33939E+00  3.08647E+00 -2.57630E+00 -7.91683E+00
   4.22235E-01  2.66046E+00  3.46396E+00 -2.37396E+00  1.08423E+01  2.27407E+01  8.97801E+00  1.82880E+01  8.56515E+00  1.10428E+01
   1.93750E+01  1.13449E+01 -4.92217E+00  1.98925E+00  1.21397E+01  1.40768E+01  4.73014E+00  1.52246E+01  2.56445E+01  1.78067E+01
   2.78824E+01  1.80731E+01  1.36813E+01  1.16061E+01  2.23416E+01  2.90006E+01  2.87755E+01  2.70705E+01  2.16414E+01  2.33830E+01
   2.46291E+01  1.93592E+01  1.91623E+01  2.45890E+01  1.57249E+01  2.08651E+01  1.91946E+01  3.44937E+01  2.73925E+01  3.56075E+01
   3.49116E+01  3.70156E+01  3.35559E+01  5.07823E+01  5.15766E+01  7.85936E+01  9.11902E+01  9.83942E+01  1.03784E+02  1.18716E+02
   1.20531E+02  1.21759E+02  1.16776E+02  1.08670E+02  7.40277E+01  4.21124E+01  2.74918E+01  2.28374E+01  1.40289E+01  1.24662E+01
   1.08336E+01  1.40716E+01  1.23334E+01  1.29413E+01  2.48802E+01  5.73616E+00  1.07974E+01  6.78206E+00  2.93985E+00  5.42127E+00
   1.83101E+01  6.44089E+00  7.36631E+00 -1.11690E+00  3.90698E+00  1.03742E+00  1.07079E+01 -2.85079E+00  3.44943E+00  8.06876E+00
   4.07424E-01  3.22401E+00  3.01751E+00  7.38230E+00  8.19553E+00  4.63071E+00 -4.07209E+00 -9.85999E+00  2.28472E-01 -1.12679E+01
  -4.70172E+00 -8.65937E+00 -9.05868E+00 -1.14381E+01 -1.02919E+01 -2.01132E+01 -1.63702E+01 -2.94095E+01 -2.56337E+01 -1.98043E+01
  -2.46832E+01 -2.13472E+01 -3.86314E+01 -2.67508E+01 -3.04457E+01 -2.13781E+01 -2.49726E+01 -1.67109E+01 -7.52902E+00  1.23074E-01
   7.08747E+00  8.98098E+00  1.02672E+01  1.09372E+01  1.62651E+01  2.05199E+01  2.63761E+01  2.96850E+01  2.44657E+01  3.30806E+01
   1.41222E+01  2.83620E+01  2.71764E+01  2.20582E+01  2.47171E+01  1.60195E+01  2.78169E+01  2.82897E+01  1.91456E+01  2.58621E+01
   3.75785E+01  1.85988E+01  1.79746E+01  1.71598E+01  2.11917E+01  1.51306E+01  2.30070E+01  1.82587E+01  1.89400E+01  2.40655E+01
   2.29262E+01  1.31021E+01  1.16632E+01  1.84836E+01  8.83778E+00  8.24476E+00  8.01390E+00  2.13939E+01  1.01624E+01  2.60530E+01
   5.18600E+00  1.26478E+01 -2.51104E+00  3.12505E+00  6.82654E+00  9.20767E+00  1.89005E+01  7.61009E+00  1.37838E+00  2.70389E+00
   1.03918E+01  1.23023E+00  1.01689E+00 -2.42832E+00 -6.68134E+00  1.14133E+01 -3.95080E+00  8.89926E+00  7.70369E+00  7.16118E+00
   5.30998E+00 -1.22262E+00 -2.05516E+00  2.18233E+00  1.17132E+01  5.22026E+00  1.57301E+01  3.61777E+00  1.73104E+01  1.35920E+01
   9.92115E+00  7.96817E+00  7.15994E+00 -1.48884E+00  1.11190E+01  1.24949E+01  8.80850E+00  1.34260E+01  8.21365E+00  6.19710E+00
   8.00187E+00  1.03412E+01  2.65586E+01  1.10721E+01  1.66349E+01  1.23399E+01  1.63520E+01  2.28860E+01  1.23340E+01  9.31859E+00
   1.62412E+01  1.55833E+01  1.24626E+01  7.11595E+00 -1.25691E+00  5.95747E+00  8.40198E+00  4.92569E+00  6.33021E-01  4.27409E+00
   4.88908E+00  3.82929E-01  9.37022E-01  1.21657E+01  3.08446E+00  2.82091E+00 -8.14201E-01 -1.84541E+00 -3.33101E+00 -1.20308E+00
  -4.62267E-01  1.75116E+00 -6.62329E-01 -7.28279E+00 -5.32946E+00 -1.05277E+01 -4.95619E+00  8.42771E+00 -5.81071E+00  1.43409E+00
  -2.79255E+00  5.91147E-01 -5.03837E+00 -2.82345E+00 -3.27982E+00 -1.02762E+01 -1.85269E+00 -1.45402E+01  8.53705E+00  3.17263E-01
   8.98820E-01 -9.66009E-01 -1.40422E+00 -1.12393E+01  1.89614E+00  4.58900E-01 -6.47597E+00 -4.34948E+00 -2.61509E+00 -1.35057E+00
  -8.76225E-01 -1.69496E+00 -1.35824E+00 -6.05144E+00  1.52949E+00  1.19118E+01  1.00521E+00  4.40539E+00  8.31064E-01  2.11272E+00
  -7.42391E+00 -3.43296E-01 -6.44411E+00  6.97626E+00  1.39518E+00 -8.03870E+00 -1.84015E+00  2.11190E-01 -3.45575E+00 -4.24894E+00
  -2.52034E+00  6.53368E+00  3.91510E+00 -8.49526E+00  3.68910E+00 -2.30706E+00 -4.38681E+00  1.52759E+00 -7.79474E+00  1.65699E+00
   2.58118E+00  9.24460E+00 -9.86116E+00 -6.89970E+00  4.56190E+00 -8.99412E+00  5.10315E+00  6.78249E-01
 NY points of the fit to the data follow
   1.84173E+01  1.66677E+01  1.51509E+01  1.41239E+01  1.40708E+01  1.54254E+01  1.78812E+01  2.09787E+01  2.43089E+01  2.76610E+01
   3.10684E+01  3.45145E+01  3.76529E+01  3.98811E+01  4.05855E+01  3.92854E+01  3.59311E+01  3.13086E+01  2.66750E+01  2.28687E+01
   2.00213E+01  1.81119E+01  1.74652E+01  1.79531E+01  1.92474E+01  2.11381E+01  2.33665E+01  2.58129E+01  2.83760E+01  3.08525E+01
   3.29108E+01  3.42011E+01  3.43398E+01  3.29304E+01  2.99580E+01  2.61022E+01  2.22137E+01  1.88636E+01  1.64402E+01  1.54414E+01
   1.61463E+01  1.80689E+01  2.06263E+01  2.33222E+01  2.57985E+01  2.79497E+01  2.97157E+01  3.08847E+01  3.11222E+01  3.01663E+01
   2.79055E+01  2.45219E+01  2.06622E+01  1.72857E+01  1.51577E+01  1.43409E+01  1.44566E+01  1.51336E+01  1.60689E+01  1.69541E+01
   1.75365E+01  1.77264E+01  1.74606E+01  1.67146E+01  1.56649E+01  1.46001E+01  1.38279E+01  1.35871E+01  1.39112E+01  1.46422E+01
   1.55502E+01  1.63866E+01  1.69631E+01  1.71860E+01  1.70905E+01  1.67187E+01  1.60957E+01  1.53379E+01  1.47217E+01  1.44279E+01
   1.43267E+01  1.43133E+01  1.43697E+01  1.44398E+01  1.44929E+01  1.44775E+01  1.42423E+01  1.36196E+01  1.26059E+01  1.13073E+01
   9.88406E+00  8.66635E+00  7.98079E+00  7.93499E+00  8.50990E+00  1.03850E+01  1.46967E+01  2.09589E+01  2.83371E+01  3.60888E+01
   4.36340E+01  5.08150E+01  5.75248E+01  6.30247E+01  6.60559E+01  6.55525E+01  6.09254E+01  5.23022E+01  4.11420E+01  3.01200E+01
   2.13943E+01  1.54853E+01  1.17699E+01  9.70038E+00  8.95169E+00  8.69712E+00  8.61137E+00  8.64049E+00  8.81701E+00  9.35736E+00
   1.11590E+01  1.47828E+01  1.97512E+01  2.55493E+01  3.16563E+01  3.77116E+01  4.35598E+01  4.88269E+01  5.27102E+01  5.42565E+01
   5.28193E+01  4.82439E+01  4.09519E+01  3.23192E+01  2.42405E+01  1.79108E+01  1.34350E+01  1.04425E+01  8.87027E+00  8.52996E+00
   8.86728E+00  9.49572E+00  1.00596E+01  1.03067E+01  1.01118E+01  9.48083E+00  8.57707E+00  7.59870E+00  6.68831E+00  5.92213E+00
   5.29569E+00  4.79147E+00  4.33238E+00  3.81068E+00  3.24609E+00  2.69480E+00  2.23950E+00  1.93011E+00  1.67375E+00  1.38590E+00
   1.03217E+00  6.47563E-01  3.09500E-01  7.83665E-02 -5.47302E-02 -1.85675E-01 -4.66028E-01 -1.03977E+00 -1.95274E+00 -2.99592E+00
  -3.91603E+00 -4.61017E+00 -5.10682E+00 -5.54664E+00 -5.95081E+00 -6.26956E+00 -6.46304E+00 -6.51709E+00 -6.48945E+00 -6.46426E+00
  -6.41408E+00 -6.32454E+00 -6.13454E+00 -5.70246E+00 -4.91796E+00 -3.81793E+00 -2.56026E+00 -1.20613E+00  1.93774E-01  1.50684E+00
   2.52340E+00  3.06536E+00  3.00144E+00  2.38645E+00  1.49368E+00  6.84241E-01  2.51908E-01  4.50684E-01  1.43111E+00  3.05442E+00
   5.05692E+00  7.05922E+00  8.44278E+00  8.83586E+00  8.12617E+00  6.34230E+00  3.80415E+00  9.50679E-01 -1.62980E+00 -3.41181E+00
  -4.04965E+00 -3.35530E+00 -1.39621E+00  1.54475E+00  4.86183E+00  7.76418E+00  9.64879E+00  1.03183E+01  9.87195E+00  8.58962E+00
   6.82048E+00  5.19968E+00  4.31909E+00  4.36183E+00  5.27635E+00  6.90181E+00  9.00734E+00  1.11161E+01  1.26729E+01  1.35538E+01
   1.39696E+01  1.42065E+01  1.45336E+01  1.51642E+01  1.61732E+01  1.74030E+01  1.86922E+01  1.98828E+01  2.08560E+01  2.16183E+01
   2.21905E+01  2.24500E+01  2.23980E+01  2.23173E+01  2.24935E+01  2.30866E+01  2.41629E+01  2.57701E+01  2.77266E+01  2.97062E+01
   3.16278E+01  3.44391E+01  4.07588E+01  5.04809E+01  6.22716E+01  7.49026E+01  8.71085E+01  9.82914E+01  1.08387E+02  1.16644E+02
   1.21220E+02  1.20353E+02  1.12989E+02  9.89241E+01  7.97332E+01  5.94578E+01  4.23131E+01  2.99669E+01  2.16789E+01  1.62799E+01
   1.34533E+01  1.18757E+01  1.06882E+01  9.71557E+00  8.89548E+00  8.16244E+00  7.44563E+00  6.70370E+00  5.91378E+00  5.08356E+00
   4.24502E+00  3.44123E+00  2.70545E+00  2.06070E+00  1.51782E+00  1.06988E+00  6.96956E-01  3.76970E-01  9.04094E-02 -1.75985E-01
  -4.29687E-01 -6.73471E-01 -9.03866E-01 -1.11851E+00 -1.31757E+00 -1.49972E+00 -1.66329E+00 -1.80867E+00 -1.93699E+00 -2.04863E+00
  -2.14430E+00 -2.22533E+00 -2.29221E+00 -2.34422E+00 -2.38119E+00 -2.40166E+00 -2.40306E+00 -2.38136E+00 -2.33131E+00 -2.24613E+00
  -2.11775E+00 -1.93671E+00 -1.69250E+00 -1.37329E+00 -9.66583E-01 -4.59330E-01  1.61546E-01  9.08664E-01  1.79315E+00  2.82389E+00
   4.00625E+00  5.34143E+00  6.82533E+00  8.44801E+00  1.01928E+01  1.20362E+01  1.39478E+01  1.58909E+01  1.78234E+01  1.96995E+01
   2.14710E+01  2.30897E+01  2.45093E+01  2.56885E+01  2.65925E+01  2.71958E+01  2.74829E+01  2.74506E+01  2.71082E+01  2.64777E+01
   2.55939E+01  2.45028E+01  2.32607E+01  2.19313E+01  2.05826E+01  1.92834E+01  1.80971E+01  1.70766E+01  1.62582E+01  1.56558E+01
   1.52579E+01  1.50272E+01  1.49038E+01  1.48128E+01  1.46746E+01  1.44173E+01  1.39876E+01  1.33590E+01  1.25346E+01  1.15451E+01
   1.04420E+01  9.28757E+00  8.14447E+00  7.06705E+00  6.09507E+00  5.25170E+00  4.54411E+00  3.96706E+00  3.50683E+00  3.14579E+00
   2.86579E+00  2.65088E+00  2.48850E+00  2.37016E+00  2.29099E+00  2.24936E+00  2.24593E+00  2.28326E+00  2.36492E+00  2.49528E+00
   2.67877E+00  2.91980E+00  3.22229E+00  3.58968E+00  4.02445E+00  4.52814E+00  5.10081E+00  5.74101E+00  6.44542E+00  7.20880E+00
   8.02362E+00  8.88018E+00  9.76630E+00  1.06677E+01  1.15679E+01  1.24490E+01  1.32920E+01  1.40770E+01  1.47846E+01  1.53961E+01
   1.58946E+01  1.62658E+01  1.64983E+01  1.65846E+01  1.65210E+01  1.63082E+01  1.59510E+01  1.54582E+01  1.48420E+01  1.41173E+01
   1.33015E+01  1.24132E+01  1.14714E+01  1.04954E+01  9.50299E+00  8.51106E+00  7.53429E+00  6.58539E+00  5.67461E+00  4.80996E+00
   3.99702E+00  3.23940E+00  2.53874E+00  1.89523E+00  1.30768E+00  7.73967E-01  2.91119E-01 -1.44207E-01 -5.35722E-01 -8.87112E-01
  -1.20215E+00 -1.48440E+00 -1.73733E+00 -1.96405E+00 -2.16748E+00 -2.35016E+00 -2.51449E+00 -2.66251E+00 -2.79613E+00 -2.91692E+00
  -3.02634E+00 -3.12557E+00 -3.21578E+00 -3.29788E+00 -3.37279E+00 -3.44117E+00 -3.50370E+00 -3.56091E+00 -3.61336E+00 -3.66146E+00
  -3.70567E+00 -3.74625E+00 -3.78356E+00 -3.81782E+00 -3.84936E+00 -3.87836E+00 -3.90505E+00 -3.92955E+00 -3.95207E+00 -3.97271E+00
  -3.99168E+00 -4.00905E+00 -4.02497E+00 -4.03947E+00 -4.05269E+00 -4.06469E+00 -4.07561E+00 -4.08546E+00 -4.09434E+00 -4.10225E+00
  -4.10931E+00 -4.11553E+00 -4.12102E+00 -4.12576E+00 -4.12981E+00 -4.13316E+00 -4.13593E+00 -4.13809E+00 -4.13973E+00 -4.14080E+00
  -4.14138E+00 -4.14144E+00 -4.14107E+00 -4.14025E+00 -4.13903E+00 -4.13736E+00 -4.13531E+00 -4.13284E+00 -4.13004E+00 -4.12686E+00
  -4.12334E+00 -4.11942E+00 -4.11518E+00 -4.11056E+00 -4.10563E+00 -4.10032E+00 -4.09466E+00 -4.08857E+00
 NY background values follow
     9.087E+00    9.033E+00    8.979E+00    8.925E+00    8.870E+00    8.816E+00    8.762E+00    8.708E+00    8.654E+00    8.600E+00
     8.545E+00    8.491E+00    8.437E+00    8.383E+00    8.329E+00    8.274E+00    8.220E+00    8.166E+00    8.112E+00    8.058E+00
     8.003E+00    7.949E+00    7.895E+00    7.841E+00    7.787E+00    7.732E+00    7.678E+00    7.624E+00    7.570E+00    7.515E+00
     7.461E+00    7.407E+00    7.353E+00    7.298E+00    7.244E+00    7.190E+00    7.136E+00    7.081E+00    7.027E+00    6.973E+00
     6.918E+00    6.864E+00    6.810E+00    6.755E+00    6.701E+00    6.646E+00    6.592E+00    6.538E+00    6.483E+00    6.429E+00
     6.374E+00    6.320E+00    6.266E+00    6.211E+00    6.157E+00    6.102E+00    6.048E+00    5.993E+00    5.939E+00    5.884E+00
     5.830E+00    5.775E+00    5.721E+00    5.666E+00    5.612E+00    5.557E+00    5.503E+00    5.448E+00    5.394E+00    5.340E+00
     5.285E+00    5.231E+00    5.176E+00    5.122E+00    5.067E+00    5.013E+00    4.958E+00    4.904E+00    4.850E+00    4.795E+00
     4.741E+00    4.686E+00    4.632E+00    4.578E+00    4.523E+00    4.469E+00    4.415E+00    4.360E+00    4.306E+00    4.252E+00
     4.198E+00    4.143E+00    4.089E+00    4.035E+00    3.981E+00    3.927E+00    3.873E+00    3.818E+00    3.764E+00    3.710E+00
     3.656E+00    3.602E+00    3.548E+00    3.494E+00    3.441E+00    3.387E+00    3.333E+00    3.279E+00    3.225E+00    3.172E+00
     3.118E+00    3.064E+00    3.011E+00    2.957E+00    2.903E+00    2.850E+00    2.797E+00    2.743E+00    2.690E+00    2.636E+00
     2.583E+00    2.530E+00    2.477E+00    2.424E+00    2.371E+00    2.318E+00    2.265E+00    2.212E+00    2.159E+00    2.106E+00
     2.054E+00    2.001E+00    1.948E+00    1.896E+00    1.843E+00    1.791E+00    1.739E+00    1.686E+00    1.634E+00    1.582E+00
     1.530E+00    1.478E+00    1.426E+00    1.374E+00    1.322E+00    1.271E+00    1.219E+00    1.168E+00    1.116E+00    1.065E+00
     1.014E+00    9.629E-01    9.119E-01    8.611E-01    8.103E-01    7.597E-01    7.092E-01    6.588E-01    6.085E-01    5.583E-01
     5.083E-01    4.584E-01    4.086E-01    3.590E-01    3.095E-01    2.601E-01    2.109E-01    1.618E-01    1.129E-01    6.413E-02
     1.550E-02   -3.298E-02   -8.130E-02   -1.295E-01   -1.775E-01   -2.253E-01   -2.730E-01   -3.205E-01   -3.678E-01   -4.150E-01
    -4.619E-01   -5.087E-01   -5.553E-01   -6.018E-01   -6.480E-01   -6.941E-01   -7.400E-01   -7.857E-01   -8.312E-01   -8.766E-01
    -9.217E-01   -9.667E-01   -1.012E+00   -1.056E+00   -1.101E+00   -1.145E+00   -1.189E+00   -1.233E+00   -1.276E+00   -1.320E+00
    -1.363E+00   -1.406E+00   -1.449E+00   -1.492E+00   -1.535E+00   -1.577E+00   -1.619E+00   -1.661E+00   -1.703E+00   -1.745E+00
    -1.786E+00   -1.827E+00   -1.868E+00   -1.909E+00   -1.950E+00   -1.990E+00   -2.031E+00   -2.071E+00   -2.111E+00   -2.150E+00
    -2.190E+00   -2.229E+00   -2.268E+00   -2.307E+00   -2.346E+00   -2.385E+00   -2.423E+00   -2.461E+00   -2.499E+00   -2.537E+00
    -2.575E+00   -2.612E+00   -2.649E+00   -2.686E+00   -2.723E+00   -2.760E+00   -2.796E+00   -2.832E+00   -2.868E+00   -2.904E+00
    -2.940E+00   -2.975E+00   -3.010E+00   -3.045E+00   -3.080E+00   -3.114E+00   -3.148E+00   -3.182E+00   -3.216E+00   -3.250E+00
    -3.283E+00   -3.316E+00   -3.349E+00   -3.381E+00   -3.414E+00   -3.446E+00   -3.478E+00   -3.510E+00   -3.541E+00   -3.572E+00
    -3.603E+00   -3.634E+00   -3.664E+00   -3.694E+00   -3.724E+00   -3.754E+00   -3.783E+00   -3.813E+00   -3.841E+00   -3.870E+00
    -3.898E+00   -3.927E+00   -3.954E+00   -3.982E+00   -4.009E+00   -4.036E+00   -4.063E+00   -4.090E+00   -4.116E+00   -4.142E+00
    -4.168E+00   -4.193E+00   -4.218E+00   -4.243E+00   -4.267E+00   -4.292E+00   -4.316E+00   -4.339E+00   -4.363E+00   -4.386E+00
    -4.409E+00   -4.431E+00   -4.454E+00   -4.476E+00   -4.497E+00   -4.519E+00   -4.540E+00   -4.561E+00   -4.581E+00   -4.601E+00
    -4.621E+00   -4.641E+00   -4.660E+00   -4.679E+00   -4.698E+00   -4.716E+00   -4.734E+00   -4.752E+00   -4.769E+00   -4.787E+00
    -4.803E+00   -4.820E+00   -4.836E+00   -4.852E+00   -4.867E+00   -4.883E+00   -4.897E+00   -4.912E+00   -4.926E+00   -4.940E+00
    -4.954E+00   -4.967E+00   -4.980E+00   -4.993E+00   -5.005E+00   -5.017E+00   -5.029E+00   -5.040E+00   -5.052E+00   -5.062E+00
    -5.073E+00   -5.083E+00   -5.093E+00   -5.103E+00   -5.112E+00   -5.121E+00   -5.130E+00   -5.139E+00   -5.147E+00   -5.155E+00
    -5.163E+00   -5.170E+00   -5.178E+00   -5.185E+00   -5.191E+00   -5.198E+00   -5.204E+00   -5.210E+00   -5.216E+00   -5.221E+00
    -5.226E+00   -5.231E+00   -5.236E+00   -5.240E+00   -5.244E+00   -5.248E+00   -5.252E+00   -5.256E+00   -5.259E+00   -5.262E+00
    -5.265E+00   -5.268E+00   -5.270E+00   -5.272E+00   -5.274E+00   -5.276E+00   -5.277E+00   -5.279E+00   -5.280E+00   -5.281E+00
    -5.282E+00   -5.282E+00   -5.282E+00   -5.283E+00   -5.282E+00   -5.282E+00   -5.282E+00   -5.281E+00   -5.280E+00   -5.279E+00
    -5.278E+00   -5.276E+00   -5.275E+00   -5.273E+00   -5.271E+00   -5.269E+00   -5.267E+00   -5.264E+00   -5.261E+00   -5.258E+00
    -5.255E+00   -5.252E+00   -5.249E+00   -5.245E+00   -5.241E+00   -5.238E+00   -5.233E+00   -5.229E+00   -5.225E+00   -5.220E+00
    -5.216E+00   -5.211E+00   -5.206E+00   -5.201E+00   -5.195E+00   -5.190E+00   -5.184E+00   -5.178E+00   -5.172E+00   -5.166E+00
    -5.160E+00   -5.154E+00   -5.147E+00   -5.141E+00   -5.134E+00   -5.127E+00   -5.120E+00   -5.113E+00   -5.106E+00   -5.098E+00
    -5.091E+00   -5.083E+00   -5.075E+00   -5.068E+00   -5.060E+00   -5.052E+00   -5.043E+00   -5.035E+00   -5.027E+00   -5.018E+00
    -5.010E+00   -5.001E+00   -4.992E+00   -4.983E+00   -4.975E+00   -4.966E+00   -4.956E+00   -4.947E+00   -4.938E+00   -4.929E+00
    -4.919E+00   -4.910E+00   -4.900E+00   -4.891E+00   -4.881E+00   -4.871E+00   -4.861E+00   -4.851E+00   -4.842E+00   -4.832E+00
    -4.822E+00   -4.811E+00   -4.801E+00   -4.791E+00   -4.781E+00   -4.771E+00   -4.760E+00   -4.750E+00   -4.740E+00   -4.729E+00
    -4.719E+00   -4.708E+00   -4.698E+00   -4.687E+00   -4.677E+00   -4.666E+00   -4.655E+00   -4.645E+00   -4.634E+00   -4.623E+00
    -4.612E+00   -4.602E+00   -4.591E+00   -4.580E+00   -4.569E+00   -4.558E+00   -4.548E+00   -4.537E+00   -4.526E+00   -4.515E+00
    -4.504E+00   -4.493E+00   -4.482E+00   -4.471E+00   -4.460E+00   -4.449E+00   -4.438E+00   -4.427E+00   -4.416E+00   -4.405E+00
    -4.394E+00   -4.383E+00   -4.372E+00   -4.361E+00   -4.350E+00   -4.339E+00   -4.328E+00   -4.317E+00
 Cr       Conc. = 1.52E+03
