 LCModel (Version 6.3-1L) Copyright: S.W. Provencher.          Ref.: Magn. Reson. Med. 30:672-679 (1993).                
 Slice#3 Row#3 Col#1  PD_24_press_2_raw_act
 36 lines in following concentration table = NCONC+1
    Conc.  %SD /Cr+PCr  Metabolite                                         
    0.000 999%   0.000 Ala                                                 
   39.703  55%   0.317 Asp                                                 
  125.100  74%   1.000 Cr                                                  
    0.000 999%   0.000 PCr                                                 
   24.580  54%   0.196 GABA                                                
   24.441  54%   0.195 Glc                                                 
 3.65E+03  25%  29.216 Gln                                                 
 5.10E+03  20%  40.777 Glu                                                 
  110.132  33%   0.880 GPC                                                 
    0.000 999%   0.000 PCh                                                 
  133.331 119%   1.066 GSH                                                 
 1.57E+03  33%  12.545 Ins                                                 
 1.30E+03  31%  10.402 Lac                                                 
    0.000 999%   0.000 NAA                                                 
  345.186  33%   2.759 NAAG                                                
    8.897  50% 7.1E-02 Scyllo                                              
   41.211  53%   0.329 Tau                                                 
   20.087 163%   0.161 -CrCH2                                              
  110.132  33%   0.880 GPC+PCh                                             
  345.186  33%   2.759 NAA+NAAG                                            
  125.100  74%   1.000 Cr+PCr                                              
 8.76E+03  20%  69.993 Glu+Gln                                             
  599.993  74%   4.796 Lip13a                                              
    0.000 999%   0.000 Lip13b                                              
  146.279  85%   1.169 Lip09                                               
  773.616  30%   6.184 MM09                                                
   90.899  79%   0.727 Lip20                                               
 1.23E+03  30%   9.871 MM20                                                
  227.638  39%   1.820 MM12                                                
 1.40E+03  15%  11.203+MM14                                                
  142.304 123%   1.138 MM17                                                
  599.993  74%   4.796 Lip13a+Lip13b                                       
 2.23E+03  22%  17.818 MM14+Lip13a+Lip13b+MM12                             
  919.894  27%   7.353 MM09+Lip09                                          
 1.33E+03  28%  10.598 MM20+Lip20                                          
   6 lines in following misc. output table
  FWHM = 0.092 ppm    S/N =   1                                            
  Data shift =-0.031 ppm                                                   
  Ph: -75 deg      62.0 deg/ppm                                            
  alphaB,S = 4.4E-01,   1.8E+02                                            
   14 spline knots.   Ns =10(1)                                            
   2 inflections.     1 extrema                                            
  498 points on ppm-axis = NY
      4.000000     3.992357     3.984714     3.977070     3.969427     3.961784     3.954141     3.946497     3.938854     3.931211
      3.923568     3.915925     3.908281     3.900638     3.892995     3.885352     3.877708     3.870065     3.862422     3.854779
      3.847136     3.839492     3.831849     3.824206     3.816563     3.808919     3.801276     3.793633     3.785990     3.778347
      3.770703     3.763060     3.755417     3.747774     3.740130     3.732487     3.724844     3.717201     3.709558     3.701914
      3.694271     3.686628     3.678985     3.671341     3.663698     3.656055     3.648412     3.640769     3.633125     3.625482
      3.617839     3.610196     3.602552     3.594909     3.587266     3.579623     3.571980     3.564336     3.556693     3.549050
      3.541407     3.533763     3.526120     3.518477     3.510834     3.503191     3.495547     3.487904     3.480261     3.472618
      3.464974     3.457331     3.449688     3.442045     3.434402     3.426758     3.419115     3.411472     3.403829     3.396185
      3.388542     3.380899     3.373256     3.365613     3.357969     3.350326     3.342683     3.335040     3.327396     3.319753
      3.312110     3.304467     3.296824     3.289180     3.281537     3.273894     3.266251     3.258607     3.250964     3.243321
      3.235678     3.228034     3.220391     3.212748     3.205105     3.197462     3.189818     3.182175     3.174532     3.166889
      3.159245     3.151602     3.143959     3.136316     3.128673     3.121029     3.113386     3.105743     3.098100     3.090456
      3.082813     3.075170     3.067527     3.059884     3.052240     3.044597     3.036954     3.029311     3.021667     3.014024
      3.006381     2.998738     2.991095     2.983451     2.975808     2.968165     2.960522     2.952878     2.945235     2.937592
      2.929949     2.922306     2.914662     2.907019     2.899376     2.891733     2.884089     2.876446     2.868803     2.861160
      2.853517     2.845873     2.838230     2.830587     2.822944     2.815300     2.807657     2.800014     2.792371     2.784728
      2.777084     2.769441     2.761798     2.754155     2.746511     2.738868     2.731225     2.723582     2.715939     2.708295
      2.700652     2.693009     2.685366     2.677722     2.670079     2.662436     2.654793     2.647150     2.639506     2.631863
      2.624220     2.616577     2.608933     2.601290     2.593647     2.586004     2.578361     2.570717     2.563074     2.555431
      2.547788     2.540144     2.532501     2.524858     2.517215     2.509572     2.501928     2.494285     2.486642     2.478999
      2.471355     2.463712     2.456069     2.448426     2.440783     2.433139     2.425496     2.417853     2.410210     2.402566
      2.394923     2.387280     2.379637     2.371994     2.364350     2.356707     2.349064     2.341421     2.333777     2.326134
      2.318491     2.310848     2.303205     2.295561     2.287918     2.280275     2.272632     2.264988     2.257345     2.249702
      2.242059     2.234416     2.226772     2.219129     2.211486     2.203843     2.196199     2.188556     2.180913     2.173270
      2.165627     2.157983     2.150340     2.142697     2.135054     2.127410     2.119767     2.112124     2.104481     2.096838
      2.089194     2.081551     2.073908     2.066265     2.058621     2.050978     2.043335     2.035692     2.028049     2.020405
      2.012762     2.005119     1.997476     1.989833     1.982190     1.974546     1.966903     1.959260     1.951617     1.943974
      1.936331     1.928688     1.921045     1.913402     1.905759     1.898115     1.890472     1.882829     1.875186     1.867543
      1.859900     1.852257     1.844614     1.836971     1.829327     1.821684     1.814041     1.806398     1.798755     1.791112
      1.783469     1.775826     1.768183     1.760540     1.752896     1.745253     1.737610     1.729967     1.722324     1.714681
      1.707038     1.699395     1.691752     1.684108     1.676465     1.668822     1.661179     1.653536     1.645893     1.638250
      1.630607     1.622964     1.615321     1.607677     1.600034     1.592391     1.584748     1.577105     1.569462     1.561819
      1.554176     1.546533     1.538890     1.531246     1.523603     1.515960     1.508317     1.500674     1.493031     1.485388
      1.477745     1.470102     1.462458     1.454815     1.447172     1.439529     1.431886     1.424243     1.416600     1.408957
      1.401314     1.393671     1.386027     1.378384     1.370741     1.363098     1.355455     1.347812     1.340169     1.332526
      1.324883     1.317240     1.309596     1.301953     1.294310     1.286667     1.279024     1.271381     1.263738     1.256095
      1.248452     1.240808     1.233165     1.225522     1.217879     1.210236     1.202593     1.194950     1.187307     1.179664
      1.172021     1.164377     1.156734     1.149091     1.141448     1.133805     1.126162     1.118519     1.110876     1.103233
      1.095590     1.087946     1.080303     1.072660     1.065017     1.057374     1.049731     1.042088     1.034445     1.026802
      1.019158     1.011515     1.003872     0.996229     0.988586     0.980943     0.973300     0.965657     0.958014     0.950371
      0.942727     0.935084     0.927441     0.919798     0.912155     0.904512     0.896869     0.889226     0.881583     0.873940
      0.866296     0.858653     0.851010     0.843367     0.835724     0.828081     0.820438     0.812795     0.805152     0.797508
      0.789865     0.782222     0.774579     0.766936     0.759293     0.751650     0.744007     0.736364     0.728721     0.721077
      0.713434     0.705791     0.698148     0.690505     0.682862     0.675219     0.667576     0.659933     0.652290     0.644646
      0.637003     0.629360     0.621717     0.614074     0.606431     0.598788     0.591145     0.583502     0.575858     0.568215
      0.560572     0.552929     0.545286     0.537643     0.530000     0.522357     0.514714     0.507071     0.499427     0.491784
      0.484141     0.476498     0.468855     0.461212     0.453569     0.445925     0.438282     0.430639     0.422996     0.415353
      0.407710     0.400067     0.392424     0.384780     0.377137     0.369494     0.361851     0.354208     0.346565     0.338922
      0.331278     0.323635     0.315992     0.308349     0.300706     0.293063     0.285420     0.277777     0.270133     0.262490
      0.254847     0.247204     0.239561     0.231918     0.224275     0.216631     0.208988     0.201345
 NY phased data points follow
  -1.02882E+02 -1.04020E+02 -1.04340E+02 -9.97640E+01 -9.11789E+01 -8.51607E+01 -8.01459E+01 -8.37737E+01 -7.71589E+01 -8.75191E+01
  -7.92416E+01 -7.36274E+01 -7.64502E+01 -7.49646E+01 -7.05034E+01 -7.10288E+01 -6.96922E+01 -6.96460E+01 -6.95953E+01 -6.75581E+01
  -7.18152E+01 -6.55099E+01 -6.88075E+01 -6.77134E+01 -5.61116E+01 -6.32336E+01 -5.90846E+01 -6.05621E+01 -5.49225E+01 -5.61933E+01
  -4.93087E+01 -5.97176E+01 -5.28779E+01 -4.86539E+01 -4.76850E+01 -5.53569E+01 -4.91472E+01 -5.03943E+01 -4.44950E+01 -4.56904E+01
  -4.76538E+01 -4.97649E+01 -4.33068E+01 -3.73768E+01 -3.97166E+01 -4.06621E+01 -3.90116E+01 -4.59792E+01 -3.96582E+01 -3.44205E+01
  -4.08836E+01 -4.12355E+01 -3.05200E+01 -4.03224E+01 -3.68752E+01 -3.14131E+01 -3.38697E+01 -3.20388E+01 -3.48165E+01 -3.26997E+01
  -3.39348E+01 -3.14203E+01 -3.23262E+01 -3.63153E+01 -3.11505E+01 -3.88645E+01 -3.19807E+01 -2.68479E+01 -2.73996E+01 -3.36812E+01
  -3.15990E+01 -3.15959E+01 -3.24519E+01 -2.60230E+01 -2.53460E+01 -3.31783E+01 -2.72454E+01 -2.36858E+01 -2.32698E+01 -2.28783E+01
  -2.36513E+01 -1.89142E+01 -2.50050E+01 -2.02857E+01 -2.31145E+01 -2.07619E+01 -2.62117E+01 -2.47656E+01 -1.68989E+01 -2.02239E+01
  -2.17873E+01 -1.74370E+01 -2.22251E+01 -2.10025E+01 -2.00653E+01 -1.83979E+01 -1.40138E+01 -1.83507E+01 -1.61925E+01 -9.44199E+00
  -1.19592E+01 -1.19446E+01 -7.88904E+00 -1.44031E+01 -1.05520E+01 -6.00399E+00 -4.95314E+00 -1.61163E+01 -1.70849E+01 -1.98822E+01
  -1.93642E+01 -2.30344E+01 -1.75811E+01 -2.15078E+01 -1.29015E+01 -7.78308E+00 -1.26135E+01 -1.86618E+01 -6.73683E+00 -1.65517E+01
  -8.49545E+00 -1.32875E+01 -5.35333E+00 -6.85864E+00 -1.13964E+01  8.10661E-01 -4.92606E+00 -4.16224E+00 -7.34211E+00 -9.26348E+00
   3.49340E+00 -9.71038E+00 -9.88666E+00 -1.32018E+01 -8.19950E+00 -5.39224E+00 -1.87922E+01 -8.76443E+00 -8.66517E+00 -1.09904E+01
  -4.45610E+00 -7.11574E+00 -1.02489E+01  3.39238E+00 -1.17125E+01 -1.26644E+01 -3.77774E+00 -4.69950E+00 -5.73452E+00 -7.22661E+00
  -3.93644E+00 -6.40262E+00 -2.47635E+00 -7.43918E+00 -6.78780E+00 -2.87128E+00 -1.38358E+00 -6.81904E+00 -4.95401E+00  6.38701E-01
  -4.98802E+00 -5.07291E-01 -5.12441E+00 -4.22115E+00 -1.86171E+00 -3.84052E-01  1.12690E+00 -3.84485E+00 -4.78600E+00  3.95135E+00
  -1.44328E+00  5.06944E-01  7.34678E-01  3.13189E+00 -1.18619E+00 -2.04420E+00 -1.05102E+00  8.42499E+00  3.00786E+00  5.20780E+00
  -1.19229E+00  1.03260E+00  2.07982E+00  4.76491E-01  1.32467E+00  2.04313E+00  2.70454E-01  3.49985E+00  3.55308E+00 -5.17769E-01
   5.17125E+00 -5.04653E+00 -3.99576E+00  4.83137E+00  2.16758E-01  3.47420E+00 -5.04806E+00 -6.75456E-01 -3.89365E+00 -3.38785E+00
   2.22359E+00  6.47482E+00  2.26361E+00 -2.49798E+00 -2.16616E+00 -3.29877E+00  1.85900E+00  6.20200E+00 -9.41963E+00 -1.59955E+00
  -4.70989E-02 -4.35403E+00 -7.05174E-01 -2.49172E+00 -3.02720E+00 -4.41180E+00 -1.36349E+00 -3.50610E+00 -2.83345E+00 -5.11915E+00
  -5.72332E+00 -8.83756E+00 -7.42070E+00 -2.83535E+00 -4.75925E+00 -6.02246E+00 -1.57704E+00  3.27939E+00 -1.24472E+00 -5.08904E+00
   8.14420E+00 -8.64701E-01 -1.48007E-01 -7.02115E+00  3.82198E-01  2.70685E+00 -1.64192E+00 -2.68784E-01 -1.67347E+00 -1.99558E+00
   1.76721E+00  6.67399E+00  8.77607E-01  7.58122E+00  3.04380E+00 -5.93500E-01  3.06259E+00  5.81814E+00  7.07049E+00  9.66637E+00
   5.04251E+00  5.48102E+00  5.08041E+00  1.39785E+01  1.10684E+01  1.30319E+01  1.39827E+01  1.07603E+01  1.21444E+01  1.91933E+01
   1.96545E+01  1.84421E+01  1.41269E+01  3.67404E+00  8.15396E-01  1.22575E+01  7.67324E+00  9.55791E+00  1.07597E+01  1.63639E+01
   1.99394E+01  1.59349E+01  2.90385E+01  1.44916E+01  2.10778E+01  1.44419E+01  2.04209E+01  2.91470E+01  1.32758E+01  2.11890E+01
   2.18275E+01  1.17271E+01  1.65497E+01  9.50913E+00  6.38209E+00  1.40298E+01  1.56987E+01  1.91974E+01  8.50611E+00  1.47971E+01
   1.45261E+01  1.38958E+01  2.26465E+01  1.71564E+01  1.46917E+01  1.43041E+01  1.25277E+01  1.06577E+01  1.38888E+01  9.62431E+00
   1.64173E+01  1.28770E+01  6.66535E+00  9.82957E+00  1.44737E+01  1.62896E+01  1.15985E+01  1.06800E+01  1.10986E+01  7.45572E+00
   1.12848E+01  5.46772E+00  9.13083E+00  6.51953E+00  6.11263E+00  6.62192E+00  6.88351E+00  2.66546E+00  5.29182E+00  5.42628E+00
   3.45090E+00  4.23984E+00  1.37928E+01  7.15043E+00  7.54540E+00  1.49829E+01  1.01317E+01  7.21879E+00  1.16174E+01  1.41486E+01
   1.05082E+01  1.43445E+01  1.24156E+01  1.88962E+01  1.63153E+01  1.87162E+01  1.92425E+01  1.95894E+01  2.64227E+01  2.93465E+01
   2.94988E+01  2.68961E+01  2.77033E+01  3.04318E+01  2.56904E+01  2.94936E+01  3.08787E+01  2.45936E+01  3.63347E+01  2.80755E+01
   2.73293E+01  2.37002E+01  2.54372E+01  1.92581E+01  2.65014E+01  2.90662E+01  2.81156E+01  2.81711E+01  2.08348E+01  2.28424E+01
   2.30427E+01  1.54559E+01  2.80489E+01  2.44418E+01  2.33797E+01  2.61802E+01  2.91663E+01  2.15787E+01  2.57744E+01  2.41290E+01
   1.98424E+01  2.53937E+01  2.11625E+01  2.32744E+01  1.11507E+01  2.13720E+01  1.83898E+01  1.74990E+01  1.81803E+01  1.82537E+01
   2.93967E+01  2.12850E+01  2.33035E+01  2.06658E+01  1.43992E+01  2.24669E+01  1.69465E+01  1.90018E+01  1.65016E+01  1.62233E+01
   2.13054E+01  2.32787E+01  2.58192E+01  1.94180E+01  1.75667E+01  1.94853E+01  1.77722E+01  2.49149E+01  1.93505E+01  1.69249E+01
   2.20341E+01  2.41144E+01  2.03336E+01  2.01636E+01  2.02622E+01  2.34413E+01  1.74889E+01  2.17809E+01  1.57624E+01  2.49620E+01
   2.44955E+01  2.42199E+01  2.03827E+01  1.83513E+01  1.81135E+01  1.94860E+01  1.64542E+01  2.42748E+01  1.26144E+01  1.52471E+01
   1.76476E+01  1.98131E+01  1.44564E+01  2.25224E+01  1.98991E+01  1.92533E+01  1.64645E+01  1.38519E+01  1.74411E+01  1.84982E+01
   1.91466E+01  1.91970E+01  1.79404E+01  1.62652E+01  7.71369E+00  2.21041E+01  1.73669E+01  1.85891E+01  1.51056E+01  1.94139E+01
   1.40538E+01  2.51558E+01  2.13707E+01  1.76563E+01  2.05099E+01  2.38430E+01  1.70392E+01  1.87381E+01  1.13842E+01  1.58340E+01
   1.95030E+01  1.60102E+01  2.24058E+01  1.23013E+01  1.76762E+01  1.58594E+01  1.42990E+01  1.97151E+01  1.22217E+01  1.82047E+01
   1.21329E+01  1.79874E+01  1.12387E+01  1.16812E+01  2.26973E+01  1.27783E+01  1.84298E+01  1.37830E+01  8.46236E+00  1.26956E+01
   9.42438E+00  7.23321E+00  7.73339E+00  1.04982E+01  1.59918E+01  8.04692E+00  1.50090E+01  1.07191E+01  1.81360E+01  7.63883E+00
   1.85018E+01  1.11647E+01  1.60970E+01  1.28124E+01  1.48586E+01  1.53185E+01  7.96339E+00  1.17027E+01  1.45207E+01  1.82465E+01
   1.33306E+01  1.62942E+01  1.36894E+01  2.07712E+01  1.78816E+01  1.15977E+01  1.73818E+01  7.52216E+00
 NY points of the fit to the data follow
  -8.71276E+01 -8.67968E+01 -8.62716E+01 -8.55830E+01 -8.47828E+01 -8.38986E+01 -8.29668E+01 -8.19569E+01 -8.08553E+01 -7.97218E+01
  -7.86112E+01 -7.75188E+01 -7.64181E+01 -7.52712E+01 -7.40276E+01 -7.25521E+01 -7.06740E+01 -6.90116E+01 -6.82429E+01 -6.82551E+01
  -6.85533E+01 -6.87238E+01 -6.83540E+01 -6.68453E+01 -6.42840E+01 -6.16804E+01 -5.96600E+01 -5.82562E+01 -5.73437E+01 -5.66191E+01
  -5.55127E+01 -5.39589E+01 -5.23577E+01 -5.11828E+01 -5.06970E+01 -5.08335E+01 -5.12180E+01 -5.12078E+01 -5.03467E+01 -4.89151E+01
  -4.73921E+01 -4.59701E+01 -4.46893E+01 -4.35693E+01 -4.25485E+01 -4.14537E+01 -4.03176E+01 -3.94086E+01 -3.88258E+01 -3.85081E+01
  -3.84301E+01 -3.85033E+01 -3.85249E+01 -3.84576E+01 -3.83002E+01 -3.80550E+01 -3.77532E+01 -3.74091E+01 -3.70203E+01 -3.65244E+01
  -3.59399E+01 -3.53371E+01 -3.47250E+01 -3.41188E+01 -3.35351E+01 -3.29677E+01 -3.23837E+01 -3.17578E+01 -3.10892E+01 -3.04112E+01
  -2.97603E+01 -2.91342E+01 -2.85267E+01 -2.79358E+01 -2.73628E+01 -2.68185E+01 -2.63247E+01 -2.59461E+01 -2.57337E+01 -2.56695E+01
  -2.56871E+01 -2.57238E+01 -2.57607E+01 -2.57828E+01 -2.57630E+01 -2.57085E+01 -2.55880E+01 -2.54005E+01 -2.51804E+01 -2.49480E+01
  -2.47074E+01 -2.44499E+01 -2.40049E+01 -2.30527E+01 -2.17864E+01 -2.05174E+01 -1.93768E+01 -1.83369E+01 -1.73074E+01 -1.62573E+01
  -1.52325E+01 -1.43055E+01 -1.35360E+01 -1.29599E+01 -1.25820E+01 -1.23888E+01 -1.23617E+01 -1.24661E+01 -1.26216E+01 -1.27628E+01
  -1.28759E+01 -1.29730E+01 -1.30807E+01 -1.32195E+01 -1.33252E+01 -1.32953E+01 -1.31905E+01 -1.29500E+01 -1.24865E+01 -1.18999E+01
  -1.12941E+01 -1.07072E+01 -1.01226E+01 -9.50160E+00 -8.82198E+00 -8.12748E+00 -7.49335E+00 -6.97052E+00 -6.57836E+00 -6.30599E+00
  -6.12192E+00 -6.00988E+00 -5.94547E+00 -5.90912E+00 -5.88481E+00 -5.86313E+00 -5.83794E+00 -5.80881E+00 -5.77262E+00 -5.68761E+00
  -5.53075E+00 -5.34151E+00 -5.14453E+00 -4.95344E+00 -4.78434E+00 -4.64721E+00 -4.52865E+00 -4.41785E+00 -4.30813E+00 -4.19101E+00
  -4.08130E+00 -3.99215E+00 -3.91791E+00 -3.84895E+00 -3.77208E+00 -3.68669E+00 -3.59804E+00 -3.50895E+00 -3.42036E+00 -3.33736E+00
  -3.27322E+00 -3.22665E+00 -3.17882E+00 -3.11703E+00 -3.03515E+00 -2.94285E+00 -2.86275E+00 -2.79592E+00 -2.72911E+00 -2.65482E+00
  -2.57487E+00 -2.49312E+00 -2.42266E+00 -2.37857E+00 -2.34230E+00 -2.29475E+00 -2.23839E+00 -2.18111E+00 -2.11962E+00 -2.03814E+00
  -1.92414E+00 -1.76511E+00 -1.54172E+00 -1.24027E+00 -8.80910E-01 -5.84814E-01 -4.01774E-01 -4.10089E-01 -7.35734E-01 -1.32779E+00
  -2.09057E+00 -2.98420E+00 -3.84454E+00 -4.34792E+00 -4.31651E+00 -3.83594E+00 -2.83692E+00 -1.40323E+00  4.00590E-01  2.30753E+00
   3.80148E+00  3.99768E+00  2.74355E+00  9.85434E-01 -5.53441E-01 -1.41587E+00 -1.19455E+00 -5.68953E-01 -7.44948E-02  3.01572E-01
   8.55038E-01  1.60721E+00  1.93943E+00  1.56665E+00  1.09013E+00  9.35476E-01  8.43704E-01  3.88984E-01 -5.85078E-01 -1.91828E+00
  -3.17260E+00 -4.00231E+00 -4.25064E+00 -4.07215E+00 -3.51335E+00 -2.37312E+00 -7.44609E-01  7.97267E-01  2.01849E+00  2.94594E+00
   3.66170E+00  4.38492E+00  5.32441E+00  6.37174E+00  6.95547E+00  7.08320E+00  7.05258E+00  6.94825E+00  6.85669E+00  6.79942E+00
   6.53241E+00  5.83168E+00  4.84170E+00  3.83989E+00  2.91674E+00  2.10906E+00  1.79331E+00  2.15231E+00  2.76495E+00  3.36745E+00
   4.05562E+00  5.09232E+00  6.50032E+00  8.22548E+00  1.02156E+01  1.21493E+01  1.37140E+01  1.49213E+01  1.58027E+01  1.63774E+01
   1.67156E+01  1.68326E+01  1.66925E+01  1.63327E+01  1.59000E+01  1.54780E+01  1.50281E+01  1.45581E+01  1.42271E+01  1.40698E+01
   1.39428E+01  1.38324E+01  1.37421E+01  1.36862E+01  1.36647E+01  1.36790E+01  1.37307E+01  1.37511E+01  1.37213E+01  1.36604E+01
   1.35808E+01  1.34913E+01  1.33987E+01  1.32943E+01  1.31711E+01  1.30445E+01  1.29309E+01  1.28313E+01  1.27432E+01  1.26626E+01
   1.25907E+01  1.25296E+01  1.24722E+01  1.24164E+01  1.23640E+01  1.23148E+01  1.22677E+01  1.22210E+01  1.21755E+01  1.21318E+01
   1.20882E+01  1.20434E+01  1.19957E+01  1.19423E+01  1.18818E+01  1.18132E+01  1.17347E+01  1.16449E+01  1.15429E+01  1.14287E+01
   1.13027E+01  1.11648E+01  1.10162E+01  1.08596E+01  1.06982E+01  1.05369E+01  1.03812E+01  1.02371E+01  1.01118E+01  1.00132E+01
   9.94957E+00  9.92961E+00  9.96190E+00  1.00548E+01  1.02157E+01  1.04507E+01  1.07639E+01  1.11571E+01  1.16298E+01  1.21788E+01
   1.27984E+01  1.34799E+01  1.42130E+01  1.49872E+01  1.57966E+01  1.66532E+01  1.76756E+01  1.93880E+01  2.18985E+01  2.44242E+01
   2.64485E+01  2.78988E+01  2.88901E+01  2.93889E+01  2.90277E+01  2.80721E+01  2.71292E+01  2.62615E+01  2.52748E+01  2.40364E+01
   2.26052E+01  2.12118E+01  2.01470E+01  1.96323E+01  1.97027E+01  2.02072E+01  2.09311E+01  2.16924E+01  2.24144E+01  2.31706E+01
   2.38881E+01  2.43689E+01  2.46420E+01  2.47808E+01  2.48143E+01  2.46737E+01  2.42459E+01  2.36938E+01  2.32085E+01  2.27843E+01
   2.24015E+01  2.20479E+01  2.17163E+01  2.14018E+01  2.11015E+01  2.08138E+01  2.05380E+01  2.02737E+01  2.00214E+01  1.97818E+01
   1.95560E+01  1.93456E+01  1.91526E+01  1.89790E+01  1.88269E+01  1.86989E+01  1.85974E+01  1.85249E+01  1.84837E+01  1.84757E+01
   1.85025E+01  1.85650E+01  1.86634E+01  1.87973E+01  1.89650E+01  1.91640E+01  1.93908E+01  1.96409E+01  1.99091E+01  2.01893E+01
   2.04751E+01  2.07597E+01  2.10362E+01  2.12982E+01  2.15396E+01  2.17553E+01  2.19407E+01  2.20924E+01  2.22081E+01  2.22869E+01
   2.23285E+01  2.23339E+01  2.23049E+01  2.22439E+01  2.21540E+01  2.20387E+01  2.19015E+01  2.17460E+01  2.15758E+01  2.13942E+01
   2.12044E+01  2.10090E+01  2.08105E+01  2.06108E+01  2.04116E+01  2.02143E+01  2.00199E+01  1.98292E+01  1.96426E+01  1.94605E+01
   1.92831E+01  1.91105E+01  1.89425E+01  1.87792E+01  1.86203E+01  1.84655E+01  1.83148E+01  1.81677E+01  1.80243E+01  1.78841E+01
   1.77470E+01  1.76126E+01  1.74809E+01  1.73516E+01  1.72246E+01  1.70996E+01  1.69764E+01  1.68550E+01  1.67352E+01  1.66168E+01
   1.64998E+01  1.63840E+01  1.62692E+01  1.61555E+01  1.60427E+01  1.59306E+01  1.58193E+01  1.57086E+01  1.55985E+01  1.54889E+01
   1.53796E+01  1.52708E+01  1.51622E+01  1.50538E+01  1.49456E+01  1.48375E+01  1.47295E+01  1.46215E+01  1.45134E+01  1.44052E+01
   1.42969E+01  1.41884E+01  1.40797E+01  1.39707E+01  1.38613E+01  1.37516E+01  1.36414E+01  1.35308E+01  1.34196E+01  1.33079E+01
   1.31955E+01  1.30825E+01  1.29687E+01  1.28541E+01  1.27386E+01  1.26221E+01  1.25046E+01  1.23860E+01  1.22662E+01  1.21451E+01
   1.20226E+01  1.18985E+01  1.17727E+01  1.16451E+01  1.15154E+01  1.13835E+01  1.12490E+01  1.11117E+01
 NY background values follow
    -8.983E+01   -8.893E+01   -8.802E+01   -8.712E+01   -8.621E+01   -8.531E+01   -8.441E+01   -8.351E+01   -8.262E+01   -8.172E+01
    -8.083E+01   -7.993E+01   -7.904E+01   -7.816E+01   -7.727E+01   -7.639E+01   -7.551E+01   -7.463E+01   -7.375E+01   -7.288E+01
    -7.201E+01   -7.115E+01   -7.028E+01   -6.942E+01   -6.857E+01   -6.771E+01   -6.687E+01   -6.602E+01   -6.518E+01   -6.434E+01
    -6.351E+01   -6.268E+01   -6.185E+01   -6.103E+01   -6.022E+01   -5.940E+01   -5.860E+01   -5.780E+01   -5.700E+01   -5.621E+01
    -5.542E+01   -5.464E+01   -5.386E+01   -5.309E+01   -5.233E+01   -5.157E+01   -5.081E+01   -5.006E+01   -4.932E+01   -4.858E+01
    -4.785E+01   -4.713E+01   -4.641E+01   -4.570E+01   -4.499E+01   -4.429E+01   -4.359E+01   -4.290E+01   -4.222E+01   -4.154E+01
    -4.087E+01   -4.021E+01   -3.955E+01   -3.890E+01   -3.825E+01   -3.761E+01   -3.697E+01   -3.635E+01   -3.572E+01   -3.511E+01
    -3.450E+01   -3.390E+01   -3.330E+01   -3.271E+01   -3.213E+01   -3.155E+01   -3.098E+01   -3.041E+01   -2.986E+01   -2.930E+01
    -2.876E+01   -2.822E+01   -2.769E+01   -2.716E+01   -2.664E+01   -2.613E+01   -2.562E+01   -2.512E+01   -2.463E+01   -2.414E+01
    -2.366E+01   -2.319E+01   -2.272E+01   -2.226E+01   -2.181E+01   -2.136E+01   -2.092E+01   -2.049E+01   -2.006E+01   -1.964E+01
    -1.922E+01   -1.881E+01   -1.840E+01   -1.800E+01   -1.761E+01   -1.722E+01   -1.684E+01   -1.646E+01   -1.609E+01   -1.572E+01
    -1.536E+01   -1.500E+01   -1.465E+01   -1.430E+01   -1.396E+01   -1.362E+01   -1.329E+01   -1.296E+01   -1.264E+01   -1.232E+01
    -1.200E+01   -1.169E+01   -1.138E+01   -1.108E+01   -1.078E+01   -1.049E+01   -1.020E+01   -9.914E+00   -9.631E+00   -9.352E+00
    -9.077E+00   -8.805E+00   -8.537E+00   -8.272E+00   -8.011E+00   -7.753E+00   -7.498E+00   -7.246E+00   -6.997E+00   -6.752E+00
    -6.509E+00   -6.270E+00   -6.034E+00   -5.801E+00   -5.571E+00   -5.343E+00   -5.119E+00   -4.898E+00   -4.680E+00   -4.465E+00
    -4.253E+00   -4.044E+00   -3.838E+00   -3.635E+00   -3.435E+00   -3.237E+00   -3.043E+00   -2.851E+00   -2.662E+00   -2.476E+00
    -2.293E+00   -2.112E+00   -1.935E+00   -1.760E+00   -1.588E+00   -1.418E+00   -1.252E+00   -1.088E+00   -9.266E-01   -7.681E-01
    -6.122E-01   -4.589E-01   -3.083E-01   -1.604E-01   -1.497E-02    1.278E-01    2.681E-01    4.057E-01    5.409E-01    6.735E-01
     8.036E-01    9.312E-01    1.056E+00    1.179E+00    1.300E+00    1.418E+00    1.534E+00    1.648E+00    1.761E+00    1.871E+00
     1.980E+00    2.086E+00    2.192E+00    2.295E+00    2.398E+00    2.499E+00    2.598E+00    2.697E+00    2.794E+00    2.890E+00
     2.985E+00    3.080E+00    3.173E+00    3.266E+00    3.358E+00    3.449E+00    3.540E+00    3.631E+00    3.721E+00    3.811E+00
     3.900E+00    3.989E+00    4.079E+00    4.168E+00    4.257E+00    4.347E+00    4.436E+00    4.526E+00    4.616E+00    4.706E+00
     4.797E+00    4.888E+00    4.980E+00    5.073E+00    5.166E+00    5.260E+00    5.355E+00    5.450E+00    5.547E+00    5.644E+00
     5.742E+00    5.841E+00    5.940E+00    6.040E+00    6.140E+00    6.241E+00    6.343E+00    6.445E+00    6.547E+00    6.650E+00
     6.753E+00    6.857E+00    6.961E+00    7.065E+00    7.169E+00    7.273E+00    7.378E+00    7.482E+00    7.587E+00    7.692E+00
     7.796E+00    7.901E+00    8.005E+00    8.110E+00    8.214E+00    8.318E+00    8.422E+00    8.526E+00    8.629E+00    8.732E+00
     8.835E+00    8.938E+00    9.040E+00    9.141E+00    9.242E+00    9.343E+00    9.443E+00    9.542E+00    9.641E+00    9.740E+00
     9.837E+00    9.934E+00    1.003E+01    1.013E+01    1.022E+01    1.032E+01    1.041E+01    1.050E+01    1.059E+01    1.068E+01
     1.077E+01    1.086E+01    1.095E+01    1.104E+01    1.113E+01    1.122E+01    1.130E+01    1.139E+01    1.147E+01    1.155E+01
     1.164E+01    1.172E+01    1.180E+01    1.188E+01    1.196E+01    1.204E+01    1.211E+01    1.219E+01    1.227E+01    1.234E+01
     1.242E+01    1.249E+01    1.256E+01    1.263E+01    1.270E+01    1.277E+01    1.284E+01    1.291E+01    1.298E+01    1.304E+01
     1.311E+01    1.317E+01    1.324E+01    1.330E+01    1.336E+01    1.342E+01    1.348E+01    1.354E+01    1.360E+01    1.365E+01
     1.371E+01    1.376E+01    1.382E+01    1.387E+01    1.392E+01    1.397E+01    1.402E+01    1.407E+01    1.412E+01    1.417E+01
     1.421E+01    1.426E+01    1.430E+01    1.434E+01    1.438E+01    1.442E+01    1.446E+01    1.450E+01    1.454E+01    1.457E+01
     1.461E+01    1.464E+01    1.467E+01    1.470E+01    1.473E+01    1.476E+01    1.479E+01    1.482E+01    1.484E+01    1.487E+01
     1.489E+01    1.491E+01    1.493E+01    1.495E+01    1.497E+01    1.499E+01    1.500E+01    1.502E+01    1.503E+01    1.504E+01
     1.505E+01    1.506E+01    1.507E+01    1.508E+01    1.508E+01    1.509E+01    1.509E+01    1.510E+01    1.510E+01    1.510E+01
     1.510E+01    1.509E+01    1.509E+01    1.509E+01    1.508E+01    1.508E+01    1.507E+01    1.506E+01    1.505E+01    1.504E+01
     1.503E+01    1.502E+01    1.501E+01    1.500E+01    1.498E+01    1.497E+01    1.495E+01    1.493E+01    1.492E+01    1.490E+01
     1.488E+01    1.486E+01    1.484E+01    1.482E+01    1.479E+01    1.477E+01    1.475E+01    1.472E+01    1.470E+01    1.467E+01
     1.465E+01    1.462E+01    1.459E+01    1.456E+01    1.454E+01    1.451E+01    1.448E+01    1.445E+01    1.441E+01    1.438E+01
     1.435E+01    1.432E+01    1.428E+01    1.425E+01    1.422E+01    1.418E+01    1.414E+01    1.411E+01    1.407E+01    1.403E+01
     1.400E+01    1.396E+01    1.392E+01    1.388E+01    1.384E+01    1.380E+01    1.375E+01    1.371E+01    1.367E+01    1.363E+01
     1.358E+01    1.354E+01    1.349E+01    1.345E+01    1.340E+01    1.335E+01    1.331E+01    1.326E+01    1.321E+01    1.316E+01
     1.311E+01    1.306E+01    1.301E+01    1.296E+01    1.291E+01    1.285E+01    1.280E+01    1.275E+01    1.269E+01    1.264E+01
     1.258E+01    1.252E+01    1.247E+01    1.241E+01    1.235E+01    1.229E+01    1.223E+01    1.217E+01    1.211E+01    1.205E+01
     1.199E+01    1.193E+01    1.187E+01    1.180E+01    1.174E+01    1.167E+01    1.161E+01    1.154E+01    1.147E+01    1.141E+01
     1.134E+01    1.127E+01    1.120E+01    1.113E+01    1.106E+01    1.099E+01    1.091E+01    1.084E+01    1.077E+01    1.069E+01
     1.062E+01    1.054E+01    1.047E+01    1.039E+01    1.031E+01    1.023E+01    1.015E+01    1.007E+01    9.993E+00    9.912E+00
     9.830E+00    9.747E+00    9.663E+00    9.579E+00    9.494E+00    9.409E+00    9.322E+00    9.235E+00
 Asp      Conc. = 3.97E+01
