 LCModel (Version 6.3-1L) Copyright: S.W. Provencher.          Ref.: Magn. Reson. Med. 30:672-679 (1993).                
 Slice#1 Row#1 Col#12  PD_24_press_2_raw_act
 36 lines in following concentration table = NCONC+1
    Conc.  %SD /Cr+PCr  Metabolite                                         
  755.989  62%   0.000 Ala                                                 
  100.844  12%   0.000 Asp                                                 
    0.000 999%   0.000 Cr                                                  
    0.000 999%   0.000 PCr                                                 
   60.543  12%   0.000 GABA                                                
   60.358  12%   0.000 Glc                                                 
    0.000 999%   0.000 Gln                                                 
    0.000 999%   0.000 Glu                                                 
    0.000 999%   0.000 GPC                                                 
    6.075 624%   0.000 PCh                                                 
    0.000 999%   0.000 GSH                                                 
    0.000 999%   0.000 Ins                                                 
  734.696  61%   0.000 Lac                                                 
  924.403  36%   0.000 NAA                                                 
 1.07E+03  29%   0.000 NAAG                                                
   20.164  12%   0.000 Scyllo                                              
  100.631  12%   0.000 Tau                                                 
 9.12E-02 999%   0.000 -CrCH2                                              
    6.075 624%   0.000 GPC+PCh                                             
 2.00E+03   7%   0.000 NAA+NAAG                                            
    0.000 999%   0.000 Cr+PCr                                              
    0.000 999%   0.000 Glu+Gln                                             
   97.442 195%   0.000 Lip13a                                              
    0.000 999%   0.000 Lip13b                                              
    0.000 999%   0.000 Lip09                                               
  403.908  40%   0.000 MM09                                                
   34.783 144%   0.000 Lip20                                               
  606.091  40%   0.000 MM20                                                
  121.174  40%   0.000 MM12                                                
  303.084  40%   0.000 MM14                                                
  151.569  40%   0.000 MM17                                                
   97.442 195%   0.000 Lip13a+Lip13b                                       
  521.700  48%   0.000 MM14+Lip13a+Lip13b+MM12                             
  403.908  40%   0.000 MM09+Lip09                                          
  640.874  38%   0.000 MM20+Lip20                                          
   6 lines in following misc. output table
  FWHM = 0.275 ppm    S/N =   2                                            
  Data shift = 0.237 ppm                                                   
  Ph: -28 deg     -20.8 deg/ppm                                            
  alphaB,S = 9.2E+00,   4.9E+01                                            
    7 spline knots.   Ns = 9(2)                                            
  (14) 5 infls.   (13) 5 extrs.                                            
  498 points on ppm-axis = NY
      4.000000     3.992357     3.984714     3.977070     3.969427     3.961784     3.954141     3.946497     3.938854     3.931211
      3.923568     3.915925     3.908281     3.900638     3.892995     3.885352     3.877708     3.870065     3.862422     3.854779
      3.847136     3.839492     3.831849     3.824206     3.816563     3.808919     3.801276     3.793633     3.785990     3.778347
      3.770703     3.763060     3.755417     3.747774     3.740130     3.732487     3.724844     3.717201     3.709558     3.701914
      3.694271     3.686628     3.678985     3.671341     3.663698     3.656055     3.648412     3.640769     3.633125     3.625482
      3.617839     3.610196     3.602552     3.594909     3.587266     3.579623     3.571980     3.564336     3.556693     3.549050
      3.541407     3.533763     3.526120     3.518477     3.510834     3.503191     3.495547     3.487904     3.480261     3.472618
      3.464974     3.457331     3.449688     3.442045     3.434402     3.426758     3.419115     3.411472     3.403829     3.396185
      3.388542     3.380899     3.373256     3.365613     3.357969     3.350326     3.342683     3.335040     3.327396     3.319753
      3.312110     3.304467     3.296824     3.289180     3.281537     3.273894     3.266251     3.258607     3.250964     3.243321
      3.235678     3.228034     3.220391     3.212748     3.205105     3.197462     3.189818     3.182175     3.174532     3.166889
      3.159245     3.151602     3.143959     3.136316     3.128673     3.121029     3.113386     3.105743     3.098100     3.090456
      3.082813     3.075170     3.067527     3.059884     3.052240     3.044597     3.036954     3.029311     3.021667     3.014024
      3.006381     2.998738     2.991095     2.983451     2.975808     2.968165     2.960522     2.952878     2.945235     2.937592
      2.929949     2.922306     2.914662     2.907019     2.899376     2.891733     2.884089     2.876446     2.868803     2.861160
      2.853517     2.845873     2.838230     2.830587     2.822944     2.815300     2.807657     2.800014     2.792371     2.784728
      2.777084     2.769441     2.761798     2.754155     2.746511     2.738868     2.731225     2.723582     2.715939     2.708295
      2.700652     2.693009     2.685366     2.677722     2.670079     2.662436     2.654793     2.647150     2.639506     2.631863
      2.624220     2.616577     2.608933     2.601290     2.593647     2.586004     2.578361     2.570717     2.563074     2.555431
      2.547788     2.540144     2.532501     2.524858     2.517215     2.509572     2.501928     2.494285     2.486642     2.478999
      2.471355     2.463712     2.456069     2.448426     2.440783     2.433139     2.425496     2.417853     2.410210     2.402566
      2.394923     2.387280     2.379637     2.371994     2.364350     2.356707     2.349064     2.341421     2.333777     2.326134
      2.318491     2.310848     2.303205     2.295561     2.287918     2.280275     2.272632     2.264988     2.257345     2.249702
      2.242059     2.234416     2.226772     2.219129     2.211486     2.203843     2.196199     2.188556     2.180913     2.173270
      2.165627     2.157983     2.150340     2.142697     2.135054     2.127410     2.119767     2.112124     2.104481     2.096838
      2.089194     2.081551     2.073908     2.066265     2.058621     2.050978     2.043335     2.035692     2.028049     2.020405
      2.012762     2.005119     1.997476     1.989833     1.982190     1.974546     1.966903     1.959260     1.951617     1.943974
      1.936331     1.928688     1.921045     1.913402     1.905759     1.898115     1.890472     1.882829     1.875186     1.867543
      1.859900     1.852257     1.844614     1.836971     1.829327     1.821684     1.814041     1.806398     1.798755     1.791112
      1.783469     1.775826     1.768183     1.760540     1.752896     1.745253     1.737610     1.729967     1.722324     1.714681
      1.707038     1.699395     1.691752     1.684108     1.676465     1.668822     1.661179     1.653536     1.645893     1.638250
      1.630607     1.622964     1.615321     1.607677     1.600034     1.592391     1.584748     1.577105     1.569462     1.561819
      1.554176     1.546533     1.538890     1.531246     1.523603     1.515960     1.508317     1.500674     1.493031     1.485388
      1.477745     1.470102     1.462458     1.454815     1.447172     1.439529     1.431886     1.424243     1.416600     1.408957
      1.401314     1.393671     1.386027     1.378384     1.370741     1.363098     1.355455     1.347812     1.340169     1.332526
      1.324883     1.317240     1.309596     1.301953     1.294310     1.286667     1.279024     1.271381     1.263738     1.256095
      1.248452     1.240808     1.233165     1.225522     1.217879     1.210236     1.202593     1.194950     1.187307     1.179664
      1.172021     1.164377     1.156734     1.149091     1.141448     1.133805     1.126162     1.118519     1.110876     1.103233
      1.095590     1.087946     1.080303     1.072660     1.065017     1.057374     1.049731     1.042088     1.034445     1.026802
      1.019158     1.011515     1.003872     0.996229     0.988586     0.980943     0.973300     0.965657     0.958014     0.950371
      0.942727     0.935084     0.927441     0.919798     0.912155     0.904512     0.896869     0.889226     0.881583     0.873940
      0.866296     0.858653     0.851010     0.843367     0.835724     0.828081     0.820438     0.812795     0.805152     0.797508
      0.789865     0.782222     0.774579     0.766936     0.759293     0.751650     0.744007     0.736364     0.728721     0.721077
      0.713434     0.705791     0.698148     0.690505     0.682862     0.675219     0.667576     0.659933     0.652290     0.644646
      0.637003     0.629360     0.621717     0.614074     0.606431     0.598788     0.591145     0.583502     0.575858     0.568215
      0.560572     0.552929     0.545286     0.537643     0.530000     0.522357     0.514714     0.507071     0.499427     0.491784
      0.484141     0.476498     0.468855     0.461212     0.453569     0.445925     0.438282     0.430639     0.422996     0.415353
      0.407710     0.400067     0.392424     0.384780     0.377137     0.369494     0.361851     0.354208     0.346565     0.338922
      0.331278     0.323635     0.315992     0.308349     0.300706     0.293063     0.285420     0.277777     0.270133     0.262490
      0.254847     0.247204     0.239561     0.231918     0.224275     0.216631     0.208988     0.201345
 NY phased data points follow
  -2.23484E-01  1.73835E-01  5.17975E+00  9.50765E+00  9.26891E+00  4.46272E+00  4.44891E+00  7.18030E+00  2.21652E+00  2.75151E+00
   1.15429E+01  8.61029E-01  3.74148E+00 -5.13654E+00 -1.36425E+00 -3.58275E+00  1.20028E+00  3.12709E+00  4.51410E+00  2.98333E+00
   7.47637E+00 -1.73252E+00  5.26170E+00  2.81180E+00 -3.65877E+00 -3.56254E+00  2.51257E+00 -5.44477E+00  6.14649E+00 -1.40860E+00
  -2.84850E-01  9.72971E+00  4.87107E+00 -4.85972E+00  4.25465E+00 -2.13438E+00  3.81951E+00  5.74179E+00 -1.40244E-01  1.29739E+00
   1.57309E+00  4.74332E+00  1.59633E+00 -3.32101E+00  6.03287E+00  1.53837E+00  5.23046E+00 -1.24982E+00  3.90495E+00  4.67132E+00
   5.45991E+00 -3.86377E-01  1.05868E+01 -9.30088E-02  4.02253E+00  5.44266E+00  5.95558E+00  2.94826E+00 -5.66721E+00  1.38879E+01
   6.14901E+00  3.48610E+00  1.14044E+01  8.38526E+00  1.77786E+00  9.68098E-01 -3.46793E+00 -4.31825E-01  5.50744E+00  3.01950E-01
   3.63164E+00  1.58409E-01 -6.11941E-01  3.90721E+00 -3.45255E+00  2.75953E-01  7.68439E+00  5.40147E+00  1.00523E+00  3.64013E+00
   6.22174E+00  1.59640E+00  6.19117E+00  8.55065E+00  3.19058E+00  6.32077E+00  7.74120E+00  6.93893E+00  1.22118E+01  1.08424E+01
   6.67090E+00  7.40728E+00  3.56987E+00  5.96443E+00  1.11624E+01  2.86349E-01  3.96140E+00  4.59964E+00  4.81786E+00 -5.41938E-01
   5.82434E+00  7.35393E+00  3.07427E+00  1.02110E+01  1.22612E+01  4.19613E+00 -4.03045E+00  5.84666E+00 -1.93486E+00  8.19422E-01
   5.19893E+00 -1.35413E+00  2.77725E+00  8.73133E+00  6.92442E+00  9.79801E+00 -1.37512E+00  3.42714E+00  8.33863E+00  7.83556E+00
   1.52515E+00  3.21326E+00  2.02459E+00 -3.21503E+00  4.59123E+00  4.49082E+00  1.17980E+01  2.32097E+00  4.45747E+00  1.55809E+00
   1.10690E+00  8.32400E+00 -1.26711E+00  3.09066E+00  1.13277E+00  7.53249E+00  1.22314E+01  4.91542E+00  9.95098E+00  5.15934E+00
   4.33663E+00  2.27125E+00  7.73019E+00  7.11583E+00 -1.62867E+00  5.99596E+00 -1.57606E+00  3.35572E+00  4.07899E+00  6.82577E-01
   5.82715E+00  1.16913E+00  8.57363E+00  5.88237E+00  1.02416E+01  3.98834E+00  3.67810E+00  8.80701E+00  1.41582E+01  5.36838E+00
   1.22669E+00 -2.30282E+00  1.87500E+00  3.69599E+00 -7.22226E-01 -5.68722E+00  7.05168E+00  5.20142E-02  6.14615E+00  6.90996E+00
   3.32021E+00  5.78600E+00  3.53539E+00  1.54389E+00  7.07422E+00  4.02189E+00  2.89047E+00  1.72982E+00  4.38931E+00  4.94450E+00
   7.06830E+00  5.89289E+00  6.52988E+00  4.56443E-01 -3.33779E+00  9.81230E+00  3.85926E+00  9.18770E+00  4.32950E+00  4.17636E+00
   4.15713E+00  1.66810E+01  6.99837E+00  5.40629E+00  4.72888E+00  2.07950E+00  1.21560E+01 -1.98898E-01  4.52590E+00  3.74189E+00
   7.29115E+00  1.25242E+00  7.82925E+00  3.68667E+00  5.28757E+00  1.05582E+01  9.20802E+00  8.39898E+00  1.15402E+01  7.19809E+00
   9.53895E+00  8.77834E+00  6.94630E+00  9.48783E+00  1.02206E+01  1.15458E+01  6.81480E+00  4.14529E+00  1.13191E+01  1.24884E+01
   1.03751E+01  6.30265E+00  1.30161E+01  9.52879E+00  1.28631E+01  1.43020E+01  6.93985E+00  1.46930E+01  6.64542E+00  7.61442E+00
   6.54128E+00  8.73236E+00  1.41460E+01  1.27353E+01  6.27075E+00  6.45455E+00  1.28816E+01  2.03999E+01  1.84757E+01  1.97604E+01
   1.65643E+01  1.70099E+01  1.50607E+01  2.12979E+01  2.30882E+01  2.22705E+01  1.62813E+01  2.50664E+01  1.63198E+01  2.46496E+01
   1.85712E+01  1.73861E+01  2.70068E+01  2.76494E+01  2.87383E+01  2.16800E+01  2.11428E+01  3.13467E+01  2.72636E+01  2.25149E+01
   1.80670E+01  1.97758E+01  1.95540E+01  2.12574E+01  2.11149E+01  1.94421E+01  1.80873E+01  1.54046E+01  1.86582E+01  1.84880E+01
   1.76416E+01  1.45937E+01  2.03709E+01  1.59575E+01  1.91402E+01  1.73643E+01  1.29453E+01  1.69171E+01  1.63798E+01  1.59686E+01
   2.00114E+01  5.71144E+00  1.33452E+01  1.93105E+01  1.43159E+01  7.14234E+00  1.35344E+01  1.22915E+01  8.73632E+00  1.05264E+01
   4.29734E+00  5.29689E+00  6.57125E+00  5.51333E+00  9.40114E+00  8.88819E+00  1.15683E+01  7.46748E+00  5.34028E+00  1.26681E+00
   4.51752E+00  9.58248E+00  1.48021E-01  3.34816E+00  1.16185E+01  4.21541E+00  7.19375E+00  1.08646E+01  1.72686E+00  5.09643E+00
   1.15737E+01  7.93914E+00  8.95216E+00  7.87039E+00  1.05524E+00  8.05800E+00  3.54100E+00  1.24613E+01  2.48926E+00  1.20124E+01
   9.96665E+00  1.74499E-01  1.15217E+01  7.65475E+00  9.78249E+00  1.57796E+01  1.44579E+01  8.62008E+00  8.05933E+00  5.26666E+00
   7.08486E+00  1.03500E+01  1.38541E+01  9.15576E+00  1.40592E+01  6.16230E+00  5.19969E+00  5.05672E+00  5.02105E+00  8.85550E+00
   8.07319E+00  8.20650E+00  9.84341E+00  7.29243E+00  4.90916E+00  6.04573E+00  7.52806E+00  1.24515E+01  9.76199E+00  1.25071E+01
   8.08400E+00  7.93543E+00  7.94800E+00  3.32624E+00  3.61921E-01  5.40584E+00  2.37787E+00  8.61897E+00  5.97410E+00  9.16222E+00
   6.45086E+00  6.87645E+00  6.90521E+00  3.35377E+00  1.41964E+01  6.60157E+00  4.41712E+00  1.30860E+01  1.04319E+01  8.91877E+00
   4.09888E+00  6.47659E+00  3.10898E+00  5.73961E+00  1.18918E+01  4.63996E+00  9.59662E-02  1.20327E-01  5.95369E+00  9.16720E+00
   3.01508E+00  1.20329E+01 -1.34947E+00  4.87792E+00  2.80803E+00  1.69732E+00  6.32998E+00  8.56345E+00  9.97234E+00  1.40167E+00
   1.58619E+00  3.29512E+00  2.17032E+00  7.58677E+00 -2.06000E+00 -2.14902E+00  1.24784E+01  7.23098E+00  4.52398E+00  4.68405E+00
   2.94727E+00  6.98859E+00  1.61415E+00  7.24966E+00  7.12997E+00  3.26884E+00  5.72795E+00 -3.29305E-01  4.50605E+00 -9.05267E-01
   2.40587E+00  3.13194E+00  5.22623E+00  3.67780E+00  3.08498E+00 -8.92646E-02  7.55993E+00  5.09569E+00 -1.57091E+00  1.04773E+01
   8.84000E-03 -1.35263E+00  2.13445E+00  1.72705E+00  2.01455E-01  4.22158E+00 -1.12895E+00  8.40554E+00  5.22885E+00  5.05127E+00
   5.95725E+00  4.86860E+00 -2.22947E+00  5.98861E+00  2.30340E+00  1.28888E+01  5.93528E+00 -8.37034E+00  8.14109E+00  2.45699E+00
   4.75368E+00 -2.07369E+00  1.23214E+00 -4.80426E+00  1.38766E+00  3.24756E+00 -9.01668E-01  2.00529E+00  4.19247E+00 -6.53779E+00
   3.01203E+00  2.12193E+00  2.86359E+00  1.33761E+00 -4.51790E-01  8.55191E-02  4.08662E-01 -3.16225E+00 -3.97238E+00 -5.62215E+00
  -5.82041E+00  1.93422E+00  9.36388E-02  6.76374E+00  2.41378E-01 -7.65296E-01  7.98173E-01  2.49644E+00  3.60276E+00  1.68610E+00
   3.41529E+00 -1.60621E+00  1.82005E+00  2.14762E+00  8.05073E+00  7.63391E-02  3.35880E+00  1.22730E+00  6.57738E+00  1.40664E+00
   3.54692E+00  4.36268E+00  2.45120E+00  5.54796E+00  1.09175E+00  2.18325E+00 -8.55013E-02 -2.29752E+00  5.93294E+00  1.95006E+00
  -2.27761E+00 -2.61618E-01 -4.33094E+00 -2.75703E+00  6.79436E-01 -1.30046E+00 -9.92831E-01 -3.77332E+00
 NY points of the fit to the data follow
   3.44280E+00  3.45908E+00  3.19525E+00  3.38970E+00  3.40184E+00  3.77498E+00  3.89648E+00  4.34269E+00  4.27869E+00  4.40523E+00
   4.09459E+00  3.89559E+00  3.57278E+00  3.42921E+00  3.15074E+00  3.25649E+00  3.31604E+00  3.56307E+00  3.78862E+00  3.92837E+00
   4.08340E+00  4.14540E+00  4.13254E+00  3.98878E+00  3.92309E+00  3.74496E+00  3.74633E+00  3.60632E+00  3.65555E+00  3.55690E+00
   3.70107E+00  3.65767E+00  3.82353E+00  3.81070E+00  3.97990E+00  3.97703E+00  4.15644E+00  4.09546E+00  4.22668E+00  4.05793E+00
   4.07709E+00  3.87565E+00  3.87127E+00  3.66635E+00  3.73225E+00  3.62019E+00  3.87226E+00  3.93458E+00  4.16756E+00  4.19054E+00
   4.38206E+00  4.35427E+00  4.42477E+00  4.27442E+00  4.18934E+00  4.12350E+00  4.11775E+00  4.14596E+00  4.21047E+00  4.26787E+00
   4.34818E+00  4.41700E+00  4.41205E+00  4.43472E+00  4.42756E+00  4.46382E+00  4.46526E+00  4.54489E+00  4.65833E+00  4.73767E+00
   4.81620E+00  4.87043E+00  4.89101E+00  4.90790E+00  4.90631E+00  4.88907E+00  4.85525E+00  4.83470E+00  4.83145E+00  4.81773E+00
   4.85678E+00  4.90035E+00  4.94427E+00  5.00676E+00  5.02748E+00  5.09193E+00  5.10108E+00  5.13295E+00  5.15276E+00  5.12716E+00
   5.13268E+00  5.08354E+00  5.08086E+00  5.02138E+00  5.04246E+00  4.99704E+00  5.01182E+00  5.02527E+00  5.08385E+00  5.10632E+00
   5.15337E+00  5.14311E+00  5.12965E+00  5.08701E+00  5.04832E+00  4.97869E+00  4.90911E+00  4.85681E+00  4.87571E+00  4.86499E+00
   4.90332E+00  4.91789E+00  4.96321E+00  5.00290E+00  5.05514E+00  5.07717E+00  5.08880E+00  5.07162E+00  5.07646E+00  5.02411E+00
   5.06662E+00  5.03211E+00  5.06767E+00  5.04069E+00  5.06070E+00  5.05486E+00  5.07810E+00  5.08560E+00  5.11166E+00  5.11315E+00
   5.12947E+00  5.11725E+00  5.12255E+00  5.10615E+00  5.10002E+00  5.06660E+00  4.97873E+00  4.93471E+00  4.87846E+00  4.87334E+00
   4.91988E+00  4.96670E+00  4.93294E+00  4.89655E+00  4.75854E+00  4.70485E+00  4.54821E+00  4.57517E+00  4.42444E+00  4.43433E+00
   4.26275E+00  4.20270E+00  3.98790E+00  4.01595E+00  3.86790E+00  3.96108E+00  3.79442E+00  3.77747E+00  3.54498E+00  3.50343E+00
   3.36960E+00  3.37213E+00  3.25031E+00  3.17605E+00  2.97441E+00  2.93898E+00  2.87587E+00  2.93853E+00  2.96728E+00  2.98048E+00
   3.05454E+00  3.13630E+00  3.21859E+00  3.39315E+00  3.55589E+00  3.64505E+00  3.69199E+00  3.67097E+00  3.68653E+00  3.73513E+00
   3.87795E+00  4.03787E+00  4.19991E+00  4.25563E+00  4.42076E+00  4.47749E+00  4.77364E+00  4.84742E+00  5.12739E+00  5.09903E+00
   5.25109E+00  5.06510E+00  5.17100E+00  5.02241E+00  5.18472E+00  5.04354E+00  5.26284E+00  5.14059E+00  5.30592E+00  5.26263E+00
   5.49861E+00  5.50822E+00  5.72940E+00  5.65328E+00  5.71838E+00  5.61375E+00  5.73204E+00  5.65894E+00  5.74845E+00  5.59322E+00
   5.61476E+00  5.53709E+00  5.54989E+00  5.50336E+00  5.59446E+00  5.51940E+00  5.68717E+00  5.70973E+00  5.92259E+00  5.92694E+00
   6.01622E+00  6.01388E+00  6.04468E+00  5.97655E+00  5.84983E+00  5.85043E+00  5.86491E+00  5.98950E+00  6.12323E+00  6.33002E+00
   6.43016E+00  6.63363E+00  6.75265E+00  6.94344E+00  7.10723E+00  7.35383E+00  7.79838E+00  9.49967E+00  1.25342E+01  1.32965E+01
   1.63652E+01  1.58936E+01  1.95045E+01  2.01699E+01  2.18144E+01  2.24820E+01  2.23027E+01  2.27954E+01  2.24877E+01  2.25363E+01
   2.24989E+01  2.25342E+01  2.36305E+01  2.34794E+01  2.43158E+01  2.40459E+01  2.47703E+01  2.49493E+01  2.48784E+01  2.43973E+01
   2.32434E+01  2.27458E+01  2.15467E+01  2.13263E+01  2.00463E+01  1.96208E+01  1.89869E+01  1.87534E+01  1.90396E+01  1.87049E+01
   1.89300E+01  1.84356E+01  1.83144E+01  1.75987E+01  1.60618E+01  1.49984E+01  1.20550E+01  1.22515E+01  1.02024E+01  9.83328E+00
   7.68699E+00  6.54327E+00  6.28527E+00  6.12490E+00  6.08192E+00  6.01076E+00  6.01152E+00  5.97635E+00  6.01806E+00  5.98538E+00
   6.02432E+00  5.98162E+00  6.00885E+00  5.98613E+00  6.04571E+00  6.05097E+00  6.14540E+00  6.19300E+00  6.28301E+00  6.31527E+00
   6.39674E+00  6.42393E+00  6.50667E+00  6.53818E+00  6.64472E+00  6.73787E+00  6.90814E+00  7.12669E+00  7.57739E+00  8.30040E+00
   8.20245E+00  8.16774E+00  7.63606E+00  7.00731E+00  6.41798E+00  5.58610E+00  4.99063E+00  4.99262E+00  5.57527E+00  6.02164E+00
   7.02597E+00  7.21947E+00  8.09867E+00  8.04548E+00  8.47295E+00  8.00075E+00  8.20016E+00  7.87156E+00  8.48100E+00  8.77005E+00
   8.86140E+00  8.52214E+00  8.61035E+00  7.80667E+00  7.90237E+00  6.91049E+00  7.04483E+00  7.26100E+00  7.95875E+00  8.60499E+00
   8.94317E+00  9.08618E+00  9.02095E+00  8.77570E+00  8.28398E+00  7.42174E+00  6.95202E+00  6.38477E+00  6.69460E+00  6.98268E+00
   7.25294E+00  7.57773E+00  8.01853E+00  8.25013E+00  8.44071E+00  8.33083E+00  7.81182E+00  8.05932E+00  7.76883E+00  7.85031E+00
   7.35432E+00  7.14274E+00  6.55163E+00  6.27146E+00  5.66242E+00  5.30150E+00  4.87643E+00  4.81187E+00  5.01231E+00  5.68472E+00
   5.81938E+00  6.30154E+00  6.36561E+00  6.45409E+00  6.33721E+00  5.75184E+00  5.42996E+00  5.24102E+00  5.11318E+00  5.02232E+00
   4.95792E+00  4.91463E+00  4.88951E+00  4.88091E+00  4.88791E+00  4.90993E+00  4.94645E+00  4.99691E+00  5.06060E+00  5.13669E+00
   5.22407E+00  5.32130E+00  5.42652E+00  5.53740E+00  5.65131E+00  5.76529E+00  5.87615E+00  5.98050E+00  6.07487E+00  6.15583E+00
   6.22024E+00  6.26538E+00  6.28903E+00  6.28960E+00  6.26612E+00  6.21843E+00  6.14712E+00  6.05357E+00  5.93977E+00  5.80821E+00
   5.66178E+00  5.50362E+00  5.33705E+00  5.16534E+00  4.99159E+00  4.81858E+00  4.64877E+00  4.48421E+00  4.32657E+00  4.17710E+00
   4.03660E+00  3.90549E+00  3.78388E+00  3.67164E+00  3.56848E+00  3.47390E+00  3.38730E+00  3.30800E+00  3.23532E+00  3.16860E+00
   3.10722E+00  3.05058E+00  2.99809E+00  2.94923E+00  2.90354E+00  2.86066E+00  2.82024E+00  2.78198E+00  2.74557E+00  2.71078E+00
   2.67743E+00  2.64538E+00  2.61447E+00  2.58456E+00  2.55553E+00  2.52728E+00  2.49974E+00  2.47287E+00  2.44659E+00  2.42084E+00
   2.39553E+00  2.37066E+00  2.34618E+00  2.32210E+00  2.29834E+00  2.27489E+00  2.25169E+00  2.22876E+00  2.20608E+00  2.18364E+00
   2.16141E+00  2.13936E+00  2.11747E+00  2.09576E+00  2.07423E+00  2.05285E+00  2.03161E+00  2.01048E+00  1.98947E+00  1.96859E+00
   1.94784E+00  1.92720E+00  1.90664E+00  1.88617E+00  1.86579E+00  1.84552E+00  1.82534E+00  1.80524E+00  1.78520E+00  1.76523E+00
   1.74535E+00  1.72556E+00  1.70584E+00  1.68618E+00  1.66657E+00  1.64704E+00  1.62759E+00  1.60822E+00  1.58893E+00  1.56970E+00
   1.55053E+00  1.53146E+00  1.51250E+00  1.49365E+00  1.47492E+00  1.45632E+00  1.43789E+00  1.41970E+00
 NY background values follow
     3.539E+00    3.548E+00    3.557E+00    3.566E+00    3.575E+00    3.584E+00    3.593E+00    3.602E+00    3.611E+00    3.620E+00
     3.629E+00    3.638E+00    3.647E+00    3.656E+00    3.665E+00    3.674E+00    3.683E+00    3.692E+00    3.701E+00    3.710E+00
     3.720E+00    3.729E+00    3.738E+00    3.747E+00    3.756E+00    3.765E+00    3.774E+00    3.783E+00    3.792E+00    3.801E+00
     3.811E+00    3.820E+00    3.829E+00    3.838E+00    3.847E+00    3.856E+00    3.865E+00    3.874E+00    3.883E+00    3.892E+00
     3.901E+00    3.910E+00    3.919E+00    3.928E+00    3.937E+00    3.946E+00    3.955E+00    3.964E+00    3.973E+00    3.982E+00
     3.991E+00    4.000E+00    4.009E+00    4.018E+00    4.027E+00    4.036E+00    4.045E+00    4.053E+00    4.062E+00    4.071E+00
     4.080E+00    4.089E+00    4.097E+00    4.106E+00    4.115E+00    4.124E+00    4.132E+00    4.141E+00    4.149E+00    4.158E+00
     4.167E+00    4.175E+00    4.184E+00    4.192E+00    4.201E+00    4.209E+00    4.218E+00    4.226E+00    4.234E+00    4.243E+00
     4.251E+00    4.259E+00    4.268E+00    4.276E+00    4.284E+00    4.292E+00    4.301E+00    4.309E+00    4.317E+00    4.325E+00
     4.333E+00    4.341E+00    4.349E+00    4.357E+00    4.365E+00    4.372E+00    4.380E+00    4.388E+00    4.396E+00    4.403E+00
     4.411E+00    4.419E+00    4.426E+00    4.434E+00    4.441E+00    4.449E+00    4.456E+00    4.464E+00    4.471E+00    4.478E+00
     4.485E+00    4.493E+00    4.500E+00    4.507E+00    4.514E+00    4.521E+00    4.528E+00    4.535E+00    4.542E+00    4.549E+00
     4.555E+00    4.562E+00    4.569E+00    4.575E+00    4.582E+00    4.589E+00    4.595E+00    4.601E+00    4.608E+00    4.614E+00
     4.620E+00    4.627E+00    4.633E+00    4.639E+00    4.645E+00    4.651E+00    4.657E+00    4.663E+00    4.669E+00    4.674E+00
     4.680E+00    4.686E+00    4.691E+00    4.697E+00    4.702E+00    4.707E+00    4.713E+00    4.718E+00    4.723E+00    4.728E+00
     4.733E+00    4.738E+00    4.743E+00    4.748E+00    4.753E+00    4.758E+00    4.762E+00    4.767E+00    4.771E+00    4.776E+00
     4.780E+00    4.784E+00    4.789E+00    4.793E+00    4.797E+00    4.801E+00    4.805E+00    4.808E+00    4.812E+00    4.816E+00
     4.819E+00    4.823E+00    4.826E+00    4.830E+00    4.833E+00    4.836E+00    4.839E+00    4.842E+00    4.845E+00    4.848E+00
     4.851E+00    4.853E+00    4.856E+00    4.858E+00    4.861E+00    4.863E+00    4.865E+00    4.868E+00    4.870E+00    4.872E+00
     4.873E+00    4.875E+00    4.877E+00    4.878E+00    4.880E+00    4.881E+00    4.883E+00    4.884E+00    4.885E+00    4.886E+00
     4.887E+00    4.888E+00    4.888E+00    4.889E+00    4.890E+00    4.890E+00    4.890E+00    4.891E+00    4.891E+00    4.891E+00
     4.891E+00    4.890E+00    4.890E+00    4.890E+00    4.889E+00    4.888E+00    4.888E+00    4.887E+00    4.886E+00    4.885E+00
     4.884E+00    4.882E+00    4.881E+00    4.880E+00    4.878E+00    4.876E+00    4.874E+00    4.872E+00    4.870E+00    4.868E+00
     4.866E+00    4.863E+00    4.861E+00    4.858E+00    4.855E+00    4.853E+00    4.850E+00    4.846E+00    4.843E+00    4.840E+00
     4.836E+00    4.833E+00    4.829E+00    4.825E+00    4.821E+00    4.817E+00    4.813E+00    4.808E+00    4.804E+00    4.799E+00
     4.794E+00    4.789E+00    4.784E+00    4.779E+00    4.774E+00    4.769E+00    4.763E+00    4.757E+00    4.752E+00    4.746E+00
     4.740E+00    4.734E+00    4.727E+00    4.721E+00    4.715E+00    4.708E+00    4.701E+00    4.694E+00    4.687E+00    4.680E+00
     4.673E+00    4.666E+00    4.659E+00    4.651E+00    4.643E+00    4.636E+00    4.628E+00    4.620E+00    4.612E+00    4.603E+00
     4.595E+00    4.587E+00    4.578E+00    4.570E+00    4.561E+00    4.552E+00    4.543E+00    4.534E+00    4.525E+00    4.516E+00
     4.506E+00    4.497E+00    4.487E+00    4.478E+00    4.468E+00    4.458E+00    4.448E+00    4.438E+00    4.428E+00    4.418E+00
     4.408E+00    4.397E+00    4.387E+00    4.376E+00    4.365E+00    4.355E+00    4.344E+00    4.333E+00    4.322E+00    4.311E+00
     4.299E+00    4.288E+00    4.277E+00    4.265E+00    4.253E+00    4.242E+00    4.230E+00    4.218E+00    4.206E+00    4.194E+00
     4.182E+00    4.170E+00    4.158E+00    4.146E+00    4.133E+00    4.121E+00    4.108E+00    4.095E+00    4.083E+00    4.070E+00
     4.057E+00    4.044E+00    4.031E+00    4.018E+00    4.005E+00    3.992E+00    3.978E+00    3.965E+00    3.952E+00    3.938E+00
     3.925E+00    3.911E+00    3.897E+00    3.883E+00    3.870E+00    3.856E+00    3.842E+00    3.828E+00    3.814E+00    3.799E+00
     3.785E+00    3.771E+00    3.757E+00    3.742E+00    3.728E+00    3.713E+00    3.699E+00    3.684E+00    3.669E+00    3.655E+00
     3.640E+00    3.625E+00    3.610E+00    3.595E+00    3.580E+00    3.565E+00    3.550E+00    3.535E+00    3.520E+00    3.504E+00
     3.489E+00    3.474E+00    3.458E+00    3.443E+00    3.427E+00    3.412E+00    3.396E+00    3.381E+00    3.365E+00    3.349E+00
     3.333E+00    3.318E+00    3.302E+00    3.286E+00    3.270E+00    3.254E+00    3.238E+00    3.222E+00    3.206E+00    3.190E+00
     3.174E+00    3.157E+00    3.141E+00    3.125E+00    3.109E+00    3.092E+00    3.076E+00    3.059E+00    3.043E+00    3.026E+00
     3.010E+00    2.993E+00    2.977E+00    2.960E+00    2.944E+00    2.927E+00    2.910E+00    2.893E+00    2.877E+00    2.860E+00
     2.843E+00    2.826E+00    2.809E+00    2.792E+00    2.775E+00    2.758E+00    2.741E+00    2.724E+00    2.707E+00    2.690E+00
     2.673E+00    2.656E+00    2.639E+00    2.622E+00    2.604E+00    2.587E+00    2.570E+00    2.553E+00    2.535E+00    2.518E+00
     2.501E+00    2.483E+00    2.466E+00    2.449E+00    2.431E+00    2.414E+00    2.396E+00    2.379E+00    2.362E+00    2.344E+00
     2.327E+00    2.309E+00    2.291E+00    2.274E+00    2.256E+00    2.239E+00    2.221E+00    2.204E+00    2.186E+00    2.168E+00
     2.151E+00    2.133E+00    2.115E+00    2.098E+00    2.080E+00    2.062E+00    2.045E+00    2.027E+00    2.009E+00    1.992E+00
     1.974E+00    1.956E+00    1.938E+00    1.921E+00    1.903E+00    1.885E+00    1.868E+00    1.850E+00    1.832E+00    1.814E+00
     1.797E+00    1.779E+00    1.761E+00    1.743E+00    1.725E+00    1.708E+00    1.690E+00    1.672E+00    1.654E+00    1.637E+00
     1.619E+00    1.601E+00    1.583E+00    1.566E+00    1.548E+00    1.530E+00    1.513E+00    1.495E+00    1.477E+00    1.459E+00
     1.442E+00    1.424E+00    1.406E+00    1.389E+00    1.371E+00    1.353E+00    1.336E+00    1.318E+00
 Ala      Conc. = 7.56E+02
