 LCModel (Version 6.3-1L) Copyright: S.W. Provencher.          Ref.: Magn. Reson. Med. 30:672-679 (1993).                
 Slice#1 Row#5 Col#1  PD_24_press_2_raw_act
 36 lines in following concentration table = NCONC+1
    Conc.  %SD /Cr+PCr  Metabolite                                         
  238.806  78%   0.000 Ala                                                 
   29.086  30%   0.000 Asp                                                 
    0.000 999%   0.000 Cr                                                  
    0.000 999%   0.000 PCr                                                 
   17.424  30%   0.000 GABA                                                
   17.450  30%   0.000 Glc                                                 
    0.000 999%   0.000 Gln                                                 
  892.276  47%   0.000 Glu                                                 
   27.187  64%   0.000 GPC                                                 
    0.000 999%   0.000 PCh                                                 
    0.000 999%   0.000 GSH                                                 
    0.000 999%   0.000 Ins                                                 
   68.747 288%   0.000 Lac                                                 
  499.213  27%   0.000 NAA                                                 
    0.000 999%   0.000 NAAG                                                
    5.913  30%   0.000 Scyllo                                              
   29.185  30%   0.000 Tau                                                 
    0.000 999%   0.000 -CrCH2                                              
   27.187  64%   0.000 GPC+PCh                                             
  499.213  27%   0.000 NAA+NAAG                                            
    0.000 999%   0.000 Cr+PCr                                              
  892.276  47%   0.000 Glu+Gln                                             
  116.090 353%   0.000 Lip13a                                              
    0.000 999%   0.000 Lip13b                                              
    5.759 999%   0.000 Lip09                                               
  297.835  82%   0.000 MM09                                                
   83.291 158%   0.000 Lip20                                               
  279.108 142%   0.000 MM20                                                
   99.918  97%   0.000 MM12                                                
  258.286 109%   0.000 MM14                                                
  589.378  26%   0.000 MM17                                                
  116.090 353%   0.000 Lip13a+Lip13b                                       
  474.294  99%   0.000 MM14+Lip13a+Lip13b+MM12                             
  303.594  75%   0.000 MM09+Lip09                                          
  362.399 112%   0.000 MM20+Lip20                                          
   6 lines in following misc. output table
  FWHM = 0.138 ppm    S/N =   1                                            
  Data shift = 0.397 ppm                                                   
  Ph:  94 deg      61.5 deg/ppm                                            
  alphaB,S = 5.3E+00,   1.0E+01                                            
    7 spline knots.   Ns = 9(2)                                            
   7 inflections.     2 extrema                                            
  498 points on ppm-axis = NY
      4.000000     3.992357     3.984714     3.977070     3.969427     3.961784     3.954141     3.946497     3.938854     3.931211
      3.923568     3.915925     3.908281     3.900638     3.892995     3.885352     3.877708     3.870065     3.862422     3.854779
      3.847136     3.839492     3.831849     3.824206     3.816563     3.808919     3.801276     3.793633     3.785990     3.778347
      3.770703     3.763060     3.755417     3.747774     3.740130     3.732487     3.724844     3.717201     3.709558     3.701914
      3.694271     3.686628     3.678985     3.671341     3.663698     3.656055     3.648412     3.640769     3.633125     3.625482
      3.617839     3.610196     3.602552     3.594909     3.587266     3.579623     3.571980     3.564336     3.556693     3.549050
      3.541407     3.533763     3.526120     3.518477     3.510834     3.503191     3.495547     3.487904     3.480261     3.472618
      3.464974     3.457331     3.449688     3.442045     3.434402     3.426758     3.419115     3.411472     3.403829     3.396185
      3.388542     3.380899     3.373256     3.365613     3.357969     3.350326     3.342683     3.335040     3.327396     3.319753
      3.312110     3.304467     3.296824     3.289180     3.281537     3.273894     3.266251     3.258607     3.250964     3.243321
      3.235678     3.228034     3.220391     3.212748     3.205105     3.197462     3.189818     3.182175     3.174532     3.166889
      3.159245     3.151602     3.143959     3.136316     3.128673     3.121029     3.113386     3.105743     3.098100     3.090456
      3.082813     3.075170     3.067527     3.059884     3.052240     3.044597     3.036954     3.029311     3.021667     3.014024
      3.006381     2.998738     2.991095     2.983451     2.975808     2.968165     2.960522     2.952878     2.945235     2.937592
      2.929949     2.922306     2.914662     2.907019     2.899376     2.891733     2.884089     2.876446     2.868803     2.861160
      2.853517     2.845873     2.838230     2.830587     2.822944     2.815300     2.807657     2.800014     2.792371     2.784728
      2.777084     2.769441     2.761798     2.754155     2.746511     2.738868     2.731225     2.723582     2.715939     2.708295
      2.700652     2.693009     2.685366     2.677722     2.670079     2.662436     2.654793     2.647150     2.639506     2.631863
      2.624220     2.616577     2.608933     2.601290     2.593647     2.586004     2.578361     2.570717     2.563074     2.555431
      2.547788     2.540144     2.532501     2.524858     2.517215     2.509572     2.501928     2.494285     2.486642     2.478999
      2.471355     2.463712     2.456069     2.448426     2.440783     2.433139     2.425496     2.417853     2.410210     2.402566
      2.394923     2.387280     2.379637     2.371994     2.364350     2.356707     2.349064     2.341421     2.333777     2.326134
      2.318491     2.310848     2.303205     2.295561     2.287918     2.280275     2.272632     2.264988     2.257345     2.249702
      2.242059     2.234416     2.226772     2.219129     2.211486     2.203843     2.196199     2.188556     2.180913     2.173270
      2.165627     2.157983     2.150340     2.142697     2.135054     2.127410     2.119767     2.112124     2.104481     2.096838
      2.089194     2.081551     2.073908     2.066265     2.058621     2.050978     2.043335     2.035692     2.028049     2.020405
      2.012762     2.005119     1.997476     1.989833     1.982190     1.974546     1.966903     1.959260     1.951617     1.943974
      1.936331     1.928688     1.921045     1.913402     1.905759     1.898115     1.890472     1.882829     1.875186     1.867543
      1.859900     1.852257     1.844614     1.836971     1.829327     1.821684     1.814041     1.806398     1.798755     1.791112
      1.783469     1.775826     1.768183     1.760540     1.752896     1.745253     1.737610     1.729967     1.722324     1.714681
      1.707038     1.699395     1.691752     1.684108     1.676465     1.668822     1.661179     1.653536     1.645893     1.638250
      1.630607     1.622964     1.615321     1.607677     1.600034     1.592391     1.584748     1.577105     1.569462     1.561819
      1.554176     1.546533     1.538890     1.531246     1.523603     1.515960     1.508317     1.500674     1.493031     1.485388
      1.477745     1.470102     1.462458     1.454815     1.447172     1.439529     1.431886     1.424243     1.416600     1.408957
      1.401314     1.393671     1.386027     1.378384     1.370741     1.363098     1.355455     1.347812     1.340169     1.332526
      1.324883     1.317240     1.309596     1.301953     1.294310     1.286667     1.279024     1.271381     1.263738     1.256095
      1.248452     1.240808     1.233165     1.225522     1.217879     1.210236     1.202593     1.194950     1.187307     1.179664
      1.172021     1.164377     1.156734     1.149091     1.141448     1.133805     1.126162     1.118519     1.110876     1.103233
      1.095590     1.087946     1.080303     1.072660     1.065017     1.057374     1.049731     1.042088     1.034445     1.026802
      1.019158     1.011515     1.003872     0.996229     0.988586     0.980943     0.973300     0.965657     0.958014     0.950371
      0.942727     0.935084     0.927441     0.919798     0.912155     0.904512     0.896869     0.889226     0.881583     0.873940
      0.866296     0.858653     0.851010     0.843367     0.835724     0.828081     0.820438     0.812795     0.805152     0.797508
      0.789865     0.782222     0.774579     0.766936     0.759293     0.751650     0.744007     0.736364     0.728721     0.721077
      0.713434     0.705791     0.698148     0.690505     0.682862     0.675219     0.667576     0.659933     0.652290     0.644646
      0.637003     0.629360     0.621717     0.614074     0.606431     0.598788     0.591145     0.583502     0.575858     0.568215
      0.560572     0.552929     0.545286     0.537643     0.530000     0.522357     0.514714     0.507071     0.499427     0.491784
      0.484141     0.476498     0.468855     0.461212     0.453569     0.445925     0.438282     0.430639     0.422996     0.415353
      0.407710     0.400067     0.392424     0.384780     0.377137     0.369494     0.361851     0.354208     0.346565     0.338922
      0.331278     0.323635     0.315992     0.308349     0.300706     0.293063     0.285420     0.277777     0.270133     0.262490
      0.254847     0.247204     0.239561     0.231918     0.224275     0.216631     0.208988     0.201345
 NY phased data points follow
  -1.37070E+01 -1.20530E+01 -1.09360E+01 -9.95366E+00 -1.55009E+01 -1.53938E+01 -1.13027E+01 -1.90318E+01 -1.88951E+01 -2.70920E+01
  -1.14735E+01 -1.77247E+01 -1.49488E+01 -1.86035E+01 -1.55876E+01 -2.48669E+01 -2.18525E+01 -1.84568E+01 -2.68520E+01 -2.02383E+01
  -1.62993E+01 -1.44506E+01 -1.67792E+01 -1.94314E+01 -1.50911E+01 -2.68997E+01 -1.62030E+01 -1.69410E+01 -2.11753E+01 -7.74327E+00
  -1.65437E+01 -1.49526E+01 -2.22315E+01 -2.41483E+01 -2.10053E+01 -1.96169E+01 -1.15904E+01 -2.65299E+01 -1.42497E+01 -1.99068E+01
  -1.37168E+01 -2.34515E+01 -1.88694E+01 -1.45986E+01 -1.46356E+01 -1.90511E+01 -1.35549E+01 -2.03640E+01 -2.05689E+01 -2.43559E+01
  -1.49172E+01 -2.34282E+01 -2.11954E+01 -2.93771E+01 -2.17979E+01 -1.87347E+01 -1.61634E+01 -1.56206E+01 -1.05775E+01 -2.13929E+01
  -1.91826E+01 -2.03820E+01 -1.86600E+01 -1.68593E+01 -2.09763E+01 -1.87501E+01 -1.79916E+01 -1.69750E+01 -1.69321E+01 -2.27346E+01
  -1.34471E+01 -2.04091E+01 -1.93384E+01 -1.30622E+01 -1.33382E+01 -2.22913E+01 -1.53541E+01 -2.28173E+01 -8.70567E+00 -1.89803E+01
  -1.57406E+01 -1.78366E+01 -1.86278E+01 -2.10364E+01 -1.62991E+01 -2.46483E+01 -1.78799E+01 -2.32190E+01 -2.17310E+01 -1.49831E+01
  -2.70410E+01 -2.79822E+01 -2.80201E+01 -2.13277E+01 -2.67836E+01 -2.54638E+01 -2.99779E+01 -2.84205E+01 -1.68439E+01 -2.09627E+01
  -2.40809E+01 -2.51938E+01 -2.70777E+01 -2.80722E+01 -3.12647E+01 -2.16435E+01 -2.37706E+01 -3.26466E+01 -3.16879E+01 -2.58684E+01
  -2.47531E+01 -2.23211E+01 -2.30419E+01 -1.93485E+01 -2.26296E+01 -3.34717E+01 -3.28086E+01 -3.48574E+01 -2.59424E+01 -2.77919E+01
  -2.64253E+01 -3.14043E+01 -2.15012E+01 -1.94742E+01 -1.77882E+01 -3.21204E+01 -2.38732E+01 -3.44158E+01 -2.63914E+01 -1.79315E+01
  -2.61155E+01 -2.34282E+01 -2.67204E+01 -1.71629E+01 -2.30911E+01 -2.71425E+01 -2.49516E+01 -2.69052E+01 -1.72064E+01 -1.91895E+01
  -2.37101E+01 -2.57071E+01 -1.92698E+01 -1.67790E+01 -1.59859E+01 -2.08715E+01 -1.53778E+01 -1.39110E+01 -1.71034E+01 -1.82228E+01
  -1.25309E+01 -1.53697E+01 -2.65273E+01 -1.81486E+01 -1.52567E+01 -1.83624E+01 -1.56424E+01 -1.96296E+01 -2.27994E+01 -1.10406E+01
  -1.67949E+01 -1.17634E+01 -1.91238E+01 -1.20562E+01 -1.47478E+01 -1.96784E+01 -1.35189E+01 -2.71522E+01 -1.88157E+01 -1.62760E+01
  -1.19356E+01 -1.84634E+01 -1.78034E+01 -1.51859E+01 -2.04730E+01 -8.77226E+00 -2.28132E+01 -1.40850E+01 -2.60059E+01 -2.01659E+01
  -1.51976E+01 -1.47429E+01 -2.10939E+01 -1.87144E+01 -1.63034E+01 -1.89881E+01 -2.47163E+01 -1.58367E+01 -2.25084E+01 -2.39659E+01
  -1.50807E+01 -2.29600E+01 -1.47409E+01 -1.90282E+01 -2.18942E+01 -1.42509E+01 -1.58278E+01 -7.70685E+00 -5.41809E+00 -1.68609E+01
  -1.67813E+01 -1.53611E+01 -1.83500E+01 -1.91734E+01 -2.08245E+01 -1.70140E+01 -2.44801E+01 -1.53989E+01 -1.33855E+01 -1.95635E+01
  -2.20136E+01 -1.19228E+01 -2.38655E+01 -2.16176E+01 -1.96398E+01 -1.75744E+01 -3.26841E+01 -2.34012E+01 -2.77675E+01 -1.40559E+01
  -2.20704E+01 -1.68133E+01 -2.03018E+01 -2.24498E+01 -2.14068E+01 -2.46887E+01 -1.77769E+01 -1.82665E+01 -2.22437E+01 -1.89552E+01
  -1.36054E+01 -1.80565E+01 -1.74668E+01 -2.53411E+01 -1.91111E+01 -1.13659E+01 -1.96798E+01 -8.60150E+00 -2.23528E+01 -1.43545E+01
  -1.25187E+01 -1.23325E+01 -6.29472E+00 -1.58343E+01 -1.06072E+01 -1.28291E+01 -1.18265E+01 -8.33336E+00 -1.05312E+01 -1.39244E+01
  -8.76855E+00 -6.42008E+00 -6.37984E+00 -5.84388E+00 -6.60773E-01 -6.32131E+00 -4.61623E+00 -1.20033E+01 -1.08696E+01 -6.32226E+00
  -1.05430E+01 -2.00871E+00 -1.33877E+01 -1.57707E+01 -1.38636E+01 -2.00897E+01 -1.25523E+01 -1.36845E+01 -2.17461E+01 -2.53559E+01
  -1.64266E+01 -2.45280E+01 -2.00756E+01 -2.10359E+01 -2.25300E+01 -2.52647E+01 -3.00194E+01 -3.05646E+01 -3.22360E+01 -3.90147E+01
  -2.81843E+01 -3.44367E+01 -2.54450E+01 -3.04882E+01 -3.17921E+01 -2.74007E+01 -2.45343E+01 -2.86864E+01 -3.26811E+01 -2.35312E+01
  -2.40300E+01 -3.20861E+01 -2.46198E+01 -2.99087E+01 -2.88520E+01 -2.95162E+01 -3.66668E+01 -2.41406E+01 -2.71857E+01 -2.81483E+01
  -2.29326E+01 -2.54704E+01 -2.54863E+01 -2.50597E+01 -3.06062E+01 -2.42768E+01 -2.70767E+01 -1.81581E+01 -2.09339E+01 -1.13165E+01
  -1.83153E+01 -1.10661E+01 -1.45828E+01 -1.75447E+01 -1.47325E+01 -1.30637E+01 -7.72446E+00 -1.53529E+01 -1.43895E+01 -9.48019E+00
  -3.13665E+00 -1.56298E+01 -1.39615E+01 -1.30047E+01 -6.85749E+00 -1.30682E+01 -1.27963E+01 -1.17695E+01 -1.15178E+01 -1.05091E+01
  -1.36676E+01 -2.37565E+01 -1.52295E+01 -1.88286E+01 -8.65491E+00 -1.39969E+01 -1.48570E+01 -2.22848E+01 -2.17765E+01 -1.58502E+01
  -2.13185E+01 -1.38167E+01 -2.28463E+01 -1.14341E+01 -1.77497E+01 -1.77810E+01 -2.04095E+01 -2.03981E+01 -1.65353E+01 -1.83788E+01
  -1.87445E+01 -1.70939E+01 -1.72949E+01 -1.86959E+01 -1.82935E+01 -3.20220E+01 -2.11042E+01 -1.95687E+01 -1.28685E+01 -2.22587E+01
  -1.88990E+01 -1.99520E+01 -1.55838E+01 -2.23372E+01 -1.13801E+01 -1.71412E+01 -1.60741E+01 -1.81688E+01 -1.47063E+01 -2.17866E+01
  -1.00236E+01 -1.51712E+01 -1.93799E+01 -1.20405E+01 -6.11585E+00 -1.81306E+01 -1.84752E+01 -1.38014E+01 -1.33929E+01 -2.46590E+01
  -2.16045E+01 -1.58466E+01 -1.33802E+01 -2.01379E+01 -9.85477E+00 -1.76694E+01 -1.51210E+01 -9.38930E+00 -8.99187E+00 -1.77019E+01
  -1.64505E+01 -1.09958E+01 -1.22269E+01 -9.69982E+00 -1.55420E+01 -1.98454E+01 -2.19999E+01 -1.27359E+01 -1.36242E+01 -1.76460E+01
  -2.20894E+01 -1.94599E+01 -2.35714E+01 -1.10277E+01 -1.27423E+01 -1.76829E+01 -8.23302E+00 -1.31086E+01 -1.38655E+01 -1.76182E+01
  -1.20468E+01 -1.26155E+01 -1.24598E+01 -1.42470E+01 -1.42531E+01 -1.45364E+01 -1.13782E+01 -1.22191E+01 -1.41965E+01 -2.07369E+01
  -1.64544E+01 -1.05932E+01 -1.55780E+01 -1.20712E+01 -1.43703E+01 -1.22917E+01 -1.27110E+01 -1.22170E+01 -8.32656E+00 -9.46212E+00
  -1.36347E+01 -1.11530E+01 -1.54352E+01 -1.50145E+01 -8.54440E+00 -2.10965E+01 -2.10189E+00 -1.72923E+01 -1.35204E+01 -1.03034E+01
  -1.50965E+01 -1.49009E+01 -5.93539E+00 -9.41583E+00 -1.23849E+01 -1.28048E+01 -9.05038E+00 -1.04166E+01 -1.30230E+01 -1.05838E+01
  -1.00747E+01 -1.65966E+01 -1.44468E+01 -1.19832E+01 -1.29253E+01 -7.71783E+00 -1.58893E+01 -1.17698E+01 -9.98768E+00 -3.11825E+00
  -2.43783E+00 -7.56940E+00 -1.06071E+01 -1.13061E+01 -1.20514E+01 -1.03583E+01 -1.10448E+01 -1.11754E+01 -1.04442E+01 -1.10863E+01
  -7.87052E+00 -1.31768E+01 -7.73456E+00 -4.28358E+00 -1.04645E+01 -1.10549E+01 -1.38617E+01 -1.16784E+01 -5.58236E+00 -1.34227E+01
  -9.79415E+00 -4.66856E+00 -1.46024E+01 -6.82986E+00 -6.44596E+00 -2.90346E-02 -1.11554E+01 -1.41184E+01 -5.78953E+00 -4.42595E+00
  -4.26888E+00 -1.45054E+01 -1.17813E+01 -1.60215E+01 -1.57244E+01 -2.08303E+00 -1.45103E+01 -1.75904E+01
 NY points of the fit to the data follow
  -1.61931E+01 -1.62042E+01 -1.61377E+01 -1.61617E+01 -1.62208E+01 -1.62133E+01 -1.61829E+01 -1.61739E+01 -1.63596E+01 -1.66681E+01
  -1.73311E+01 -1.72394E+01 -1.76403E+01 -1.72523E+01 -1.71762E+01 -1.62670E+01 -1.63054E+01 -1.61712E+01 -1.71257E+01 -1.72028E+01
  -1.83372E+01 -1.81282E+01 -1.84445E+01 -1.79010E+01 -1.79557E+01 -1.74894E+01 -1.76860E+01 -1.75858E+01 -1.80359E+01 -1.81726E+01
  -1.85225E+01 -1.86546E+01 -1.88027E+01 -1.90601E+01 -1.89735E+01 -1.91168E+01 -1.87686E+01 -1.91560E+01 -1.91391E+01 -1.95459E+01
  -1.95031E+01 -1.99635E+01 -1.95127E+01 -1.94810E+01 -1.85049E+01 -1.86511E+01 -1.85285E+01 -1.95900E+01 -2.07415E+01 -2.14453E+01
  -2.15037E+01 -2.12572E+01 -2.03086E+01 -1.92722E+01 -1.86498E+01 -1.87241E+01 -1.95039E+01 -1.97588E+01 -2.04407E+01 -2.04823E+01
  -2.02542E+01 -2.00890E+01 -2.00106E+01 -1.99090E+01 -1.99224E+01 -1.98380E+01 -1.98308E+01 -1.97640E+01 -1.97002E+01 -1.96937E+01
  -1.96672E+01 -1.97293E+01 -1.97137E+01 -1.97769E+01 -1.97447E+01 -1.98139E+01 -1.97671E+01 -1.98496E+01 -1.97713E+01 -1.98353E+01
  -1.97198E+01 -1.97531E+01 -1.96505E+01 -1.95476E+01 -1.89587E+01 -1.86253E+01 -1.87985E+01 -1.86282E+01 -1.89779E+01 -1.87881E+01
  -1.91552E+01 -1.89057E+01 -1.91246E+01 -1.87537E+01 -1.90970E+01 -1.86367E+01 -1.92039E+01 -1.89583E+01 -1.97025E+01 -1.95701E+01
  -2.03016E+01 -2.01868E+01 -2.07924E+01 -2.06835E+01 -2.11044E+01 -2.10029E+01 -2.11912E+01 -2.12391E+01 -2.14669E+01 -2.15975E+01
  -2.19455E+01 -2.22108E+01 -2.20916E+01 -2.23071E+01 -2.22444E+01 -2.25359E+01 -2.25472E+01 -2.29399E+01 -2.27410E+01 -2.31085E+01
  -2.24044E+01 -2.24021E+01 -2.11043E+01 -2.07051E+01 -2.07301E+01 -2.07508E+01 -2.07868E+01 -2.07892E+01 -2.07800E+01 -2.08116E+01
  -2.08169E+01 -2.08343E+01 -2.08441E+01 -2.08586E+01 -2.08697E+01 -2.08807E+01 -2.08840E+01 -2.08922E+01 -2.09033E+01 -2.09171E+01
  -2.09435E+01 -2.09639E+01 -2.10575E+01 -2.12149E+01 -2.12209E+01 -2.12665E+01 -2.11623E+01 -2.11206E+01 -2.11650E+01 -2.11788E+01
  -2.12431E+01 -2.12991E+01 -2.13915E+01 -2.14714E+01 -2.15387E+01 -2.15797E+01 -2.16388E+01 -2.16986E+01 -2.18846E+01 -2.18413E+01
  -2.18767E+01 -2.18595E+01 -2.19690E+01 -2.20831E+01 -2.20936E+01 -2.21404E+01 -2.21144E+01 -2.21614E+01 -2.21483E+01 -2.21926E+01
  -2.19964E+01 -2.20054E+01 -2.17999E+01 -2.18425E+01 -2.15372E+01 -2.14808E+01 -2.11818E+01 -2.10865E+01 -2.08012E+01 -2.07437E+01
  -2.06425E+01 -2.07701E+01 -2.04930E+01 -2.03642E+01 -1.99831E+01 -1.96546E+01 -1.94846E+01 -1.92835E+01 -1.90805E+01 -1.89468E+01
  -1.90886E+01 -1.89303E+01 -1.95670E+01 -1.95000E+01 -2.01499E+01 -1.99861E+01 -2.02712E+01 -1.95379E+01 -1.86358E+01 -1.78521E+01
  -1.85461E+01 -1.83784E+01 -1.96483E+01 -1.97627E+01 -2.17371E+01 -2.23953E+01 -2.31095E+01 -2.23927E+01 -2.25092E+01 -2.14421E+01
  -2.18886E+01 -2.13440E+01 -2.23916E+01 -2.24215E+01 -2.34987E+01 -2.33162E+01 -2.37464E+01 -2.32139E+01 -2.31833E+01 -2.24762E+01
  -2.22903E+01 -2.16370E+01 -2.15573E+01 -2.14490E+01 -2.11712E+01 -2.16463E+01 -2.04395E+01 -2.05298E+01 -1.98010E+01 -1.99348E+01
  -1.98905E+01 -2.04986E+01 -2.08022E+01 -2.23788E+01 -2.11790E+01 -2.11088E+01 -1.81374E+01 -1.71310E+01 -1.62438E+01 -1.61728E+01
  -1.63907E+01 -1.70614E+01 -1.45645E+01 -1.42569E+01 -1.37976E+01 -1.22983E+01 -1.21509E+01 -1.08555E+01 -1.08988E+01 -9.42105E+00
  -8.78566E+00 -6.98494E+00 -6.73687E+00 -5.02013E+00 -5.93868E+00 -4.50048E+00 -6.30565E+00 -5.15788E+00 -7.42527E+00 -6.71111E+00
  -9.36244E+00 -9.77113E+00 -1.22758E+01 -1.30214E+01 -1.47458E+01 -1.48352E+01 -1.58249E+01 -1.63580E+01 -1.89273E+01 -2.05226E+01
  -2.13179E+01 -2.26205E+01 -2.33875E+01 -2.45865E+01 -2.59304E+01 -2.81009E+01 -2.99203E+01 -3.26386E+01 -3.18475E+01 -3.27719E+01
  -2.60105E+01 -2.32612E+01 -2.20871E+01 -2.18306E+01 -2.12495E+01 -2.10952E+01 -2.10336E+01 -2.09205E+01 -2.08374E+01 -2.08461E+01
  -2.09261E+01 -2.10241E+01 -2.11766E+01 -2.12557E+01 -2.12082E+01 -2.11126E+01 -2.10395E+01 -2.09208E+01 -2.08337E+01 -2.07090E+01
  -2.05950E+01 -2.04881E+01 -2.03232E+01 -2.01098E+01 -1.98477E+01 -1.95208E+01 -1.91236E+01 -1.86308E+01 -1.79595E+01 -1.68284E+01
  -1.58884E+01 -1.59869E+01 -1.53633E+01 -1.56930E+01 -1.51772E+01 -1.56821E+01 -1.55004E+01 -1.59664E+01 -1.44115E+01 -1.49616E+01
  -1.36108E+01 -1.47626E+01 -1.38010E+01 -1.53114E+01 -1.46870E+01 -1.62393E+01 -1.54716E+01 -1.68037E+01 -1.57219E+01 -1.65061E+01
  -1.55414E+01 -1.63703E+01 -1.56940E+01 -1.64743E+01 -1.61640E+01 -1.70741E+01 -1.72279E+01 -1.69887E+01 -1.69374E+01 -1.67277E+01
  -1.69003E+01 -1.68371E+01 -1.72301E+01 -1.68907E+01 -1.80001E+01 -1.68518E+01 -1.71868E+01 -1.51094E+01 -1.47835E+01 -1.45731E+01
  -1.53161E+01 -1.51964E+01 -1.66629E+01 -1.69287E+01 -1.85546E+01 -1.89936E+01 -1.84037E+01 -1.80232E+01 -1.77999E+01 -1.76422E+01
  -1.75411E+01 -1.75021E+01 -1.74131E+01 -1.75025E+01 -1.74751E+01 -1.72723E+01 -1.70702E+01 -1.65475E+01 -1.64051E+01 -1.65129E+01
  -1.65355E+01 -1.67902E+01 -1.69883E+01 -1.72682E+01 -1.75613E+01 -1.74104E+01 -1.72912E+01 -1.72177E+01 -1.71650E+01 -1.71222E+01
  -1.70840E+01 -1.70469E+01 -1.70088E+01 -1.69679E+01 -1.69228E+01 -1.68720E+01 -1.68144E+01 -1.67488E+01 -1.66740E+01 -1.65890E+01
  -1.64931E+01 -1.63853E+01 -1.62653E+01 -1.61328E+01 -1.59880E+01 -1.58312E+01 -1.56635E+01 -1.54861E+01 -1.53007E+01 -1.51094E+01
  -1.49149E+01 -1.47196E+01 -1.45265E+01 -1.43384E+01 -1.41581E+01 -1.39883E+01 -1.38312E+01 -1.36886E+01 -1.35618E+01 -1.34517E+01
  -1.33584E+01 -1.32818E+01 -1.32209E+01 -1.31746E+01 -1.31413E+01 -1.31192E+01 -1.31064E+01 -1.31009E+01 -1.31008E+01 -1.31041E+01
  -1.31093E+01 -1.31148E+01 -1.31194E+01 -1.31221E+01 -1.31221E+01 -1.31187E+01 -1.31117E+01 -1.31007E+01 -1.30857E+01 -1.30667E+01
  -1.30437E+01 -1.30169E+01 -1.29865E+01 -1.29528E+01 -1.29159E+01 -1.28761E+01 -1.28335E+01 -1.27884E+01 -1.27410E+01 -1.26914E+01
  -1.26399E+01 -1.25865E+01 -1.25315E+01 -1.24749E+01 -1.24169E+01 -1.23575E+01 -1.22969E+01 -1.22351E+01 -1.21722E+01 -1.21083E+01
  -1.20434E+01 -1.19776E+01 -1.19110E+01 -1.18435E+01 -1.17753E+01 -1.17064E+01 -1.16368E+01 -1.15665E+01 -1.14956E+01 -1.14240E+01
  -1.13520E+01 -1.12794E+01 -1.12063E+01 -1.11327E+01 -1.10587E+01 -1.09841E+01 -1.09092E+01 -1.08339E+01 -1.07583E+01 -1.06822E+01
  -1.06058E+01 -1.05290E+01 -1.04520E+01 -1.03747E+01 -1.02971E+01 -1.02193E+01 -1.01413E+01 -1.00630E+01 -9.98460E+00 -9.90602E+00
  -9.82729E+00 -9.74844E+00 -9.66953E+00 -9.59059E+00 -9.51165E+00 -9.43272E+00 -9.35386E+00 -9.27513E+00 -9.19661E+00 -9.11836E+00
  -9.04046E+00 -8.96299E+00 -8.88608E+00 -8.80992E+00 -8.73470E+00 -8.66066E+00 -8.58812E+00 -8.51751E+00
 NY background values follow
    -1.757E+01   -1.763E+01   -1.770E+01   -1.776E+01   -1.783E+01   -1.789E+01   -1.796E+01   -1.802E+01   -1.808E+01   -1.814E+01
    -1.821E+01   -1.827E+01   -1.833E+01   -1.838E+01   -1.844E+01   -1.850E+01   -1.856E+01   -1.861E+01   -1.867E+01   -1.872E+01
    -1.878E+01   -1.883E+01   -1.888E+01   -1.894E+01   -1.899E+01   -1.904E+01   -1.909E+01   -1.914E+01   -1.919E+01   -1.923E+01
    -1.928E+01   -1.933E+01   -1.937E+01   -1.942E+01   -1.946E+01   -1.951E+01   -1.955E+01   -1.959E+01   -1.964E+01   -1.968E+01
    -1.972E+01   -1.976E+01   -1.980E+01   -1.984E+01   -1.988E+01   -1.991E+01   -1.995E+01   -1.999E+01   -2.002E+01   -2.006E+01
    -2.010E+01   -2.013E+01   -2.016E+01   -2.020E+01   -2.023E+01   -2.026E+01   -2.029E+01   -2.032E+01   -2.035E+01   -2.038E+01
    -2.041E+01   -2.044E+01   -2.047E+01   -2.050E+01   -2.052E+01   -2.055E+01   -2.057E+01   -2.060E+01   -2.062E+01   -2.065E+01
    -2.067E+01   -2.070E+01   -2.072E+01   -2.074E+01   -2.076E+01   -2.078E+01   -2.081E+01   -2.083E+01   -2.085E+01   -2.086E+01
    -2.088E+01   -2.090E+01   -2.092E+01   -2.094E+01   -2.096E+01   -2.097E+01   -2.099E+01   -2.100E+01   -2.102E+01   -2.103E+01
    -2.105E+01   -2.106E+01   -2.108E+01   -2.109E+01   -2.110E+01   -2.112E+01   -2.113E+01   -2.114E+01   -2.115E+01   -2.116E+01
    -2.117E+01   -2.118E+01   -2.119E+01   -2.120E+01   -2.121E+01   -2.122E+01   -2.123E+01   -2.124E+01   -2.125E+01   -2.126E+01
    -2.126E+01   -2.127E+01   -2.128E+01   -2.129E+01   -2.129E+01   -2.130E+01   -2.130E+01   -2.131E+01   -2.132E+01   -2.132E+01
    -2.133E+01   -2.133E+01   -2.133E+01   -2.134E+01   -2.134E+01   -2.135E+01   -2.135E+01   -2.135E+01   -2.136E+01   -2.136E+01
    -2.136E+01   -2.137E+01   -2.137E+01   -2.137E+01   -2.137E+01   -2.138E+01   -2.138E+01   -2.138E+01   -2.138E+01   -2.138E+01
    -2.138E+01   -2.139E+01   -2.139E+01   -2.139E+01   -2.139E+01   -2.139E+01   -2.139E+01   -2.139E+01   -2.139E+01   -2.139E+01
    -2.139E+01   -2.139E+01   -2.139E+01   -2.139E+01   -2.139E+01   -2.139E+01   -2.139E+01   -2.138E+01   -2.138E+01   -2.138E+01
    -2.138E+01   -2.138E+01   -2.138E+01   -2.138E+01   -2.137E+01   -2.137E+01   -2.137E+01   -2.137E+01   -2.137E+01   -2.136E+01
    -2.136E+01   -2.136E+01   -2.136E+01   -2.135E+01   -2.135E+01   -2.135E+01   -2.135E+01   -2.134E+01   -2.134E+01   -2.134E+01
    -2.134E+01   -2.133E+01   -2.133E+01   -2.133E+01   -2.132E+01   -2.132E+01   -2.132E+01   -2.131E+01   -2.131E+01   -2.131E+01
    -2.130E+01   -2.130E+01   -2.129E+01   -2.129E+01   -2.129E+01   -2.128E+01   -2.128E+01   -2.128E+01   -2.127E+01   -2.127E+01
    -2.126E+01   -2.126E+01   -2.126E+01   -2.125E+01   -2.125E+01   -2.124E+01   -2.124E+01   -2.124E+01   -2.123E+01   -2.123E+01
    -2.122E+01   -2.122E+01   -2.122E+01   -2.121E+01   -2.121E+01   -2.120E+01   -2.120E+01   -2.119E+01   -2.119E+01   -2.119E+01
    -2.118E+01   -2.118E+01   -2.117E+01   -2.117E+01   -2.116E+01   -2.116E+01   -2.115E+01   -2.115E+01   -2.115E+01   -2.114E+01
    -2.114E+01   -2.113E+01   -2.113E+01   -2.112E+01   -2.112E+01   -2.111E+01   -2.111E+01   -2.111E+01   -2.110E+01   -2.110E+01
    -2.109E+01   -2.109E+01   -2.108E+01   -2.108E+01   -2.107E+01   -2.107E+01   -2.106E+01   -2.106E+01   -2.106E+01   -2.105E+01
    -2.105E+01   -2.104E+01   -2.104E+01   -2.103E+01   -2.103E+01   -2.102E+01   -2.102E+01   -2.101E+01   -2.101E+01   -2.100E+01
    -2.100E+01   -2.099E+01   -2.099E+01   -2.098E+01   -2.098E+01   -2.097E+01   -2.097E+01   -2.096E+01   -2.096E+01   -2.095E+01
    -2.094E+01   -2.094E+01   -2.093E+01   -2.093E+01   -2.092E+01   -2.091E+01   -2.091E+01   -2.090E+01   -2.089E+01   -2.088E+01
    -2.088E+01   -2.087E+01   -2.086E+01   -2.085E+01   -2.084E+01   -2.083E+01   -2.082E+01   -2.082E+01   -2.081E+01   -2.080E+01
    -2.079E+01   -2.078E+01   -2.077E+01   -2.075E+01   -2.074E+01   -2.073E+01   -2.072E+01   -2.071E+01   -2.070E+01   -2.068E+01
    -2.067E+01   -2.066E+01   -2.064E+01   -2.063E+01   -2.061E+01   -2.060E+01   -2.059E+01   -2.057E+01   -2.055E+01   -2.054E+01
    -2.052E+01   -2.050E+01   -2.049E+01   -2.047E+01   -2.045E+01   -2.043E+01   -2.041E+01   -2.040E+01   -2.038E+01   -2.036E+01
    -2.033E+01   -2.031E+01   -2.029E+01   -2.027E+01   -2.025E+01   -2.023E+01   -2.020E+01   -2.018E+01   -2.015E+01   -2.013E+01
    -2.010E+01   -2.008E+01   -2.005E+01   -2.003E+01   -2.000E+01   -1.997E+01   -1.994E+01   -1.992E+01   -1.989E+01   -1.986E+01
    -1.983E+01   -1.980E+01   -1.976E+01   -1.973E+01   -1.970E+01   -1.967E+01   -1.963E+01   -1.960E+01   -1.957E+01   -1.953E+01
    -1.949E+01   -1.946E+01   -1.942E+01   -1.938E+01   -1.935E+01   -1.931E+01   -1.927E+01   -1.923E+01   -1.919E+01   -1.915E+01
    -1.911E+01   -1.907E+01   -1.902E+01   -1.898E+01   -1.894E+01   -1.889E+01   -1.885E+01   -1.880E+01   -1.875E+01   -1.871E+01
    -1.866E+01   -1.861E+01   -1.856E+01   -1.851E+01   -1.846E+01   -1.841E+01   -1.836E+01   -1.831E+01   -1.826E+01   -1.821E+01
    -1.815E+01   -1.810E+01   -1.804E+01   -1.799E+01   -1.793E+01   -1.788E+01   -1.782E+01   -1.776E+01   -1.770E+01   -1.765E+01
    -1.759E+01   -1.753E+01   -1.747E+01   -1.741E+01   -1.734E+01   -1.728E+01   -1.722E+01   -1.716E+01   -1.709E+01   -1.703E+01
    -1.697E+01   -1.690E+01   -1.684E+01   -1.677E+01   -1.671E+01   -1.664E+01   -1.657E+01   -1.650E+01   -1.644E+01   -1.637E+01
    -1.630E+01   -1.623E+01   -1.616E+01   -1.609E+01   -1.602E+01   -1.595E+01   -1.588E+01   -1.581E+01   -1.573E+01   -1.566E+01
    -1.559E+01   -1.552E+01   -1.544E+01   -1.537E+01   -1.529E+01   -1.522E+01   -1.514E+01   -1.507E+01   -1.499E+01   -1.492E+01
    -1.484E+01   -1.476E+01   -1.469E+01   -1.461E+01   -1.453E+01   -1.445E+01   -1.437E+01   -1.430E+01   -1.422E+01   -1.414E+01
    -1.406E+01   -1.398E+01   -1.390E+01   -1.382E+01   -1.374E+01   -1.365E+01   -1.357E+01   -1.349E+01   -1.341E+01   -1.333E+01
    -1.324E+01   -1.316E+01   -1.308E+01   -1.300E+01   -1.291E+01   -1.283E+01   -1.274E+01   -1.266E+01   -1.258E+01   -1.249E+01
    -1.241E+01   -1.232E+01   -1.223E+01   -1.215E+01   -1.206E+01   -1.198E+01   -1.189E+01   -1.180E+01   -1.172E+01   -1.163E+01
    -1.154E+01   -1.146E+01   -1.137E+01   -1.128E+01   -1.119E+01   -1.110E+01   -1.102E+01   -1.093E+01   -1.084E+01   -1.075E+01
    -1.066E+01   -1.057E+01   -1.048E+01   -1.039E+01   -1.030E+01   -1.021E+01   -1.012E+01   -1.003E+01   -9.940E+00   -9.850E+00
    -9.759E+00   -9.668E+00   -9.577E+00   -9.485E+00   -9.394E+00   -9.302E+00   -9.210E+00   -9.118E+00
 Ala      Conc. = 2.39E+02
