 LCModel (Version 6.3-1L) Copyright: S.W. Provencher.          Ref.: Magn. Reson. Med. 30:672-679 (1993).                
 Slice#2 Row#1 Col#12  PD_24_press_2_raw_act
 36 lines in following concentration table = NCONC+1
    Conc.  %SD /Cr+PCr  Metabolite                                         
    0.000 999%   0.000 Ala                                                 
   47.132  67%   1.248 Asp                                                 
   37.753 183%   1.000 Cr                                                  
    0.000 999%   0.000 PCr                                                 
   27.115  70%   0.718 GABA                                                
   25.894  73%   0.686 Glc                                                 
    0.000 999%   0.000 Gln                                                 
    0.000 999%   0.000 Glu                                                 
    0.000 999%   0.000 GPC                                                 
    0.000 999%   0.000 PCh                                                 
    0.000 999%   0.000 GSH                                                 
    0.000 999%   0.000 Ins                                                 
    0.000 999%   0.000 Lac                                                 
  440.339  22%  11.664 NAA                                                 
  418.498  23%  11.085 NAAG                                                
    7.302  86%   0.193 Scyllo                                              
   44.151  71%   1.169 Tau                                                 
    0.000 999%   0.000 -CrCH2                                              
    0.000 999%   0.000 GPC+PCh                                             
  858.836  11%  22.749 NAA+NAAG                                            
   37.753 183%   1.000 Cr+PCr                                              
    0.000 999%   0.000 Glu+Gln                                             
    0.000 999%   0.000 Lip13a                                              
    0.000 999%   0.000 Lip13b                                              
    0.000 999%   0.000 Lip09                                               
    0.650 999% 1.7E-02 MM09                                                
 1.30E-02 999% 3.4E-04 Lip20                                               
    1.340 921% 3.5E-02 MM20                                                
    0.188 999% 5.0E-03 MM12                                                
    0.000 999%   0.000 MM14                                                
    0.138 999% 3.7E-03 MM17                                                
    0.000 999%   0.000 Lip13a+Lip13b                                       
    0.188 999% 5.0E-03 MM14+Lip13a+Lip13b+MM12                             
    0.650 999% 1.7E-02 MM09+Lip09                                          
    1.353 915% 3.6E-02 MM20+Lip20                                          
   6 lines in following misc. output table
  FWHM = 0.099 ppm    S/N =   1                                            
  Data shift = 0.161 ppm                                                   
  Ph:  71 deg      24.5 deg/ppm                                            
  alphaB,S = 6.5E-01,   4.1E+01                                            
   14 spline knots.   Ns = 7(1)                                            
  (11) 4 infls.   ( 9) 3 extrs.                                            
  498 points on ppm-axis = NY
      4.000000     3.992357     3.984714     3.977070     3.969427     3.961784     3.954141     3.946497     3.938854     3.931211
      3.923568     3.915925     3.908281     3.900638     3.892995     3.885352     3.877708     3.870065     3.862422     3.854779
      3.847136     3.839492     3.831849     3.824206     3.816563     3.808919     3.801276     3.793633     3.785990     3.778347
      3.770703     3.763060     3.755417     3.747774     3.740130     3.732487     3.724844     3.717201     3.709558     3.701914
      3.694271     3.686628     3.678985     3.671341     3.663698     3.656055     3.648412     3.640769     3.633125     3.625482
      3.617839     3.610196     3.602552     3.594909     3.587266     3.579623     3.571980     3.564336     3.556693     3.549050
      3.541407     3.533763     3.526120     3.518477     3.510834     3.503191     3.495547     3.487904     3.480261     3.472618
      3.464974     3.457331     3.449688     3.442045     3.434402     3.426758     3.419115     3.411472     3.403829     3.396185
      3.388542     3.380899     3.373256     3.365613     3.357969     3.350326     3.342683     3.335040     3.327396     3.319753
      3.312110     3.304467     3.296824     3.289180     3.281537     3.273894     3.266251     3.258607     3.250964     3.243321
      3.235678     3.228034     3.220391     3.212748     3.205105     3.197462     3.189818     3.182175     3.174532     3.166889
      3.159245     3.151602     3.143959     3.136316     3.128673     3.121029     3.113386     3.105743     3.098100     3.090456
      3.082813     3.075170     3.067527     3.059884     3.052240     3.044597     3.036954     3.029311     3.021667     3.014024
      3.006381     2.998738     2.991095     2.983451     2.975808     2.968165     2.960522     2.952878     2.945235     2.937592
      2.929949     2.922306     2.914662     2.907019     2.899376     2.891733     2.884089     2.876446     2.868803     2.861160
      2.853517     2.845873     2.838230     2.830587     2.822944     2.815300     2.807657     2.800014     2.792371     2.784728
      2.777084     2.769441     2.761798     2.754155     2.746511     2.738868     2.731225     2.723582     2.715939     2.708295
      2.700652     2.693009     2.685366     2.677722     2.670079     2.662436     2.654793     2.647150     2.639506     2.631863
      2.624220     2.616577     2.608933     2.601290     2.593647     2.586004     2.578361     2.570717     2.563074     2.555431
      2.547788     2.540144     2.532501     2.524858     2.517215     2.509572     2.501928     2.494285     2.486642     2.478999
      2.471355     2.463712     2.456069     2.448426     2.440783     2.433139     2.425496     2.417853     2.410210     2.402566
      2.394923     2.387280     2.379637     2.371994     2.364350     2.356707     2.349064     2.341421     2.333777     2.326134
      2.318491     2.310848     2.303205     2.295561     2.287918     2.280275     2.272632     2.264988     2.257345     2.249702
      2.242059     2.234416     2.226772     2.219129     2.211486     2.203843     2.196199     2.188556     2.180913     2.173270
      2.165627     2.157983     2.150340     2.142697     2.135054     2.127410     2.119767     2.112124     2.104481     2.096838
      2.089194     2.081551     2.073908     2.066265     2.058621     2.050978     2.043335     2.035692     2.028049     2.020405
      2.012762     2.005119     1.997476     1.989833     1.982190     1.974546     1.966903     1.959260     1.951617     1.943974
      1.936331     1.928688     1.921045     1.913402     1.905759     1.898115     1.890472     1.882829     1.875186     1.867543
      1.859900     1.852257     1.844614     1.836971     1.829327     1.821684     1.814041     1.806398     1.798755     1.791112
      1.783469     1.775826     1.768183     1.760540     1.752896     1.745253     1.737610     1.729967     1.722324     1.714681
      1.707038     1.699395     1.691752     1.684108     1.676465     1.668822     1.661179     1.653536     1.645893     1.638250
      1.630607     1.622964     1.615321     1.607677     1.600034     1.592391     1.584748     1.577105     1.569462     1.561819
      1.554176     1.546533     1.538890     1.531246     1.523603     1.515960     1.508317     1.500674     1.493031     1.485388
      1.477745     1.470102     1.462458     1.454815     1.447172     1.439529     1.431886     1.424243     1.416600     1.408957
      1.401314     1.393671     1.386027     1.378384     1.370741     1.363098     1.355455     1.347812     1.340169     1.332526
      1.324883     1.317240     1.309596     1.301953     1.294310     1.286667     1.279024     1.271381     1.263738     1.256095
      1.248452     1.240808     1.233165     1.225522     1.217879     1.210236     1.202593     1.194950     1.187307     1.179664
      1.172021     1.164377     1.156734     1.149091     1.141448     1.133805     1.126162     1.118519     1.110876     1.103233
      1.095590     1.087946     1.080303     1.072660     1.065017     1.057374     1.049731     1.042088     1.034445     1.026802
      1.019158     1.011515     1.003872     0.996229     0.988586     0.980943     0.973300     0.965657     0.958014     0.950371
      0.942727     0.935084     0.927441     0.919798     0.912155     0.904512     0.896869     0.889226     0.881583     0.873940
      0.866296     0.858653     0.851010     0.843367     0.835724     0.828081     0.820438     0.812795     0.805152     0.797508
      0.789865     0.782222     0.774579     0.766936     0.759293     0.751650     0.744007     0.736364     0.728721     0.721077
      0.713434     0.705791     0.698148     0.690505     0.682862     0.675219     0.667576     0.659933     0.652290     0.644646
      0.637003     0.629360     0.621717     0.614074     0.606431     0.598788     0.591145     0.583502     0.575858     0.568215
      0.560572     0.552929     0.545286     0.537643     0.530000     0.522357     0.514714     0.507071     0.499427     0.491784
      0.484141     0.476498     0.468855     0.461212     0.453569     0.445925     0.438282     0.430639     0.422996     0.415353
      0.407710     0.400067     0.392424     0.384780     0.377137     0.369494     0.361851     0.354208     0.346565     0.338922
      0.331278     0.323635     0.315992     0.308349     0.300706     0.293063     0.285420     0.277777     0.270133     0.262490
      0.254847     0.247204     0.239561     0.231918     0.224275     0.216631     0.208988     0.201345
 NY phased data points follow
   6.65827E+00  2.26259E+00  5.57383E+00  1.13537E+00 -2.73355E-01  5.89780E+00  8.97066E+00  7.14984E+00  6.41513E+00  7.50497E+00
   2.56621E+00  1.11470E+01 -2.11070E+00 -8.70015E-01  6.64876E+00  3.40651E+00  6.36425E+00  7.77117E+00  6.76754E+00 -2.87021E+00
   2.45724E+00  4.05572E+00  5.77204E+00  1.17060E+00  3.31066E+00  3.44864E+00 -2.28970E+00  3.33832E+00  3.65016E+00  3.94808E+00
   5.61541E+00  6.52796E+00  4.98440E+00  4.32351E+00  4.82546E+00 -8.80868E-01  2.62023E+00 -3.97639E+00 -2.16530E-01  3.30104E+00
  -3.61380E+00  5.10690E+00  4.70269E+00  8.77081E-02  4.06790E+00  3.44532E+00  1.31532E+00  5.97075E+00  9.76370E+00  2.26351E+00
   8.70614E-01  8.45056E+00  6.46854E+00 -4.95884E+00  3.36603E+00  6.56430E+00  4.00092E+00 -2.14997E+00  5.30216E+00  2.40028E+00
   6.72563E+00  4.25465E+00  3.88737E+00  8.64084E-01  1.09140E+00  5.58249E+00 -2.10459E-01  2.64489E+00 -6.05477E+00  6.49550E+00
   9.28383E+00 -5.43601E-01  6.13118E+00  1.23497E+01  8.40279E+00  3.49923E+00  4.62356E+00 -6.83605E-01  1.32360E+01  6.91294E+00
   3.33247E+00  5.69808E-01  7.16508E+00  7.98588E-01 -4.16713E+00 -9.97598E-01 -3.16435E+00 -3.46072E-01  2.77001E+00 -2.82409E+00
   1.25882E+01  4.54066E+00 -1.81103E+00  1.43616E+00  7.39761E-01  5.71577E+00  3.21373E+00  8.75896E+00 -8.15249E-01  1.22385E+01
   2.08404E+00  1.13526E+01  1.23051E+01  3.31065E+00  1.13979E+01  7.21875E+00  2.98599E+00  7.72782E-01  2.73217E+00  7.33659E-01
  -1.29287E+00  4.38318E+00  4.14263E+00  5.59261E+00  7.82760E+00  1.01860E+01  5.64726E+00  3.62629E+00  5.62192E-01  6.75094E+00
   2.61526E+00 -1.52321E+00 -6.07138E+00  1.00520E+01  7.93416E+00  1.14720E+01  3.04044E+00 -1.21241E+00  7.77218E+00  1.37216E+01
   1.41629E+00  3.79187E+00  8.70041E+00 -1.65748E+00  8.55776E+00  5.68654E-01  2.89243E+00  3.01243E+00  5.90170E+00  2.63410E+00
   2.85140E+00  8.55623E+00  4.76173E+00  8.52077E-01  3.59347E+00  3.07955E+00  6.12109E+00  4.56399E+00  4.92954E+00  6.62419E+00
   9.11442E-01 -4.53126E+00  7.72658E+00  1.18574E+01  3.03089E+00  6.14414E+00  1.79801E+00  2.48930E+00  3.05217E+00  3.86478E+00
   1.75512E+00  9.27084E-01  8.49544E+00  4.99687E+00  1.17183E+01  7.65612E+00  5.12743E-01  4.96336E+00  1.01538E+01  9.40885E-01
   1.10796E+00  4.43008E-01  2.41072E+00 -3.26182E+00  3.74185E+00 -4.53112E+00  6.51916E+00  4.78952E+00  3.96230E+00  1.23869E+01
   5.92265E+00  4.15001E+00  3.37320E+00  6.04978E+00  5.67228E+00  4.59784E+00  2.77222E+00 -1.35584E+00  8.19703E-01  5.96253E+00
   9.29427E+00  5.37365E+00  6.15584E+00  5.45367E+00  6.52224E-02  6.23115E+00 -2.98280E+00  5.49733E+00 -1.63468E+00  2.15045E+00
  -1.24084E+00  8.51966E+00  6.32140E+00  7.51404E+00  6.59226E+00  8.86957E-01  4.64815E+00  4.61702E-01  4.24767E+00  1.13090E+00
   2.12439E+00  3.31510E+00  7.28004E+00  2.05325E+00  4.99388E+00  1.30938E+01  1.10055E+01  1.21927E+01  8.62087E+00  8.86980E+00
   8.02895E+00  6.90348E+00  6.20587E+00  1.23552E+01  1.09230E+01  8.71907E+00  4.09564E+00  5.60990E+00  1.01661E+01  4.89950E+00
   1.38845E+01  1.09674E+01  1.05723E+01  5.92189E+00  9.53462E+00  1.17333E+01  8.79308E+00  9.81433E+00  4.46591E+00  8.69185E+00
   4.14923E+00 -3.52395E+00  5.36819E+00  4.90848E+00  3.83448E+00  6.48124E+00  1.07914E+01  1.51281E+01  1.58109E+01  9.08009E+00
   1.42088E+01  1.41042E+01  1.41568E+01  1.56720E+01  1.62406E+01  1.09780E+01  9.65778E+00  1.51414E+01  8.64206E+00  1.53175E+01
   7.18877E+00  1.18703E+01  2.32711E+01  1.45267E+01  1.32728E+01  9.90285E+00  1.56665E+01  2.28541E+01  1.55117E+01  1.30128E+01
   1.00566E+01  1.49262E+01  1.59416E+01  1.38134E+01  1.00580E+01  1.59290E+01  7.27402E+00  9.14556E+00  1.02329E+01  1.04329E+00
   3.21835E+00  4.03475E+00  1.08079E+00  8.17821E+00  1.07981E+01  2.80322E+00  4.82528E+00  6.20260E+00  5.39826E+00  2.40662E+00
   6.37349E+00  9.85305E+00  5.31993E+00  4.43799E+00  5.70504E+00  1.85938E+00  7.49036E+00  6.25427E+00  6.30285E+00  4.92108E+00
   1.96640E+00  1.94649E+00  3.97472E+00 -1.39559E-01 -8.17480E-01 -2.88423E+00  4.40509E+00  1.13678E-01  2.90015E-01 -5.96411E+00
  -1.49534E+00 -6.29640E+00 -1.18294E+01 -1.07988E+01 -5.40989E+00 -1.23579E+01 -9.99574E+00 -4.30198E+00 -1.10008E+01 -4.43873E+00
  -1.28283E+01 -1.63277E+01 -6.44126E+00 -1.67401E+01 -1.13139E+01 -1.10901E+01 -1.26951E+01 -7.17328E+00 -1.44119E+01 -8.27726E+00
  -8.40801E+00 -1.22591E+01 -1.83847E+00 -9.42638E+00 -6.36295E+00 -4.76683E-01 -7.84505E+00 -7.46027E+00 -9.13902E+00 -4.83854E+00
  -2.70863E-01  2.58983E+00 -3.69287E+00 -4.80681E+00 -1.73217E+00 -6.84226E+00 -3.89439E+00  1.63941E-01  3.57203E-01 -2.96661E+00
  -5.83851E+00 -5.71241E+00 -8.65423E+00 -6.43998E+00 -6.81483E+00 -2.58348E+00 -1.68261E+00 -3.44669E+00  3.08530E+00 -7.26551E-01
  -5.28414E+00 -3.64245E+00 -2.68724E-01 -9.01238E+00 -7.66648E+00 -1.26684E+00  4.74533E+00 -2.86312E+00 -1.55843E+00 -2.89761E+00
  -3.43259E+00 -8.22311E+00 -4.11871E+00 -4.72011E-01  1.18238E+00 -1.10486E+00 -2.89565E+00  1.27237E+00 -7.94751E+00 -9.25224E-01
  -3.89204E+00 -6.20812E+00 -5.81170E+00  4.34259E+00 -5.26834E+00 -1.15285E+01 -7.10375E+00 -7.48484E+00 -4.21619E+00 -4.81930E+00
  -1.10480E+01 -6.73960E+00 -6.26991E+00 -1.19549E+01 -6.54282E+00 -4.46689E+00 -6.46439E+00 -9.66263E+00 -6.17177E+00 -1.05209E+01
  -8.44575E+00 -3.59551E+00 -7.28203E+00 -7.34604E+00 -1.14881E+01 -8.95978E+00  1.00519E+00 -5.65387E+00 -3.18599E+00 -1.36953E+00
  -5.40286E+00 -7.37465E+00 -2.95608E+00 -6.18006E+00 -7.15717E+00 -3.72686E+00 -1.26304E+00 -4.05704E+00 -3.81100E+00 -8.42780E+00
  -1.31401E+00 -1.71729E+00 -3.77760E+00 -9.38354E+00 -6.32389E+00 -6.80246E+00 -4.59221E-01 -1.18127E+01 -8.37440E+00 -3.75858E+00
  -1.15919E+01 -1.77067E+00 -3.41115E+00 -1.14139E+00 -2.81368E+00 -6.56906E+00 -1.10241E+00 -2.42662E+00 -6.68409E+00 -6.77471E+00
  -5.41666E+00 -1.39130E+01 -7.59742E+00 -3.74159E+00 -4.44395E+00 -4.87515E+00 -1.55475E+01 -1.33931E+00 -9.33519E+00 -1.17427E+01
  -6.20843E+00 -1.17986E+01 -1.19225E+01 -1.05421E+01 -9.56425E+00 -1.02985E+01 -1.04759E+01 -2.88321E+00 -1.18557E+01 -5.47129E+00
  -6.55963E+00 -6.93190E+00 -1.00002E+01 -9.78869E+00 -8.60944E+00 -8.76275E+00 -5.73301E+00 -8.90750E+00 -6.98095E+00 -8.43380E+00
  -2.09940E+00 -5.11038E+00 -5.12629E+00 -7.35749E+00 -9.76016E+00 -2.80509E+00 -2.36607E+00 -1.37055E+00 -5.32103E+00 -8.66363E+00
  -9.22608E+00 -5.65445E+00 -9.43534E+00 -3.01240E+00 -1.21609E+01 -5.49075E+00 -1.25279E+00  3.17136E+00  1.06957E+00 -7.78761E+00
  -2.18148E+00 -1.11837E+01 -6.75500E+00 -6.99080E+00 -1.26295E+01 -7.27829E+00 -1.09649E+01 -7.01764E+00
 NY points of the fit to the data follow
   3.70927E+00  3.70256E+00  3.68606E+00  3.68213E+00  3.77490E+00  3.97560E+00  4.16034E+00  4.24962E+00  4.22212E+00  4.10821E+00
   3.96499E+00  3.85347E+00  3.81060E+00  3.83137E+00  3.92220E+00  4.08898E+00  4.27401E+00  4.35778E+00  4.25709E+00  4.02459E+00
   3.85721E+00  3.81670E+00  3.79887E+00  3.77368E+00  3.75101E+00  3.75792E+00  3.79941E+00  3.85505E+00  3.89738E+00  3.91024E+00
   3.91571E+00  3.93125E+00  3.94597E+00  3.95018E+00  3.94044E+00  3.92150E+00  3.90426E+00  3.89405E+00  3.89456E+00  3.90388E+00
   3.91280E+00  3.91800E+00  3.92467E+00  3.93439E+00  3.94546E+00  3.95534E+00  3.96424E+00  3.97579E+00  3.98748E+00  3.99951E+00
   4.00809E+00  4.01060E+00  4.01265E+00  4.02291E+00  4.04582E+00  4.07503E+00  4.09910E+00  4.11661E+00  4.13370E+00  4.15550E+00
   4.18159E+00  4.19779E+00  4.20706E+00  4.20437E+00  4.19190E+00  4.18730E+00  4.19823E+00  4.22078E+00  4.27610E+00  4.37385E+00
   4.46848E+00  4.51455E+00  4.49552E+00  4.41728E+00  4.31647E+00  4.25669E+00  4.27122E+00  4.34406E+00  4.46759E+00  4.63677E+00
   4.80039E+00  4.88214E+00  4.84121E+00  4.69279E+00  4.53547E+00  4.45659E+00  4.45334E+00  4.49898E+00  4.56041E+00  4.60948E+00
   4.64785E+00  4.70299E+00  4.76097E+00  4.75005E+00  4.67071E+00  4.61176E+00  4.56767E+00  4.49419E+00  4.41372E+00  4.35815E+00
   4.35463E+00  4.42512E+00  4.53661E+00  4.63542E+00  4.68629E+00  4.67017E+00  4.59884E+00  4.53014E+00  4.50788E+00  4.50587E+00
   4.51647E+00  4.54398E+00  4.56541E+00  4.56454E+00  4.55490E+00  4.54076E+00  4.52073E+00  4.51287E+00  4.52136E+00  4.57679E+00
   4.78500E+00  5.09835E+00  5.33775E+00  5.41675E+00  5.32787E+00  5.11998E+00  4.89135E+00  4.75109E+00  4.75181E+00  4.87842E+00
   5.09256E+00  5.34266E+00  5.53842E+00  5.55408E+00  5.31416E+00  4.92862E+00  4.67336E+00  4.58001E+00  4.52576E+00  4.50526E+00
   4.51827E+00  4.54255E+00  4.55933E+00  4.55805E+00  4.54463E+00  4.53671E+00  4.52507E+00  4.47399E+00  4.39063E+00  4.33615E+00
   4.34281E+00  4.41091E+00  4.52841E+00  4.60475E+00  4.55125E+00  4.36884E+00  4.13872E+00  3.94488E+00  3.87205E+00  3.92572E+00
   4.03747E+00  4.15178E+00  4.19672E+00  4.06812E+00  3.81424E+00  3.58506E+00  3.45106E+00  3.47104E+00  3.61333E+00  3.68544E+00
   3.58095E+00  3.38332E+00  3.22251E+00  3.15706E+00  3.18957E+00  3.22901E+00  3.23322E+00  3.29193E+00  3.38846E+00  3.42215E+00
   3.40327E+00  3.41537E+00  3.54574E+00  3.79716E+00  4.05633E+00  4.20780E+00  4.23041E+00  4.21938E+00  4.27614E+00  4.43703E+00
   4.62546E+00  4.69774E+00  4.68001E+00  4.77099E+00  4.96827E+00  5.13602E+00  5.16043E+00  5.08934E+00  5.00514E+00  4.89243E+00
   4.78841E+00  4.72570E+00  4.61033E+00  4.42576E+00  4.25574E+00  4.16328E+00  4.13244E+00  4.08919E+00  4.05626E+00  4.07862E+00
   4.07548E+00  3.98360E+00  3.82409E+00  3.68244E+00  3.57619E+00  3.52569E+00  3.55578E+00  3.61720E+00  3.64202E+00  3.68623E+00
   3.79698E+00  3.91677E+00  3.95333E+00  3.90235E+00  3.81345E+00  3.73600E+00  3.70700E+00  3.74163E+00  3.86893E+00  4.05078E+00
   4.17580E+00  4.15186E+00  3.99943E+00  3.78313E+00  3.55842E+00  3.34582E+00  3.20782E+00  3.21231E+00  3.37603E+00  3.62953E+00
   3.83952E+00  3.92182E+00  3.81174E+00  3.55978E+00  3.34249E+00  3.26645E+00  3.31810E+00  3.52931E+00  4.42024E+00  7.08780E+00
   1.04265E+01  1.26443E+01  1.32032E+01  1.30370E+01  1.36495E+01  1.45018E+01  1.51669E+01  1.55321E+01  1.54520E+01  1.52455E+01
   1.55084E+01  1.62994E+01  1.65306E+01  1.52727E+01  1.37417E+01  1.40351E+01  1.45085E+01  1.27861E+01  8.75686E+00  4.83734E+00
   3.25307E+00  2.70840E+00  2.37356E+00  2.13210E+00  1.97271E+00  1.91094E+00  1.93864E+00  2.00347E+00  2.03173E+00  1.98437E+00
   1.86804E+00  1.70550E+00  1.51602E+00  1.34550E+00  1.24585E+00  1.22806E+00  1.24516E+00  1.27394E+00  1.30377E+00  1.31032E+00
   1.26425E+00  1.16306E+00  1.03594E+00  9.15125E-01  8.09930E-01  7.40501E-01  7.11952E-01  7.16026E-01  7.27127E-01  7.03785E-01
   6.31026E-01  5.42346E-01  4.52710E-01  3.63248E-01  2.79893E-01  2.13432E-01  1.70165E-01  1.38824E-01  9.68984E-02  4.52787E-02
  -1.02664E-02 -6.86301E-02 -1.27642E-01 -1.86320E-01 -2.44481E-01 -3.02356E-01 -3.60227E-01 -4.18236E-01 -4.76392E-01 -5.34745E-01
  -5.93266E-01 -6.51571E-01 -7.09376E-01 -7.66892E-01 -8.24124E-01 -8.81077E-01 -9.37878E-01 -9.94656E-01 -1.05139E+00 -1.10794E+00
  -1.16419E+00 -1.22020E+00 -1.27611E+00 -1.33202E+00 -1.38785E+00 -1.44344E+00 -1.49876E+00 -1.55389E+00 -1.60896E+00 -1.66399E+00
  -1.71886E+00 -1.77348E+00 -1.82786E+00 -1.88211E+00 -1.93631E+00 -1.99040E+00 -2.04427E+00 -2.09787E+00 -2.15128E+00 -2.20460E+00
  -2.25785E+00 -2.31095E+00 -2.36380E+00 -2.41638E+00 -2.46880E+00 -2.52113E+00 -2.57336E+00 -2.62537E+00 -2.67712E+00 -2.72865E+00
  -2.78003E+00 -2.83132E+00 -2.88245E+00 -2.93333E+00 -2.98395E+00 -3.03437E+00 -3.08469E+00 -3.13490E+00 -3.18491E+00 -3.23466E+00
  -3.28418E+00 -3.33356E+00 -3.38284E+00 -3.43198E+00 -3.48089E+00 -3.52954E+00 -3.57800E+00 -3.62634E+00 -3.67457E+00 -3.72262E+00
  -3.77042E+00 -3.81799E+00 -3.86539E+00 -3.91268E+00 -3.95984E+00 -4.00677E+00 -4.05345E+00 -4.09993E+00 -4.14627E+00 -4.19250E+00
  -4.23856E+00 -4.28439E+00 -4.32998E+00 -4.37542E+00 -4.42075E+00 -4.46597E+00 -4.51102E+00 -4.55585E+00 -4.60052E+00 -4.64510E+00
  -4.68961E+00 -4.73403E+00 -4.77829E+00 -4.82239E+00 -4.86638E+00 -4.91033E+00 -4.95423E+00 -4.99802E+00 -5.04165E+00 -5.08514E+00
  -5.12855E+00 -5.17190E+00 -5.21517E+00 -5.25827E+00 -5.30119E+00 -5.34397E+00 -5.38667E+00 -5.42928E+00 -5.47176E+00 -5.51404E+00
  -5.55614E+00 -5.59812E+00 -5.64002E+00 -5.68181E+00 -5.72344E+00 -5.76488E+00 -5.80619E+00 -5.84741E+00 -5.88856E+00 -5.92960E+00
  -5.97047E+00 -6.01119E+00 -6.05181E+00 -6.09237E+00 -6.13286E+00 -6.17322E+00 -6.21344E+00 -6.25354E+00 -6.29357E+00 -6.33356E+00
  -6.37346E+00 -6.41324E+00 -6.45289E+00 -6.49245E+00 -6.53197E+00 -6.57144E+00 -6.61082E+00 -6.65007E+00 -6.68923E+00 -6.72833E+00
  -6.76740E+00 -6.80641E+00 -6.84532E+00 -6.88413E+00 -6.92286E+00 -6.96156E+00 -7.00023E+00 -7.03885E+00 -7.07736E+00 -7.11578E+00
  -7.15416E+00 -7.19253E+00 -7.23087E+00 -7.26913E+00 -7.30731E+00 -7.34543E+00 -7.38353E+00 -7.42163E+00 -7.45969E+00 -7.49767E+00
  -7.53558E+00 -7.57347E+00 -7.61136E+00 -7.64924E+00 -7.68708E+00 -7.72485E+00 -7.76257E+00 -7.80029E+00 -7.83803E+00 -7.87576E+00
  -7.91343E+00 -7.95105E+00 -7.98866E+00 -8.02628E+00 -8.06392E+00 -8.10155E+00 -8.13912E+00 -8.17666E+00 -8.21422E+00 -8.25180E+00
  -8.28940E+00 -8.32697E+00 -8.36450E+00 -8.40203E+00 -8.43959E+00 -8.47718E+00 -8.51478E+00 -8.55234E+00
 NY background values follow
     3.567E+00    3.575E+00    3.584E+00    3.592E+00    3.601E+00    3.609E+00    3.618E+00    3.626E+00    3.635E+00    3.643E+00
     3.652E+00    3.660E+00    3.669E+00    3.677E+00    3.686E+00    3.694E+00    3.703E+00    3.711E+00    3.720E+00    3.728E+00
     3.737E+00    3.745E+00    3.754E+00    3.762E+00    3.771E+00    3.779E+00    3.788E+00    3.796E+00    3.805E+00    3.814E+00
     3.822E+00    3.831E+00    3.839E+00    3.848E+00    3.857E+00    3.865E+00    3.874E+00    3.883E+00    3.891E+00    3.900E+00
     3.909E+00    3.917E+00    3.926E+00    3.935E+00    3.943E+00    3.952E+00    3.961E+00    3.970E+00    3.978E+00    3.987E+00
     3.996E+00    4.005E+00    4.013E+00    4.022E+00    4.031E+00    4.040E+00    4.049E+00    4.057E+00    4.066E+00    4.075E+00
     4.084E+00    4.092E+00    4.101E+00    4.110E+00    4.119E+00    4.127E+00    4.136E+00    4.145E+00    4.153E+00    4.162E+00
     4.170E+00    4.179E+00    4.188E+00    4.196E+00    4.205E+00    4.213E+00    4.221E+00    4.230E+00    4.238E+00    4.246E+00
     4.255E+00    4.263E+00    4.271E+00    4.279E+00    4.287E+00    4.295E+00    4.303E+00    4.311E+00    4.319E+00    4.327E+00
     4.335E+00    4.343E+00    4.350E+00    4.358E+00    4.365E+00    4.373E+00    4.380E+00    4.388E+00    4.395E+00    4.402E+00
     4.409E+00    4.416E+00    4.423E+00    4.430E+00    4.437E+00    4.443E+00    4.450E+00    4.456E+00    4.463E+00    4.469E+00
     4.475E+00    4.481E+00    4.487E+00    4.493E+00    4.499E+00    4.504E+00    4.509E+00    4.515E+00    4.520E+00    4.525E+00
     4.530E+00    4.535E+00    4.539E+00    4.544E+00    4.548E+00    4.552E+00    4.556E+00    4.560E+00    4.564E+00    4.567E+00
     4.570E+00    4.574E+00    4.577E+00    4.579E+00    4.582E+00    4.585E+00    4.587E+00    4.589E+00    4.591E+00    4.593E+00
     4.594E+00    4.595E+00    4.597E+00    4.597E+00    4.598E+00    4.599E+00    4.599E+00    4.599E+00    4.599E+00    4.598E+00
     4.598E+00    4.597E+00    4.596E+00    4.595E+00    4.593E+00    4.591E+00    4.589E+00    4.587E+00    4.584E+00    4.581E+00
     4.578E+00    4.575E+00    4.571E+00    4.567E+00    4.563E+00    4.559E+00    4.554E+00    4.549E+00    4.544E+00    4.538E+00
     4.532E+00    4.526E+00    4.520E+00    4.513E+00    4.506E+00    4.499E+00    4.491E+00    4.483E+00    4.475E+00    4.466E+00
     4.457E+00    4.448E+00    4.438E+00    4.428E+00    4.418E+00    4.407E+00    4.396E+00    4.385E+00    4.373E+00    4.361E+00
     4.349E+00    4.336E+00    4.323E+00    4.309E+00    4.295E+00    4.281E+00    4.266E+00    4.251E+00    4.236E+00    4.220E+00
     4.204E+00    4.187E+00    4.170E+00    4.153E+00    4.135E+00    4.117E+00    4.098E+00    4.079E+00    4.060E+00    4.040E+00
     4.020E+00    3.999E+00    3.978E+00    3.956E+00    3.934E+00    3.912E+00    3.889E+00    3.866E+00    3.842E+00    3.818E+00
     3.793E+00    3.768E+00    3.742E+00    3.716E+00    3.689E+00    3.662E+00    3.635E+00    3.607E+00    3.578E+00    3.549E+00
     3.520E+00    3.490E+00    3.459E+00    3.428E+00    3.397E+00    3.365E+00    3.333E+00    3.300E+00    3.267E+00    3.233E+00
     3.199E+00    3.164E+00    3.129E+00    3.093E+00    3.057E+00    3.021E+00    2.984E+00    2.947E+00    2.909E+00    2.871E+00
     2.832E+00    2.793E+00    2.753E+00    2.713E+00    2.673E+00    2.632E+00    2.591E+00    2.549E+00    2.507E+00    2.464E+00
     2.421E+00    2.378E+00    2.334E+00    2.290E+00    2.245E+00    2.200E+00    2.154E+00    2.108E+00    2.062E+00    2.015E+00
     1.968E+00    1.920E+00    1.872E+00    1.824E+00    1.775E+00    1.726E+00    1.676E+00    1.626E+00    1.576E+00    1.525E+00
     1.475E+00    1.423E+00    1.372E+00    1.320E+00    1.268E+00    1.216E+00    1.163E+00    1.110E+00    1.057E+00    1.004E+00
     9.500E-01    8.962E-01    8.422E-01    7.880E-01    7.336E-01    6.791E-01    6.244E-01    5.695E-01    5.146E-01    4.594E-01
     4.042E-01    3.489E-01    2.934E-01    2.379E-01    1.823E-01    1.266E-01    7.090E-02    1.513E-02   -4.068E-02   -9.652E-02
    -1.524E-01   -2.082E-01   -2.641E-01   -3.199E-01   -3.757E-01   -4.315E-01   -4.872E-01   -5.429E-01   -5.985E-01   -6.541E-01
    -7.096E-01   -7.650E-01   -8.203E-01   -8.756E-01   -9.308E-01   -9.859E-01   -1.041E+00   -1.096E+00   -1.151E+00   -1.206E+00
    -1.260E+00   -1.315E+00   -1.369E+00   -1.424E+00   -1.478E+00   -1.532E+00   -1.586E+00   -1.640E+00   -1.694E+00   -1.748E+00
    -1.801E+00   -1.855E+00   -1.908E+00   -1.961E+00   -2.015E+00   -2.068E+00   -2.120E+00   -2.173E+00   -2.226E+00   -2.278E+00
    -2.330E+00   -2.383E+00   -2.435E+00   -2.486E+00   -2.538E+00   -2.590E+00   -2.641E+00   -2.692E+00   -2.743E+00   -2.794E+00
    -2.845E+00   -2.895E+00   -2.946E+00   -2.996E+00   -3.046E+00   -3.096E+00   -3.145E+00   -3.195E+00   -3.244E+00   -3.293E+00
    -3.342E+00   -3.391E+00   -3.440E+00   -3.488E+00   -3.536E+00   -3.585E+00   -3.633E+00   -3.680E+00   -3.728E+00   -3.776E+00
    -3.823E+00   -3.870E+00   -3.917E+00   -3.964E+00   -4.011E+00   -4.057E+00   -4.103E+00   -4.150E+00   -4.196E+00   -4.242E+00
    -4.287E+00   -4.333E+00   -4.378E+00   -4.424E+00   -4.469E+00   -4.514E+00   -4.559E+00   -4.603E+00   -4.648E+00   -4.692E+00
    -4.737E+00   -4.781E+00   -4.825E+00   -4.869E+00   -4.912E+00   -4.956E+00   -4.999E+00   -5.042E+00   -5.086E+00   -5.129E+00
    -5.171E+00   -5.214E+00   -5.257E+00   -5.299E+00   -5.342E+00   -5.384E+00   -5.426E+00   -5.468E+00   -5.510E+00   -5.552E+00
    -5.593E+00   -5.635E+00   -5.676E+00   -5.717E+00   -5.758E+00   -5.799E+00   -5.840E+00   -5.881E+00   -5.922E+00   -5.963E+00
    -6.003E+00   -6.044E+00   -6.084E+00   -6.124E+00   -6.164E+00   -6.204E+00   -6.244E+00   -6.284E+00   -6.324E+00   -6.363E+00
    -6.403E+00   -6.442E+00   -6.482E+00   -6.521E+00   -6.560E+00   -6.600E+00   -6.639E+00   -6.678E+00   -6.717E+00   -6.756E+00
    -6.794E+00   -6.833E+00   -6.872E+00   -6.910E+00   -6.949E+00   -6.987E+00   -7.026E+00   -7.064E+00   -7.102E+00   -7.141E+00
    -7.179E+00   -7.217E+00   -7.255E+00   -7.293E+00   -7.331E+00   -7.369E+00   -7.407E+00   -7.445E+00   -7.482E+00   -7.520E+00
    -7.558E+00   -7.596E+00   -7.633E+00   -7.671E+00   -7.709E+00   -7.746E+00   -7.784E+00   -7.821E+00   -7.859E+00   -7.896E+00
    -7.934E+00   -7.971E+00   -8.009E+00   -8.046E+00   -8.084E+00   -8.121E+00   -8.158E+00   -8.196E+00   -8.233E+00   -8.271E+00
    -8.308E+00   -8.346E+00   -8.383E+00   -8.420E+00   -8.458E+00   -8.495E+00   -8.533E+00   -8.570E+00
 Asp      Conc. = 4.71E+01
