 LCModel (Version 6.3-1L) Copyright: S.W. Provencher.          Ref.: Magn. Reson. Med. 30:672-679 (1993).                
 Slice#1 Row#1 Col#5  PD_24_press_2_raw_act
 36 lines in following concentration table = NCONC+1
    Conc.  %SD /Cr+PCr  Metabolite                                         
    0.000 999%   0.000 Ala                                                 
   61.124 117%   0.204 Asp                                                 
    0.000 999%   0.000 Cr                                                  
  299.956  30%   1.000 PCr                                                 
   42.355 101%   0.141 GABA                                                
   43.362  99%   0.145 Glc                                                 
    0.000 999%   0.000 Gln                                                 
   85.194 438%   0.284 Glu                                                 
    0.000 999%   0.000 GPC                                                 
  123.973  27%   0.413 PCh                                                 
   46.732 253%   0.156 GSH                                                 
    0.000 999%   0.000 Ins                                                 
    0.000 999%   0.000 Lac                                                 
  561.983  26%   1.874 NAA                                                 
  272.371  51%   0.908 NAAG                                                
   16.695  83% 5.6E-02 Scyllo                                              
   86.918  81%   0.290 Tau                                                 
  125.789  68%   0.419 -CrCH2                                              
  123.973  27%   0.413 GPC+PCh                                             
  834.354  14%   2.782 NAA+NAAG                                            
  299.956  30%   1.000 Cr+PCr                                              
   85.194 438%   0.284 Glu+Gln                                             
    0.000 999%   0.000 Lip13a                                              
    0.000 999%   0.000 Lip13b                                              
    0.000 999%   0.000 Lip09                                               
    0.000 999%   0.000 MM09                                                
 9.08E-05 999% 3.0E-07 Lip20                                               
    0.000 999%   0.000 MM20                                                
    0.000 999%   0.000 MM12                                                
 1.99E-03 999% 6.6E-06 MM14                                                
 3.10E-03 999% 1.0E-05 MM17                                                
    0.000 999%   0.000 Lip13a+Lip13b                                       
 1.99E-03 999% 6.6E-06 MM14+Lip13a+Lip13b+MM12                             
    0.000 999%   0.000 MM09+Lip09                                          
 9.08E-05 999% 3.0E-07 MM20+Lip20                                          
   6 lines in following misc. output table
  FWHM = 0.054 ppm    S/N =   2                                            
  Data shift = 0.008 ppm                                                   
  Ph:-114 deg      -4.8 deg/ppm                                            
  alphaB,S = 8.5E+01,   2.3E+01                                            
   14 spline knots.   Ns = 7(1)                                            
   2 inflections.     1 extrema                                            
  498 points on ppm-axis = NY
      4.000000     3.992357     3.984714     3.977070     3.969427     3.961784     3.954141     3.946497     3.938854     3.931211
      3.923568     3.915925     3.908281     3.900638     3.892995     3.885352     3.877708     3.870065     3.862422     3.854779
      3.847136     3.839492     3.831849     3.824206     3.816563     3.808919     3.801276     3.793633     3.785990     3.778347
      3.770703     3.763060     3.755417     3.747774     3.740130     3.732487     3.724844     3.717201     3.709558     3.701914
      3.694271     3.686628     3.678985     3.671341     3.663698     3.656055     3.648412     3.640769     3.633125     3.625482
      3.617839     3.610196     3.602552     3.594909     3.587266     3.579623     3.571980     3.564336     3.556693     3.549050
      3.541407     3.533763     3.526120     3.518477     3.510834     3.503191     3.495547     3.487904     3.480261     3.472618
      3.464974     3.457331     3.449688     3.442045     3.434402     3.426758     3.419115     3.411472     3.403829     3.396185
      3.388542     3.380899     3.373256     3.365613     3.357969     3.350326     3.342683     3.335040     3.327396     3.319753
      3.312110     3.304467     3.296824     3.289180     3.281537     3.273894     3.266251     3.258607     3.250964     3.243321
      3.235678     3.228034     3.220391     3.212748     3.205105     3.197462     3.189818     3.182175     3.174532     3.166889
      3.159245     3.151602     3.143959     3.136316     3.128673     3.121029     3.113386     3.105743     3.098100     3.090456
      3.082813     3.075170     3.067527     3.059884     3.052240     3.044597     3.036954     3.029311     3.021667     3.014024
      3.006381     2.998738     2.991095     2.983451     2.975808     2.968165     2.960522     2.952878     2.945235     2.937592
      2.929949     2.922306     2.914662     2.907019     2.899376     2.891733     2.884089     2.876446     2.868803     2.861160
      2.853517     2.845873     2.838230     2.830587     2.822944     2.815300     2.807657     2.800014     2.792371     2.784728
      2.777084     2.769441     2.761798     2.754155     2.746511     2.738868     2.731225     2.723582     2.715939     2.708295
      2.700652     2.693009     2.685366     2.677722     2.670079     2.662436     2.654793     2.647150     2.639506     2.631863
      2.624220     2.616577     2.608933     2.601290     2.593647     2.586004     2.578361     2.570717     2.563074     2.555431
      2.547788     2.540144     2.532501     2.524858     2.517215     2.509572     2.501928     2.494285     2.486642     2.478999
      2.471355     2.463712     2.456069     2.448426     2.440783     2.433139     2.425496     2.417853     2.410210     2.402566
      2.394923     2.387280     2.379637     2.371994     2.364350     2.356707     2.349064     2.341421     2.333777     2.326134
      2.318491     2.310848     2.303205     2.295561     2.287918     2.280275     2.272632     2.264988     2.257345     2.249702
      2.242059     2.234416     2.226772     2.219129     2.211486     2.203843     2.196199     2.188556     2.180913     2.173270
      2.165627     2.157983     2.150340     2.142697     2.135054     2.127410     2.119767     2.112124     2.104481     2.096838
      2.089194     2.081551     2.073908     2.066265     2.058621     2.050978     2.043335     2.035692     2.028049     2.020405
      2.012762     2.005119     1.997476     1.989833     1.982190     1.974546     1.966903     1.959260     1.951617     1.943974
      1.936331     1.928688     1.921045     1.913402     1.905759     1.898115     1.890472     1.882829     1.875186     1.867543
      1.859900     1.852257     1.844614     1.836971     1.829327     1.821684     1.814041     1.806398     1.798755     1.791112
      1.783469     1.775826     1.768183     1.760540     1.752896     1.745253     1.737610     1.729967     1.722324     1.714681
      1.707038     1.699395     1.691752     1.684108     1.676465     1.668822     1.661179     1.653536     1.645893     1.638250
      1.630607     1.622964     1.615321     1.607677     1.600034     1.592391     1.584748     1.577105     1.569462     1.561819
      1.554176     1.546533     1.538890     1.531246     1.523603     1.515960     1.508317     1.500674     1.493031     1.485388
      1.477745     1.470102     1.462458     1.454815     1.447172     1.439529     1.431886     1.424243     1.416600     1.408957
      1.401314     1.393671     1.386027     1.378384     1.370741     1.363098     1.355455     1.347812     1.340169     1.332526
      1.324883     1.317240     1.309596     1.301953     1.294310     1.286667     1.279024     1.271381     1.263738     1.256095
      1.248452     1.240808     1.233165     1.225522     1.217879     1.210236     1.202593     1.194950     1.187307     1.179664
      1.172021     1.164377     1.156734     1.149091     1.141448     1.133805     1.126162     1.118519     1.110876     1.103233
      1.095590     1.087946     1.080303     1.072660     1.065017     1.057374     1.049731     1.042088     1.034445     1.026802
      1.019158     1.011515     1.003872     0.996229     0.988586     0.980943     0.973300     0.965657     0.958014     0.950371
      0.942727     0.935084     0.927441     0.919798     0.912155     0.904512     0.896869     0.889226     0.881583     0.873940
      0.866296     0.858653     0.851010     0.843367     0.835724     0.828081     0.820438     0.812795     0.805152     0.797508
      0.789865     0.782222     0.774579     0.766936     0.759293     0.751650     0.744007     0.736364     0.728721     0.721077
      0.713434     0.705791     0.698148     0.690505     0.682862     0.675219     0.667576     0.659933     0.652290     0.644646
      0.637003     0.629360     0.621717     0.614074     0.606431     0.598788     0.591145     0.583502     0.575858     0.568215
      0.560572     0.552929     0.545286     0.537643     0.530000     0.522357     0.514714     0.507071     0.499427     0.491784
      0.484141     0.476498     0.468855     0.461212     0.453569     0.445925     0.438282     0.430639     0.422996     0.415353
      0.407710     0.400067     0.392424     0.384780     0.377137     0.369494     0.361851     0.354208     0.346565     0.338922
      0.331278     0.323635     0.315992     0.308349     0.300706     0.293063     0.285420     0.277777     0.270133     0.262490
      0.254847     0.247204     0.239561     0.231918     0.224275     0.216631     0.208988     0.201345
 NY phased data points follow
  -1.99637E+01 -1.84291E+01 -1.38789E+01 -2.10210E+01 -1.81350E+01 -1.41757E+01 -1.21664E+01 -2.44885E+01 -1.20005E+01  7.08834E-01
   1.02999E+01  7.14037E+00 -2.13143E+01 -2.20927E+01 -1.03326E+01 -8.03588E+00 -1.25913E+01 -1.73809E+01 -1.04327E+01 -8.82415E+00
  -2.82309E+00 -1.92664E+01 -1.36978E+01 -8.88746E+00 -8.56753E+00 -1.25381E+01 -1.50833E+01 -1.63253E+01 -1.20753E+01 -1.14787E+00
  -8.94396E+00  5.04184E+00 -5.55716E+00 -1.06530E+01  3.22919E+00 -1.53417E+01 -1.73315E-01 -1.63183E+01 -1.97865E+01 -1.30481E+01
  -2.01436E+01 -5.65137E+00 -1.98371E+01 -9.82586E+00 -2.69026E+01 -7.93569E+00 -8.12981E+00 -8.03900E+00  1.27075E+00 -1.00186E+00
  -1.96950E+01 -1.67839E-01 -1.16469E+01 -1.20508E+01 -1.06014E+01 -1.20473E-01  8.68741E-01 -1.16744E+00 -1.26107E+01  1.37307E+00
  -7.71810E+00  1.62990E+00 -8.39636E+00 -9.07264E+00 -4.34576E+00 -6.57308E+00 -1.13654E+01 -1.25668E+01 -1.62537E+01 -1.50943E+00
  -4.56402E-01 -1.62351E+01 -3.86895E+00 -3.83943E-01 -1.31129E+01 -7.56173E+00  6.52824E+00  1.40919E+00 -3.03802E+00  6.96444E-01
  -8.89756E+00 -5.32126E+00 -7.67397E+00 -1.06060E+01 -9.96990E+00  5.64040E+00 -4.66062E+00 -2.08243E+00 -7.84627E+00 -5.84800E+00
  -5.19735E+00 -6.55667E+00 -7.96407E+00 -3.98412E+00 -6.49659E+00 -1.55723E+01 -4.59387E+00 -6.97521E+00 -1.69630E+01  4.56493E+00
   1.05017E+01  5.67990E+00 -3.79932E+00  7.58210E+00  5.77053E+00  4.31143E+00  8.12706E+00  3.59939E+00 -4.18031E+00 -9.69713E-01
   8.14703E+00 -7.06911E+00 -1.14135E+01 -1.49179E+01 -1.59558E+01 -1.36430E+01  5.09611E-01 -9.55329E+00 -1.26572E+01 -7.49159E+00
  -1.19503E+01 -2.47184E+00 -1.39936E+01 -2.69292E+00 -3.45137E+00  7.44721E+00  8.45445E+00 -5.07366E+00  1.36878E+01  4.89450E+00
   4.55109E+00 -1.47804E+00  9.26607E+00  4.61571E+00 -9.62097E+00 -1.18612E+00 -7.20422E+00 -2.70842E+00 -1.70656E+01 -8.16583E+00
  -6.73747E+00 -5.38987E+00 -2.05766E+00 -5.30551E+00 -2.81245E+00  5.97398E+00  5.81022E+00 -1.01309E+01 -3.31657E+00 -9.95597E+00
  -5.45751E+00 -3.40045E+00 -5.31123E+00 -2.83682E+00  7.17841E+00 -9.37799E+00 -1.06748E+01 -6.29483E+00 -3.54872E+00 -1.19247E+01
   1.17451E+01 -1.38067E+01 -9.59877E+00  4.85385E+00 -7.46839E+00  2.95272E+00 -1.06266E+01  3.25063E+00  7.67378E+00 -2.07966E+00
  -1.51989E+01 -1.35579E+00 -1.58930E+01 -1.01900E+01 -1.04048E+01 -2.57435E+00 -6.84581E+00 -8.82631E+00 -6.94987E+00 -9.93840E+00
  -6.57973E+00  6.83832E+00 -3.55984E+00 -2.13315E+00 -9.47959E+00  8.85193E-01 -9.43584E-01 -3.00782E+00 -4.36427E+00  7.63703E+00
  -7.24016E+00 -1.13135E+01 -8.76697E+00 -6.45285E+00 -4.34857E+00  4.03454E+00  2.94555E+00  5.88550E+00  1.71553E+00 -1.70977E+00
   7.23989E+00 -9.87398E+00 -7.89836E-01 -1.07775E+01  2.28492E+00 -4.18928E+00 -1.33337E+01 -6.31783E+00 -6.34644E+00 -4.06262E+00
  -5.36123E+00 -1.05747E+01 -9.32406E+00  5.92137E+00 -1.71783E-02 -5.86820E+00 -9.02563E+00 -1.91390E+01 -1.16110E+01 -1.27384E-01
   6.57663E+00 -6.61473E+00 -7.05764E+00 -2.21510E+01 -1.31375E+01 -5.84473E+00 -7.84451E+00 -7.23544E-01 -1.50122E+00 -2.99575E+00
  -1.55116E+01 -1.00447E+01 -2.32622E+00 -1.16136E+00 -9.09687E+00 -3.42195E+00 -5.87167E+00 -1.18411E+01 -7.54345E+00 -1.26127E+01
  -1.24742E+01 -1.07368E+00 -1.53329E+01 -6.73751E+00 -9.15997E+00 -6.78637E+00 -6.16510E+00 -1.30317E+01 -1.88291E+00 -5.55149E+00
  -1.55433E+01 -6.64856E+00 -2.51175E+00  1.88177E+00  3.36254E+00  4.32579E+00  5.95238E+00  8.80504E+00  1.75726E+01  2.15985E+01
   9.57749E+00  3.04290E+01  1.14278E+01  1.82524E+01  4.14348E+00 -7.92616E-01 -7.72884E+00 -3.14604E+00 -1.35813E+01 -6.52557E+00
  -1.27624E+01 -1.15702E+01 -4.65650E+00  5.85910E+00 -1.79872E+00 -8.60690E+00 -1.04000E+01 -8.85759E-01 -2.57941E+00 -7.01405E+00
  -1.56142E+00 -5.09560E+00 -1.20235E+01 -1.35400E+01 -8.13305E+00  7.12303E+00  2.23687E+00 -3.26102E+00 -3.47269E+00 -8.54562E+00
  -1.20636E+01 -1.33380E+01 -1.21019E+01 -1.63716E+01 -1.71018E+01 -1.98404E+01 -6.31784E+00  7.01723E-01  2.36847E+00 -1.99167E+00
  -6.86886E+00 -9.50219E+00 -3.33387E+00  6.31732E+00 -4.00579E+00 -1.16412E+01 -6.88122E+00 -5.41413E+00 -3.38574E+00 -5.83810E-01
   1.40989E+00 -1.02670E+00  5.84954E+00 -4.37846E+00 -1.32705E+01  1.39989E+00 -3.43854E+00 -6.52115E+00 -7.04571E-01 -1.67312E+01
  -1.29527E+01 -1.08563E+01  1.47608E+00 -9.58236E+00 -3.40297E+00 -1.33771E+01 -8.68448E+00 -1.24257E+01  3.69954E+00 -3.34580E+00
  -1.26759E+01  1.02735E+01  2.26856E+00 -8.59086E+00 -9.93808E+00 -5.85106E+00 -1.02193E+00 -1.23045E+01  6.45672E+00  4.55950E-01
  -8.46184E+00 -8.55506E+00 -6.16046E+00 -3.46145E+00 -4.59260E+00  1.03884E+01 -9.09653E+00 -1.77128E+01  4.04778E+00 -1.21260E+01
   4.53718E-01 -6.95377E+00 -9.73496E+00 -1.05992E+01 -3.59855E+00 -1.16933E+01 -1.20395E+01 -8.82960E+00 -2.03352E+01 -1.53764E+01
  -2.01297E+01 -7.93341E+00 -6.32089E+00 -1.39973E+01 -1.67529E+01 -1.14614E+01 -1.36478E+01 -1.62547E+01 -1.10528E+01 -1.00709E+01
  -1.40867E+01 -5.41905E+00 -1.03187E+01 -9.24953E+00 -2.07284E+01 -3.75496E+00 -1.50875E+01 -1.85784E+01 -1.90916E+01 -4.65874E+00
   7.97690E+00 -5.73796E+00 -5.25024E+00 -1.27778E+01  1.12616E+00 -4.29272E+00 -1.81462E+01 -4.98350E+00 -1.86883E+01 -4.84033E+00
   7.52642E+00 -5.07598E+00 -1.12264E+01 -2.95977E+01 -1.87166E+01 -1.35939E+01 -2.20283E+01 -5.10158E+00 -3.40137E+00 -9.56663E+00
  -2.37294E+00 -5.97343E+00 -3.88437E+00 -1.39302E+01 -4.84605E+00 -2.86487E+00 -1.85571E+00 -9.90892E+00 -6.46137E+00 -1.19831E+00
   5.22906E+00  7.92986E-01  6.71642E+00  5.59416E-01 -9.38308E-01  2.02721E+00  7.42303E-01 -7.31250E+00 -6.20384E+00 -1.04064E+01
  -8.76940E+00 -1.20589E+01 -1.93332E+01 -1.54060E+01 -6.80615E+00 -1.03832E+01 -1.87123E+01 -8.93483E+00 -9.19865E+00 -1.81180E+01
  -1.96609E+01 -1.62641E+01 -1.71139E+01 -2.29646E+01 -9.93816E+00 -1.14807E+01 -6.86669E+00 -1.51018E+01 -2.84756E+00  6.72621E+00
  -9.15451E+00 -1.15801E+00  2.50881E+00 -3.39977E+00 -7.74507E+00 -1.83696E+00 -5.61289E+00 -7.62727E+00 -1.83447E+00 -1.56520E+01
  -1.30935E+01 -9.36254E-01 -4.09054E+00 -1.03992E+01  5.22594E+00 -1.56496E+00  1.78514E+00 -8.93821E+00 -5.58680E+00  6.49481E+00
   1.06926E+00  3.17637E+00  9.22607E+00 -9.93372E+00  1.22633E-02 -1.56149E+01 -1.38138E+01 -3.36995E+00 -2.68089E+00 -6.88043E+00
  -8.92836E+00 -6.68238E+00 -6.26531E+00  2.51990E+00 -5.56649E+00 -5.76452E+00  3.19705E+00 -7.76510E+00 -7.24504E+00  6.26590E+00
   1.42410E+00 -1.20107E+01 -2.20153E+00 -1.16246E+00 -1.49605E+01  1.15086E+00 -1.11606E+01 -3.02306E+00 -1.57300E+01 -7.83598E+00
  -4.93182E+00  2.02337E+00 -4.26441E+00 -8.45584E+00 -3.00040E+00 -7.32599E+00  1.63157E+00 -1.49262E+01
 NY points of the fit to the data follow
  -6.93862E+00 -6.94108E+00 -7.04193E+00 -7.18808E+00 -7.03121E+00 -6.38607E+00 -5.40612E+00 -4.38889E+00 -3.51993E+00 -2.85162E+00
  -2.49055E+00 -2.61549E+00 -3.24059E+00 -4.15393E+00 -5.07528E+00 -5.84189E+00 -6.39417E+00 -6.66599E+00 -6.74398E+00 -6.78376E+00
  -6.79943E+00 -6.77570E+00 -6.72425E+00 -6.70728E+00 -6.71118E+00 -6.63385E+00 -6.42587E+00 -6.13539E+00 -5.83735E+00 -5.55695E+00
  -5.31232E+00 -5.17426E+00 -5.21760E+00 -5.44227E+00 -5.76665E+00 -6.08598E+00 -6.33453E+00 -6.48849E+00 -6.54166E+00 -6.54275E+00
  -6.53942E+00 -6.54053E+00 -6.55756E+00 -6.60492E+00 -6.66973E+00 -6.73212E+00 -6.78517E+00 -6.81721E+00 -6.81411E+00 -6.77768E+00
  -6.72443E+00 -6.66708E+00 -6.60393E+00 -6.54490E+00 -6.50260E+00 -6.48406E+00 -6.49437E+00 -6.52455E+00 -6.56230E+00 -6.60217E+00
  -6.62728E+00 -6.61847E+00 -6.58604E+00 -6.53989E+00 -6.48804E+00 -6.44737E+00 -6.43306E+00 -6.44552E+00 -6.49397E+00 -6.56992E+00
  -6.61610E+00 -6.57956E+00 -6.46132E+00 -6.30656E+00 -6.16630E+00 -6.08169E+00 -6.07422E+00 -6.14264E+00 -6.28128E+00 -6.47772E+00
  -6.64641E+00 -6.65571E+00 -6.46206E+00 -6.13205E+00 -5.78852E+00 -5.52189E+00 -5.34000E+00 -5.25188E+00 -5.30690E+00 -5.51998E+00
  -5.83431E+00 -6.17511E+00 -6.49438E+00 -6.73325E+00 -6.84803E+00 -6.92020E+00 -7.25002E+00 -7.57477E+00 -6.81909E+00 -4.48930E+00
  -1.18316E+00  2.10356E+00  4.82161E+00  6.84662E+00  7.83459E+00  7.21931E+00  5.01027E+00  1.96126E+00 -9.83251E-01 -3.29566E+00
  -4.85303E+00 -5.59377E+00 -5.82305E+00 -5.96255E+00 -6.06713E+00 -6.15396E+00 -6.22689E+00 -6.29403E+00 -6.37205E+00 -6.54905E+00
  -7.02800E+00 -7.27794E+00 -6.41262E+00 -4.27938E+00 -1.53451E+00  1.08537E+00  3.24509E+00  4.80630E+00  5.35739E+00  4.51071E+00
   2.46264E+00 -7.27764E-02 -2.38726E+00 -4.18930E+00 -5.38448E+00 -5.93366E+00 -6.17696E+00 -6.33312E+00 -6.40097E+00 -6.38952E+00
  -6.31664E+00 -6.20677E+00 -6.10105E+00 -6.03982E+00 -6.02717E+00 -6.04887E+00 -6.08895E+00 -6.12933E+00 -6.17033E+00 -6.23351E+00
  -6.32799E+00 -6.44227E+00 -6.54775E+00 -6.60206E+00 -6.57910E+00 -6.52180E+00 -6.50340E+00 -6.55774E+00 -6.67781E+00 -6.81094E+00
  -6.91809E+00 -6.99959E+00 -7.05200E+00 -7.04758E+00 -6.99715E+00 -6.96398E+00 -6.99549E+00 -7.08558E+00 -7.19463E+00 -7.28051E+00
  -7.34715E+00 -7.44904E+00 -7.58289E+00 -7.68981E+00 -7.73847E+00 -7.75494E+00 -7.79059E+00 -7.86173E+00 -7.90983E+00 -7.86974E+00
  -7.75303E+00 -7.65410E+00 -7.62873E+00 -7.61853E+00 -7.53049E+00 -7.32342E+00 -7.01912E+00 -6.66929E+00 -6.30379E+00 -5.95413E+00
  -5.66380E+00 -5.44396E+00 -5.31477E+00 -5.32244E+00 -5.45821E+00 -5.64856E+00 -5.81296E+00 -5.93830E+00 -6.02306E+00 -6.02704E+00
  -5.92517E+00 -5.76085E+00 -5.59386E+00 -5.47037E+00 -5.41793E+00 -5.46009E+00 -5.60784E+00 -5.85317E+00 -6.18359E+00 -6.55818E+00
  -6.86610E+00 -7.00513E+00 -6.97263E+00 -6.84981E+00 -6.68156E+00 -6.47910E+00 -6.29447E+00 -6.22572E+00 -6.30764E+00 -6.46493E+00
  -6.60121E+00 -6.66175E+00 -6.62557E+00 -6.49032E+00 -6.26508E+00 -6.02585E+00 -5.87918E+00 -5.87785E+00 -6.00232E+00 -6.17766E+00
  -6.32083E+00 -6.36981E+00 -6.29232E+00 -6.09983E+00 -5.84750E+00 -5.60525E+00 -5.46236E+00 -5.49228E+00 -5.70152E+00 -6.02107E+00
  -6.33113E+00 -6.54054E+00 -6.61106E+00 -6.53555E+00 -6.34155E+00 -6.09668E+00 -5.88175E+00 -5.75689E+00 -5.81510E+00 -6.19092E+00
  -6.32623E+00 -5.44497E+00 -3.53176E+00 -1.56817E+00  5.33573E-02  2.69680E+00  7.14800E+00  1.22517E+01  1.62088E+01  1.83495E+01
   1.91038E+01  1.86157E+01  1.62390E+01  1.19658E+01  6.88643E+00  2.13959E+00 -1.57557E+00 -4.07039E+00 -5.25795E+00 -5.54622E+00
  -5.65791E+00 -5.69257E+00 -5.67666E+00 -5.65161E+00 -5.64197E+00 -5.66008E+00 -5.71568E+00 -5.80583E+00 -5.90622E+00 -5.98632E+00
  -6.02996E+00 -6.03899E+00 -6.02219E+00 -5.98888E+00 -5.95352E+00 -5.93720E+00 -5.94447E+00 -5.96341E+00 -5.98033E+00 -5.98947E+00
  -5.98939E+00 -5.97670E+00 -5.94973E+00 -5.91851E+00 -5.89748E+00 -5.89707E+00 -5.91531E+00 -5.94280E+00 -5.97312E+00 -6.00094E+00
  -6.01789E+00 -6.02139E+00 -6.01420E+00 -6.00131E+00 -5.98796E+00 -5.97688E+00 -5.96969E+00 -5.96695E+00 -5.96615E+00 -5.96583E+00
  -5.96582E+00 -5.96578E+00 -5.96577E+00 -5.96587E+00 -5.96623E+00 -5.96677E+00 -5.96734E+00 -5.96772E+00 -5.96790E+00 -5.96791E+00
  -5.96779E+00 -5.96749E+00 -5.96710E+00 -5.96657E+00 -5.96601E+00 -5.96540E+00 -5.96478E+00 -5.96404E+00 -5.96323E+00 -5.96233E+00
  -5.96143E+00 -5.96051E+00 -5.95956E+00 -5.95851E+00 -5.95740E+00 -5.95622E+00 -5.95505E+00 -5.95386E+00 -5.95263E+00 -5.95131E+00
  -5.94993E+00 -5.94852E+00 -5.94714E+00 -5.94572E+00 -5.94428E+00 -5.94276E+00 -5.94123E+00 -5.93970E+00 -5.93819E+00 -5.93664E+00
  -5.93505E+00 -5.93339E+00 -5.93175E+00 -5.93010E+00 -5.92848E+00 -5.92680E+00 -5.92509E+00 -5.92333E+00 -5.92159E+00 -5.91984E+00
  -5.91810E+00 -5.91629E+00 -5.91446E+00 -5.91260E+00 -5.91077E+00 -5.90893E+00 -5.90709E+00 -5.90518E+00 -5.90325E+00 -5.90132E+00
  -5.89942E+00 -5.89750E+00 -5.89556E+00 -5.89357E+00 -5.89158E+00 -5.88960E+00 -5.88764E+00 -5.88564E+00 -5.88362E+00 -5.88156E+00
  -5.87951E+00 -5.87747E+00 -5.87545E+00 -5.87338E+00 -5.87129E+00 -5.86917E+00 -5.86708E+00 -5.86499E+00 -5.86291E+00 -5.86077E+00
  -5.85863E+00 -5.85646E+00 -5.85434E+00 -5.85220E+00 -5.85006E+00 -5.84786E+00 -5.84567E+00 -5.84347E+00 -5.84130E+00 -5.83911E+00
  -5.83691E+00 -5.83467E+00 -5.83244E+00 -5.83021E+00 -5.82801E+00 -5.82577E+00 -5.82352E+00 -5.82124E+00 -5.81898E+00 -5.81672E+00
  -5.81448E+00 -5.81220E+00 -5.80990E+00 -5.80759E+00 -5.80530E+00 -5.80301E+00 -5.80073E+00 -5.79839E+00 -5.79605E+00 -5.79370E+00
  -5.79139E+00 -5.78906E+00 -5.78674E+00 -5.78436E+00 -5.78200E+00 -5.77963E+00 -5.77730E+00 -5.77493E+00 -5.77256E+00 -5.77016E+00
  -5.76777E+00 -5.76539E+00 -5.76303E+00 -5.76064E+00 -5.75823E+00 -5.75580E+00 -5.75340E+00 -5.75099E+00 -5.74859E+00 -5.74616E+00
  -5.74372E+00 -5.74126E+00 -5.73883E+00 -5.73640E+00 -5.73396E+00 -5.73149E+00 -5.72902E+00 -5.72654E+00 -5.72409E+00 -5.72163E+00
  -5.71916E+00 -5.71665E+00 -5.71416E+00 -5.71166E+00 -5.70919E+00 -5.70669E+00 -5.70418E+00 -5.70164E+00 -5.69912E+00 -5.69660E+00
  -5.69410E+00 -5.69156E+00 -5.68902E+00 -5.68645E+00 -5.68391E+00 -5.68136E+00 -5.67882E+00 -5.67624E+00 -5.67366E+00 -5.67106E+00
  -5.66849E+00 -5.66591E+00 -5.66333E+00 -5.66070E+00 -5.65808E+00 -5.65544E+00 -5.65284E+00 -5.65021E+00 -5.64757E+00 -5.64489E+00
  -5.64222E+00 -5.63954E+00 -5.63688E+00 -5.63419E+00 -5.63148E+00 -5.62873E+00 -5.62600E+00 -5.62326E+00 -5.62052E+00 -5.61773E+00
  -5.61493E+00 -5.61208E+00 -5.60925E+00 -5.60640E+00 -5.60353E+00 -5.60060E+00 -5.59764E+00 -5.59464E+00
 NY background values follow
    -6.823E+00   -6.821E+00   -6.819E+00   -6.817E+00   -6.814E+00   -6.812E+00   -6.810E+00   -6.808E+00   -6.806E+00   -6.804E+00
    -6.801E+00   -6.799E+00   -6.797E+00   -6.795E+00   -6.793E+00   -6.791E+00   -6.789E+00   -6.786E+00   -6.784E+00   -6.782E+00
    -6.780E+00   -6.778E+00   -6.776E+00   -6.773E+00   -6.771E+00   -6.769E+00   -6.767E+00   -6.765E+00   -6.762E+00   -6.760E+00
    -6.758E+00   -6.756E+00   -6.754E+00   -6.752E+00   -6.749E+00   -6.747E+00   -6.745E+00   -6.743E+00   -6.741E+00   -6.738E+00
    -6.736E+00   -6.734E+00   -6.732E+00   -6.730E+00   -6.727E+00   -6.725E+00   -6.723E+00   -6.721E+00   -6.718E+00   -6.716E+00
    -6.714E+00   -6.712E+00   -6.710E+00   -6.707E+00   -6.705E+00   -6.703E+00   -6.701E+00   -6.698E+00   -6.696E+00   -6.694E+00
    -6.692E+00   -6.689E+00   -6.687E+00   -6.685E+00   -6.683E+00   -6.680E+00   -6.678E+00   -6.676E+00   -6.674E+00   -6.671E+00
    -6.669E+00   -6.667E+00   -6.665E+00   -6.662E+00   -6.660E+00   -6.658E+00   -6.656E+00   -6.653E+00   -6.651E+00   -6.649E+00
    -6.647E+00   -6.644E+00   -6.642E+00   -6.640E+00   -6.638E+00   -6.635E+00   -6.633E+00   -6.631E+00   -6.628E+00   -6.626E+00
    -6.624E+00   -6.622E+00   -6.619E+00   -6.617E+00   -6.615E+00   -6.612E+00   -6.610E+00   -6.608E+00   -6.605E+00   -6.603E+00
    -6.601E+00   -6.599E+00   -6.596E+00   -6.594E+00   -6.592E+00   -6.589E+00   -6.587E+00   -6.585E+00   -6.582E+00   -6.580E+00
    -6.578E+00   -6.575E+00   -6.573E+00   -6.571E+00   -6.569E+00   -6.566E+00   -6.564E+00   -6.562E+00   -6.559E+00   -6.557E+00
    -6.555E+00   -6.552E+00   -6.550E+00   -6.548E+00   -6.545E+00   -6.543E+00   -6.541E+00   -6.538E+00   -6.536E+00   -6.533E+00
    -6.531E+00   -6.529E+00   -6.526E+00   -6.524E+00   -6.522E+00   -6.519E+00   -6.517E+00   -6.515E+00   -6.512E+00   -6.510E+00
    -6.508E+00   -6.505E+00   -6.503E+00   -6.500E+00   -6.498E+00   -6.496E+00   -6.493E+00   -6.491E+00   -6.489E+00   -6.486E+00
    -6.484E+00   -6.481E+00   -6.479E+00   -6.477E+00   -6.474E+00   -6.472E+00   -6.470E+00   -6.467E+00   -6.465E+00   -6.462E+00
    -6.460E+00   -6.458E+00   -6.455E+00   -6.453E+00   -6.450E+00   -6.448E+00   -6.446E+00   -6.443E+00   -6.441E+00   -6.438E+00
    -6.436E+00   -6.434E+00   -6.431E+00   -6.429E+00   -6.426E+00   -6.424E+00   -6.421E+00   -6.419E+00   -6.417E+00   -6.414E+00
    -6.412E+00   -6.409E+00   -6.407E+00   -6.405E+00   -6.402E+00   -6.400E+00   -6.397E+00   -6.395E+00   -6.392E+00   -6.390E+00
    -6.387E+00   -6.385E+00   -6.383E+00   -6.380E+00   -6.378E+00   -6.375E+00   -6.373E+00   -6.370E+00   -6.368E+00   -6.365E+00
    -6.363E+00   -6.361E+00   -6.358E+00   -6.356E+00   -6.353E+00   -6.351E+00   -6.348E+00   -6.346E+00   -6.343E+00   -6.341E+00
    -6.338E+00   -6.336E+00   -6.334E+00   -6.331E+00   -6.329E+00   -6.326E+00   -6.324E+00   -6.321E+00   -6.319E+00   -6.316E+00
    -6.314E+00   -6.311E+00   -6.309E+00   -6.306E+00   -6.304E+00   -6.301E+00   -6.299E+00   -6.296E+00   -6.294E+00   -6.291E+00
    -6.289E+00   -6.286E+00   -6.284E+00   -6.281E+00   -6.279E+00   -6.276E+00   -6.274E+00   -6.271E+00   -6.269E+00   -6.266E+00
    -6.264E+00   -6.261E+00   -6.259E+00   -6.256E+00   -6.254E+00   -6.251E+00   -6.249E+00   -6.246E+00   -6.244E+00   -6.241E+00
    -6.239E+00   -6.236E+00   -6.234E+00   -6.231E+00   -6.229E+00   -6.226E+00   -6.224E+00   -6.221E+00   -6.218E+00   -6.216E+00
    -6.213E+00   -6.211E+00   -6.208E+00   -6.206E+00   -6.203E+00   -6.201E+00   -6.198E+00   -6.196E+00   -6.193E+00   -6.191E+00
    -6.188E+00   -6.185E+00   -6.183E+00   -6.180E+00   -6.178E+00   -6.175E+00   -6.173E+00   -6.170E+00   -6.168E+00   -6.165E+00
    -6.162E+00   -6.160E+00   -6.157E+00   -6.155E+00   -6.152E+00   -6.150E+00   -6.147E+00   -6.145E+00   -6.142E+00   -6.139E+00
    -6.137E+00   -6.134E+00   -6.132E+00   -6.129E+00   -6.126E+00   -6.124E+00   -6.121E+00   -6.119E+00   -6.116E+00   -6.114E+00
    -6.111E+00   -6.108E+00   -6.106E+00   -6.103E+00   -6.101E+00   -6.098E+00   -6.095E+00   -6.093E+00   -6.090E+00   -6.088E+00
    -6.085E+00   -6.082E+00   -6.080E+00   -6.077E+00   -6.075E+00   -6.072E+00   -6.069E+00   -6.067E+00   -6.064E+00   -6.062E+00
    -6.059E+00   -6.056E+00   -6.054E+00   -6.051E+00   -6.049E+00   -6.046E+00   -6.043E+00   -6.041E+00   -6.038E+00   -6.035E+00
    -6.033E+00   -6.030E+00   -6.028E+00   -6.025E+00   -6.022E+00   -6.020E+00   -6.017E+00   -6.014E+00   -6.012E+00   -6.009E+00
    -6.007E+00   -6.004E+00   -6.001E+00   -5.999E+00   -5.996E+00   -5.993E+00   -5.991E+00   -5.988E+00   -5.985E+00   -5.983E+00
    -5.980E+00   -5.977E+00   -5.975E+00   -5.972E+00   -5.970E+00   -5.967E+00   -5.964E+00   -5.962E+00   -5.959E+00   -5.956E+00
    -5.954E+00   -5.951E+00   -5.948E+00   -5.946E+00   -5.943E+00   -5.940E+00   -5.938E+00   -5.935E+00   -5.932E+00   -5.930E+00
    -5.927E+00   -5.924E+00   -5.922E+00   -5.919E+00   -5.916E+00   -5.914E+00   -5.911E+00   -5.908E+00   -5.906E+00   -5.903E+00
    -5.900E+00   -5.897E+00   -5.895E+00   -5.892E+00   -5.889E+00   -5.887E+00   -5.884E+00   -5.881E+00   -5.879E+00   -5.876E+00
    -5.873E+00   -5.871E+00   -5.868E+00   -5.865E+00   -5.863E+00   -5.860E+00   -5.857E+00   -5.854E+00   -5.852E+00   -5.849E+00
    -5.846E+00   -5.844E+00   -5.841E+00   -5.838E+00   -5.835E+00   -5.833E+00   -5.830E+00   -5.827E+00   -5.825E+00   -5.822E+00
    -5.819E+00   -5.816E+00   -5.814E+00   -5.811E+00   -5.808E+00   -5.806E+00   -5.803E+00   -5.800E+00   -5.797E+00   -5.795E+00
    -5.792E+00   -5.789E+00   -5.786E+00   -5.784E+00   -5.781E+00   -5.778E+00   -5.776E+00   -5.773E+00   -5.770E+00   -5.767E+00
    -5.765E+00   -5.762E+00   -5.759E+00   -5.756E+00   -5.754E+00   -5.751E+00   -5.748E+00   -5.745E+00   -5.743E+00   -5.740E+00
    -5.737E+00   -5.734E+00   -5.732E+00   -5.729E+00   -5.726E+00   -5.723E+00   -5.721E+00   -5.718E+00   -5.715E+00   -5.712E+00
    -5.710E+00   -5.707E+00   -5.704E+00   -5.701E+00   -5.699E+00   -5.696E+00   -5.693E+00   -5.690E+00   -5.688E+00   -5.685E+00
    -5.682E+00   -5.679E+00   -5.676E+00   -5.674E+00   -5.671E+00   -5.668E+00   -5.665E+00   -5.663E+00   -5.660E+00   -5.657E+00
    -5.654E+00   -5.651E+00   -5.649E+00   -5.646E+00   -5.643E+00   -5.640E+00   -5.638E+00   -5.635E+00   -5.632E+00   -5.629E+00
    -5.626E+00   -5.624E+00   -5.621E+00   -5.618E+00   -5.615E+00   -5.612E+00   -5.610E+00   -5.607E+00   -5.604E+00   -5.601E+00
    -5.598E+00   -5.596E+00   -5.593E+00   -5.590E+00   -5.587E+00   -5.584E+00   -5.582E+00   -5.579E+00
 Asp      Conc. = 6.11E+01
