 LCModel (Version 6.3-1L) Copyright: S.W. Provencher.          Ref.: Magn. Reson. Med. 30:672-679 (1993).                
 Slice#2 Row#5 Col#3  PD_24_press_2_raw_act
 36 lines in following concentration table = NCONC+1
    Conc.  %SD /Cr+PCr  Metabolite                                         
  665.730  66%   0.215 Ala                                                 
    0.000 999%   0.000 Asp                                                 
 2.72E+03  30%   0.878 Cr                                                  
  378.797 211%   0.122 PCr                                                 
  625.529  64%   0.202 GABA                                                
  345.198 112%   0.111 Glc                                                 
 3.94E+03  28%   1.273 Gln                                                 
 5.52E+03  23%   1.784 Glu                                                 
 1.56E+03   5%   0.504 GPC                                                 
    0.000 999%   0.000 PCh                                                 
 1.24E+03  22%   0.399 GSH                                                 
 3.64E+03  24%   1.174 Ins                                                 
    0.000 999%   0.000 Lac                                                 
 4.47E+03   9%   1.444 NAA                                                 
 1.34E+03  33%   0.433 NAAG                                                
  437.227  19%   0.141 Scyllo                                              
  586.963  86%   0.190 Tau                                                 
  202.258 172% 6.5E-02 -CrCH2                                              
 1.56E+03   5%   0.504 GPC+PCh                                             
 5.81E+03   3%   1.877 NAA+NAAG                                            
 3.10E+03   5%   1.000 Cr+PCr                                              
 9.47E+03  23%   3.057 Glu+Gln                                             
    0.000 999%   0.000 Lip13a                                              
    0.000 999%   0.000 Lip13b                                              
    0.000 999%   0.000 Lip09                                               
 1.91E+03  18%   0.615 MM09                                                
 5.23E-02 999% 1.7E-05 Lip20                                               
 3.84E+03  16%   1.241 MM20                                                
  460.056  35%   0.149 MM12                                                
 1.52E+03  27%   0.490 MM14                                                
 1.30E+03  24%   0.419 MM17                                                
    0.000 999%   0.000 Lip13a+Lip13b                                       
 1.98E+03  25%   0.638 MM14+Lip13a+Lip13b+MM12                             
 1.91E+03  18%   0.615 MM09+Lip09                                          
 3.84E+03  16%   1.241 MM20+Lip20                                          
   6 lines in following misc. output table
  FWHM = 0.084 ppm    S/N =   9                                            
  Data shift = 0.015 ppm                                                   
  Ph: -28 deg     -11.4 deg/ppm                                            
  alphaB,S = 8.4E-01,   6.7E+00                                            
   14 spline knots.   Ns =11(1)                                            
  (16)22 infls.   (23)21 extrs.                                            
  498 points on ppm-axis = NY
      4.000000     3.992357     3.984714     3.977070     3.969427     3.961784     3.954141     3.946497     3.938854     3.931211
      3.923568     3.915925     3.908281     3.900638     3.892995     3.885352     3.877708     3.870065     3.862422     3.854779
      3.847136     3.839492     3.831849     3.824206     3.816563     3.808919     3.801276     3.793633     3.785990     3.778347
      3.770703     3.763060     3.755417     3.747774     3.740130     3.732487     3.724844     3.717201     3.709558     3.701914
      3.694271     3.686628     3.678985     3.671341     3.663698     3.656055     3.648412     3.640769     3.633125     3.625482
      3.617839     3.610196     3.602552     3.594909     3.587266     3.579623     3.571980     3.564336     3.556693     3.549050
      3.541407     3.533763     3.526120     3.518477     3.510834     3.503191     3.495547     3.487904     3.480261     3.472618
      3.464974     3.457331     3.449688     3.442045     3.434402     3.426758     3.419115     3.411472     3.403829     3.396185
      3.388542     3.380899     3.373256     3.365613     3.357969     3.350326     3.342683     3.335040     3.327396     3.319753
      3.312110     3.304467     3.296824     3.289180     3.281537     3.273894     3.266251     3.258607     3.250964     3.243321
      3.235678     3.228034     3.220391     3.212748     3.205105     3.197462     3.189818     3.182175     3.174532     3.166889
      3.159245     3.151602     3.143959     3.136316     3.128673     3.121029     3.113386     3.105743     3.098100     3.090456
      3.082813     3.075170     3.067527     3.059884     3.052240     3.044597     3.036954     3.029311     3.021667     3.014024
      3.006381     2.998738     2.991095     2.983451     2.975808     2.968165     2.960522     2.952878     2.945235     2.937592
      2.929949     2.922306     2.914662     2.907019     2.899376     2.891733     2.884089     2.876446     2.868803     2.861160
      2.853517     2.845873     2.838230     2.830587     2.822944     2.815300     2.807657     2.800014     2.792371     2.784728
      2.777084     2.769441     2.761798     2.754155     2.746511     2.738868     2.731225     2.723582     2.715939     2.708295
      2.700652     2.693009     2.685366     2.677722     2.670079     2.662436     2.654793     2.647150     2.639506     2.631863
      2.624220     2.616577     2.608933     2.601290     2.593647     2.586004     2.578361     2.570717     2.563074     2.555431
      2.547788     2.540144     2.532501     2.524858     2.517215     2.509572     2.501928     2.494285     2.486642     2.478999
      2.471355     2.463712     2.456069     2.448426     2.440783     2.433139     2.425496     2.417853     2.410210     2.402566
      2.394923     2.387280     2.379637     2.371994     2.364350     2.356707     2.349064     2.341421     2.333777     2.326134
      2.318491     2.310848     2.303205     2.295561     2.287918     2.280275     2.272632     2.264988     2.257345     2.249702
      2.242059     2.234416     2.226772     2.219129     2.211486     2.203843     2.196199     2.188556     2.180913     2.173270
      2.165627     2.157983     2.150340     2.142697     2.135054     2.127410     2.119767     2.112124     2.104481     2.096838
      2.089194     2.081551     2.073908     2.066265     2.058621     2.050978     2.043335     2.035692     2.028049     2.020405
      2.012762     2.005119     1.997476     1.989833     1.982190     1.974546     1.966903     1.959260     1.951617     1.943974
      1.936331     1.928688     1.921045     1.913402     1.905759     1.898115     1.890472     1.882829     1.875186     1.867543
      1.859900     1.852257     1.844614     1.836971     1.829327     1.821684     1.814041     1.806398     1.798755     1.791112
      1.783469     1.775826     1.768183     1.760540     1.752896     1.745253     1.737610     1.729967     1.722324     1.714681
      1.707038     1.699395     1.691752     1.684108     1.676465     1.668822     1.661179     1.653536     1.645893     1.638250
      1.630607     1.622964     1.615321     1.607677     1.600034     1.592391     1.584748     1.577105     1.569462     1.561819
      1.554176     1.546533     1.538890     1.531246     1.523603     1.515960     1.508317     1.500674     1.493031     1.485388
      1.477745     1.470102     1.462458     1.454815     1.447172     1.439529     1.431886     1.424243     1.416600     1.408957
      1.401314     1.393671     1.386027     1.378384     1.370741     1.363098     1.355455     1.347812     1.340169     1.332526
      1.324883     1.317240     1.309596     1.301953     1.294310     1.286667     1.279024     1.271381     1.263738     1.256095
      1.248452     1.240808     1.233165     1.225522     1.217879     1.210236     1.202593     1.194950     1.187307     1.179664
      1.172021     1.164377     1.156734     1.149091     1.141448     1.133805     1.126162     1.118519     1.110876     1.103233
      1.095590     1.087946     1.080303     1.072660     1.065017     1.057374     1.049731     1.042088     1.034445     1.026802
      1.019158     1.011515     1.003872     0.996229     0.988586     0.980943     0.973300     0.965657     0.958014     0.950371
      0.942727     0.935084     0.927441     0.919798     0.912155     0.904512     0.896869     0.889226     0.881583     0.873940
      0.866296     0.858653     0.851010     0.843367     0.835724     0.828081     0.820438     0.812795     0.805152     0.797508
      0.789865     0.782222     0.774579     0.766936     0.759293     0.751650     0.744007     0.736364     0.728721     0.721077
      0.713434     0.705791     0.698148     0.690505     0.682862     0.675219     0.667576     0.659933     0.652290     0.644646
      0.637003     0.629360     0.621717     0.614074     0.606431     0.598788     0.591145     0.583502     0.575858     0.568215
      0.560572     0.552929     0.545286     0.537643     0.530000     0.522357     0.514714     0.507071     0.499427     0.491784
      0.484141     0.476498     0.468855     0.461212     0.453569     0.445925     0.438282     0.430639     0.422996     0.415353
      0.407710     0.400067     0.392424     0.384780     0.377137     0.369494     0.361851     0.354208     0.346565     0.338922
      0.331278     0.323635     0.315992     0.308349     0.300706     0.293063     0.285420     0.277777     0.270133     0.262490
      0.254847     0.247204     0.239561     0.231918     0.224275     0.216631     0.208988     0.201345
 NY phased data points follow
  -3.26422E+01 -3.82106E+01 -2.43560E+01 -3.57521E+01 -1.30709E+01 -2.18369E+01 -4.09663E+00  9.36686E+00  7.71579E+00 -4.87661E+00
   3.96814E+00  8.13986E+00  1.00864E+01 -3.53456E+00 -1.53853E+00 -1.22782E+01 -1.70180E+01 -1.91208E+01 -4.55422E+00 -2.37399E+01
  -1.95204E+01 -3.07332E+01 -1.81096E+01 -2.59985E+01 -1.35923E+01 -2.49819E+01 -5.76945E+00 -2.01760E+01 -1.09795E+01 -2.01521E+01
  -1.57760E+01 -1.55188E+01 -1.31409E+01 -1.96169E+01 -1.62202E+01 -3.57678E+01 -1.38458E+01 -1.78747E+01 -1.00824E+01 -1.53414E+01
  -9.26788E+00 -2.49981E+01 -1.74752E+01 -1.64267E+01 -1.51760E+01 -1.84835E+01 -1.40971E+01 -2.02180E+01 -1.07817E+01 -5.63670E+00
  -1.60586E+01 -2.62158E+01 -1.41864E+01 -2.15411E+01 -2.81999E+01 -2.46695E+01 -1.86337E+01 -2.59287E+01 -1.86385E+01 -2.49918E+01
  -2.43343E+01 -2.93947E+01 -2.09314E+01 -3.54666E+01 -2.83770E+01 -3.21722E+01 -2.64383E+01 -3.15755E+01 -3.08013E+01 -2.83678E+01
  -3.40772E+01 -3.27386E+01 -1.21998E+01 -2.80194E+01 -2.33095E+01 -2.49402E+01 -2.56024E+01 -2.11261E+01 -1.42048E+01 -3.06746E+01
  -1.70014E+01 -1.69666E+01 -1.41485E+01 -2.25724E+01 -1.04369E+01 -2.62527E+01 -1.02973E+01 -2.00665E+01 -1.76512E+01 -1.81278E+01
  -3.41529E+00 -3.50695E+00 -6.94937E+00 -5.35133E+00 -2.88573E+00  1.23574E+01  1.31782E+01  2.86372E+01  4.16676E+01  4.31124E+01
   4.07433E+01  5.78181E+01  6.66103E+01  6.03335E+01  6.03399E+01  4.96005E+01  3.54622E+01  1.57695E+01  2.00808E+01 -6.04385E+00
   3.85218E-01 -1.41483E+01 -9.97846E+00 -2.14972E+01 -1.13525E+01 -1.84735E+01 -1.61092E+01 -1.96958E+01 -6.42838E+00 -1.19511E+01
  -6.14379E-01  7.35652E+00  1.09578E+01  1.32366E+01  3.01147E+01  3.79063E+01  4.46331E+01  4.23485E+01  3.97028E+01  3.11815E+01
   2.39074E+01  1.17802E+01  3.90977E+00 -3.21049E+00 -1.65095E+01 -1.63062E+01 -1.49616E+01 -1.11830E+01 -3.12034E+01 -2.15309E+01
  -2.33185E+01 -2.71637E+01 -2.06362E+01 -2.27085E+01 -2.46460E+01 -2.33299E+01 -2.46019E+01 -2.95970E+01 -1.75475E+01 -2.70612E+01
  -2.23144E+01 -1.73478E+01 -1.63698E+01 -3.28523E+01 -2.40427E+01 -2.50410E+01 -2.75793E+01 -2.62974E+01 -2.24359E+01 -2.60438E+01
  -2.21380E+01 -3.09094E+01 -2.96520E+01 -3.36764E+01 -1.96481E+01 -3.40459E+01 -2.99485E+01 -3.44613E+01 -2.97026E+01 -3.77803E+01
  -4.06805E+01 -4.19639E+01 -3.55686E+01 -4.13122E+01 -4.29755E+01 -3.91460E+01 -4.47604E+01 -4.48316E+01 -3.71066E+01 -4.67201E+01
  -3.46164E+01 -3.99850E+01 -3.54004E+01 -3.75055E+01 -3.15637E+01 -4.79756E+01 -2.63688E+01 -3.42438E+01 -3.42575E+01 -1.62462E+01
  -1.69500E+01 -1.63991E+01 -1.28603E+01 -1.37750E+01 -1.86970E+01 -1.19370E+01 -1.36388E+01 -1.93393E+01 -1.41609E+01 -1.43825E+01
  -1.19919E+01 -1.73193E+01 -1.92919E+01 -2.28256E+01 -1.70958E+01 -1.78037E+01 -2.08314E+01 -1.64913E+01 -1.21329E+01 -2.39471E+01
  -1.38979E+01 -2.24287E+01 -2.18974E+01 -1.54378E+01 -1.30272E+01 -1.40206E+01 -5.91718E+00 -8.63396E+00 -1.20843E+01 -1.30986E+01
  -1.10983E+01 -1.82153E+01 -1.74197E+01 -1.73008E+01 -1.11891E+01 -1.17221E+01 -6.81841E+00 -4.50039E+00  5.03726E-01 -4.87073E+00
   3.83650E+00  1.19960E+01  4.49083E-01  3.78327E+00  1.17404E+01 -4.28703E+00  2.10294E+00 -8.60727E+00 -1.58330E+00 -2.80042E+00
   8.02969E+00 -1.85620E+00  4.36612E+00 -4.90163E+00  1.68569E+00  5.93847E+00  8.06910E+00  1.12621E+01  2.12033E+01  1.34259E+01
   3.25198E+01  4.14684E+01  5.15866E+01  6.27338E+01  7.52079E+01  7.34721E+01  9.94616E+01  9.00532E+01  1.05594E+02  1.03433E+02
   1.02572E+02  1.02986E+02  1.02264E+02  8.46093E+01  7.21904E+01  5.67575E+01  4.13736E+01  2.67376E+01  2.74274E+01  1.82248E+01
   1.82224E+01  9.83486E+00 -2.04085E+00  3.85838E+00 -8.56769E+00 -4.61327E+00  1.27783E+01  2.71174E+00  1.72424E-01 -5.48832E+00
   2.55317E+00 -1.37019E+01 -7.08686E-01 -3.53081E+00 -5.48135E+00 -4.15447E+00  7.67231E+00 -6.12221E+00 -6.55327E+00 -9.69416E-01
  -4.75065E+00 -1.06029E+00 -1.29489E+00 -1.15572E+01 -1.02980E+01 -9.16859E+00 -1.32703E+01 -9.75762E+00 -9.70341E+00 -1.04184E+01
  -7.86508E+00 -1.39865E+01 -1.70949E+01 -1.67631E+01 -5.97766E+00 -2.01363E+01 -1.41275E+01 -7.62209E+00 -9.86169E+00 -1.60481E+01
  -1.12395E+01 -4.42135E+00 -7.62751E+00 -1.52172E+01 -8.43791E+00 -1.13373E+01 -7.83075E+00 -8.12285E+00 -7.25955E+00 -7.32861E+00
  -7.71567E+00 -4.72297E+00 -1.35585E+01 -1.14834E+01 -1.70716E+01 -1.82733E+01 -1.07114E+01  6.20517E-01 -1.14846E+01 -1.60056E+01
   6.80024E-01 -5.73349E+00 -2.61859E+00 -1.39202E+01 -1.04541E+01 -1.06133E+01 -6.39940E+00 -5.09397E+00 -1.19788E+00 -1.47156E+00
   3.12680E+00 -1.48930E+00 -9.16824E+00 -8.33972E+00 -5.65104E+00 -2.74270E+00 -3.01499E+00 -1.66146E+01 -4.29057E+00 -1.16247E+01
  -2.33398E+01 -1.77761E+01 -4.96811E+00 -1.92412E+01 -5.44783E+00 -1.22632E+01 -6.52507E+00 -1.26351E+01 -7.29557E+00 -1.76693E+01
  -1.62009E+01 -1.92330E+01 -1.88964E+01 -1.25345E+01 -1.32635E+01 -2.46747E+01 -1.73381E+01 -2.21513E+01 -1.29790E+01 -1.73892E+01
  -2.00091E+01 -1.09782E+01 -6.86617E+00 -1.36542E+01 -1.28973E+01 -1.59524E+01 -6.11607E+00 -1.81980E+01 -5.88633E+00 -1.57919E+01
  -6.16540E+00 -1.48197E+01 -1.24136E+01 -2.51494E+01 -1.04898E+01 -1.69507E+01 -1.94806E+01 -9.00063E-01 -1.14296E+01 -8.37555E+00
  -2.40748E+01 -8.07547E+00 -1.28648E+01 -1.25330E+01  6.25963E-01 -9.44623E+00 -9.68175E+00 -7.81914E+00 -1.22740E+00 -1.18687E+00
  -4.09102E-01  3.77167E+00 -8.59135E+00 -7.04228E+00 -1.22746E+01 -5.29853E+00  1.06211E+01  5.86462E+00  5.84465E+00  1.11089E+00
   2.56189E+00  1.50423E+00  7.39117E+00 -1.76166E-01  4.18062E+00 -4.82039E+00  2.27288E+00 -6.93589E-01  8.70789E+00 -2.82592E+00
  -8.81892E+00 -6.58241E+00 -5.79176E+00  7.35551E-01 -3.35168E+00  2.75638E+00 -1.33951E+00 -9.34797E+00 -1.22914E+00 -7.33438E+00
  -1.79105E+00 -1.36095E+01 -8.80802E+00 -1.05668E+01 -1.57246E-01 -4.35247E+00 -4.07446E+00 -2.32737E+00 -6.00358E+00 -7.14460E+00
  -7.34629E+00  1.48893E+00  2.44043E+00 -5.73869E+00  4.39614E-01 -1.86286E+00 -5.53121E+00 -4.82957E+00  1.02800E+01 -1.62559E-01
   2.90171E-01 -7.64811E+00 -4.88060E+00  3.11733E+00 -6.57443E+00 -6.52854E+00  1.68527E+00  2.80538E+00 -5.83457E+00  1.98576E-01
   6.08914E+00 -5.22092E+00  2.20208E+00  2.79544E+00 -6.20803E-01  4.06792E+00 -1.46519E+00 -1.08571E+00 -5.28309E+00 -5.45561E+00
   2.10755E+00  3.53877E+00  3.83589E+00 -8.67454E-01  4.06834E+00  6.49414E-01 -2.67666E+00  4.99722E+00 -8.49590E+00 -4.66132E+00
  -8.68241E-01  2.90306E+00 -3.21800E+00 -6.84176E+00 -8.70837E-02 -1.53004E+00  8.12092E+00 -2.68283E+00  5.28219E-01 -2.47825E+00
   7.95739E+00 -8.11121E+00  1.44834E+00 -5.14989E+00 -5.20230E+00  5.35075E+00  7.77417E+00 -6.93624E+00
 NY points of the fit to the data follow
  -2.84465E+01 -2.88045E+01 -2.37884E+01 -2.20374E+01 -1.69311E+01 -1.44067E+01 -7.17203E+00 -5.41814E+00 -8.88981E-01  3.94639E-01
   5.88917E+00  6.20419E+00  6.28324E+00  2.00834E+00 -1.09564E+00 -8.94637E+00 -1.13990E+01 -1.68680E+01 -1.66571E+01 -2.17125E+01
  -1.90569E+01 -2.20473E+01 -2.11418E+01 -2.27195E+01 -2.03531E+01 -2.02656E+01 -1.83391E+01 -1.77562E+01 -1.49291E+01 -1.43121E+01
  -1.25709E+01 -1.27335E+01 -1.16366E+01 -1.42157E+01 -1.42797E+01 -1.71497E+01 -1.82962E+01 -2.10754E+01 -2.07625E+01 -2.18651E+01
  -2.10123E+01 -1.94063E+01 -1.78212E+01 -1.65128E+01 -1.56124E+01 -1.54602E+01 -1.47580E+01 -1.44139E+01 -1.41165E+01 -1.53928E+01
  -1.70853E+01 -1.96207E+01 -2.18622E+01 -2.40400E+01 -2.50669E+01 -2.56862E+01 -2.58319E+01 -2.61870E+01 -2.63227E+01 -2.68687E+01
  -2.68084E+01 -2.70001E+01 -2.70788E+01 -2.76204E+01 -2.75548E+01 -2.79864E+01 -2.77395E+01 -2.73734E+01 -2.66024E+01 -2.62664E+01
  -2.56233E+01 -2.51595E+01 -2.49714E+01 -2.50007E+01 -2.46324E+01 -2.36126E+01 -2.26533E+01 -2.32770E+01 -2.17707E+01 -2.20447E+01
  -2.11393E+01 -2.05634E+01 -1.87151E+01 -1.89504E+01 -1.78950E+01 -1.75258E+01 -1.61156E+01 -1.63902E+01 -1.68014E+01 -1.82143E+01
  -1.74694E+01 -1.11757E+01 -6.73753E+00 -5.07800E+00  5.27832E+00  9.75738E+00  1.89024E+01  2.65147E+01  3.89019E+01  4.13168E+01
   4.86791E+01  5.43266E+01  6.41644E+01  6.30606E+01  5.93055E+01  4.85291E+01  3.61039E+01  2.03158E+01  1.23144E+01  1.55453E+00
  -3.48956E+00 -9.01826E+00 -1.03934E+01 -1.83159E+01 -1.94278E+01 -2.04902E+01 -1.62673E+01 -1.64513E+01 -8.10676E+00 -5.02269E+00
   2.64856E+00  7.25723E+00  1.89115E+01  2.05294E+01  2.77639E+01  3.00829E+01  3.89204E+01  3.89101E+01  3.86389E+01  3.05427E+01
   2.41930E+01  1.11754E+01  6.35153E+00 -2.97611E+00 -6.36549E+00 -1.28913E+01 -1.26603E+01 -1.95966E+01 -2.04061E+01 -2.36665E+01
  -2.45754E+01 -2.43095E+01 -2.40112E+01 -2.45119E+01 -2.47810E+01 -2.53534E+01 -2.56647E+01 -2.58577E+01 -2.58247E+01 -2.63209E+01
  -2.65670E+01 -2.71748E+01 -2.74640E+01 -2.80096E+01 -2.80969E+01 -2.83877E+01 -2.86279E+01 -2.87838E+01 -2.88566E+01 -2.91239E+01
  -2.93314E+01 -2.98265E+01 -3.03313E+01 -3.06949E+01 -3.08797E+01 -3.10587E+01 -3.13573E+01 -3.15791E+01 -3.22469E+01 -3.28815E+01
  -3.37098E+01 -3.41097E+01 -3.43339E+01 -3.43962E+01 -3.44223E+01 -3.46209E+01 -3.52480E+01 -3.51101E+01 -3.43122E+01 -3.35906E+01
  -3.23583E+01 -3.14214E+01 -3.05574E+01 -2.97071E+01 -2.81988E+01 -2.75744E+01 -2.59924E+01 -2.50894E+01 -2.37850E+01 -2.27911E+01
  -2.11513E+01 -2.07598E+01 -1.98518E+01 -1.94615E+01 -1.86084E+01 -1.85772E+01 -1.76895E+01 -1.67867E+01 -1.54431E+01 -1.56191E+01
  -1.24954E+01 -1.30716E+01 -1.28045E+01 -1.41476E+01 -1.38933E+01 -1.60180E+01 -1.68503E+01 -1.86584E+01 -1.93553E+01 -2.18851E+01
  -2.15194E+01 -2.08128E+01 -1.80947E+01 -1.62610E+01 -1.22798E+01 -1.12081E+01 -8.65084E+00 -1.03601E+01 -1.16754E+01 -1.51572E+01
  -1.64014E+01 -1.86797E+01 -1.93255E+01 -1.89064E+01 -1.67337E+01 -1.40121E+01 -1.01021E+01 -8.64540E+00 -5.84315E+00 -5.80153E+00
  -4.42674E+00 -5.53847E+00 -4.47671E+00 -3.33854E+00 -1.95722E+00 -1.72257E+00 -6.73612E-01 -8.61606E-01 -1.74529E+00 -1.68064E+00
  -1.67791E+00 -2.17524E+00 -2.71446E+00 -2.68667E+00 -8.83779E-01  2.45969E+00  4.22665E+00  8.98514E+00  1.32812E+01  2.34920E+01
   3.39662E+01  3.95350E+01  5.19368E+01  6.00923E+01  7.11927E+01  8.06391E+01  9.64404E+01  9.81643E+01  1.02975E+02  1.02356E+02
   1.08093E+02  1.04313E+02  9.97602E+01  8.67421E+01  7.45397E+01  5.54690E+01  4.48235E+01  3.04261E+01  2.37537E+01  1.40507E+01
   1.36722E+01  4.72002E+00  2.11370E+00 -3.08204E+00 -5.61466E+00 -6.16014E+00 -5.94918E+00 -6.07054E+00 -6.03771E+00 -6.09392E+00
  -6.15787E+00 -6.08976E+00 -5.98750E+00 -5.74000E+00 -5.59856E+00 -5.34232E+00 -5.28545E+00 -5.21916E+00 -5.28561E+00 -5.31870E+00
  -5.54661E+00 -5.70143E+00 -5.97341E+00 -6.26793E+00 -6.68171E+00 -7.08837E+00 -7.61428E+00 -8.12377E+00 -8.67066E+00 -9.18427E+00
  -9.68770E+00 -1.01126E+01 -1.05152E+01 -1.08587E+01 -1.11625E+01 -1.14238E+01 -1.16359E+01 -1.17886E+01 -1.19015E+01 -1.19432E+01
  -1.19313E+01 -1.18570E+01 -1.17092E+01 -1.14877E+01 -1.11486E+01 -1.06020E+01 -9.94134E+00 -9.96087E+00 -9.24759E+00 -9.03601E+00
  -8.62318E+00 -8.58476E+00 -8.17607E+00 -8.66712E+00 -8.18895E+00 -8.54972E+00 -8.24602E+00 -8.67957E+00 -9.06815E+00 -9.97368E+00
  -9.87313E+00 -1.00873E+01 -9.44570E+00 -9.08191E+00 -7.83912E+00 -6.71190E+00 -5.33027E+00 -4.98419E+00 -4.51142E+00 -4.81901E+00
  -5.17639E+00 -5.51463E+00 -5.90286E+00 -6.49683E+00 -6.79029E+00 -7.23123E+00 -7.85171E+00 -8.35924E+00 -9.05613E+00 -9.57423E+00
  -9.97850E+00 -1.03181E+01 -1.06025E+01 -1.08448E+01 -1.10443E+01 -1.12108E+01 -1.13426E+01 -1.14485E+01 -1.15266E+01 -1.15863E+01
  -1.16256E+01 -1.16537E+01 -1.16680E+01 -1.16764E+01 -1.16758E+01 -1.16737E+01 -1.16661E+01 -1.16594E+01 -1.16482E+01 -1.16378E+01
  -1.16223E+01 -1.16064E+01 -1.15836E+01 -1.15579E+01 -1.15220E+01 -1.14796E+01 -1.14234E+01 -1.13571E+01 -1.12734E+01 -1.11754E+01
  -1.10557E+01 -1.09173E+01 -1.07529E+01 -1.05657E+01 -1.03480E+01 -1.01024E+01 -9.82093E+00 -9.50649E+00 -9.15139E+00 -8.75861E+00
  -8.32059E+00 -7.84083E+00 -7.31298E+00 -6.74235E+00 -6.12478E+00 -5.46787E+00 -4.77011E+00 -4.04237E+00 -3.28704E+00 -2.51905E+00
  -1.74455E+00 -9.81623E-01 -2.39102E-01  4.62741E-01  1.11366E+00  1.69332E+00  2.19309E+00  2.59572E+00  2.89678E+00  3.08413E+00
   3.15928E+00  3.11686E+00  2.96572E+00  2.70772E+00  2.35802E+00  1.92381E+00  1.42448E+00  8.70397E-01  2.82877E-01 -3.27312E-01
  -9.40065E-01 -1.54709E+00 -2.13146E+00 -2.68840E+00 -3.20487E+00 -3.68031E+00 -4.10603E+00 -4.48548E+00 -4.81331E+00 -5.09557E+00
  -5.32903E+00 -5.52157E+00 -5.67146E+00 -5.78744E+00 -5.86793E+00 -5.92146E+00 -5.94625E+00 -5.95062E+00 -5.93250E+00 -5.89966E+00
  -5.84923E+00 -5.78820E+00 -5.71327E+00 -5.63117E+00 -5.53827E+00 -5.44079E+00 -5.33449E+00 -5.22522E+00 -5.10869E+00 -4.99071E+00
  -4.86683E+00 -4.74251E+00 -4.61296E+00 -4.48353E+00 -4.34958E+00 -4.21647E+00 -4.07937E+00 -3.94337E+00 -3.80352E+00 -3.66497E+00
  -3.52297E+00 -3.38269E+00 -3.23918E+00 -3.09736E+00 -2.95227E+00 -2.80903E+00 -2.66284E+00 -2.51874E+00 -2.37171E+00 -2.22663E+00
  -2.07859E+00 -1.93267E+00 -1.78404E+00 -1.63761E+00 -1.48835E+00 -1.34113E+00 -1.19110E+00 -1.04331E+00 -8.92884E-01 -7.44650E-01
  -5.93580E-01 -4.44574E-01 -2.92822E-01 -1.43303E-01  8.91135E-03  1.59060E-01  3.12129E-01  4.63205E-01  6.17088E-01  7.68888E-01
   9.23593E-01  1.07649E+00  1.23253E+00  1.38683E+00  1.54423E+00  1.69998E+00  1.85915E+00  2.01711E+00
 NY background values follow
    -5.134E+01   -5.115E+01   -5.097E+01   -5.079E+01   -5.061E+01   -5.043E+01   -5.024E+01   -5.006E+01   -4.988E+01   -4.970E+01
    -4.952E+01   -4.933E+01   -4.915E+01   -4.897E+01   -4.879E+01   -4.861E+01   -4.843E+01   -4.825E+01   -4.807E+01   -4.788E+01
    -4.770E+01   -4.752E+01   -4.734E+01   -4.716E+01   -4.698E+01   -4.680E+01   -4.662E+01   -4.644E+01   -4.626E+01   -4.608E+01
    -4.591E+01   -4.573E+01   -4.555E+01   -4.537E+01   -4.519E+01   -4.502E+01   -4.484E+01   -4.466E+01   -4.449E+01   -4.431E+01
    -4.413E+01   -4.396E+01   -4.378E+01   -4.361E+01   -4.343E+01   -4.326E+01   -4.309E+01   -4.291E+01   -4.274E+01   -4.257E+01
    -4.240E+01   -4.222E+01   -4.205E+01   -4.188E+01   -4.171E+01   -4.154E+01   -4.137E+01   -4.120E+01   -4.103E+01   -4.086E+01
    -4.070E+01   -4.053E+01   -4.036E+01   -4.019E+01   -4.003E+01   -3.986E+01   -3.970E+01   -3.953E+01   -3.937E+01   -3.920E+01
    -3.904E+01   -3.887E+01   -3.871E+01   -3.855E+01   -3.838E+01   -3.822E+01   -3.806E+01   -3.790E+01   -3.774E+01   -3.758E+01
    -3.742E+01   -3.726E+01   -3.710E+01   -3.694E+01   -3.678E+01   -3.663E+01   -3.647E+01   -3.631E+01   -3.616E+01   -3.600E+01
    -3.584E+01   -3.569E+01   -3.553E+01   -3.538E+01   -3.523E+01   -3.507E+01   -3.492E+01   -3.477E+01   -3.462E+01   -3.446E+01
    -3.431E+01   -3.416E+01   -3.401E+01   -3.386E+01   -3.371E+01   -3.356E+01   -3.341E+01   -3.327E+01   -3.312E+01   -3.297E+01
    -3.282E+01   -3.268E+01   -3.253E+01   -3.239E+01   -3.224E+01   -3.210E+01   -3.195E+01   -3.181E+01   -3.167E+01   -3.152E+01
    -3.138E+01   -3.124E+01   -3.110E+01   -3.096E+01   -3.082E+01   -3.068E+01   -3.054E+01   -3.040E+01   -3.026E+01   -3.012E+01
    -2.998E+01   -2.984E+01   -2.971E+01   -2.957E+01   -2.943E+01   -2.930E+01   -2.916E+01   -2.903E+01   -2.889E+01   -2.876E+01
    -2.863E+01   -2.849E+01   -2.836E+01   -2.823E+01   -2.810E+01   -2.796E+01   -2.783E+01   -2.770E+01   -2.757E+01   -2.744E+01
    -2.731E+01   -2.718E+01   -2.705E+01   -2.692E+01   -2.680E+01   -2.667E+01   -2.654E+01   -2.641E+01   -2.628E+01   -2.616E+01
    -2.603E+01   -2.590E+01   -2.578E+01   -2.565E+01   -2.552E+01   -2.540E+01   -2.527E+01   -2.515E+01   -2.502E+01   -2.490E+01
    -2.477E+01   -2.465E+01   -2.452E+01   -2.440E+01   -2.428E+01   -2.415E+01   -2.403E+01   -2.390E+01   -2.378E+01   -2.366E+01
    -2.353E+01   -2.341E+01   -2.329E+01   -2.316E+01   -2.304E+01   -2.292E+01   -2.280E+01   -2.267E+01   -2.255E+01   -2.243E+01
    -2.231E+01   -2.219E+01   -2.207E+01   -2.195E+01   -2.183E+01   -2.171E+01   -2.159E+01   -2.147E+01   -2.136E+01   -2.124E+01
    -2.112E+01   -2.101E+01   -2.089E+01   -2.078E+01   -2.067E+01   -2.056E+01   -2.045E+01   -2.033E+01   -2.023E+01   -2.012E+01
    -2.001E+01   -1.990E+01   -1.980E+01   -1.969E+01   -1.959E+01   -1.949E+01   -1.939E+01   -1.929E+01   -1.919E+01   -1.909E+01
    -1.900E+01   -1.891E+01   -1.881E+01   -1.872E+01   -1.863E+01   -1.854E+01   -1.846E+01   -1.837E+01   -1.829E+01   -1.821E+01
    -1.812E+01   -1.805E+01   -1.797E+01   -1.789E+01   -1.782E+01   -1.774E+01   -1.767E+01   -1.760E+01   -1.753E+01   -1.747E+01
    -1.740E+01   -1.734E+01   -1.727E+01   -1.721E+01   -1.715E+01   -1.709E+01   -1.704E+01   -1.698E+01   -1.693E+01   -1.687E+01
    -1.682E+01   -1.677E+01   -1.672E+01   -1.668E+01   -1.663E+01   -1.659E+01   -1.654E+01   -1.650E+01   -1.646E+01   -1.642E+01
    -1.639E+01   -1.635E+01   -1.631E+01   -1.628E+01   -1.625E+01   -1.622E+01   -1.619E+01   -1.616E+01   -1.613E+01   -1.611E+01
    -1.608E+01   -1.606E+01   -1.604E+01   -1.602E+01   -1.600E+01   -1.598E+01   -1.596E+01   -1.595E+01   -1.593E+01   -1.592E+01
    -1.590E+01   -1.589E+01   -1.588E+01   -1.587E+01   -1.586E+01   -1.585E+01   -1.584E+01   -1.584E+01   -1.583E+01   -1.583E+01
    -1.582E+01   -1.582E+01   -1.581E+01   -1.581E+01   -1.581E+01   -1.581E+01   -1.580E+01   -1.580E+01   -1.580E+01   -1.580E+01
    -1.580E+01   -1.580E+01   -1.580E+01   -1.580E+01   -1.580E+01   -1.580E+01   -1.581E+01   -1.581E+01   -1.581E+01   -1.581E+01
    -1.581E+01   -1.581E+01   -1.581E+01   -1.582E+01   -1.582E+01   -1.582E+01   -1.582E+01   -1.582E+01   -1.582E+01   -1.582E+01
    -1.582E+01   -1.582E+01   -1.581E+01   -1.581E+01   -1.581E+01   -1.581E+01   -1.580E+01   -1.580E+01   -1.580E+01   -1.579E+01
    -1.578E+01   -1.578E+01   -1.577E+01   -1.576E+01   -1.575E+01   -1.574E+01   -1.573E+01   -1.572E+01   -1.570E+01   -1.569E+01
    -1.567E+01   -1.566E+01   -1.564E+01   -1.562E+01   -1.560E+01   -1.558E+01   -1.556E+01   -1.553E+01   -1.551E+01   -1.548E+01
    -1.545E+01   -1.542E+01   -1.539E+01   -1.536E+01   -1.532E+01   -1.529E+01   -1.525E+01   -1.521E+01   -1.517E+01   -1.513E+01
    -1.508E+01   -1.503E+01   -1.499E+01   -1.493E+01   -1.488E+01   -1.483E+01   -1.477E+01   -1.471E+01   -1.465E+01   -1.459E+01
    -1.453E+01   -1.446E+01   -1.439E+01   -1.433E+01   -1.425E+01   -1.418E+01   -1.411E+01   -1.403E+01   -1.395E+01   -1.387E+01
    -1.379E+01   -1.371E+01   -1.362E+01   -1.353E+01   -1.345E+01   -1.336E+01   -1.326E+01   -1.317E+01   -1.307E+01   -1.298E+01
    -1.288E+01   -1.278E+01   -1.267E+01   -1.257E+01   -1.246E+01   -1.236E+01   -1.225E+01   -1.214E+01   -1.202E+01   -1.191E+01
    -1.180E+01   -1.168E+01   -1.156E+01   -1.144E+01   -1.132E+01   -1.119E+01   -1.107E+01   -1.094E+01   -1.081E+01   -1.069E+01
    -1.055E+01   -1.042E+01   -1.029E+01   -1.015E+01   -1.002E+01   -9.879E+00   -9.741E+00   -9.601E+00   -9.460E+00   -9.317E+00
    -9.174E+00   -9.030E+00   -8.885E+00   -8.739E+00   -8.592E+00   -8.444E+00   -8.295E+00   -8.146E+00   -7.996E+00   -7.845E+00
    -7.693E+00   -7.541E+00   -7.389E+00   -7.235E+00   -7.082E+00   -6.928E+00   -6.773E+00   -6.618E+00   -6.463E+00   -6.308E+00
    -6.152E+00   -5.996E+00   -5.840E+00   -5.684E+00   -5.527E+00   -5.371E+00   -5.215E+00   -5.058E+00   -4.902E+00   -4.746E+00
    -4.590E+00   -4.434E+00   -4.279E+00   -4.123E+00   -3.968E+00   -3.814E+00   -3.659E+00   -3.505E+00   -3.351E+00   -3.197E+00
    -3.044E+00   -2.890E+00   -2.737E+00   -2.584E+00   -2.432E+00   -2.279E+00   -2.127E+00   -1.975E+00   -1.823E+00   -1.671E+00
    -1.520E+00   -1.368E+00   -1.217E+00   -1.066E+00   -9.151E-01   -7.643E-01   -6.137E-01   -4.633E-01   -3.130E-01   -1.628E-01
    -1.272E-02    1.372E-01    2.871E-01    4.368E-01    5.864E-01    7.359E-01    8.854E-01    1.035E+00    1.184E+00    1.333E+00
     1.482E+00    1.631E+00    1.780E+00    1.929E+00    2.078E+00    2.227E+00    2.376E+00    2.525E+00
 Ala      Conc. = 6.66E+02
