 LCModel (Version 6.3-1L) Copyright: S.W. Provencher.          Ref.: Magn. Reson. Med. 30:672-679 (1993).                
 Slice#1 Row#12 Col#8  PD_24_press_2_raw_act
 36 lines in following concentration table = NCONC+1
    Conc.  %SD /Cr+PCr  Metabolite                                         
  341.515  44%   4.956 Ala                                                 
   18.504  21%   0.269 Asp                                                 
   68.910  45%   1.000 Cr                                                  
    0.000 999%   0.000 PCr                                                 
   11.111  21%   0.161 GABA                                                
   11.115  21%   0.161 Glc                                                 
  235.344 124%   3.415 Gln                                                 
  785.641  42%  11.401 Glu                                                 
   16.772 324%   0.243 GPC                                                 
    0.338 999% 4.9E-03 PCh                                                 
   50.984 109%   0.740 GSH                                                 
  284.931  48%   4.135 Ins                                                 
   93.603 159%   1.358 Lac                                                 
    0.000 999%   0.000 NAA                                                 
  250.103  16%   3.629 NAAG                                                
    3.707  21% 5.4E-02 Scyllo                                              
   18.554  21%   0.269 Tau                                                 
    6.891  45%   0.100 -CrCH2                                              
   17.110  67%   0.248 GPC+PCh                                             
  250.103  16%   3.629 NAA+NAAG                                            
   68.910  45%   1.000 Cr+PCr                                              
 1.02E+03  52%  14.816 Glu+Gln                                             
    0.000 999%   0.000 Lip13a                                              
    0.000 999%   0.000 Lip13b                                              
    0.000 999%   0.000 Lip09                                               
  142.627  37%   2.070 MM09                                                
    0.000 999%   0.000 Lip20                                               
  178.100  55%   2.585 MM20                                                
   43.828  53%   0.636 MM12                                                
  125.336  61%   1.819 MM14                                                
  268.070  15%   3.890+MM17                                                
    0.000 999%   0.000 Lip13a+Lip13b                                       
  169.164  51%   2.455 MM14+Lip13a+Lip13b+MM12                             
  142.627  37%   2.070 MM09+Lip09                                          
  178.100  55%   2.585 MM20+Lip20                                          
   6 lines in following misc. output table
  FWHM = 0.138 ppm    S/N =   2                                            
  Data shift = 0.352 ppm                                                   
  Ph: 142 deg      -1.1 deg/ppm                                            
  alphaB,S = 8.5E+01,   5.1E+01                                            
   14 spline knots.   Ns = 7(2)                                            
   2 inflections.     1 extrema                                            
  498 points on ppm-axis = NY
      4.000000     3.992357     3.984714     3.977070     3.969427     3.961784     3.954141     3.946497     3.938854     3.931211
      3.923568     3.915925     3.908281     3.900638     3.892995     3.885352     3.877708     3.870065     3.862422     3.854779
      3.847136     3.839492     3.831849     3.824206     3.816563     3.808919     3.801276     3.793633     3.785990     3.778347
      3.770703     3.763060     3.755417     3.747774     3.740130     3.732487     3.724844     3.717201     3.709558     3.701914
      3.694271     3.686628     3.678985     3.671341     3.663698     3.656055     3.648412     3.640769     3.633125     3.625482
      3.617839     3.610196     3.602552     3.594909     3.587266     3.579623     3.571980     3.564336     3.556693     3.549050
      3.541407     3.533763     3.526120     3.518477     3.510834     3.503191     3.495547     3.487904     3.480261     3.472618
      3.464974     3.457331     3.449688     3.442045     3.434402     3.426758     3.419115     3.411472     3.403829     3.396185
      3.388542     3.380899     3.373256     3.365613     3.357969     3.350326     3.342683     3.335040     3.327396     3.319753
      3.312110     3.304467     3.296824     3.289180     3.281537     3.273894     3.266251     3.258607     3.250964     3.243321
      3.235678     3.228034     3.220391     3.212748     3.205105     3.197462     3.189818     3.182175     3.174532     3.166889
      3.159245     3.151602     3.143959     3.136316     3.128673     3.121029     3.113386     3.105743     3.098100     3.090456
      3.082813     3.075170     3.067527     3.059884     3.052240     3.044597     3.036954     3.029311     3.021667     3.014024
      3.006381     2.998738     2.991095     2.983451     2.975808     2.968165     2.960522     2.952878     2.945235     2.937592
      2.929949     2.922306     2.914662     2.907019     2.899376     2.891733     2.884089     2.876446     2.868803     2.861160
      2.853517     2.845873     2.838230     2.830587     2.822944     2.815300     2.807657     2.800014     2.792371     2.784728
      2.777084     2.769441     2.761798     2.754155     2.746511     2.738868     2.731225     2.723582     2.715939     2.708295
      2.700652     2.693009     2.685366     2.677722     2.670079     2.662436     2.654793     2.647150     2.639506     2.631863
      2.624220     2.616577     2.608933     2.601290     2.593647     2.586004     2.578361     2.570717     2.563074     2.555431
      2.547788     2.540144     2.532501     2.524858     2.517215     2.509572     2.501928     2.494285     2.486642     2.478999
      2.471355     2.463712     2.456069     2.448426     2.440783     2.433139     2.425496     2.417853     2.410210     2.402566
      2.394923     2.387280     2.379637     2.371994     2.364350     2.356707     2.349064     2.341421     2.333777     2.326134
      2.318491     2.310848     2.303205     2.295561     2.287918     2.280275     2.272632     2.264988     2.257345     2.249702
      2.242059     2.234416     2.226772     2.219129     2.211486     2.203843     2.196199     2.188556     2.180913     2.173270
      2.165627     2.157983     2.150340     2.142697     2.135054     2.127410     2.119767     2.112124     2.104481     2.096838
      2.089194     2.081551     2.073908     2.066265     2.058621     2.050978     2.043335     2.035692     2.028049     2.020405
      2.012762     2.005119     1.997476     1.989833     1.982190     1.974546     1.966903     1.959260     1.951617     1.943974
      1.936331     1.928688     1.921045     1.913402     1.905759     1.898115     1.890472     1.882829     1.875186     1.867543
      1.859900     1.852257     1.844614     1.836971     1.829327     1.821684     1.814041     1.806398     1.798755     1.791112
      1.783469     1.775826     1.768183     1.760540     1.752896     1.745253     1.737610     1.729967     1.722324     1.714681
      1.707038     1.699395     1.691752     1.684108     1.676465     1.668822     1.661179     1.653536     1.645893     1.638250
      1.630607     1.622964     1.615321     1.607677     1.600034     1.592391     1.584748     1.577105     1.569462     1.561819
      1.554176     1.546533     1.538890     1.531246     1.523603     1.515960     1.508317     1.500674     1.493031     1.485388
      1.477745     1.470102     1.462458     1.454815     1.447172     1.439529     1.431886     1.424243     1.416600     1.408957
      1.401314     1.393671     1.386027     1.378384     1.370741     1.363098     1.355455     1.347812     1.340169     1.332526
      1.324883     1.317240     1.309596     1.301953     1.294310     1.286667     1.279024     1.271381     1.263738     1.256095
      1.248452     1.240808     1.233165     1.225522     1.217879     1.210236     1.202593     1.194950     1.187307     1.179664
      1.172021     1.164377     1.156734     1.149091     1.141448     1.133805     1.126162     1.118519     1.110876     1.103233
      1.095590     1.087946     1.080303     1.072660     1.065017     1.057374     1.049731     1.042088     1.034445     1.026802
      1.019158     1.011515     1.003872     0.996229     0.988586     0.980943     0.973300     0.965657     0.958014     0.950371
      0.942727     0.935084     0.927441     0.919798     0.912155     0.904512     0.896869     0.889226     0.881583     0.873940
      0.866296     0.858653     0.851010     0.843367     0.835724     0.828081     0.820438     0.812795     0.805152     0.797508
      0.789865     0.782222     0.774579     0.766936     0.759293     0.751650     0.744007     0.736364     0.728721     0.721077
      0.713434     0.705791     0.698148     0.690505     0.682862     0.675219     0.667576     0.659933     0.652290     0.644646
      0.637003     0.629360     0.621717     0.614074     0.606431     0.598788     0.591145     0.583502     0.575858     0.568215
      0.560572     0.552929     0.545286     0.537643     0.530000     0.522357     0.514714     0.507071     0.499427     0.491784
      0.484141     0.476498     0.468855     0.461212     0.453569     0.445925     0.438282     0.430639     0.422996     0.415353
      0.407710     0.400067     0.392424     0.384780     0.377137     0.369494     0.361851     0.354208     0.346565     0.338922
      0.331278     0.323635     0.315992     0.308349     0.300706     0.293063     0.285420     0.277777     0.270133     0.262490
      0.254847     0.247204     0.239561     0.231918     0.224275     0.216631     0.208988     0.201345
 NY phased data points follow
   2.33853E+00  5.03148E-01  4.70468E+00  5.10017E-01 -1.96788E-01  1.48556E+00  2.78014E+00  5.66398E-01  3.39950E+00 -8.92499E-01
   1.74483E+00  2.26754E+00  3.37271E+00  1.02833E+00  1.72601E+00  7.65289E-01  4.05202E+00  1.17490E+00  1.26808E+00  1.23834E-01
   6.73879E-01 -8.83702E-02  4.05731E+00  2.25119E+00  3.85742E+00  1.69828E+00  2.45698E+00 -1.10043E+00  2.10478E+00  1.29634E+00
   2.01509E+00  1.63277E+00  4.22599E+00  2.97089E+00  1.81250E+00  3.27136E-01  8.40394E-01  9.33377E-01  1.86057E+00  8.82907E-01
   3.66197E+00  7.22512E-01  3.20531E+00  1.14496E+00  2.50370E+00  2.79236E+00  1.24253E+00  1.82042E+00  4.65337E-01  1.52941E+00
   1.66975E+00  3.87997E-01  2.34445E-01  2.98130E-01 -2.68197E+00 -6.41793E-01 -1.08609E+00 -2.36480E+00  8.98244E-01  3.66391E+00
   2.91251E+00  2.47848E+00  4.77637E+00  3.16060E+00  2.52291E+00 -8.88828E-01  2.33184E+00  3.03680E-01  8.38888E-01  2.51097E+00
   1.34290E+00  2.90732E+00  4.45745E+00  1.54897E+00  3.35592E+00  7.66914E-01  1.08799E+00 -1.67611E+00 -4.62991E-01 -9.66941E-01
  -1.10756E+00  1.97493E+00 -2.10996E+00  1.89835E+00  6.99501E-01  5.33233E+00  2.34246E+00  5.19553E-01  4.99644E-01  1.36322E+00
   1.35776E+00 -2.41337E-01  9.82071E-01 -1.58113E-01 -4.08235E-01  1.14985E+00  9.94102E-01  5.33892E-01  7.59123E-01  2.13906E+00
  -7.28195E-01  3.24838E+00 -2.21759E-01  1.35815E+00  3.19724E-01  6.54829E-01  1.23767E+00  6.30001E-01  1.83535E+00  1.22021E+00
   2.67575E+00  1.69937E+00  1.53323E+00 -8.92012E-02  2.70157E+00  1.53473E+00  2.18466E+00  1.02757E+00  3.04454E+00 -1.42301E-01
   1.02145E+00  4.12910E-01  6.79277E-01  2.64916E+00  3.12090E+00 -1.70312E+00  1.50111E+00  1.01081E+00  9.78095E-02  1.87540E+00
   3.13150E-02  6.11665E-01  2.79194E+00  7.12092E-01  2.36547E-01  1.53980E+00  3.55559E+00  2.87827E+00  1.88219E+00  2.65029E+00
  -2.14004E-02  2.73528E+00  9.63621E-01 -4.11949E-01 -9.63065E-01  1.29119E+00  6.58194E-01 -1.36288E-01  1.71703E+00  4.39402E-01
   1.99953E+00 -9.58813E-01  1.78387E+00  4.71334E-01  1.33074E-01 -8.70473E-01 -2.71337E-01 -1.90694E+00  7.74203E-01  1.64010E+00
   2.18667E+00 -1.52383E+00 -4.40846E-01  2.10530E+00  1.83519E+00 -1.23251E+00 -9.97874E-01 -1.68331E+00  5.06825E-01 -2.80691E+00
   6.99471E-01 -1.72832E+00 -7.05923E-02 -2.61495E-01  1.11321E+00  1.00628E+00  8.48986E-01  1.47436E+00 -2.20726E+00  3.88723E-01
  -4.66491E-01  1.71235E+00  2.36447E-01  1.05090E-01 -2.81575E+00  8.69000E-01  1.44580E-01 -7.46066E-01 -1.35620E+00 -1.74201E+00
   2.67747E-01 -2.46850E+00  1.46993E+00 -5.18171E-02  2.37529E+00  7.43101E-01 -1.02914E+00  4.96583E-01  1.35180E+00  2.04959E+00
   1.76795E-01  1.01390E+00 -1.55039E-01 -8.30303E-02  1.40823E+00  8.79320E-01 -3.82564E-02 -3.91574E-01  8.34212E-01  4.57493E-01
   2.83365E-01 -1.70564E+00 -2.18998E+00  1.58719E+00 -2.55291E+00 -3.89123E-01 -1.44556E-02  4.55438E-04  1.19506E-01 -3.35376E+00
   1.29542E+00  6.13626E-02  6.48000E-01  4.39828E-01 -3.16604E-01  8.39217E-01 -1.05277E+00  1.82919E+00  1.48390E+00  4.31608E-01
   2.33329E+00  6.16439E-01 -2.21861E-01  1.10942E+00  7.02386E-01  1.16214E+00  1.23256E+00  1.10909E+00  3.31217E+00  8.45674E-01
   2.01753E+00  2.61790E+00  4.03480E+00  2.48269E+00  3.71576E+00  2.26797E+00  3.16237E+00  4.34398E+00  6.23132E+00  5.73629E+00
   5.82740E+00  5.89631E+00  5.84254E+00  5.42307E+00  3.49587E+00  5.43961E+00  5.69392E+00  5.87455E+00  5.42924E+00  4.28997E+00
   4.32538E+00  1.04037E+00  2.89783E+00  3.23854E-01  2.93114E+00  5.86021E-01  1.30455E+00 -1.37058E+00 -9.27347E-01 -6.21318E-01
  -7.67873E-03 -9.00962E-01 -4.17614E-01 -6.68487E-01  6.86851E-01 -9.33581E-01  1.45913E+00  7.71587E-01  3.20644E+00  1.68987E+00
   2.85573E+00  4.37039E+00  5.91070E+00  5.01660E+00  3.55271E+00  5.73420E+00  3.12507E+00  2.45877E+00  4.46043E+00  5.24560E+00
   4.46316E+00  3.45369E+00  3.84928E+00  3.11273E+00  5.29103E+00  4.56686E+00  4.31559E+00  4.55547E+00  3.71443E+00  2.64931E+00
   3.86746E+00  4.54121E+00  4.77099E+00  4.72650E+00  4.11313E+00  3.96735E+00  2.42288E+00  1.98635E+00  3.99348E+00  1.98990E+00
   3.55457E+00  1.35271E+00  3.60024E+00  2.73221E+00  1.19040E+00  3.44799E+00  1.70889E+00  2.42537E+00  2.19260E+00  1.64254E+00
   2.81980E-02  2.36352E+00  3.06906E+00  1.38083E+00  8.88224E-01  4.37607E-01  2.57438E+00  3.20817E+00  1.28500E+00  8.22806E-01
   2.15042E+00  2.30118E+00  1.68281E+00  9.89582E-01  1.81087E+00  1.85893E+00  1.82226E+00  2.26049E+00  2.72351E+00 -6.15865E-01
   2.59855E+00  4.66318E+00 -8.94885E-01  2.08135E+00  1.50554E+00  2.20787E-01  1.41220E+00  1.34337E+00  1.69288E+00  1.85649E+00
   8.47345E-01 -2.05586E+00  6.71554E-02 -2.78400E+00 -7.42860E-02 -1.68786E+00  4.07110E-01 -1.32574E+00  3.08671E+00  1.46548E-01
   1.82962E+00 -1.03729E+00  2.09016E+00  2.11601E+00  9.90175E-02  1.72975E+00  2.89308E+00  1.47569E+00  1.07542E+00  1.02757E+00
   2.04367E+00  3.16168E+00  3.98570E+00  8.55313E-01  3.02271E+00  1.66924E+00  4.20625E+00  3.19526E+00 -6.22279E-02  7.06684E-01
   1.88078E+00  8.00586E-01  2.36978E-02  2.05721E+00  4.85554E-01  1.51883E+00  1.32672E-01 -3.56662E-01  1.72627E+00  2.18937E+00
   6.33742E-01  1.25798E+00  8.97294E-01  2.11322E+00  1.57851E+00  9.18151E-01 -3.30570E-01  1.03567E+00  1.74678E+00  2.02497E+00
   3.77209E+00 -1.03125E+00  1.99595E-01 -1.69337E+00  3.10365E-01  1.71509E+00  5.44389E-01  2.59843E+00  3.85850E+00 -1.17240E-01
  -1.23059E+00  8.25137E-01 -3.37092E-01  2.39566E+00 -4.81828E-01  1.16731E+00  4.55082E-01  2.46824E+00 -1.88963E-01  2.76363E+00
   1.68879E+00  2.14669E+00 -1.45131E+00 -2.68244E+00 -7.46103E-01  8.21853E-01  1.42104E+00  1.44012E+00  2.04261E+00  3.87499E-01
   1.17240E+00  1.17026E+00  1.10542E+00  1.22957E+00  3.84124E+00  9.48211E-01  5.45090E-01 -1.93292E+00  4.39126E+00  5.98510E-01
   1.85293E+00  4.14005E-01  1.82547E+00  4.19987E-01  2.41107E-01  2.21964E+00  2.13538E+00 -5.53413E-01  7.17306E-01  1.51319E+00
  -1.39445E+00  2.10625E+00  2.11330E-01 -3.71849E-01  1.79267E+00  2.22656E-01 -2.35572E-01 -1.86494E-01  2.02793E+00  1.36675E+00
   8.31065E-01 -5.81329E-01  1.79700E+00 -2.32795E-02 -5.54074E-01  1.34639E+00  2.94378E+00 -3.85563E-01 -1.93053E-01  1.39225E+00
  -2.98394E+00  1.97725E+00 -7.24055E-01 -2.43260E-02 -1.72363E+00 -8.13842E-02 -7.78390E-01  1.81191E-01 -1.64143E-02  1.77483E-02
   1.60850E-01 -2.72540E-01  3.15802E-01  8.50285E-02  5.84027E-01  2.03986E-01  2.46896E+00 -1.60255E+00  6.26937E-01  5.17599E-01
   6.27963E-01 -3.39236E-01 -5.15188E-01 -4.38692E-01  6.17666E-01  2.15866E+00  1.51195E+00  1.64533E+00
 NY points of the fit to the data follow
   1.38168E+00  1.31019E+00  1.41625E+00  1.30591E+00  1.41126E+00  1.28214E+00  1.40846E+00  1.30192E+00  1.45589E+00  1.39774E+00
   1.60511E+00  1.65990E+00  1.84942E+00  1.75152E+00  1.77099E+00  1.60024E+00  1.56722E+00  1.36932E+00  1.44613E+00  1.39877E+00
   1.70183E+00  1.63564E+00  2.01845E+00  1.82430E+00  2.15143E+00  1.87037E+00  2.16302E+00  1.74061E+00  2.03134E+00  1.57527E+00
   1.93718E+00  1.52341E+00  1.98059E+00  1.72403E+00  2.21030E+00  1.93869E+00  2.25365E+00  1.95585E+00  2.12714E+00  1.88005E+00
   1.99151E+00  1.80150E+00  1.87386E+00  1.69929E+00  1.72440E+00  1.62744E+00  1.66293E+00  1.65575E+00  1.70497E+00  1.67679E+00
   1.66322E+00  1.54187E+00  1.45364E+00  1.31461E+00  1.22970E+00  1.14919E+00  1.11845E+00  1.08365E+00  1.09770E+00  1.08557E+00
   1.12227E+00  1.12156E+00  1.17921E+00  1.16306E+00  1.20732E+00  1.15664E+00  1.16932E+00  1.11941E+00  1.13305E+00  1.09602E+00
   1.11254E+00  1.07766E+00  1.09806E+00  1.02806E+00  1.01950E+00  9.18507E-01  8.98069E-01  7.79049E-01  7.53237E-01  6.35116E-01
   6.25569E-01  5.24703E-01  5.45614E-01  4.61132E-01  4.89364E-01  4.13529E-01  4.39729E-01  3.73219E-01  4.39675E-01  4.97135E-01
   5.43819E-01  6.76850E-01  6.92861E-01  8.73795E-01  8.41606E-01  1.01754E+00  9.33166E-01  1.08242E+00  9.62952E-01  1.09607E+00
   9.60205E-01  1.07822E+00  9.41975E-01  1.04584E+00  8.98382E-01  9.50426E-01  8.03024E-01  7.97358E-01  6.75151E-01  6.34497E-01
   5.65413E-01  5.41830E-01  5.34950E-01  6.49569E-01  7.53190E-01  8.60440E-01  1.02880E+00  1.11279E+00  1.31630E+00  1.35071E+00
   1.53937E+00  1.47833E+00  1.63895E+00  1.51595E+00  1.65059E+00  1.49536E+00  1.61590E+00  1.45756E+00  1.56484E+00  1.35451E+00
   1.41641E+00  1.16857E+00  1.18165E+00  9.45228E-01  9.27250E-01  7.55356E-01  7.33131E-01  6.09342E-01  5.86716E-01  5.03211E-01
   4.73003E-01  4.38740E-01  4.28148E-01  4.16375E-01  4.21780E-01  3.95829E-01  3.80417E-01  3.59960E-01  3.32313E-01  3.18785E-01
   2.75471E-01  2.58622E-01  2.04592E-01  1.92310E-01  1.35000E-01  1.23928E-01  6.25184E-02  7.37944E-02  2.97164E-02  5.74264E-02
   1.65816E-02  3.46389E-02 -1.14612E-02  6.29680E-03 -3.41592E-02 -1.56414E-02 -4.90793E-02 -2.85475E-02 -7.05496E-02 -5.49268E-02
  -6.73614E-02 -5.11523E-02 -2.49501E-02 -9.46888E-03  4.66053E-02  5.87023E-02  1.36303E-01  1.59631E-01  2.62923E-01  2.77011E-01
   3.65627E-01  3.61443E-01  4.08417E-01  3.63872E-01  3.80787E-01  3.54319E-01  3.80834E-01  4.11646E-01  4.81351E-01  5.60102E-01
   6.44836E-01  7.82403E-01  8.50213E-01  9.25841E-01  9.43166E-01  8.27241E-01  6.93715E-01  5.07421E-01  4.09182E-01  2.82758E-01
   3.56191E-01  4.81321E-01  8.39872E-01  8.82223E-01  1.33907E+00  1.15579E+00  1.56071E+00  9.59617E-01  1.11252E+00  3.20848E-01
   5.24588E-01 -1.59964E-01  2.00964E-01 -2.34635E-01  2.91961E-01  4.30551E-02  5.82999E-01  2.49039E-01  6.03010E-01  2.47141E-01
   4.45975E-01  1.95740E-01  3.07303E-01  3.18838E-01  5.13680E-01  7.21799E-01  8.98672E-01  1.21935E+00  1.24160E+00  1.49443E+00
   1.42312E+00  1.59291E+00  1.48386E+00  1.56493E+00  1.47360E+00  1.48007E+00  1.34047E+00  1.31065E+00  1.23009E+00  1.25455E+00
   1.32926E+00  1.64766E+00  2.32310E+00  2.55073E+00  3.43626E+00  3.47679E+00  4.48130E+00  4.27996E+00  5.21043E+00  4.82324E+00
   5.60288E+00  5.06546E+00  5.77028E+00  5.15659E+00  5.76368E+00  5.08959E+00  5.57661E+00  4.73644E+00  4.91725E+00  4.02443E+00
   3.95584E+00  3.19810E+00  2.99475E+00  2.46843E+00  2.32029E+00  1.93153E+00  1.78758E+00  1.51729E+00  1.38889E+00  1.28651E+00
   1.25739E+00  1.25569E+00  1.30866E+00  1.29408E+00  1.31379E+00  1.31863E+00  1.34657E+00  1.36670E+00  1.40675E+00  1.43962E+00
   1.50606E+00  1.56249E+00  1.66712E+00  1.76117E+00  1.89572E+00  2.01000E+00  2.16841E+00  2.29882E+00  2.46954E+00  2.60684E+00
   2.77144E+00  2.89359E+00  3.03000E+00  3.11581E+00  3.20299E+00  3.23653E+00  3.25914E+00  3.23288E+00  3.19003E+00  3.10723E+00
   3.01118E+00  2.88630E+00  2.75554E+00  2.61126E+00  2.46813E+00  2.32810E+00  2.19849E+00  2.08534E+00  1.99468E+00  1.93305E+00
   1.90899E+00  1.94072E+00  2.06892E+00  2.33488E+00  2.33020E+00  2.44106E+00  2.30027E+00  2.23633E+00  1.95053E+00  1.65349E+00
   1.24498E+00  1.06334E+00  9.67910E-01  8.46673E-01  9.93578E-01  8.82837E-01  1.22672E+00  1.04823E+00  1.42660E+00  1.07362E+00
   1.48185E+00  1.08513E+00  1.60915E+00  1.35122E+00  1.96173E+00  1.81046E+00  2.43816E+00  2.20138E+00  2.68525E+00  2.28580E+00
   2.55110E+00  2.17693E+00  2.27962E+00  1.97947E+00  2.00238E+00  1.71440E+00  1.73139E+00  1.47149E+00  1.45359E+00  1.22247E+00
   1.23262E+00  1.07439E+00  1.15822E+00  1.04243E+00  1.13594E+00  1.09809E+00  1.20031E+00  1.17151E+00  1.24881E+00  1.20053E+00
   1.23864E+00  1.18566E+00  1.18387E+00  1.14137E+00  1.12017E+00  1.06859E+00  1.04122E+00  9.95460E-01  9.64303E-01  9.37981E-01
   9.16979E-01  9.12429E-01  9.06724E-01  9.00964E-01  8.96260E-01  8.93300E-01  8.92116E-01  8.93186E-01  8.96502E-01  9.02537E-01
   9.11278E-01  9.23187E-01  9.38223E-01  9.56801E-01  9.78812E-01  1.00457E+00  1.03385E+00  1.06682E+00  1.10304E+00  1.14248E+00
   1.18446E+00  1.22866E+00  1.27413E+00  1.32028E+00  1.36591E+00  1.41020E+00  1.45178E+00  1.48973E+00  1.52268E+00  1.54982E+00
   1.56995E+00  1.58254E+00  1.58679E+00  1.58262E+00  1.56972E+00  1.54854E+00  1.51931E+00  1.48296E+00  1.44015E+00  1.39217E+00
   1.33993E+00  1.28487E+00  1.22795E+00  1.17054E+00  1.11346E+00  1.05787E+00  1.00430E+00  9.53612E-01  9.06022E-01  8.62078E-01
   8.21699E-01  7.85168E-01  7.52182E-01  7.22841E-01  6.96702E-01  6.73763E-01  6.53517E-01  6.35931E-01  6.20495E-01  6.07185E-01
   5.95519E-01  5.85511E-01  5.76720E-01  5.69204E-01  5.62569E-01  5.56914E-01  5.51882E-01  5.47610E-01  5.43770E-01  5.40531E-01
   5.37585E-01  5.35123E-01  5.32855E-01  5.30987E-01  5.29240E-01  5.27831E-01  5.26490E-01  5.25443E-01  5.24422E-01  5.23661E-01
   5.22898E-01  5.22370E-01  5.21817E-01  5.21480E-01  5.21102E-01  5.20922E-01  5.20688E-01  5.20643E-01  5.20533E-01  5.20602E-01
   5.20598E-01  5.20765E-01  5.20854E-01  5.21110E-01  5.21283E-01  5.21618E-01  5.21867E-01  5.22273E-01  5.22592E-01  5.23067E-01
   5.23452E-01  5.23991E-01  5.24440E-01  5.25042E-01  5.25554E-01  5.26222E-01  5.26798E-01  5.27530E-01  5.28172E-01  5.28973E-01
   5.29687E-01  5.30563E-01  5.31354E-01  5.32312E-01  5.33190E-01  5.34241E-01  5.35221E-01  5.36383E-01  5.37482E-01  5.38774E-01
   5.40017E-01  5.41471E-01  5.42897E-01  5.44557E-01  5.46216E-01  5.48142E-01  5.50111E-01  5.52405E-01
 NY background values follow
     3.450E-01    3.456E-01    3.461E-01    3.466E-01    3.471E-01    3.477E-01    3.482E-01    3.487E-01    3.493E-01    3.498E-01
     3.503E-01    3.508E-01    3.514E-01    3.519E-01    3.524E-01    3.530E-01    3.535E-01    3.540E-01    3.545E-01    3.551E-01
     3.556E-01    3.561E-01    3.566E-01    3.572E-01    3.577E-01    3.582E-01    3.588E-01    3.593E-01    3.598E-01    3.603E-01
     3.609E-01    3.614E-01    3.619E-01    3.624E-01    3.630E-01    3.635E-01    3.640E-01    3.645E-01    3.651E-01    3.656E-01
     3.661E-01    3.666E-01    3.672E-01    3.677E-01    3.682E-01    3.687E-01    3.693E-01    3.698E-01    3.703E-01    3.708E-01
     3.714E-01    3.719E-01    3.724E-01    3.729E-01    3.735E-01    3.740E-01    3.745E-01    3.750E-01    3.756E-01    3.761E-01
     3.766E-01    3.771E-01    3.777E-01    3.782E-01    3.787E-01    3.792E-01    3.798E-01    3.803E-01    3.808E-01    3.813E-01
     3.819E-01    3.824E-01    3.829E-01    3.834E-01    3.839E-01    3.845E-01    3.850E-01    3.855E-01    3.860E-01    3.866E-01
     3.871E-01    3.876E-01    3.881E-01    3.886E-01    3.892E-01    3.897E-01    3.902E-01    3.907E-01    3.912E-01    3.918E-01
     3.923E-01    3.928E-01    3.933E-01    3.938E-01    3.944E-01    3.949E-01    3.954E-01    3.959E-01    3.964E-01    3.970E-01
     3.975E-01    3.980E-01    3.985E-01    3.990E-01    3.996E-01    4.001E-01    4.006E-01    4.011E-01    4.016E-01    4.022E-01
     4.027E-01    4.032E-01    4.037E-01    4.042E-01    4.048E-01    4.053E-01    4.058E-01    4.063E-01    4.068E-01    4.073E-01
     4.079E-01    4.084E-01    4.089E-01    4.094E-01    4.099E-01    4.104E-01    4.110E-01    4.115E-01    4.120E-01    4.125E-01
     4.130E-01    4.135E-01    4.141E-01    4.146E-01    4.151E-01    4.156E-01    4.161E-01    4.166E-01    4.171E-01    4.177E-01
     4.182E-01    4.187E-01    4.192E-01    4.197E-01    4.202E-01    4.207E-01    4.213E-01    4.218E-01    4.223E-01    4.228E-01
     4.233E-01    4.238E-01    4.243E-01    4.249E-01    4.254E-01    4.259E-01    4.264E-01    4.269E-01    4.274E-01    4.279E-01
     4.284E-01    4.290E-01    4.295E-01    4.300E-01    4.305E-01    4.310E-01    4.315E-01    4.320E-01    4.325E-01    4.330E-01
     4.336E-01    4.341E-01    4.346E-01    4.351E-01    4.356E-01    4.361E-01    4.366E-01    4.371E-01    4.376E-01    4.381E-01
     4.387E-01    4.392E-01    4.397E-01    4.402E-01    4.407E-01    4.412E-01    4.417E-01    4.422E-01    4.427E-01    4.432E-01
     4.437E-01    4.442E-01    4.448E-01    4.453E-01    4.458E-01    4.463E-01    4.468E-01    4.473E-01    4.478E-01    4.483E-01
     4.488E-01    4.493E-01    4.498E-01    4.503E-01    4.508E-01    4.513E-01    4.518E-01    4.523E-01    4.529E-01    4.534E-01
     4.539E-01    4.544E-01    4.549E-01    4.554E-01    4.559E-01    4.564E-01    4.569E-01    4.574E-01    4.579E-01    4.584E-01
     4.589E-01    4.594E-01    4.599E-01    4.604E-01    4.609E-01    4.614E-01    4.619E-01    4.624E-01    4.629E-01    4.634E-01
     4.639E-01    4.644E-01    4.649E-01    4.654E-01    4.659E-01    4.664E-01    4.669E-01    4.674E-01    4.679E-01    4.684E-01
     4.689E-01    4.694E-01    4.699E-01    4.704E-01    4.709E-01    4.714E-01    4.719E-01    4.724E-01    4.729E-01    4.734E-01
     4.739E-01    4.744E-01    4.749E-01    4.754E-01    4.759E-01    4.764E-01    4.769E-01    4.774E-01    4.779E-01    4.784E-01
     4.789E-01    4.794E-01    4.799E-01    4.804E-01    4.809E-01    4.814E-01    4.819E-01    4.824E-01    4.828E-01    4.833E-01
     4.838E-01    4.843E-01    4.848E-01    4.853E-01    4.858E-01    4.863E-01    4.868E-01    4.873E-01    4.878E-01    4.883E-01
     4.888E-01    4.893E-01    4.898E-01    4.902E-01    4.907E-01    4.912E-01    4.917E-01    4.922E-01    4.927E-01    4.932E-01
     4.937E-01    4.942E-01    4.947E-01    4.952E-01    4.956E-01    4.961E-01    4.966E-01    4.971E-01    4.976E-01    4.981E-01
     4.986E-01    4.991E-01    4.996E-01    5.000E-01    5.005E-01    5.010E-01    5.015E-01    5.020E-01    5.025E-01    5.030E-01
     5.034E-01    5.039E-01    5.044E-01    5.049E-01    5.054E-01    5.059E-01    5.064E-01    5.068E-01    5.073E-01    5.078E-01
     5.083E-01    5.088E-01    5.093E-01    5.098E-01    5.102E-01    5.107E-01    5.112E-01    5.117E-01    5.122E-01    5.127E-01
     5.131E-01    5.136E-01    5.141E-01    5.146E-01    5.151E-01    5.155E-01    5.160E-01    5.165E-01    5.170E-01    5.175E-01
     5.179E-01    5.184E-01    5.189E-01    5.194E-01    5.199E-01    5.203E-01    5.208E-01    5.213E-01    5.218E-01    5.223E-01
     5.227E-01    5.232E-01    5.237E-01    5.242E-01    5.246E-01    5.251E-01    5.256E-01    5.261E-01    5.266E-01    5.270E-01
     5.275E-01    5.280E-01    5.285E-01    5.289E-01    5.294E-01    5.299E-01    5.304E-01    5.308E-01    5.313E-01    5.318E-01
     5.322E-01    5.327E-01    5.332E-01    5.337E-01    5.341E-01    5.346E-01    5.351E-01    5.356E-01    5.360E-01    5.365E-01
     5.370E-01    5.374E-01    5.379E-01    5.384E-01    5.389E-01    5.393E-01    5.398E-01    5.403E-01    5.407E-01    5.412E-01
     5.417E-01    5.421E-01    5.426E-01    5.431E-01    5.435E-01    5.440E-01    5.445E-01    5.449E-01    5.454E-01    5.459E-01
     5.463E-01    5.468E-01    5.473E-01    5.477E-01    5.482E-01    5.487E-01    5.491E-01    5.496E-01    5.501E-01    5.505E-01
     5.510E-01    5.515E-01    5.519E-01    5.524E-01    5.528E-01    5.533E-01    5.538E-01    5.542E-01    5.547E-01    5.552E-01
     5.556E-01    5.561E-01    5.565E-01    5.570E-01    5.575E-01    5.579E-01    5.584E-01    5.588E-01    5.593E-01    5.598E-01
     5.602E-01    5.607E-01    5.611E-01    5.616E-01    5.621E-01    5.625E-01    5.630E-01    5.634E-01    5.639E-01    5.643E-01
     5.648E-01    5.653E-01    5.657E-01    5.662E-01    5.666E-01    5.671E-01    5.675E-01    5.680E-01    5.684E-01    5.689E-01
     5.693E-01    5.698E-01    5.703E-01    5.707E-01    5.712E-01    5.716E-01    5.721E-01    5.725E-01    5.730E-01    5.734E-01
     5.739E-01    5.743E-01    5.748E-01    5.752E-01    5.757E-01    5.761E-01    5.766E-01    5.770E-01    5.775E-01    5.779E-01
     5.784E-01    5.788E-01    5.793E-01    5.797E-01    5.802E-01    5.806E-01    5.811E-01    5.815E-01    5.820E-01    5.824E-01
     5.828E-01    5.833E-01    5.837E-01    5.842E-01    5.846E-01    5.851E-01    5.855E-01    5.860E-01    5.864E-01    5.868E-01
     5.873E-01    5.877E-01    5.882E-01    5.886E-01    5.891E-01    5.895E-01    5.899E-01    5.904E-01
 Ala      Conc. = 3.42E+02
