 LCModel (Version 6.3-1L) Copyright: S.W. Provencher.          Ref.: Magn. Reson. Med. 30:672-679 (1993).                
 Slice#3 Row#3 Col#4  PD_24_press_2_raw_act
 36 lines in following concentration table = NCONC+1
    Conc.  %SD /Cr+PCr  Metabolite                                         
    0.000 999%   0.000 Ala                                                 
    0.000 999%   0.000 Asp                                                 
  284.045 182%   0.245 Cr                                                  
  877.355  61%   0.755 PCr                                                 
  146.589 116%   0.126 GABA                                                
  160.099 106%   0.138 Glc                                                 
  738.793  77%   0.636 Gln                                                 
  122.881 520%   0.106 Glu                                                 
  437.119  61%   0.376 GPC                                                 
  177.046 152%   0.152 PCh                                                 
  301.855  58%   0.260 GSH                                                 
 2.72E+03  23%   2.346 Ins                                                 
    0.000 999%   0.000 Lac                                                 
 1.86E+03   7%   1.605 NAA                                                 
    0.000 999%   0.000 NAAG                                                
  205.794  22%   0.177 Scyllo                                              
  637.776  42%   0.549 Tau                                                 
  463.670  51%   0.399 -CrCH2                                              
  614.165   8%   0.529 GPC+PCh                                             
 1.86E+03   7%   1.605 NAA+NAAG                                            
 1.16E+03  11%   1.000 Cr+PCr                                              
  861.674 109%   0.742 Glu+Gln                                             
  899.046 102%   0.774 Lip13a                                              
  413.461 108%   0.356 Lip13b                                              
    0.000 999%   0.000 Lip09                                               
 1.41E+03  22%   1.210 MM09                                                
  252.929  81%   0.218 Lip20                                               
 2.51E+03  21%   2.165 MM20                                                
  449.313  33%   0.387 MM12                                                
 2.18E+03  15%   1.877 MM14                                                
    0.000 999%   0.000 MM17                                                
 1.31E+03  46%   1.130 Lip13a+Lip13b                                       
 3.94E+03  18%   3.394 MM14+Lip13a+Lip13b+MM12                             
 1.41E+03  22%   1.210 MM09+Lip09                                          
 2.77E+03  20%   2.383 MM20+Lip20                                          
   6 lines in following misc. output table
  FWHM = 0.061 ppm    S/N =   4                                            
  Data shift = 0.031 ppm                                                   
  Ph: -59 deg     -22.2 deg/ppm                                            
  alphaB,S = 7.4E-01,   9.1E+01                                            
   14 spline knots.   Ns = 7(1)                                            
  ( 9) 4 infls.   ( 5) 1 extrs.                                            
  498 points on ppm-axis = NY
      4.000000     3.992357     3.984714     3.977070     3.969427     3.961784     3.954141     3.946497     3.938854     3.931211
      3.923568     3.915925     3.908281     3.900638     3.892995     3.885352     3.877708     3.870065     3.862422     3.854779
      3.847136     3.839492     3.831849     3.824206     3.816563     3.808919     3.801276     3.793633     3.785990     3.778347
      3.770703     3.763060     3.755417     3.747774     3.740130     3.732487     3.724844     3.717201     3.709558     3.701914
      3.694271     3.686628     3.678985     3.671341     3.663698     3.656055     3.648412     3.640769     3.633125     3.625482
      3.617839     3.610196     3.602552     3.594909     3.587266     3.579623     3.571980     3.564336     3.556693     3.549050
      3.541407     3.533763     3.526120     3.518477     3.510834     3.503191     3.495547     3.487904     3.480261     3.472618
      3.464974     3.457331     3.449688     3.442045     3.434402     3.426758     3.419115     3.411472     3.403829     3.396185
      3.388542     3.380899     3.373256     3.365613     3.357969     3.350326     3.342683     3.335040     3.327396     3.319753
      3.312110     3.304467     3.296824     3.289180     3.281537     3.273894     3.266251     3.258607     3.250964     3.243321
      3.235678     3.228034     3.220391     3.212748     3.205105     3.197462     3.189818     3.182175     3.174532     3.166889
      3.159245     3.151602     3.143959     3.136316     3.128673     3.121029     3.113386     3.105743     3.098100     3.090456
      3.082813     3.075170     3.067527     3.059884     3.052240     3.044597     3.036954     3.029311     3.021667     3.014024
      3.006381     2.998738     2.991095     2.983451     2.975808     2.968165     2.960522     2.952878     2.945235     2.937592
      2.929949     2.922306     2.914662     2.907019     2.899376     2.891733     2.884089     2.876446     2.868803     2.861160
      2.853517     2.845873     2.838230     2.830587     2.822944     2.815300     2.807657     2.800014     2.792371     2.784728
      2.777084     2.769441     2.761798     2.754155     2.746511     2.738868     2.731225     2.723582     2.715939     2.708295
      2.700652     2.693009     2.685366     2.677722     2.670079     2.662436     2.654793     2.647150     2.639506     2.631863
      2.624220     2.616577     2.608933     2.601290     2.593647     2.586004     2.578361     2.570717     2.563074     2.555431
      2.547788     2.540144     2.532501     2.524858     2.517215     2.509572     2.501928     2.494285     2.486642     2.478999
      2.471355     2.463712     2.456069     2.448426     2.440783     2.433139     2.425496     2.417853     2.410210     2.402566
      2.394923     2.387280     2.379637     2.371994     2.364350     2.356707     2.349064     2.341421     2.333777     2.326134
      2.318491     2.310848     2.303205     2.295561     2.287918     2.280275     2.272632     2.264988     2.257345     2.249702
      2.242059     2.234416     2.226772     2.219129     2.211486     2.203843     2.196199     2.188556     2.180913     2.173270
      2.165627     2.157983     2.150340     2.142697     2.135054     2.127410     2.119767     2.112124     2.104481     2.096838
      2.089194     2.081551     2.073908     2.066265     2.058621     2.050978     2.043335     2.035692     2.028049     2.020405
      2.012762     2.005119     1.997476     1.989833     1.982190     1.974546     1.966903     1.959260     1.951617     1.943974
      1.936331     1.928688     1.921045     1.913402     1.905759     1.898115     1.890472     1.882829     1.875186     1.867543
      1.859900     1.852257     1.844614     1.836971     1.829327     1.821684     1.814041     1.806398     1.798755     1.791112
      1.783469     1.775826     1.768183     1.760540     1.752896     1.745253     1.737610     1.729967     1.722324     1.714681
      1.707038     1.699395     1.691752     1.684108     1.676465     1.668822     1.661179     1.653536     1.645893     1.638250
      1.630607     1.622964     1.615321     1.607677     1.600034     1.592391     1.584748     1.577105     1.569462     1.561819
      1.554176     1.546533     1.538890     1.531246     1.523603     1.515960     1.508317     1.500674     1.493031     1.485388
      1.477745     1.470102     1.462458     1.454815     1.447172     1.439529     1.431886     1.424243     1.416600     1.408957
      1.401314     1.393671     1.386027     1.378384     1.370741     1.363098     1.355455     1.347812     1.340169     1.332526
      1.324883     1.317240     1.309596     1.301953     1.294310     1.286667     1.279024     1.271381     1.263738     1.256095
      1.248452     1.240808     1.233165     1.225522     1.217879     1.210236     1.202593     1.194950     1.187307     1.179664
      1.172021     1.164377     1.156734     1.149091     1.141448     1.133805     1.126162     1.118519     1.110876     1.103233
      1.095590     1.087946     1.080303     1.072660     1.065017     1.057374     1.049731     1.042088     1.034445     1.026802
      1.019158     1.011515     1.003872     0.996229     0.988586     0.980943     0.973300     0.965657     0.958014     0.950371
      0.942727     0.935084     0.927441     0.919798     0.912155     0.904512     0.896869     0.889226     0.881583     0.873940
      0.866296     0.858653     0.851010     0.843367     0.835724     0.828081     0.820438     0.812795     0.805152     0.797508
      0.789865     0.782222     0.774579     0.766936     0.759293     0.751650     0.744007     0.736364     0.728721     0.721077
      0.713434     0.705791     0.698148     0.690505     0.682862     0.675219     0.667576     0.659933     0.652290     0.644646
      0.637003     0.629360     0.621717     0.614074     0.606431     0.598788     0.591145     0.583502     0.575858     0.568215
      0.560572     0.552929     0.545286     0.537643     0.530000     0.522357     0.514714     0.507071     0.499427     0.491784
      0.484141     0.476498     0.468855     0.461212     0.453569     0.445925     0.438282     0.430639     0.422996     0.415353
      0.407710     0.400067     0.392424     0.384780     0.377137     0.369494     0.361851     0.354208     0.346565     0.338922
      0.331278     0.323635     0.315992     0.308349     0.300706     0.293063     0.285420     0.277777     0.270133     0.262490
      0.254847     0.247204     0.239561     0.231918     0.224275     0.216631     0.208988     0.201345
 NY phased data points follow
  -1.96721E+02 -2.01020E+02 -1.91520E+02 -1.70896E+02 -2.05679E+02 -1.76379E+02 -1.77482E+02 -1.69528E+02 -1.56784E+02 -1.42300E+02
  -1.60101E+02 -1.40940E+02 -1.57435E+02 -1.58181E+02 -1.61009E+02 -1.50586E+02 -1.63268E+02 -1.54344E+02 -1.73121E+02 -1.59266E+02
  -1.67500E+02 -1.52650E+02 -1.60736E+02 -1.53758E+02 -1.67875E+02 -1.52867E+02 -1.60393E+02 -1.47411E+02 -1.34317E+02 -1.46391E+02
  -1.38431E+02 -1.29474E+02 -1.34317E+02 -1.28424E+02 -1.42149E+02 -1.31402E+02 -1.22994E+02 -1.21554E+02 -1.31281E+02 -1.27161E+02
  -1.31111E+02 -1.18987E+02 -1.36162E+02 -1.10291E+02 -1.18940E+02 -1.05267E+02 -1.15306E+02 -1.05570E+02 -1.09824E+02 -1.04067E+02
  -1.14035E+02 -9.43871E+01 -1.11584E+02 -1.05662E+02 -1.04841E+02 -1.12206E+02 -1.09698E+02 -1.10317E+02 -1.05600E+02 -1.00260E+02
  -1.03028E+02 -9.97129E+01 -1.05613E+02 -9.88588E+01 -9.51184E+01 -9.73252E+01 -1.10861E+02 -1.00264E+02 -1.14926E+02 -1.02683E+02
  -9.64003E+01 -8.65014E+01 -1.03707E+02 -8.16609E+01 -9.14119E+01 -9.00229E+01 -9.50456E+01 -8.14932E+01 -7.96747E+01 -8.06289E+01
  -8.70575E+01 -7.61944E+01 -8.50986E+01 -7.08870E+01 -7.14666E+01 -7.02448E+01 -7.38017E+01 -7.35395E+01 -8.02676E+01 -6.93707E+01
  -6.78269E+01 -6.47586E+01 -7.25312E+01 -6.93353E+01 -7.66580E+01 -7.13236E+01 -6.89599E+01 -5.93681E+01 -6.32976E+01 -5.04268E+01
  -3.28994E+01 -2.35634E+01 -2.69703E+01 -2.60456E+01 -3.27837E+01 -2.57519E+01 -4.01197E+01 -4.32293E+01 -4.76371E+01 -3.74783E+01
  -4.79964E+01 -6.08543E+01 -5.15480E+01 -4.57395E+01 -6.69161E+01 -5.52968E+01 -7.38926E+01 -6.43509E+01 -7.24037E+01 -5.78781E+01
  -6.30663E+01 -5.72360E+01 -5.84606E+01 -4.97623E+01 -2.88891E+01 -2.96215E+01 -2.46529E+01 -2.61952E+01 -2.27582E+01 -2.68943E+01
  -2.63409E+01 -2.79374E+01 -4.53792E+01 -3.62309E+01 -4.06267E+01 -4.90278E+01 -5.36476E+01 -4.36409E+01 -5.30294E+01 -5.57347E+01
  -5.91646E+01 -4.94943E+01 -5.21958E+01 -5.78030E+01 -5.14199E+01 -5.19189E+01 -5.34524E+01 -4.65322E+01 -5.16289E+01 -4.88962E+01
  -4.66578E+01 -5.08612E+01 -5.24150E+01 -4.63990E+01 -5.26182E+01 -4.85198E+01 -3.93828E+01 -2.83172E+01 -3.65286E+01 -4.43497E+01
  -3.13223E+01 -3.80694E+01 -4.08807E+01 -3.76303E+01 -3.49705E+01 -3.76074E+01 -3.29135E+01 -3.53140E+01 -3.90535E+01 -3.61820E+01
  -4.63405E+01 -3.59722E+01 -4.49694E+01 -3.43444E+01 -5.42315E+01 -4.68723E+01 -4.01838E+01 -3.71109E+01 -4.51916E+01 -4.50772E+01
  -3.93769E+01 -4.04270E+01 -4.64392E+01 -4.77063E+01 -3.96425E+01 -3.97080E+01 -4.74076E+01 -3.70473E+01 -3.51803E+01 -2.57960E+01
  -2.77956E+01 -2.99160E+01 -2.22504E+01 -2.55010E+01 -1.11879E+01 -3.00638E+01 -1.99393E+01 -2.92647E+01 -2.55533E+01 -1.51952E+01
  -2.30969E+01 -2.42639E+01 -1.76672E+01 -3.19943E+01 -2.15016E+01 -1.70194E+01 -2.44304E+01 -1.96511E+01 -2.97837E+01 -2.78931E+01
  -3.04775E+01 -3.32263E+01 -2.36403E+01 -1.84155E+01 -1.90928E+01 -1.59675E+01 -1.19472E+01 -1.35625E+01 -2.09047E+01 -4.15338E+00
  -7.47279E+00 -8.59761E+00 -1.64011E+01 -4.60712E+00 -2.06933E+01 -2.64556E+00 -1.69569E+01 -9.84912E+00 -1.29975E+01 -1.69007E+01
  -4.41068E+00  1.65518E+00 -1.35348E+01 -1.04250E+01  3.08030E+00  1.50377E+00 -1.77123E-01 -3.55140E+00 -6.56497E+00 -6.08565E+00
   5.89690E+00  4.59150E-02 -1.42740E+01  2.00045E-01  5.51147E+00 -2.29351E+00  3.57907E+00 -3.11380E+00  5.56868E+00  6.70092E+00
   4.12660E+00 -3.16843E+00 -5.77105E+00  4.40674E+00  4.87695E+00  6.24751E-01  9.62956E+00  2.68652E+01  4.63076E+01  5.95705E+01
   5.61883E+01  5.07663E+01  5.05677E+01  3.59572E+01  2.48779E+01  2.54232E+01  1.39844E+01  3.91370E+00  6.82887E+00  1.24992E+01
  -3.88014E+00  1.36723E+00  1.04805E+01 -8.35479E+00 -2.57319E+00 -1.09528E+01  1.42128E+00 -7.28521E-01 -8.00252E+00 -1.61219E-01
   1.71521E+00 -1.04187E+01 -2.80191E-01 -8.04293E+00 -5.57035E+00 -6.96815E+00 -1.00150E+01 -7.44912E+00 -4.20629E+00 -8.17273E-01
   1.61648E+00  3.30441E+00 -1.13734E+01 -4.82013E+00 -2.28451E+00 -1.24234E+00  4.44668E-01 -1.39753E+01 -3.67527E+00 -9.31050E+00
  -8.90463E+00 -6.47444E+00 -1.27756E+01 -2.32875E+01 -1.07364E+01 -2.14364E+01 -2.24348E+01 -1.00123E+01 -1.15791E+01 -9.16928E+00
  -3.52274E+00 -1.01413E+01  1.18009E+00  2.34966E+00 -3.14220E+00 -2.86083E+00  8.79754E+00  3.35075E+00  6.13708E+00  1.00827E+01
   1.03976E+01  1.14257E+01  1.61960E+01  2.03934E+01  2.13246E+01  2.62648E+01  2.36277E+01  2.12315E+01  1.93523E+01  2.44412E+01
   1.94102E+01  2.22828E+01  1.99582E+01  1.53584E+01  2.42154E+01  8.72982E+00  2.50279E+01  1.84691E+01  1.09577E+01  1.05336E+01
   2.17655E+00  2.25225E+01 -1.98557E+00  8.00091E+00  1.36551E+01  5.63127E+00  2.13909E+01  1.60641E+00  1.49090E+01  9.94580E+00
   1.15759E+01  1.01801E+01  2.16859E+01 -2.70885E-01  2.43883E+01  1.29855E+01  2.37688E+01  5.28275E+00  2.42868E+01  1.50278E+01
   1.18188E+01  3.05063E+00  1.19505E+01  5.76645E+00  2.69428E+01  2.08581E+01  1.67705E+01  2.23169E+01 -4.07769E+00  1.15364E+01
   1.80648E+01  1.12817E+01  1.23306E+01  5.88023E+00  1.02333E+01  1.20779E+01  2.21113E+01  5.41597E+00  1.75060E+01  1.99316E+01
   6.39961E+00  2.00918E+01  1.53250E+01  1.33508E+01  1.07635E+01  1.55226E+01  1.02382E+01 -1.30085E+01  2.14340E+01  2.58521E+00
   1.36564E+00 -1.34460E+00  2.21448E+01  1.02798E+01  9.27779E+00  2.74970E+01  2.35048E+01  1.35102E+00  1.98419E+01  1.24580E+01
   1.79521E+01  1.03033E+01  2.11370E+01  2.67087E+01  1.16649E+01  1.86025E+01  2.03273E+01  1.09683E+01  1.28841E+01  7.59152E+00
   1.21349E+01  1.72880E+01  2.46611E+01  1.37845E+01  7.27631E+00  1.49537E+01  1.66257E+01  2.19310E+01  2.00831E+01  1.27507E+01
   1.53332E+01  1.57194E+01  3.75082E+00  1.94736E+01  1.89431E+01  1.64221E+01  8.84352E+00  6.98649E+00  2.20292E+01  7.42765E+00
   1.96884E+01  1.38151E+01  1.11893E+01  2.14366E+01  1.30685E+01  1.49227E+01  2.17193E+01  2.31645E+01  2.82290E+01  1.84615E+01
   1.84867E+01  1.86065E+01  1.37671E+01  1.45607E+01  2.31011E+01  1.28530E+01  1.83325E+01  1.36816E+01  2.02790E+01  2.05520E+01
   2.19685E+01  1.30716E+01  1.84116E+01  1.77220E+01  1.62234E+01  1.73242E+01  2.96139E+01  1.46408E+01  2.57992E+00  6.61283E+00
   2.13597E+01  9.56441E+00  2.50434E+01  1.52618E+01  1.95106E+01  1.72621E+01  1.97591E+01  1.91803E+01  1.24263E+01  1.55587E+01
   1.20778E+01  9.35408E+00  1.55287E+01  1.55175E+01  1.67825E+01  1.45997E+01  1.35255E+01  2.08356E+01  7.17255E+00  1.80330E+01
   1.47028E+01  1.50859E+01  1.68736E+01  2.62339E+01  2.07879E+01  1.71881E+01  2.14923E+01  1.63210E+01  1.62640E+01  6.56492E+00
   2.18087E+01  1.48140E+01  1.83702E+01  1.41176E+01  1.39864E+01  2.20002E+01  1.97508E+01  1.24507E+01
 NY points of the fit to the data follow
  -1.78343E+02 -1.78527E+02 -1.78154E+02 -1.77528E+02 -1.76365E+02 -1.73923E+02 -1.70002E+02 -1.65153E+02 -1.60473E+02 -1.56935E+02
  -1.54824E+02 -1.53904E+02 -1.53777E+02 -1.54059E+02 -1.54407E+02 -1.54744E+02 -1.55263E+02 -1.56258E+02 -1.57149E+02 -1.57087E+02
  -1.56423E+02 -1.55494E+02 -1.54613E+02 -1.53782E+02 -1.52777E+02 -1.51212E+02 -1.48812E+02 -1.45690E+02 -1.42338E+02 -1.39331E+02
  -1.37039E+02 -1.35475E+02 -1.34413E+02 -1.33553E+02 -1.32715E+02 -1.32021E+02 -1.31745E+02 -1.31980E+02 -1.32454E+02 -1.32576E+02
  -1.32013E+02 -1.30534E+02 -1.27720E+02 -1.23411E+02 -1.18150E+02 -1.13185E+02 -1.09674E+02 -1.08030E+02 -1.08049E+02 -1.09176E+02
  -1.10748E+02 -1.12170E+02 -1.13184E+02 -1.13946E+02 -1.14557E+02 -1.14583E+02 -1.13299E+02 -1.10705E+02 -1.07773E+02 -1.05423E+02
  -1.03972E+02 -1.03264E+02 -1.02951E+02 -1.02673E+02 -1.02178E+02 -1.01408E+02 -1.00514E+02 -9.95729E+01 -9.83725E+01 -9.68059E+01
  -9.49531E+01 -9.29292E+01 -9.09919E+01 -8.94025E+01 -8.83988E+01 -8.79983E+01 -8.79577E+01 -8.80093E+01 -8.78688E+01 -8.74351E+01
  -8.65084E+01 -8.47940E+01 -8.24671E+01 -8.01270E+01 -7.83822E+01 -7.75634E+01 -7.75915E+01 -7.79767E+01 -7.83393E+01 -7.85838E+01
  -7.86744E+01 -7.85930E+01 -7.84691E+01 -7.83778E+01 -7.80138E+01 -7.66709E+01 -7.39599E+01 -6.93217E+01 -6.14842E+01 -5.03154E+01
  -3.80478E+01 -2.80917E+01 -2.27482E+01 -2.20700E+01 -2.47363E+01 -2.93013E+01 -3.46490E+01 -3.99757E+01 -4.51990E+01 -5.10042E+01
  -5.74324E+01 -6.27221E+01 -6.48343E+01 -6.49872E+01 -6.46625E+01 -6.42241E+01 -6.37584E+01 -6.32043E+01 -6.25522E+01 -6.17254E+01
  -6.04157E+01 -5.79148E+01 -5.31955E+01 -4.57901E+01 -3.68646E+01 -2.88367E+01 -2.37435E+01 -2.20481E+01 -2.29512E+01 -2.54362E+01
  -2.87114E+01 -3.22334E+01 -3.59120E+01 -4.00802E+01 -4.48970E+01 -4.94609E+01 -5.18368E+01 -5.20132E+01 -5.14897E+01 -5.07492E+01
  -4.99928E+01 -4.93156E+01 -4.86913E+01 -4.80620E+01 -4.74705E+01 -4.69547E+01 -4.65326E+01 -4.62207E+01 -4.59894E+01 -4.57772E+01
  -4.55519E+01 -4.52542E+01 -4.48964E+01 -4.44915E+01 -4.40581E+01 -4.36435E+01 -4.33224E+01 -4.31400E+01 -4.30412E+01 -4.28844E+01
  -4.25321E+01 -4.19635E+01 -4.13095E+01 -4.07438E+01 -4.03625E+01 -4.01443E+01 -4.00039E+01 -3.98568E+01 -3.96471E+01 -3.93996E+01
  -3.92570E+01 -3.92924E+01 -3.94395E+01 -3.95260E+01 -3.93374E+01 -3.88783E+01 -3.83259E+01 -3.78153E+01 -3.73830E+01 -3.69687E+01
  -3.65255E+01 -3.60722E+01 -3.56430E+01 -3.52112E+01 -3.46890E+01 -3.39985E+01 -3.30610E+01 -3.17952E+01 -3.03485E+01 -2.89786E+01
  -2.79346E+01 -2.72823E+01 -2.69032E+01 -2.66976E+01 -2.66114E+01 -2.65902E+01 -2.65316E+01 -2.62341E+01 -2.55304E+01 -2.44523E+01
  -2.31150E+01 -2.17177E+01 -2.05431E+01 -1.98688E+01 -1.98106E+01 -2.03554E+01 -2.13187E+01 -2.24223E+01 -2.33100E+01 -2.37523E+01
  -2.37258E+01 -2.32830E+01 -2.24852E+01 -2.14025E+01 -2.01842E+01 -1.89617E+01 -1.77793E+01 -1.66728E+01 -1.57639E+01 -1.51395E+01
  -1.45596E+01 -1.38764E+01 -1.32507E+01 -1.27489E+01 -1.23255E+01 -1.19831E+01 -1.17716E+01 -1.16957E+01 -1.16697E+01 -1.15872E+01
  -1.14069E+01 -1.11621E+01 -1.08293E+01 -1.02829E+01 -9.43042E+00 -8.32455E+00 -7.11404E+00 -5.97353E+00 -5.07143E+00 -4.55253E+00
  -4.45317E+00 -4.60014E+00 -4.69136E+00 -4.56732E+00 -4.29282E+00 -3.97106E+00 -3.48978E+00 -2.76645E+00 -1.89261E+00 -9.26083E-01
   1.37758E-01  1.20698E+00  2.19551E+00  3.43593E+00  5.85815E+00  1.10415E+01  2.02592E+01  3.25186E+01  4.43419E+01  5.20641E+01
   5.42464E+01  5.18109E+01  4.64794E+01  3.96878E+01  3.25828E+01  2.57368E+01  1.88018E+01  1.11367E+01  3.26538E+00 -2.20904E+00
  -3.92136E+00 -4.37452E+00 -4.55968E+00 -4.63579E+00 -4.67108E+00 -4.70720E+00 -4.75612E+00 -4.81904E+00 -4.90321E+00 -5.00911E+00
  -5.11567E+00 -5.20420E+00 -5.26154E+00 -5.28220E+00 -5.26857E+00 -5.21751E+00 -5.13256E+00 -5.02973E+00 -4.91920E+00 -4.80329E+00
  -4.68758E+00 -4.57471E+00 -4.46671E+00 -4.36344E+00 -4.25734E+00 -4.14118E+00 -4.01557E+00 -3.88127E+00 -3.73589E+00 -3.57735E+00
  -3.40616E+00 -3.22007E+00 -3.01629E+00 -2.79387E+00 -2.54945E+00 -2.27813E+00 -1.97462E+00 -1.63271E+00 -1.24612E+00 -8.08031E-01
  -3.11816E-01  2.49346E-01  8.81425E-01  1.58955E+00  2.37689E+00  3.24484E+00  4.19176E+00  5.21332E+00  6.30152E+00  7.44490E+00
   8.62799E+00  9.83218E+00  1.10356E+01  1.22143E+01  1.33426E+01  1.43946E+01  1.53450E+01  1.61707E+01  1.68517E+01  1.73727E+01
   1.77233E+01  1.78991E+01  1.79017E+01  1.77394E+01  1.74258E+01  1.69802E+01  1.64260E+01  1.57899E+01  1.51005E+01  1.43880E+01
   1.36822E+01  1.30127E+01  1.24071E+01  1.18916E+01  1.14894E+01  1.12202E+01  1.10988E+01  1.11330E+01  1.13215E+01  1.16517E+01
   1.20983E+01  1.26238E+01  1.31793E+01  1.37103E+01  1.41616E+01  1.44858E+01  1.46487E+01  1.46355E+01  1.44510E+01  1.41188E+01
   1.36759E+01  1.31661E+01  1.26332E+01  1.21148E+01  1.16389E+01  1.12226E+01  1.08723E+01  1.05873E+01  1.03612E+01  1.01857E+01
   1.00522E+01  9.95345E+00  9.88381E+00  9.83996E+00  9.82007E+00  9.82384E+00  9.85160E+00  9.90453E+00  9.98389E+00  1.00913E+01
   1.02282E+01  1.03961E+01  1.05959E+01  1.08290E+01  1.10960E+01  1.13974E+01  1.17333E+01  1.21032E+01  1.25059E+01  1.29396E+01
   1.34017E+01  1.38884E+01  1.43951E+01  1.49159E+01  1.54440E+01  1.59717E+01  1.64904E+01  1.69911E+01  1.74641E+01  1.79001E+01
   1.82901E+01  1.86259E+01  1.89006E+01  1.91087E+01  1.92463E+01  1.93120E+01  1.93061E+01  1.92310E+01  1.90913E+01  1.88931E+01
   1.86438E+01  1.83523E+01  1.80277E+01  1.76798E+01  1.73179E+01  1.69511E+01  1.65876E+01  1.62346E+01  1.58982E+01  1.55833E+01
   1.52935E+01  1.50313E+01  1.47980E+01  1.45942E+01  1.44195E+01  1.42730E+01  1.41532E+01  1.40584E+01  1.39864E+01  1.39353E+01
   1.39030E+01  1.38875E+01  1.38866E+01  1.38988E+01  1.39222E+01  1.39554E+01  1.39971E+01  1.40461E+01  1.41012E+01  1.41617E+01
   1.42266E+01  1.42953E+01  1.43671E+01  1.44416E+01  1.45181E+01  1.45965E+01  1.46762E+01  1.47570E+01  1.48385E+01  1.49206E+01
   1.50030E+01  1.50855E+01  1.51679E+01  1.52502E+01  1.53321E+01  1.54137E+01  1.54948E+01  1.55756E+01  1.56558E+01  1.57357E+01
   1.58149E+01  1.58937E+01  1.59718E+01  1.60495E+01  1.61267E+01  1.62034E+01  1.62795E+01  1.63551E+01  1.64302E+01  1.65049E+01
   1.65791E+01  1.66529E+01  1.67263E+01  1.67992E+01  1.68719E+01  1.69442E+01  1.70162E+01  1.70879E+01  1.71594E+01  1.72306E+01
   1.73017E+01  1.73727E+01  1.74435E+01  1.75143E+01  1.75850E+01  1.76558E+01  1.77266E+01  1.77975E+01  1.78684E+01  1.79396E+01
   1.80110E+01  1.80826E+01  1.81546E+01  1.82269E+01  1.82997E+01  1.83729E+01  1.84466E+01  1.85209E+01
 NY background values follow
    -1.864E+02   -1.852E+02   -1.839E+02   -1.827E+02   -1.814E+02   -1.802E+02   -1.789E+02   -1.777E+02   -1.764E+02   -1.751E+02
    -1.739E+02   -1.726E+02   -1.714E+02   -1.701E+02   -1.689E+02   -1.677E+02   -1.664E+02   -1.652E+02   -1.639E+02   -1.627E+02
    -1.614E+02   -1.602E+02   -1.590E+02   -1.577E+02   -1.565E+02   -1.553E+02   -1.541E+02   -1.528E+02   -1.516E+02   -1.504E+02
    -1.492E+02   -1.480E+02   -1.468E+02   -1.456E+02   -1.444E+02   -1.432E+02   -1.420E+02   -1.408E+02   -1.396E+02   -1.384E+02
    -1.373E+02   -1.361E+02   -1.349E+02   -1.338E+02   -1.326E+02   -1.315E+02   -1.303E+02   -1.292E+02   -1.280E+02   -1.269E+02
    -1.258E+02   -1.247E+02   -1.235E+02   -1.224E+02   -1.213E+02   -1.202E+02   -1.191E+02   -1.181E+02   -1.170E+02   -1.159E+02
    -1.148E+02   -1.138E+02   -1.127E+02   -1.117E+02   -1.106E+02   -1.096E+02   -1.086E+02   -1.076E+02   -1.065E+02   -1.055E+02
    -1.045E+02   -1.035E+02   -1.025E+02   -1.016E+02   -1.006E+02   -9.962E+01   -9.866E+01   -9.771E+01   -9.676E+01   -9.583E+01
    -9.490E+01   -9.397E+01   -9.306E+01   -9.215E+01   -9.125E+01   -9.036E+01   -8.947E+01   -8.860E+01   -8.773E+01   -8.687E+01
    -8.602E+01   -8.517E+01   -8.434E+01   -8.351E+01   -8.269E+01   -8.188E+01   -8.107E+01   -8.028E+01   -7.949E+01   -7.871E+01
    -7.793E+01   -7.717E+01   -7.641E+01   -7.566E+01   -7.491E+01   -7.418E+01   -7.345E+01   -7.272E+01   -7.201E+01   -7.130E+01
    -7.059E+01   -6.990E+01   -6.921E+01   -6.853E+01   -6.785E+01   -6.718E+01   -6.652E+01   -6.586E+01   -6.521E+01   -6.456E+01
    -6.392E+01   -6.329E+01   -6.266E+01   -6.204E+01   -6.142E+01   -6.081E+01   -6.020E+01   -5.960E+01   -5.901E+01   -5.842E+01
    -5.783E+01   -5.725E+01   -5.668E+01   -5.611E+01   -5.554E+01   -5.498E+01   -5.443E+01   -5.388E+01   -5.333E+01   -5.279E+01
    -5.225E+01   -5.172E+01   -5.119E+01   -5.066E+01   -5.014E+01   -4.963E+01   -4.911E+01   -4.861E+01   -4.810E+01   -4.760E+01
    -4.711E+01   -4.661E+01   -4.612E+01   -4.564E+01   -4.516E+01   -4.468E+01   -4.420E+01   -4.373E+01   -4.327E+01   -4.280E+01
    -4.234E+01   -4.188E+01   -4.143E+01   -4.098E+01   -4.053E+01   -4.008E+01   -3.964E+01   -3.920E+01   -3.876E+01   -3.833E+01
    -3.790E+01   -3.747E+01   -3.705E+01   -3.662E+01   -3.620E+01   -3.578E+01   -3.537E+01   -3.495E+01   -3.454E+01   -3.413E+01
    -3.373E+01   -3.332E+01   -3.292E+01   -3.252E+01   -3.212E+01   -3.173E+01   -3.133E+01   -3.094E+01   -3.055E+01   -3.016E+01
    -2.978E+01   -2.940E+01   -2.902E+01   -2.864E+01   -2.826E+01   -2.789E+01   -2.752E+01   -2.716E+01   -2.679E+01   -2.643E+01
    -2.607E+01   -2.571E+01   -2.536E+01   -2.501E+01   -2.466E+01   -2.432E+01   -2.398E+01   -2.364E+01   -2.330E+01   -2.297E+01
    -2.264E+01   -2.231E+01   -2.199E+01   -2.167E+01   -2.135E+01   -2.104E+01   -2.073E+01   -2.042E+01   -2.012E+01   -1.982E+01
    -1.952E+01   -1.923E+01   -1.894E+01   -1.865E+01   -1.837E+01   -1.809E+01   -1.781E+01   -1.754E+01   -1.727E+01   -1.701E+01
    -1.675E+01   -1.649E+01   -1.624E+01   -1.599E+01   -1.574E+01   -1.549E+01   -1.525E+01   -1.502E+01   -1.478E+01   -1.455E+01
    -1.432E+01   -1.410E+01   -1.387E+01   -1.365E+01   -1.344E+01   -1.322E+01   -1.301E+01   -1.280E+01   -1.260E+01   -1.240E+01
    -1.220E+01   -1.200E+01   -1.180E+01   -1.161E+01   -1.142E+01   -1.123E+01   -1.104E+01   -1.086E+01   -1.068E+01   -1.050E+01
    -1.032E+01   -1.014E+01   -9.968E+00   -9.796E+00   -9.626E+00   -9.458E+00   -9.291E+00   -9.126E+00   -8.963E+00   -8.801E+00
    -8.641E+00   -8.482E+00   -8.325E+00   -8.169E+00   -8.015E+00   -7.862E+00   -7.710E+00   -7.559E+00   -7.410E+00   -7.262E+00
    -7.114E+00   -6.968E+00   -6.823E+00   -6.679E+00   -6.535E+00   -6.393E+00   -6.251E+00   -6.110E+00   -5.970E+00   -5.830E+00
    -5.691E+00   -5.553E+00   -5.415E+00   -5.277E+00   -5.140E+00   -5.003E+00   -4.867E+00   -4.731E+00   -4.595E+00   -4.459E+00
    -4.323E+00   -4.188E+00   -4.052E+00   -3.917E+00   -3.781E+00   -3.646E+00   -3.510E+00   -3.374E+00   -3.238E+00   -3.101E+00
    -2.964E+00   -2.827E+00   -2.689E+00   -2.551E+00   -2.412E+00   -2.273E+00   -2.133E+00   -1.992E+00   -1.851E+00   -1.709E+00
    -1.567E+00   -1.424E+00   -1.280E+00   -1.136E+00   -9.914E-01   -8.465E-01   -7.011E-01   -5.553E-01   -4.092E-01   -2.628E-01
    -1.162E-01    3.074E-02    1.779E-01    3.252E-01    4.726E-01    6.202E-01    7.678E-01    9.155E-01    1.063E+00    1.211E+00
     1.359E+00    1.506E+00    1.654E+00    1.801E+00    1.948E+00    2.095E+00    2.242E+00    2.388E+00    2.534E+00    2.680E+00
     2.825E+00    2.970E+00    3.115E+00    3.259E+00    3.402E+00    3.546E+00    3.688E+00    3.830E+00    3.971E+00    4.112E+00
     4.252E+00    4.391E+00    4.530E+00    4.667E+00    4.804E+00    4.940E+00    5.076E+00    5.211E+00    5.345E+00    5.479E+00
     5.612E+00    5.744E+00    5.876E+00    6.007E+00    6.138E+00    6.268E+00    6.398E+00    6.527E+00    6.656E+00    6.784E+00
     6.912E+00    7.040E+00    7.167E+00    7.294E+00    7.421E+00    7.547E+00    7.673E+00    7.798E+00    7.924E+00    8.049E+00
     8.174E+00    8.299E+00    8.423E+00    8.548E+00    8.672E+00    8.796E+00    8.921E+00    9.045E+00    9.169E+00    9.293E+00
     9.417E+00    9.541E+00    9.665E+00    9.789E+00    9.913E+00    1.004E+01    1.016E+01    1.029E+01    1.041E+01    1.054E+01
     1.066E+01    1.079E+01    1.091E+01    1.104E+01    1.116E+01    1.129E+01    1.141E+01    1.153E+01    1.166E+01    1.178E+01
     1.191E+01    1.203E+01    1.215E+01    1.228E+01    1.240E+01    1.252E+01    1.264E+01    1.276E+01    1.288E+01    1.300E+01
     1.312E+01    1.324E+01    1.336E+01    1.347E+01    1.359E+01    1.370E+01    1.382E+01    1.393E+01    1.404E+01    1.416E+01
     1.427E+01    1.438E+01    1.448E+01    1.459E+01    1.470E+01    1.480E+01    1.491E+01    1.501E+01    1.511E+01    1.521E+01
     1.531E+01    1.541E+01    1.551E+01    1.560E+01    1.569E+01    1.579E+01    1.588E+01    1.597E+01    1.606E+01    1.614E+01
     1.623E+01    1.631E+01    1.640E+01    1.648E+01    1.656E+01    1.664E+01    1.672E+01    1.680E+01    1.688E+01    1.696E+01
     1.703E+01    1.711E+01    1.719E+01    1.726E+01    1.733E+01    1.741E+01    1.748E+01    1.755E+01    1.763E+01    1.770E+01
     1.777E+01    1.784E+01    1.791E+01    1.798E+01    1.805E+01    1.812E+01    1.819E+01    1.826E+01    1.833E+01    1.840E+01
     1.847E+01    1.854E+01    1.861E+01    1.868E+01    1.875E+01    1.882E+01    1.889E+01    1.896E+01
 Cr       Conc. = 2.84E+02
