 LCModel (Version 6.3-1L) Copyright: S.W. Provencher.          Ref.: Magn. Reson. Med. 30:672-679 (1993).                
 Slice#3 Row#7 Col#10  PD_24_press_2_raw_act
 36 lines in following concentration table = NCONC+1
    Conc.  %SD /Cr+PCr  Metabolite                                         
    0.000 999%   0.000 Ala                                                 
    0.000 999%   0.000 Asp                                                 
  134.686 333% 6.6E-02 Cr                                                  
 1.92E+03  24%   0.934 PCr                                                 
    0.000 999%   0.000 GABA                                                
  203.848 123% 9.9E-02 Glc                                                 
 1.58E+03  26%   0.771 Gln                                                 
 2.01E+03  22%   0.978 Glu                                                 
  974.290   4%   0.475 GPC                                                 
    0.000 999%   0.000 PCh                                                 
  582.925  22%   0.284 GSH                                                 
 2.34E+03  18%   1.141 Ins                                                 
  112.339 189% 5.5E-02 Lac                                                 
 3.10E+03   7%   1.510 NAA                                                 
  290.710  77%   0.142 NAAG                                                
  249.693  19%   0.122 Scyllo                                              
    8.812 999% 4.3E-03 Tau                                                 
  996.752  17%   0.486 -CrCH2                                              
  974.290   4%   0.475 GPC+PCh                                             
 3.39E+03   4%   1.652 NAA+NAAG                                            
 2.05E+03   5%   1.000 Cr+PCr                                              
 3.59E+03  18%   1.748 Glu+Gln                                             
 1.02E+03  64%   0.498 Lip13a                                              
    0.000 999%   0.000 Lip13b                                              
  216.959 122%   0.106 Lip09                                               
 1.79E+03  20%   0.871 MM09                                                
  162.889 104% 7.9E-02 Lip20                                               
 4.06E+03  13%   1.978 MM20                                                
  536.078  54%   0.261 MM12                                                
 1.82E+03  27%   0.886 MM14                                                
    0.000 999%   0.000 MM17                                                
 1.02E+03  64%   0.498 Lip13a+Lip13b                                       
 3.38E+03  14%   1.645 MM14+Lip13a+Lip13b+MM12                             
 2.00E+03  13%   0.976 MM09+Lip09                                          
 4.22E+03  12%   2.057 MM20+Lip20                                          
   6 lines in following misc. output table
  FWHM = 0.054 ppm    S/N =  10                                            
  Data shift = 0.015 ppm                                                   
  Ph: -18 deg      -3.6 deg/ppm                                            
  alphaB,S = 2.5E+00,   9.1E+01                                            
   14 spline knots.   Ns = 7(1)                                            
  (13) 6 infls.   (15) 1 extrs.                                            
  498 points on ppm-axis = NY
      4.000000     3.992357     3.984714     3.977070     3.969427     3.961784     3.954141     3.946497     3.938854     3.931211
      3.923568     3.915925     3.908281     3.900638     3.892995     3.885352     3.877708     3.870065     3.862422     3.854779
      3.847136     3.839492     3.831849     3.824206     3.816563     3.808919     3.801276     3.793633     3.785990     3.778347
      3.770703     3.763060     3.755417     3.747774     3.740130     3.732487     3.724844     3.717201     3.709558     3.701914
      3.694271     3.686628     3.678985     3.671341     3.663698     3.656055     3.648412     3.640769     3.633125     3.625482
      3.617839     3.610196     3.602552     3.594909     3.587266     3.579623     3.571980     3.564336     3.556693     3.549050
      3.541407     3.533763     3.526120     3.518477     3.510834     3.503191     3.495547     3.487904     3.480261     3.472618
      3.464974     3.457331     3.449688     3.442045     3.434402     3.426758     3.419115     3.411472     3.403829     3.396185
      3.388542     3.380899     3.373256     3.365613     3.357969     3.350326     3.342683     3.335040     3.327396     3.319753
      3.312110     3.304467     3.296824     3.289180     3.281537     3.273894     3.266251     3.258607     3.250964     3.243321
      3.235678     3.228034     3.220391     3.212748     3.205105     3.197462     3.189818     3.182175     3.174532     3.166889
      3.159245     3.151602     3.143959     3.136316     3.128673     3.121029     3.113386     3.105743     3.098100     3.090456
      3.082813     3.075170     3.067527     3.059884     3.052240     3.044597     3.036954     3.029311     3.021667     3.014024
      3.006381     2.998738     2.991095     2.983451     2.975808     2.968165     2.960522     2.952878     2.945235     2.937592
      2.929949     2.922306     2.914662     2.907019     2.899376     2.891733     2.884089     2.876446     2.868803     2.861160
      2.853517     2.845873     2.838230     2.830587     2.822944     2.815300     2.807657     2.800014     2.792371     2.784728
      2.777084     2.769441     2.761798     2.754155     2.746511     2.738868     2.731225     2.723582     2.715939     2.708295
      2.700652     2.693009     2.685366     2.677722     2.670079     2.662436     2.654793     2.647150     2.639506     2.631863
      2.624220     2.616577     2.608933     2.601290     2.593647     2.586004     2.578361     2.570717     2.563074     2.555431
      2.547788     2.540144     2.532501     2.524858     2.517215     2.509572     2.501928     2.494285     2.486642     2.478999
      2.471355     2.463712     2.456069     2.448426     2.440783     2.433139     2.425496     2.417853     2.410210     2.402566
      2.394923     2.387280     2.379637     2.371994     2.364350     2.356707     2.349064     2.341421     2.333777     2.326134
      2.318491     2.310848     2.303205     2.295561     2.287918     2.280275     2.272632     2.264988     2.257345     2.249702
      2.242059     2.234416     2.226772     2.219129     2.211486     2.203843     2.196199     2.188556     2.180913     2.173270
      2.165627     2.157983     2.150340     2.142697     2.135054     2.127410     2.119767     2.112124     2.104481     2.096838
      2.089194     2.081551     2.073908     2.066265     2.058621     2.050978     2.043335     2.035692     2.028049     2.020405
      2.012762     2.005119     1.997476     1.989833     1.982190     1.974546     1.966903     1.959260     1.951617     1.943974
      1.936331     1.928688     1.921045     1.913402     1.905759     1.898115     1.890472     1.882829     1.875186     1.867543
      1.859900     1.852257     1.844614     1.836971     1.829327     1.821684     1.814041     1.806398     1.798755     1.791112
      1.783469     1.775826     1.768183     1.760540     1.752896     1.745253     1.737610     1.729967     1.722324     1.714681
      1.707038     1.699395     1.691752     1.684108     1.676465     1.668822     1.661179     1.653536     1.645893     1.638250
      1.630607     1.622964     1.615321     1.607677     1.600034     1.592391     1.584748     1.577105     1.569462     1.561819
      1.554176     1.546533     1.538890     1.531246     1.523603     1.515960     1.508317     1.500674     1.493031     1.485388
      1.477745     1.470102     1.462458     1.454815     1.447172     1.439529     1.431886     1.424243     1.416600     1.408957
      1.401314     1.393671     1.386027     1.378384     1.370741     1.363098     1.355455     1.347812     1.340169     1.332526
      1.324883     1.317240     1.309596     1.301953     1.294310     1.286667     1.279024     1.271381     1.263738     1.256095
      1.248452     1.240808     1.233165     1.225522     1.217879     1.210236     1.202593     1.194950     1.187307     1.179664
      1.172021     1.164377     1.156734     1.149091     1.141448     1.133805     1.126162     1.118519     1.110876     1.103233
      1.095590     1.087946     1.080303     1.072660     1.065017     1.057374     1.049731     1.042088     1.034445     1.026802
      1.019158     1.011515     1.003872     0.996229     0.988586     0.980943     0.973300     0.965657     0.958014     0.950371
      0.942727     0.935084     0.927441     0.919798     0.912155     0.904512     0.896869     0.889226     0.881583     0.873940
      0.866296     0.858653     0.851010     0.843367     0.835724     0.828081     0.820438     0.812795     0.805152     0.797508
      0.789865     0.782222     0.774579     0.766936     0.759293     0.751650     0.744007     0.736364     0.728721     0.721077
      0.713434     0.705791     0.698148     0.690505     0.682862     0.675219     0.667576     0.659933     0.652290     0.644646
      0.637003     0.629360     0.621717     0.614074     0.606431     0.598788     0.591145     0.583502     0.575858     0.568215
      0.560572     0.552929     0.545286     0.537643     0.530000     0.522357     0.514714     0.507071     0.499427     0.491784
      0.484141     0.476498     0.468855     0.461212     0.453569     0.445925     0.438282     0.430639     0.422996     0.415353
      0.407710     0.400067     0.392424     0.384780     0.377137     0.369494     0.361851     0.354208     0.346565     0.338922
      0.331278     0.323635     0.315992     0.308349     0.300706     0.293063     0.285420     0.277777     0.270133     0.262490
      0.254847     0.247204     0.239561     0.231918     0.224275     0.216631     0.208988     0.201345
 NY phased data points follow
   2.35618E+01  1.44453E+01  2.73919E+01  2.59627E+01  2.84789E+01  2.99870E+01  3.65630E+01  3.80810E+01  3.64320E+01  3.07987E+01
   3.65371E+01  4.02392E+01  3.98510E+01  3.18795E+01  3.69309E+01  2.23694E+01  3.09277E+01  2.09436E+01  2.20262E+01  1.69010E+01
   3.29082E+01  2.32876E+01  2.34592E+01  1.87688E+01  2.49298E+01  1.90048E+01  2.46115E+01  2.28981E+01  3.42871E+01  2.04551E+01
   3.05998E+01  2.42736E+01  2.77889E+01  1.87149E+01  2.53986E+01  1.80555E+01  2.79058E+01  2.15810E+01  1.95249E+01  2.54244E+01
   3.29481E+01  2.33275E+01  2.68526E+01  1.58784E+01  2.85580E+01  2.27484E+01  3.66276E+01  3.34086E+01  3.10503E+01  3.07249E+01
   3.71920E+01  2.47981E+01  3.52211E+01  1.99969E+01  3.05047E+01  1.96538E+01  2.48106E+01  2.25073E+01  2.21369E+01  1.58547E+01
   1.50269E+01  1.28448E+01  1.33900E+01  2.83319E+00  1.05542E+01  1.33019E+01  1.39799E+01  1.54981E+01  1.18772E+01  9.88615E+00
   1.61118E+01  8.02579E+00  1.55089E+01  1.14522E+01  1.40811E+01  1.30726E+01  1.11497E+01  9.91043E+00  1.56022E+01  9.07574E+00
   1.93765E+01  2.01686E+01  1.93201E+01  1.61669E+01  1.80040E+01  1.85099E+01  2.24506E+01  1.85077E+01  1.81590E+01  1.51610E+01
   1.96081E+01  2.39616E+01  1.83067E+01  2.47633E+01  1.50050E+01  1.75543E+01  2.19692E+01  2.77989E+01  3.69964E+01  4.52021E+01
   6.17611E+01  6.76295E+01  9.33488E+01  9.12967E+01  9.13773E+01  7.80635E+01  6.41103E+01  4.87460E+01  3.24622E+01  2.99050E+01
   2.70686E+01  2.10976E+01  1.12322E+01  1.57972E+01  1.41334E+01  1.36928E+01  1.32544E+01  9.25589E+00  1.39425E+01  1.45649E+01
   2.04141E+01  1.58415E+01  2.35039E+01  3.45333E+01  3.82837E+01  5.15990E+01  7.00871E+01  7.28314E+01  7.85139E+01  6.71112E+01
   5.37366E+01  4.09633E+01  3.25581E+01  3.29910E+01  2.45257E+01  2.18945E+01  1.24906E+01  1.74764E+01  1.31651E+01  1.92365E+01
   1.36273E+01  9.56816E+00  1.36997E+01  5.52927E+00  1.66536E+01  1.15513E+01  8.61341E+00  5.95861E+00  1.20321E+01  1.16058E+01
   7.26710E+00  1.09433E+01  9.66140E+00  9.31956E+00  1.01504E+01  4.55725E+00  4.43775E+00  4.76158E+00  9.38190E+00  1.73206E+01
   5.76458E+00  2.92113E+00  1.10859E+01  2.74714E+00  3.70047E+00 -2.89485E+00  3.67822E+00 -3.67219E-01 -2.62632E+00 -1.05573E+01
  -8.61539E+00 -8.85581E+00 -1.03424E+01 -1.15248E+01 -1.57691E+01 -2.03216E+01 -2.03460E+01 -1.55112E+01 -7.47189E+00 -1.63837E+01
  -4.50279E+00 -1.41446E+01 -8.00540E+00 -9.40238E+00 -5.85744E-01 -6.31433E+00 -7.37062E+00 -1.49811E+01 -1.62247E+00 -7.54053E+00
  -1.00869E+00  2.08913E+00 -2.37598E+00 -9.08979E-01  1.46899E+00  1.18409E-01 -3.82953E+00 -3.69629E+00 -8.07969E+00 -9.64093E+00
  -7.37907E+00 -2.62949E+00  8.99785E+00  9.11907E+00  3.77311E+00  1.32405E+00  2.77263E+00  5.29708E-01  3.09582E+00  8.72972E-01
   2.69630E+00  3.37897E+00  8.55715E+00  9.39264E+00  1.22962E+01  2.11436E+01  2.13403E+01  2.04463E+01  1.93791E+01  1.46490E+01
   7.15956E+00  1.99034E+00  5.19877E+00 -1.58088E+00  3.86831E+00  1.05951E+01  1.11818E+01  1.06760E+01  1.60049E+01  1.43532E+01
   2.52366E+01  1.15344E+01  1.44672E+01  1.37763E+01  1.33535E+01  1.97171E+01  1.62909E+01  1.61106E+01  1.16518E+01  1.56580E+01
   1.21589E+01  1.05415E+01  3.36524E+00  8.92237E+00  8.25758E+00  5.70889E+00  1.44062E+01  9.90997E+00  2.19948E+01  2.31751E+01
   2.16820E+01  2.02040E+01  2.99153E+01  3.58350E+01  4.39154E+01  5.44159E+01  7.10632E+01  7.46525E+01  9.00870E+01  1.04883E+02
   1.22795E+02  1.26890E+02  1.04125E+02  7.61056E+01  6.29043E+01  4.51519E+01  3.22620E+01  2.18537E+01  2.41418E+01  2.09364E+01
   1.49320E+01  1.70263E+01  6.05976E+00  1.08692E+01  1.15684E+01  1.78163E+01  1.21435E+01  2.85221E-01  6.84664E+00  6.33104E+00
   7.91600E+00  3.02968E+00 -1.06963E-01  1.13394E+00  1.04899E+00  1.07069E+00 -1.92925E+00 -3.50735E+00  9.09470E-01  8.18661E-01
   1.55988E+00 -1.75498E+00  5.66591E-01  3.38508E-01  8.76169E+00  1.86970E+00  2.44041E-01  4.53038E+00  2.18684E+00 -3.00069E-01
   4.25980E+00  1.82579E+00  5.32727E+00  7.68834E+00  1.15780E+00  5.51633E+00  6.16586E+00  4.10383E+00  4.26713E+00  4.16386E+00
  -9.36361E-01 -3.74004E+00  2.04991E+00  1.37710E+00  5.05631E+00  4.82862E+00  5.11724E-01  5.01886E+00  5.42770E+00  6.04437E+00
   6.34035E+00  4.94033E+00  1.63659E+00  3.96679E+00  4.03149E+00 -4.19788E-01  4.01114E+00  8.12864E+00  9.75943E+00  5.76349E+00
   1.13787E+01  5.53745E+00  1.31849E+01  1.00034E+01  1.60842E+01  1.06694E+01  1.21826E+01  1.79343E+01  1.07293E+01  9.15806E+00
   1.73405E+01  6.79131E+00  1.37604E+01  1.31294E+01  1.62168E+01  2.01576E+01  1.94252E+01  1.37268E+01  7.56569E+00  6.63195E+00
   1.60946E+01  9.75256E+00  8.83106E+00  1.32739E+01  1.67847E+01  1.19922E+01  1.10281E+01  4.83721E+00  1.28495E+01  1.13544E+01
   9.88831E+00  5.45573E+00  1.05263E+01  5.78491E+00  1.10985E+01  1.40708E+01  1.19052E+01  1.11056E+01 -2.93528E+00  1.28699E+01
   8.38198E+00  6.52442E+00  4.36968E+00  3.75556E+00  1.15487E+00  1.12929E+01  9.28384E+00  4.60031E-01  4.32486E+00  1.42125E+01
   5.40610E+00  6.35309E+00  3.99980E+00  6.74573E+00  4.52980E+00  7.67911E+00  1.09226E+01  6.12490E+00  1.03947E+00  6.24436E+00
   8.97704E+00  1.11145E+01  7.19987E+00  1.74012E+00  1.10834E+01  1.72510E+01  1.55555E+01  1.16149E+01  1.34489E+01  1.30562E+01
   1.80045E+01  7.92737E+00  1.10960E+01  9.33598E+00  1.75747E+01  1.81557E+01  6.47821E+00  1.62634E+01  9.18399E+00  1.19598E+01
   1.06444E+01  1.25300E+01  1.47291E+01  9.67029E+00  1.48187E+01  1.04056E+01  1.27658E+01  1.10661E+01  6.30185E+00  5.13768E+00
   1.20026E+01  1.28568E+00  1.22546E+01  5.58549E+00  9.01188E+00  7.64657E+00  4.11657E+00  3.77033E+00  6.03974E+00  8.00568E+00
   2.89810E+00  8.62276E+00  8.89720E+00  3.14249E+00  6.79265E+00  4.36782E+00  3.38477E+00  4.15845E+00  9.68805E+00  4.72612E+00
  -8.46109E+00  3.77913E+00 -2.01564E+00  1.06658E+00  3.80796E+00 -1.23964E+00 -1.97272E+00 -1.44327E+00 -3.72410E+00  4.83279E+00
   7.94028E+00  1.28684E+00  8.85370E+00  7.59153E+00  3.05082E-02 -2.38225E+00  8.06514E+00 -2.02293E+00  1.27931E+00  1.06042E-01
   5.66072E+00  2.77812E+00  1.57327E+00  4.98930E+00 -6.48320E+00  3.70003E+00  3.87376E+00  1.77435E+00  4.15897E+00 -5.36024E-01
   4.28485E+00  9.33759E-02  5.78853E+00  4.89475E-01  5.42975E-01 -1.25773E+00  8.15514E+00  4.29104E+00  3.98377E+00  5.69487E-01
   3.30108E+00 -4.90115E+00  2.37984E+00 -9.74978E-02  5.53846E+00  5.15212E-02  2.81933E+00  4.36972E+00  5.64518E-01  1.67584E+00
   2.74725E+00  2.19683E+00 -1.32898E+00  7.72351E+00  2.09122E+00  2.16386E+00  4.63263E+00  1.24827E+00
 NY points of the fit to the data follow
   2.02674E+01  1.97543E+01  2.03280E+01  2.22469E+01  2.46353E+01  2.73899E+01  3.05218E+01  3.39661E+01  3.75483E+01  4.04556E+01
   4.16027E+01  4.03652E+01  3.72029E+01  3.34268E+01  3.01044E+01  2.76754E+01  2.57949E+01  2.39609E+01  2.21007E+01  2.08453E+01
   2.00175E+01  1.93352E+01  1.89957E+01  1.92361E+01  1.96703E+01  2.03562E+01  2.15269E+01  2.34461E+01  2.62401E+01  2.92718E+01
   3.16562E+01  3.26212E+01  3.18987E+01  2.98715E+01  2.71545E+01  2.43112E+01  2.20279E+01  2.01341E+01  1.87103E+01  1.82708E+01
   1.86834E+01  2.00193E+01  2.18500E+01  2.38277E+01  2.59408E+01  2.81730E+01  3.04377E+01  3.21620E+01  3.23806E+01  3.05562E+01
   2.70896E+01  2.31068E+01  1.99631E+01  1.81211E+01  1.70863E+01  1.64301E+01  1.61058E+01  1.63174E+01  1.69770E+01  1.77603E+01
   1.82774E+01  1.81633E+01  1.72851E+01  1.58671E+01  1.44103E+01  1.35114E+01  1.33141E+01  1.35237E+01  1.39470E+01  1.45201E+01
   1.51495E+01  1.57823E+01  1.62486E+01  1.63965E+01  1.61944E+01  1.57366E+01  1.52167E+01  1.47628E+01  1.44540E+01  1.45164E+01
   1.52194E+01  1.60498E+01  1.67551E+01  1.75535E+01  1.87181E+01  2.01799E+01  2.12488E+01  2.10222E+01  1.92102E+01  1.65585E+01
   1.42862E+01  1.29886E+01  1.25885E+01  1.26239E+01  1.27561E+01  1.41927E+01  2.04134E+01  2.93032E+01  3.79718E+01  4.71845E+01
   5.86878E+01  7.31030E+01  8.74432E+01  9.56737E+01  9.30353E+01  8.02928E+01  6.34176E+01  4.83336E+01  3.74618E+01  2.98588E+01
   2.27480E+01  1.51883E+01  1.08932E+01  9.77615E+00  9.44080E+00  9.34591E+00  9.38334E+00  9.55534E+00  9.95467E+00  1.10693E+01
   1.48484E+01  2.14336E+01  2.83753E+01  3.55085E+01  4.38170E+01  5.40967E+01  6.52095E+01  7.32486E+01  7.40519E+01  6.68365E+01
   5.50823E+01  4.34860E+01  3.45772E+01  2.80950E+01  2.21841E+01  1.55420E+01  1.04668E+01  8.72071E+00  8.49877E+00  8.92236E+00
   9.48015E+00  9.81003E+00  9.87266E+00  9.69480E+00  9.29755E+00  8.82774E+00  8.36539E+00  7.86968E+00  7.37034E+00  6.86612E+00
   6.42507E+00  6.07869E+00  5.80121E+00  5.52993E+00  5.15792E+00  4.80471E+00  4.54694E+00  4.36411E+00  4.19030E+00  3.75401E+00
   3.12135E+00  2.63641E+00  2.58396E+00  2.89335E+00  3.17100E+00  3.03857E+00  2.38428E+00  1.44262E+00  5.92692E-01 -8.30841E-02
  -6.67356E-01 -1.09384E+00 -1.52956E+00 -2.08359E+00 -2.70061E+00 -3.21444E+00 -3.32641E+00 -2.96280E+00 -2.46197E+00 -2.28763E+00
  -2.59998E+00 -2.92220E+00 -2.80367E+00 -2.19134E+00 -1.35032E+00 -6.16619E-01  1.10983E-01  1.25147E+00  2.91762E+00  4.69925E+00
   5.90878E+00  6.12335E+00  5.54219E+00  4.57502E+00  3.69470E+00  3.15588E+00  2.96708E+00  3.43786E+00  4.68500E+00  6.53738E+00
   8.66337E+00  1.05349E+01  1.15378E+01  1.12487E+01  1.00396E+01  7.91603E+00  4.79547E+00  1.09005E+00 -2.24749E+00 -4.01445E+00
  -3.54483E+00 -1.39051E+00  1.75548E+00  5.37130E+00  9.01511E+00  1.19676E+01  1.33398E+01  1.28219E+01  1.06250E+01  7.13881E+00
   3.65497E+00  9.86316E-01 -5.50490E-01 -4.94090E-01  1.10005E+00  3.84944E+00  6.99477E+00  9.40920E+00  1.06749E+01  1.10401E+01
   1.12276E+01  1.14058E+01  1.14101E+01  1.14887E+01  1.19666E+01  1.26591E+01  1.34482E+01  1.43078E+01  1.50099E+01  1.52083E+01
   1.45607E+01  1.31863E+01  1.17969E+01  1.11757E+01  1.14783E+01  1.23985E+01  1.37979E+01  1.53041E+01  1.67367E+01  1.84841E+01
   2.05225E+01  2.25877E+01  2.55167E+01  3.33472E+01  4.51993E+01  5.67542E+01  6.75873E+01  7.92548E+01  9.34777E+01  1.08630E+02
   1.18639E+02  1.17154E+02  1.03400E+02  8.32812E+01  6.41842E+01  5.00944E+01  4.04392E+01  3.17274E+01  2.18242E+01  1.50932E+01
   1.27186E+01  1.14701E+01  1.06044E+01  1.00218E+01  9.62511E+00  9.20382E+00  8.72339E+00  8.19744E+00  7.65718E+00  7.13925E+00
   6.66902E+00  6.23228E+00  5.82638E+00  5.47375E+00  5.17755E+00  4.91147E+00  4.65268E+00  4.40159E+00  4.17550E+00  3.98148E+00
   3.80978E+00  3.65946E+00  3.53311E+00  3.42471E+00  3.32319E+00  3.22299E+00  3.12637E+00  3.03510E+00  2.95354E+00  2.88378E+00
   2.82848E+00  2.79076E+00  2.76947E+00  2.75901E+00  2.75784E+00  2.76414E+00  2.78044E+00  2.80638E+00  2.84125E+00  2.88686E+00
   2.94786E+00  3.02434E+00  3.11866E+00  3.23158E+00  3.36634E+00  3.52455E+00  3.70961E+00  3.92193E+00  4.16351E+00  4.43427E+00
   4.73660E+00  5.07038E+00  5.43650E+00  5.83219E+00  6.25618E+00  6.70477E+00  7.17606E+00  7.66490E+00  8.16686E+00  8.67436E+00
   9.18180E+00  9.68179E+00  1.01692E+01  1.06366E+01  1.10788E+01  1.14893E+01  1.18659E+01  1.22072E+01  1.25182E+01  1.28124E+01
   1.31201E+01  1.33848E+01  1.35434E+01  1.36243E+01  1.36539E+01  1.36157E+01  1.34327E+01  1.30194E+01  1.24472E+01  1.18398E+01
   1.13163E+01  1.09643E+01  1.08046E+01  1.08271E+01  1.09856E+01  1.11947E+01  1.13823E+01  1.14220E+01  1.12518E+01  1.09599E+01
   1.06385E+01  1.03275E+01  9.99812E+00  9.60015E+00  9.20245E+00  8.84712E+00  8.51371E+00  8.19218E+00  7.88105E+00  7.57964E+00
   7.29067E+00  7.01570E+00  6.75821E+00  6.51969E+00  6.30347E+00  6.11142E+00  5.94747E+00  5.81363E+00  5.71333E+00  5.64794E+00
   5.62071E+00  5.63341E+00  5.68963E+00  5.79083E+00  5.93975E+00  6.13697E+00  6.38473E+00  6.68323E+00  7.03365E+00  7.43415E+00
   7.88330E+00  8.37670E+00  8.91054E+00  9.47783E+00  1.00715E+01  1.06808E+01  1.12951E+01  1.19012E+01  1.24868E+01  1.30374E+01
   1.35402E+01  1.39806E+01  1.43472E+01  1.46289E+01  1.48183E+01  1.49091E+01  1.48989E+01  1.47867E+01  1.45761E+01  1.42722E+01
   1.38841E+01  1.34212E+01  1.28957E+01  1.23191E+01  1.17052E+01  1.10665E+01  1.04161E+01  9.76434E+00  9.12182E+00  8.49611E+00
   7.89509E+00  7.32351E+00  6.78599E+00  6.28390E+00  5.81894E+00  5.39043E+00  4.99858E+00  4.64137E+00  4.31759E+00  4.02401E+00
   3.75889E+00  3.51915E+00  3.30338E+00  3.10856E+00  2.93309E+00  2.77395E+00  2.63005E+00  2.49916E+00  2.38073E+00  2.27264E+00
   2.17424E+00  2.08360E+00  2.00066E+00  1.92410E+00  1.85408E+00  1.78909E+00  1.72910E+00  1.67286E+00  1.62088E+00  1.57225E+00
   1.52737E+00  1.48502E+00  1.44550E+00  1.40793E+00  1.37306E+00  1.34009E+00  1.30948E+00  1.28013E+00  1.25256E+00  1.22610E+00
   1.20154E+00  1.17810E+00  1.15620E+00  1.13489E+00  1.11483E+00  1.09547E+00  1.07755E+00  1.06025E+00  1.04399E+00  1.02794E+00
   1.01288E+00  9.98269E-01  9.84807E-01  9.71604E-01  9.59135E-01  9.46696E-01  9.35123E-01  9.23854E-01  9.13477E-01  9.03095E-01
   8.93250E-01  8.83356E-01  8.74253E-01  8.65316E-01  8.57051E-01  8.48596E-01  8.40582E-01  8.32499E-01  8.25143E-01  8.17809E-01
   8.10951E-01  8.03781E-01  7.97011E-01  7.90166E-01  7.83960E-01  7.77618E-01  7.71588E-01  7.65177E-01
 NY background values follow
     1.145E+01    1.140E+01    1.135E+01    1.130E+01    1.125E+01    1.120E+01    1.115E+01    1.109E+01    1.104E+01    1.099E+01
     1.094E+01    1.089E+01    1.084E+01    1.079E+01    1.074E+01    1.069E+01    1.064E+01    1.059E+01    1.054E+01    1.049E+01
     1.044E+01    1.039E+01    1.033E+01    1.028E+01    1.023E+01    1.018E+01    1.013E+01    1.008E+01    1.003E+01    9.980E+00
     9.929E+00    9.879E+00    9.828E+00    9.778E+00    9.727E+00    9.676E+00    9.626E+00    9.575E+00    9.525E+00    9.474E+00
     9.424E+00    9.373E+00    9.323E+00    9.272E+00    9.222E+00    9.171E+00    9.121E+00    9.071E+00    9.020E+00    8.970E+00
     8.919E+00    8.869E+00    8.819E+00    8.768E+00    8.718E+00    8.668E+00    8.618E+00    8.567E+00    8.517E+00    8.467E+00
     8.417E+00    8.367E+00    8.317E+00    8.267E+00    8.217E+00    8.167E+00    8.117E+00    8.067E+00    8.017E+00    7.967E+00
     7.917E+00    7.868E+00    7.818E+00    7.768E+00    7.719E+00    7.669E+00    7.619E+00    7.570E+00    7.520E+00    7.471E+00
     7.422E+00    7.372E+00    7.323E+00    7.274E+00    7.225E+00    7.176E+00    7.127E+00    7.077E+00    7.029E+00    6.980E+00
     6.931E+00    6.882E+00    6.833E+00    6.785E+00    6.736E+00    6.688E+00    6.639E+00    6.591E+00    6.542E+00    6.494E+00
     6.446E+00    6.398E+00    6.350E+00    6.302E+00    6.254E+00    6.206E+00    6.158E+00    6.111E+00    6.063E+00    6.016E+00
     5.968E+00    5.921E+00    5.873E+00    5.826E+00    5.779E+00    5.732E+00    5.685E+00    5.639E+00    5.592E+00    5.545E+00
     5.499E+00    5.452E+00    5.406E+00    5.360E+00    5.313E+00    5.267E+00    5.221E+00    5.176E+00    5.130E+00    5.084E+00
     5.039E+00    4.993E+00    4.948E+00    4.903E+00    4.858E+00    4.813E+00    4.768E+00    4.723E+00    4.679E+00    4.634E+00
     4.590E+00    4.545E+00    4.501E+00    4.457E+00    4.414E+00    4.370E+00    4.326E+00    4.283E+00    4.240E+00    4.196E+00
     4.153E+00    4.111E+00    4.068E+00    4.026E+00    3.983E+00    3.941E+00    3.899E+00    3.857E+00    3.816E+00    3.774E+00
     3.733E+00    3.692E+00    3.651E+00    3.610E+00    3.570E+00    3.529E+00    3.489E+00    3.449E+00    3.409E+00    3.370E+00
     3.331E+00    3.291E+00    3.253E+00    3.214E+00    3.175E+00    3.137E+00    3.099E+00    3.061E+00    3.024E+00    2.987E+00
     2.949E+00    2.913E+00    2.876E+00    2.840E+00    2.804E+00    2.768E+00    2.732E+00    2.697E+00    2.662E+00    2.627E+00
     2.592E+00    2.557E+00    2.523E+00    2.489E+00    2.456E+00    2.422E+00    2.389E+00    2.356E+00    2.323E+00    2.290E+00
     2.258E+00    2.226E+00    2.194E+00    2.162E+00    2.130E+00    2.099E+00    2.068E+00    2.037E+00    2.007E+00    1.976E+00
     1.946E+00    1.916E+00    1.886E+00    1.857E+00    1.827E+00    1.798E+00    1.769E+00    1.741E+00    1.712E+00    1.684E+00
     1.656E+00    1.628E+00    1.600E+00    1.573E+00    1.546E+00    1.518E+00    1.492E+00    1.465E+00    1.438E+00    1.412E+00
     1.386E+00    1.360E+00    1.335E+00    1.309E+00    1.284E+00    1.259E+00    1.234E+00    1.209E+00    1.185E+00    1.161E+00
     1.137E+00    1.113E+00    1.089E+00    1.066E+00    1.042E+00    1.019E+00    9.966E-01    9.739E-01    9.515E-01    9.292E-01
     9.072E-01    8.854E-01    8.637E-01    8.423E-01    8.211E-01    8.000E-01    7.792E-01    7.586E-01    7.381E-01    7.179E-01
     6.979E-01    6.781E-01    6.584E-01    6.390E-01    6.198E-01    6.008E-01    5.820E-01    5.633E-01    5.449E-01    5.267E-01
     5.087E-01    4.909E-01    4.733E-01    4.559E-01    4.387E-01    4.217E-01    4.049E-01    3.882E-01    3.718E-01    3.556E-01
     3.396E-01    3.238E-01    3.081E-01    2.927E-01    2.775E-01    2.624E-01    2.476E-01    2.329E-01    2.184E-01    2.041E-01
     1.900E-01    1.761E-01    1.624E-01    1.489E-01    1.355E-01    1.224E-01    1.094E-01    9.657E-02    8.396E-02    7.153E-02
     5.928E-02    4.721E-02    3.532E-02    2.362E-02    1.209E-02    7.351E-04   -1.044E-02   -2.144E-02   -3.226E-02   -4.291E-02
    -5.338E-02   -6.368E-02   -7.380E-02   -8.375E-02   -9.354E-02   -1.031E-01   -1.126E-01   -1.219E-01   -1.310E-01   -1.399E-01
    -1.487E-01   -1.573E-01   -1.657E-01   -1.740E-01   -1.821E-01   -1.901E-01   -1.979E-01   -2.055E-01   -2.130E-01   -2.203E-01
    -2.275E-01   -2.345E-01   -2.414E-01   -2.481E-01   -2.546E-01   -2.610E-01   -2.673E-01   -2.734E-01   -2.794E-01   -2.852E-01
    -2.909E-01   -2.965E-01   -3.019E-01   -3.071E-01   -3.122E-01   -3.172E-01   -3.221E-01   -3.268E-01   -3.314E-01   -3.358E-01
    -3.401E-01   -3.443E-01   -3.483E-01   -3.523E-01   -3.561E-01   -3.597E-01   -3.633E-01   -3.667E-01   -3.700E-01   -3.732E-01
    -3.762E-01   -3.791E-01   -3.820E-01   -3.847E-01   -3.872E-01   -3.897E-01   -3.920E-01   -3.943E-01   -3.964E-01   -3.984E-01
    -4.003E-01   -4.021E-01   -4.038E-01   -4.054E-01   -4.069E-01   -4.082E-01   -4.095E-01   -4.106E-01   -4.117E-01   -4.127E-01
    -4.135E-01   -4.143E-01   -4.149E-01   -4.155E-01   -4.160E-01   -4.163E-01   -4.166E-01   -4.168E-01   -4.169E-01   -4.169E-01
    -4.168E-01   -4.166E-01   -4.164E-01   -4.160E-01   -4.156E-01   -4.151E-01   -4.145E-01   -4.138E-01   -4.130E-01   -4.122E-01
    -4.113E-01   -4.103E-01   -4.092E-01   -4.080E-01   -4.068E-01   -4.055E-01   -4.041E-01   -4.027E-01   -4.011E-01   -3.995E-01
    -3.979E-01   -3.962E-01   -3.944E-01   -3.925E-01   -3.906E-01   -3.886E-01   -3.865E-01   -3.844E-01   -3.823E-01   -3.800E-01
    -3.778E-01   -3.754E-01   -3.730E-01   -3.706E-01   -3.681E-01   -3.655E-01   -3.629E-01   -3.603E-01   -3.576E-01   -3.548E-01
    -3.520E-01   -3.492E-01   -3.463E-01   -3.434E-01   -3.404E-01   -3.374E-01   -3.344E-01   -3.313E-01   -3.282E-01   -3.250E-01
    -3.219E-01   -3.186E-01   -3.154E-01   -3.121E-01   -3.088E-01   -3.054E-01   -3.021E-01   -2.987E-01   -2.953E-01   -2.918E-01
    -2.883E-01   -2.849E-01   -2.813E-01   -2.778E-01   -2.743E-01   -2.707E-01   -2.671E-01   -2.635E-01   -2.599E-01   -2.562E-01
    -2.526E-01   -2.489E-01   -2.452E-01   -2.415E-01   -2.378E-01   -2.341E-01   -2.304E-01   -2.266E-01   -2.229E-01   -2.191E-01
    -2.153E-01   -2.115E-01   -2.077E-01   -2.039E-01   -2.001E-01   -1.962E-01   -1.924E-01   -1.885E-01   -1.847E-01   -1.808E-01
    -1.770E-01   -1.731E-01   -1.692E-01   -1.653E-01   -1.614E-01   -1.576E-01   -1.537E-01   -1.498E-01   -1.459E-01   -1.420E-01
    -1.381E-01   -1.342E-01   -1.303E-01   -1.264E-01   -1.225E-01   -1.186E-01   -1.147E-01   -1.109E-01
 Cr       Conc. = 1.35E+02
