 LCModel (Version 6.3-1L) Copyright: S.W. Provencher.          Ref.: Magn. Reson. Med. 30:672-679 (1993).                
 Slice#3 Row#6 Col#3  PD_24_press_2_raw_act
 36 lines in following concentration table = NCONC+1
    Conc.  %SD /Cr+PCr  Metabolite                                         
    0.000 999%   0.000 Ala                                                 
    0.000 999%   0.000 Asp                                                 
 2.30E+03  19%   0.959 Cr                                                  
   97.358 464% 4.1E-02 PCr                                                 
  392.392  75%   0.164 GABA                                                
   78.919 359% 3.3E-02 Glc                                                 
 1.02E+03  57%   0.425 Gln                                                 
 3.09E+03  22%   1.287 Glu                                                 
 1.28E+03   4%   0.532 GPC                                                 
    0.000 999%   0.000 PCh                                                 
 1.03E+03  16%   0.430 GSH                                                 
 2.64E+03  20%   1.099 Ins                                                 
    0.000 999%   0.000 Lac                                                 
 2.75E+03  11%   1.145 NAA                                                 
 1.18E+03  27%   0.492 NAAG                                                
  148.808  37% 6.2E-02 Scyllo                                              
    0.000 999%   0.000 Tau                                                 
    0.000 999%   0.000 -CrCH2                                              
 1.28E+03   4%   0.532 GPC+PCh                                             
 3.92E+03   4%   1.636 NAA+NAAG                                            
 2.40E+03   5%   1.000 Cr+PCr                                              
 4.11E+03  24%   1.712 Glu+Gln                                             
 2.12E+03  25%   0.885 Lip13a                                              
    0.000 999%   0.000 Lip13b                                              
  357.147  78%   0.149 Lip09                                               
  962.848  32%   0.401 MM09                                                
  440.720  47%   0.184 Lip20                                               
 2.72E+03  20%   1.135 MM20                                                
  272.769  64%   0.114 MM12                                                
    0.000 999%   0.000 MM14                                                
    0.000 999%   0.000 MM17                                                
 2.12E+03  25%   0.885 Lip13a+Lip13b                                       
 2.40E+03  21%   0.999 MM14+Lip13a+Lip13b+MM12                             
 1.32E+03  21%   0.550 MM09+Lip09                                          
 3.16E+03  17%   1.319 MM20+Lip20                                          
   6 lines in following misc. output table
  FWHM = 0.061 ppm    S/N =   7                                            
  Data shift = 0.038 ppm                                                   
  Ph:   4 deg       6.8 deg/ppm                                            
  alphaB,S = 2.7E+00,   2.6E+01                                            
   14 spline knots.   Ns = 7(1)                                            
  (11) 8 infls.   ( 9) 1 extrs.                                            
  498 points on ppm-axis = NY
      4.000000     3.992357     3.984714     3.977070     3.969427     3.961784     3.954141     3.946497     3.938854     3.931211
      3.923568     3.915925     3.908281     3.900638     3.892995     3.885352     3.877708     3.870065     3.862422     3.854779
      3.847136     3.839492     3.831849     3.824206     3.816563     3.808919     3.801276     3.793633     3.785990     3.778347
      3.770703     3.763060     3.755417     3.747774     3.740130     3.732487     3.724844     3.717201     3.709558     3.701914
      3.694271     3.686628     3.678985     3.671341     3.663698     3.656055     3.648412     3.640769     3.633125     3.625482
      3.617839     3.610196     3.602552     3.594909     3.587266     3.579623     3.571980     3.564336     3.556693     3.549050
      3.541407     3.533763     3.526120     3.518477     3.510834     3.503191     3.495547     3.487904     3.480261     3.472618
      3.464974     3.457331     3.449688     3.442045     3.434402     3.426758     3.419115     3.411472     3.403829     3.396185
      3.388542     3.380899     3.373256     3.365613     3.357969     3.350326     3.342683     3.335040     3.327396     3.319753
      3.312110     3.304467     3.296824     3.289180     3.281537     3.273894     3.266251     3.258607     3.250964     3.243321
      3.235678     3.228034     3.220391     3.212748     3.205105     3.197462     3.189818     3.182175     3.174532     3.166889
      3.159245     3.151602     3.143959     3.136316     3.128673     3.121029     3.113386     3.105743     3.098100     3.090456
      3.082813     3.075170     3.067527     3.059884     3.052240     3.044597     3.036954     3.029311     3.021667     3.014024
      3.006381     2.998738     2.991095     2.983451     2.975808     2.968165     2.960522     2.952878     2.945235     2.937592
      2.929949     2.922306     2.914662     2.907019     2.899376     2.891733     2.884089     2.876446     2.868803     2.861160
      2.853517     2.845873     2.838230     2.830587     2.822944     2.815300     2.807657     2.800014     2.792371     2.784728
      2.777084     2.769441     2.761798     2.754155     2.746511     2.738868     2.731225     2.723582     2.715939     2.708295
      2.700652     2.693009     2.685366     2.677722     2.670079     2.662436     2.654793     2.647150     2.639506     2.631863
      2.624220     2.616577     2.608933     2.601290     2.593647     2.586004     2.578361     2.570717     2.563074     2.555431
      2.547788     2.540144     2.532501     2.524858     2.517215     2.509572     2.501928     2.494285     2.486642     2.478999
      2.471355     2.463712     2.456069     2.448426     2.440783     2.433139     2.425496     2.417853     2.410210     2.402566
      2.394923     2.387280     2.379637     2.371994     2.364350     2.356707     2.349064     2.341421     2.333777     2.326134
      2.318491     2.310848     2.303205     2.295561     2.287918     2.280275     2.272632     2.264988     2.257345     2.249702
      2.242059     2.234416     2.226772     2.219129     2.211486     2.203843     2.196199     2.188556     2.180913     2.173270
      2.165627     2.157983     2.150340     2.142697     2.135054     2.127410     2.119767     2.112124     2.104481     2.096838
      2.089194     2.081551     2.073908     2.066265     2.058621     2.050978     2.043335     2.035692     2.028049     2.020405
      2.012762     2.005119     1.997476     1.989833     1.982190     1.974546     1.966903     1.959260     1.951617     1.943974
      1.936331     1.928688     1.921045     1.913402     1.905759     1.898115     1.890472     1.882829     1.875186     1.867543
      1.859900     1.852257     1.844614     1.836971     1.829327     1.821684     1.814041     1.806398     1.798755     1.791112
      1.783469     1.775826     1.768183     1.760540     1.752896     1.745253     1.737610     1.729967     1.722324     1.714681
      1.707038     1.699395     1.691752     1.684108     1.676465     1.668822     1.661179     1.653536     1.645893     1.638250
      1.630607     1.622964     1.615321     1.607677     1.600034     1.592391     1.584748     1.577105     1.569462     1.561819
      1.554176     1.546533     1.538890     1.531246     1.523603     1.515960     1.508317     1.500674     1.493031     1.485388
      1.477745     1.470102     1.462458     1.454815     1.447172     1.439529     1.431886     1.424243     1.416600     1.408957
      1.401314     1.393671     1.386027     1.378384     1.370741     1.363098     1.355455     1.347812     1.340169     1.332526
      1.324883     1.317240     1.309596     1.301953     1.294310     1.286667     1.279024     1.271381     1.263738     1.256095
      1.248452     1.240808     1.233165     1.225522     1.217879     1.210236     1.202593     1.194950     1.187307     1.179664
      1.172021     1.164377     1.156734     1.149091     1.141448     1.133805     1.126162     1.118519     1.110876     1.103233
      1.095590     1.087946     1.080303     1.072660     1.065017     1.057374     1.049731     1.042088     1.034445     1.026802
      1.019158     1.011515     1.003872     0.996229     0.988586     0.980943     0.973300     0.965657     0.958014     0.950371
      0.942727     0.935084     0.927441     0.919798     0.912155     0.904512     0.896869     0.889226     0.881583     0.873940
      0.866296     0.858653     0.851010     0.843367     0.835724     0.828081     0.820438     0.812795     0.805152     0.797508
      0.789865     0.782222     0.774579     0.766936     0.759293     0.751650     0.744007     0.736364     0.728721     0.721077
      0.713434     0.705791     0.698148     0.690505     0.682862     0.675219     0.667576     0.659933     0.652290     0.644646
      0.637003     0.629360     0.621717     0.614074     0.606431     0.598788     0.591145     0.583502     0.575858     0.568215
      0.560572     0.552929     0.545286     0.537643     0.530000     0.522357     0.514714     0.507071     0.499427     0.491784
      0.484141     0.476498     0.468855     0.461212     0.453569     0.445925     0.438282     0.430639     0.422996     0.415353
      0.407710     0.400067     0.392424     0.384780     0.377137     0.369494     0.361851     0.354208     0.346565     0.338922
      0.331278     0.323635     0.315992     0.308349     0.300706     0.293063     0.285420     0.277777     0.270133     0.262490
      0.254847     0.247204     0.239561     0.231918     0.224275     0.216631     0.208988     0.201345
 NY phased data points follow
  -1.75329E+01 -1.68464E+01 -1.56107E+01 -8.24967E+00  3.42683E+00 -5.83359E+00  1.09106E+01  2.24903E+01  3.61919E+01  3.61514E+01
   4.75059E+01  4.11875E+01  2.45590E+01  3.14281E+01  2.49629E+01  1.44097E+01  1.39445E+01  5.85415E-01 -4.16736E+00 -1.57553E+00
  -1.13677E+01 -5.52057E+00 -1.25265E+01 -3.96066E+00 -5.07977E+00  2.20107E+00  5.23002E+00 -5.91956E+00  4.73267E+00  3.89924E+00
   1.66162E+01 -9.27656E-01 -5.33475E+00  9.53829E-01  5.25691E+00 -4.42676E-01 -3.78069E+00  1.76616E+00  1.02988E+00 -9.88153E+00
  -3.31928E+00 -1.35165E+01  9.92518E-01 -6.37979E+00  6.34283E+00  1.21102E+00  1.51986E+01 -4.23672E-02  8.09352E-01 -7.97754E-01
  -8.39018E+00  7.51635E-01 -1.26524E+01 -8.50421E+00 -1.15281E+00 -3.75578E+00 -1.20686E+01 -1.31332E+00 -9.43247E+00 -2.05454E+01
  -1.52777E+01 -3.74392E+00 -1.95742E+01 -2.30377E+01 -2.10887E+01 -2.77860E+01 -2.31953E+01 -2.78202E+01 -2.08367E+01 -2.71323E+01
  -1.19111E+01 -1.32837E+01 -2.05711E+01 -2.44409E+01 -1.64630E+01 -2.67114E+01 -1.34923E+01 -2.28752E+01 -1.68756E+01 -1.07706E+01
  -1.15138E+01 -1.56818E+01 -2.83049E+01 -8.70048E+00 -9.15614E+00 -8.04086E+00 -1.80348E+01 -7.39264E+00 -1.67596E+01 -1.39435E+01
  -2.47726E+01 -1.42706E+01 -1.10891E+01 -1.27494E+01 -9.87677E+00 -5.82625E+00  6.37083E+00  5.97784E+00  3.01022E+01  5.53154E+01
   5.78926E+01  6.22014E+01  8.42271E+01  8.15349E+01  7.53615E+01  6.82648E+01  4.64669E+01  2.72478E+01  7.94288E+00  7.50873E+00
  -2.10704E+00 -7.17577E+00 -9.86143E+00 -5.72236E+00 -1.86561E+01 -2.17957E+01 -2.35103E+01 -2.15927E+01 -2.19829E+01 -2.52984E+01
  -1.79822E+01 -1.47804E+01  3.81292E+00  1.00462E+01  2.52330E+01  3.11699E+01  3.77405E+01  5.47975E+01  5.21325E+01  4.11629E+01
   3.32913E+01  1.85007E+01  2.61481E+01  1.04475E+00 -1.04907E+01 -1.37528E+01 -1.25051E+01 -2.12163E+01 -1.13635E+01 -1.52541E+01
  -1.35125E+01 -1.73723E+01 -2.34824E+01 -1.42945E+01 -2.99633E+01 -2.83740E+01 -1.85002E+01 -1.85983E+01 -2.23593E+01 -2.28525E+01
  -1.09219E+01 -2.61789E+01 -2.50826E+01 -2.12130E+01 -2.03219E+01 -3.06366E+01 -2.00663E+01 -1.63674E+01 -1.08647E+01 -2.49875E+01
  -2.18953E+01 -1.00442E+01 -2.40498E+01 -2.90246E+01 -2.37461E+01 -1.80487E+01 -1.55531E+01 -2.58471E+01 -1.21625E+01 -2.59253E+01
  -2.66283E+01 -3.82308E+01 -2.54815E+01 -4.03194E+01 -4.01911E+01 -3.68182E+01 -3.68650E+01 -3.18388E+01 -3.90077E+01 -3.12568E+01
  -4.06351E+01 -3.65682E+01 -4.31844E+01 -4.59170E+01 -3.24220E+01 -3.37274E+01 -2.20689E+01 -3.15156E+01 -2.03014E+01 -2.23483E+01
  -1.92810E+01 -1.35717E+01 -1.05360E+01 -1.78542E+01 -8.79910E+00 -9.00890E+00 -1.76363E+01 -1.59661E+01 -2.32908E+01 -1.72673E+01
  -2.47851E+01 -2.37813E+01 -1.54639E+01 -2.23284E+01 -2.54832E+01 -1.49142E+01 -2.55489E+01 -1.74670E+01 -1.52068E+01 -3.19126E+01
  -2.79250E+01 -2.55874E+01 -1.74509E+01 -1.94368E+01 -6.12529E+00 -8.57495E+00 -6.38885E+00 -9.01774E+00 -9.60410E+00 -1.82006E+01
  -1.50064E+01 -2.48989E+01 -2.73310E+01 -2.20000E+01 -1.79814E+01 -1.04556E+01 -1.54726E+01 -5.43623E+00  3.51708E-01 -1.38287E+01
  -9.50625E+00  1.19380E+00 -3.11759E+00 -9.05050E+00 -7.28880E+00 -3.76775E+00 -5.71096E+00  7.66491E-01 -3.64236E+00 -4.14375E+00
  -8.83450E+00 -6.88767E+00 -5.68650E+00 -3.07970E+00 -2.59193E+00  4.10117E+00 -1.00106E+01 -2.63089E+00 -7.23353E-01 -1.09606E+01
   2.18923E+00  1.21748E+01  2.74833E+01  2.96863E+01  3.10035E+01  5.16591E+01  7.10770E+01  7.70411E+01  9.33777E+01  9.46752E+01
   9.89902E+01  9.15870E+01  6.66908E+01  4.88625E+01  3.86433E+01  2.02605E+01  1.50855E+01 -3.07458E+00 -1.45886E+00 -1.08445E+01
  -1.00915E+01 -1.58365E+01 -6.44070E+00  6.08188E+00 -2.90263E+00 -8.92698E+00 -1.19443E+01 -6.74593E+00 -8.71654E+00  4.16584E-01
  -4.70671E+00 -1.67164E+01 -2.21021E+00 -1.63928E+00 -4.06858E+00 -5.79639E+00 -9.76160E+00 -1.81230E+01 -1.13808E+01 -5.14621E-01
   1.37294E+00 -9.80575E+00 -2.65674E-01 -2.51826E+01 -1.90590E+00 -7.56437E+00 -9.06182E+00 -3.81084E+00 -6.35374E+00 -1.24884E+01
  -7.54774E+00 -1.79581E+01 -1.29133E+01 -1.28349E+01 -1.69055E+01 -1.55429E+01 -2.14099E+01 -1.40989E+01 -2.66409E+01 -2.52423E+01
  -2.48720E+01 -3.31369E+01 -2.81691E+01 -2.87083E+01 -3.16104E+01 -2.96399E+01 -2.85817E+01 -2.47298E+01 -2.56888E+01 -2.78854E+01
  -1.80348E+01 -2.91616E+01 -3.03987E+01 -2.88066E+01 -1.67966E+01 -2.29840E+01 -1.46314E+01 -1.78206E+01 -1.25905E+01 -2.07022E+01
  -9.72216E+00 -2.13779E+01 -1.70422E+01 -1.01577E+01 -1.02912E+01 -4.58479E+00 -1.49856E+01 -6.27353E+00 -8.94504E+00 -5.49579E+00
  -6.04806E+00  5.91470E-01 -1.48635E+00 -9.32387E+00 -9.05198E+00 -1.06943E+01  1.93709E+00 -5.21630E+00 -7.86662E+00 -9.64850E-01
  -9.55008E+00 -3.28015E+00  5.62856E+00  6.61475E+00  2.50514E+00  3.03506E+00  2.51475E+00 -8.86856E+00 -1.48449E+01 -7.87776E+00
  -2.28371E+00  2.51696E+00 -3.02087E+00 -1.01546E+01 -5.54738E+00 -5.12655E+00  1.90113E+00 -1.51699E+01 -6.74436E+00 -2.84989E+00
  -7.46954E+00 -5.50141E+00 -9.78328E+00 -1.19915E+01 -4.29758E+00 -6.38408E+00 -2.50380E-01 -6.76724E+00 -1.34967E+01 -1.07556E+01
  -4.19629E-01 -1.13483E+01 -1.55924E+01 -1.19636E+01 -3.04390E+00 -1.01090E+01 -1.43180E+00 -4.66315E+00 -1.54389E+01 -7.80428E+00
  -1.56474E+01 -6.03847E+00 -8.87119E+00 -7.09217E+00 -3.64056E+00 -7.54381E+00 -5.61102E+00  4.57228E+00 -1.00665E+01 -6.13044E+00
  -4.20052E+00 -6.81406E+00 -1.26543E+01 -2.29962E+00 -5.26375E+00 -7.18486E+00 -5.42312E+00 -4.10426E+00 -1.21647E+01 -8.21032E+00
  -3.49942E+00 -4.84130E+00 -9.95855E+00 -6.50007E+00 -1.53384E+00  6.86654E+00 -4.91388E+00 -1.13345E+00 -5.09632E+00 -7.74728E+00
  -1.01601E+01 -5.61682E+00 -6.73927E+00 -4.95983E+00 -6.21231E+00 -7.17601E+00 -1.56236E+01 -1.01144E+01 -1.06871E+01  3.13020E+00
   4.27153E-01 -8.24065E+00 -5.97504E+00 -5.16711E+00  1.25438E+00 -3.32316E+00  1.74948E+00 -7.70545E+00  1.45606E+00 -4.11635E+00
  -6.99441E+00 -6.24783E+00 -2.61200E+00 -6.94546E+00 -4.63810E+00 -1.58017E+01 -2.18632E+00 -1.58104E+01 -3.30021E+00 -1.26038E+01
  -5.28806E+00 -7.92699E+00 -1.18963E+01 -5.64515E+00 -4.68638E+00 -5.66437E+00  1.25011E+00 -7.95912E+00 -7.52519E+00 -7.37350E+00
  -4.91255E+00  1.62015E-01 -5.59441E+00 -1.93794E+01 -1.05876E+01 -3.43873E+00 -1.61687E+01 -8.50391E+00 -4.29153E+00 -2.68115E+00
  -5.90255E+00 -9.93109E+00 -3.42519E+00 -7.39470E+00 -1.24686E+01 -1.53292E+01 -5.24993E+00 -1.19247E+01  7.27271E-01 -1.07984E+01
  -8.01462E+00 -3.64811E-01 -1.02510E+01 -1.20830E+01 -6.04542E+00 -1.67782E+01  1.87706E+00 -2.45827E+00 -1.72251E+01 -8.39480E+00
  -2.01596E+01 -8.13340E+00 -9.31480E+00 -3.13225E+00 -7.85247E+00 -3.29856E+00 -5.22863E+00 -6.62815E+00
 NY points of the fit to the data follow
  -9.64626E+00 -9.75561E+00 -8.69865E+00 -6.95604E+00 -4.08656E+00  1.05516E+00  7.98373E+00  1.75434E+01  2.51993E+01  2.89994E+01
   3.33900E+01  3.70430E+01  3.57346E+01  3.02642E+01  2.29297E+01  1.57157E+01  9.19562E+00  2.61623E+00 -2.01214E+00 -5.45236E+00
  -9.84373E+00 -1.18927E+01 -1.21547E+01 -1.16041E+01 -9.92892E+00 -6.16813E+00 -2.76732E+00 -3.90564E-01  3.49101E+00  7.30388E+00
   8.61778E+00  7.83092E+00  5.89338E+00  3.24848E+00 -4.67601E-01 -4.62040E+00 -7.30631E+00 -9.58879E+00 -1.19520E+01 -1.21140E+01
  -1.11077E+01 -8.86435E+00 -5.23398E+00 -1.94856E+00  2.28760E-01  1.75501E+00  3.12219E+00  3.09755E+00  7.81365E-01 -2.44115E+00
  -5.63369E+00 -8.74169E+00 -1.14084E+01 -1.29937E+01 -1.34621E+01 -1.36453E+01 -1.36446E+01 -1.30688E+01 -1.24673E+01 -1.22726E+01
  -1.25539E+01 -1.33746E+01 -1.43970E+01 -1.54162E+01 -1.62810E+01 -1.66194E+01 -1.63756E+01 -1.58199E+01 -1.52235E+01 -1.47377E+01
  -1.41883E+01 -1.36407E+01 -1.34452E+01 -1.35492E+01 -1.38403E+01 -1.42213E+01 -1.45905E+01 -1.49755E+01 -1.51037E+01 -1.49109E+01
  -1.45605E+01 -1.38517E+01 -1.32978E+01 -1.35038E+01 -1.37723E+01 -1.37513E+01 -1.41951E+01 -1.51614E+01 -1.60045E+01 -1.62918E+01
  -1.60958E+01 -1.56317E+01 -1.48988E+01 -1.39301E+01 -1.28176E+01 -1.00165E+01 -2.29361E+00  1.00639E+01  2.91154E+01  4.86682E+01
   6.03263E+01  7.13014E+01  8.33515E+01  8.61359E+01  7.74779E+01  6.26693E+01  4.61766E+01  3.07719E+01  1.56214E+01  3.57787E+00
  -4.04180E+00 -1.33479E+01 -1.97452E+01 -2.08429E+01 -2.07999E+01 -2.05869E+01 -2.02707E+01 -1.97687E+01 -1.91310E+01 -1.79727E+01
  -1.47865E+01 -7.97478E+00  2.21953E+00  1.66713E+01  2.83779E+01  3.57872E+01  4.48952E+01  5.22317E+01  5.17479E+01  4.48275E+01
   3.42148E+01  2.28925E+01  1.21981E+01  1.34757E+00 -6.56453E+00 -1.26503E+01 -1.95459E+01 -2.19120E+01 -2.16022E+01 -2.06768E+01
  -1.93745E+01 -1.84069E+01 -1.79673E+01 -1.76246E+01 -1.76358E+01 -1.79232E+01 -1.83104E+01 -1.89388E+01 -1.96021E+01 -2.03160E+01
  -2.10669E+01 -2.14777E+01 -2.16489E+01 -2.18195E+01 -2.19773E+01 -2.21189E+01 -2.24389E+01 -2.26473E+01 -2.26283E+01 -2.27827E+01
  -2.30088E+01 -2.33190E+01 -2.36047E+01 -2.36713E+01 -2.38953E+01 -2.44248E+01 -2.49574E+01 -2.54265E+01 -2.58639E+01 -2.62755E+01
  -2.67837E+01 -2.72674E+01 -2.75583E+01 -2.76869E+01 -2.79187E+01 -2.82690E+01 -2.84701E+01 -2.83443E+01 -2.80352E+01 -2.78750E+01
  -2.80177E+01 -2.80574E+01 -2.78184E+01 -2.70042E+01 -2.55154E+01 -2.38609E+01 -2.20388E+01 -1.99008E+01 -1.78237E+01 -1.62027E+01
  -1.52642E+01 -1.51428E+01 -1.60268E+01 -1.76427E+01 -1.89870E+01 -1.96296E+01 -2.01197E+01 -2.00017E+01 -1.87152E+01 -1.66610E+01
  -1.46045E+01 -1.27734E+01 -1.14195E+01 -1.12981E+01 -1.23991E+01 -1.46427E+01 -1.75431E+01 -2.02004E+01 -2.25548E+01 -2.38467E+01
  -2.30212E+01 -2.03050E+01 -1.66674E+01 -1.35572E+01 -1.10433E+01 -8.97631E+00 -9.17973E+00 -1.23610E+01 -1.64454E+01 -2.00994E+01
  -2.27136E+01 -2.47281E+01 -2.56823E+01 -2.40959E+01 -2.14549E+01 -1.87572E+01 -1.61249E+01 -1.41599E+01 -1.24189E+01 -1.13523E+01
  -1.08032E+01 -9.91536E+00 -8.85982E+00 -7.86391E+00 -7.05277E+00 -6.70795E+00 -6.68643E+00 -7.08921E+00 -8.50829E+00 -9.96686E+00
  -1.06575E+01 -1.10723E+01 -1.15341E+01 -1.13429E+01 -1.00266E+01 -8.65121E+00 -7.64488E+00 -6.55873E+00 -4.84078E+00 -1.76923E+00
   2.44677E+00  9.52741E+00  1.77115E+01  2.64816E+01  3.87047E+01  5.71843E+01  7.44050E+01  8.19863E+01  8.67514E+01  9.29890E+01
   9.34253E+01  8.45256E+01  7.10867E+01  5.68857E+01  4.19803E+01  2.74647E+01  1.63040E+01  9.17760E+00  6.95438E-01 -6.11089E+00
  -8.31948E+00 -9.14543E+00 -9.61279E+00 -9.85846E+00 -9.87355E+00 -1.00253E+01 -1.04080E+01 -1.09065E+01 -1.13841E+01 -1.19016E+01
  -1.24290E+01 -1.28642E+01 -1.32124E+01 -1.35039E+01 -1.37334E+01 -1.38712E+01 -1.39634E+01 -1.40370E+01 -1.40980E+01 -1.41491E+01
  -1.41929E+01 -1.42234E+01 -1.42571E+01 -1.42951E+01 -1.43852E+01 -1.44922E+01 -1.45719E+01 -1.46628E+01 -1.47646E+01 -1.48218E+01
  -1.48635E+01 -1.48909E+01 -1.48880E+01 -1.48706E+01 -1.48429E+01 -1.48158E+01 -1.47944E+01 -1.47622E+01 -1.47336E+01 -1.47148E+01
  -1.46959E+01 -1.46766E+01 -1.46565E+01 -1.46338E+01 -1.46085E+01 -1.45798E+01 -1.45473E+01 -1.45109E+01 -1.44702E+01 -1.44247E+01
  -1.43739E+01 -1.43174E+01 -1.42538E+01 -1.41827E+01 -1.41031E+01 -1.40137E+01 -1.39130E+01 -1.37993E+01 -1.36706E+01 -1.35248E+01
  -1.33593E+01 -1.31715E+01 -1.29581E+01 -1.27164E+01 -1.24431E+01 -1.21351E+01 -1.17898E+01 -1.14047E+01 -1.09779E+01 -1.05084E+01
  -9.99662E+00 -9.44402E+00 -8.85353E+00 -8.22966E+00 -7.57880E+00 -6.90903E+00 -6.23011E+00 -5.55322E+00 -4.89050E+00 -4.25486E+00
  -3.65951E+00 -3.11741E+00 -2.64064E+00 -2.23980E+00 -1.92347E+00 -1.69798E+00 -1.56715E+00 -1.53201E+00 -1.59075E+00 -1.73877E+00
  -1.96910E+00 -2.27281E+00 -2.63944E+00 -3.05744E+00 -3.51465E+00 -3.99877E+00 -4.49798E+00 -5.00131E+00 -5.49890E+00 -5.98206E+00
  -6.44345E+00 -6.87710E+00 -7.27843E+00 -7.64420E+00 -7.97218E+00 -8.26099E+00 -8.50988E+00 -8.71866E+00 -8.88756E+00 -9.01704E+00
  -9.10753E+00 -9.15936E+00 -9.17275E+00 -9.14786E+00 -9.08476E+00 -8.98342E+00 -8.84373E+00 -8.66557E+00 -8.44907E+00 -8.19477E+00
  -7.90371E+00 -7.57756E+00 -7.21870E+00 -6.83042E+00 -6.41710E+00 -5.98424E+00 -5.53840E+00 -5.08702E+00 -4.63834E+00 -4.20124E+00
  -3.78498E+00 -3.39885E+00 -3.05174E+00 -2.75172E+00 -2.50575E+00 -2.31943E+00 -2.19674E+00 -2.13981E+00 -2.14881E+00 -2.22193E+00
  -2.35561E+00 -2.54475E+00 -2.78304E+00 -3.06310E+00 -3.37689E+00 -3.71611E+00 -4.07254E+00 -4.43842E+00 -4.80662E+00 -5.17074E+00
  -5.52528E+00 -5.86574E+00 -6.18867E+00 -6.49164E+00 -6.77306E+00 -7.03206E+00 -7.26840E+00 -7.48243E+00 -7.67494E+00 -7.84709E+00
  -8.00015E+00 -8.13545E+00 -8.25441E+00 -8.35847E+00 -8.44909E+00 -8.52764E+00 -8.59531E+00 -8.65320E+00 -8.70229E+00 -8.74356E+00
  -8.77791E+00 -8.80607E+00 -8.82864E+00 -8.84618E+00 -8.85918E+00 -8.86817E+00 -8.87357E+00 -8.87573E+00 -8.87491E+00 -8.87135E+00
  -8.86533E+00 -8.85712E+00 -8.84693E+00 -8.83488E+00 -8.82108E+00 -8.80568E+00 -8.78883E+00 -8.77071E+00 -8.75140E+00 -8.73094E+00
  -8.70938E+00 -8.68684E+00 -8.66343E+00 -8.63923E+00 -8.61427E+00 -8.58856E+00 -8.56214E+00 -8.53510E+00 -8.50753E+00 -8.47947E+00
  -8.45090E+00 -8.42182E+00 -8.39227E+00 -8.36236E+00 -8.33212E+00 -8.30156E+00 -8.27065E+00 -8.23940E+00 -8.20789E+00 -8.17619E+00
  -8.14433E+00 -8.11227E+00 -8.08000E+00 -8.04756E+00 -8.01502E+00 -7.98244E+00 -7.94981E+00 -7.91711E+00 -7.88435E+00 -7.85159E+00
  -7.81890E+00 -7.78632E+00 -7.75385E+00 -7.72148E+00 -7.68923E+00 -7.65722E+00 -7.62552E+00 -7.59416E+00
 NY background values follow
    -2.354E+01   -2.353E+01   -2.352E+01   -2.351E+01   -2.351E+01   -2.350E+01   -2.349E+01   -2.348E+01   -2.348E+01   -2.347E+01
    -2.346E+01   -2.345E+01   -2.344E+01   -2.344E+01   -2.343E+01   -2.342E+01   -2.341E+01   -2.340E+01   -2.340E+01   -2.339E+01
    -2.338E+01   -2.337E+01   -2.336E+01   -2.336E+01   -2.335E+01   -2.334E+01   -2.333E+01   -2.332E+01   -2.332E+01   -2.331E+01
    -2.330E+01   -2.329E+01   -2.328E+01   -2.327E+01   -2.327E+01   -2.326E+01   -2.325E+01   -2.324E+01   -2.323E+01   -2.322E+01
    -2.321E+01   -2.321E+01   -2.320E+01   -2.319E+01   -2.318E+01   -2.317E+01   -2.316E+01   -2.315E+01   -2.314E+01   -2.313E+01
    -2.313E+01   -2.312E+01   -2.311E+01   -2.310E+01   -2.309E+01   -2.308E+01   -2.307E+01   -2.306E+01   -2.305E+01   -2.304E+01
    -2.303E+01   -2.302E+01   -2.301E+01   -2.300E+01   -2.299E+01   -2.298E+01   -2.297E+01   -2.296E+01   -2.295E+01   -2.294E+01
    -2.293E+01   -2.292E+01   -2.291E+01   -2.290E+01   -2.289E+01   -2.288E+01   -2.287E+01   -2.286E+01   -2.285E+01   -2.284E+01
    -2.283E+01   -2.282E+01   -2.281E+01   -2.279E+01   -2.278E+01   -2.277E+01   -2.276E+01   -2.275E+01   -2.274E+01   -2.273E+01
    -2.271E+01   -2.270E+01   -2.269E+01   -2.268E+01   -2.267E+01   -2.265E+01   -2.264E+01   -2.263E+01   -2.262E+01   -2.260E+01
    -2.259E+01   -2.258E+01   -2.257E+01   -2.255E+01   -2.254E+01   -2.253E+01   -2.251E+01   -2.250E+01   -2.249E+01   -2.247E+01
    -2.246E+01   -2.244E+01   -2.243E+01   -2.242E+01   -2.240E+01   -2.239E+01   -2.237E+01   -2.236E+01   -2.234E+01   -2.233E+01
    -2.231E+01   -2.230E+01   -2.228E+01   -2.227E+01   -2.225E+01   -2.224E+01   -2.222E+01   -2.221E+01   -2.219E+01   -2.218E+01
    -2.216E+01   -2.214E+01   -2.213E+01   -2.211E+01   -2.209E+01   -2.208E+01   -2.206E+01   -2.204E+01   -2.203E+01   -2.201E+01
    -2.199E+01   -2.198E+01   -2.196E+01   -2.194E+01   -2.192E+01   -2.191E+01   -2.189E+01   -2.187E+01   -2.185E+01   -2.183E+01
    -2.181E+01   -2.180E+01   -2.178E+01   -2.176E+01   -2.174E+01   -2.172E+01   -2.170E+01   -2.168E+01   -2.166E+01   -2.164E+01
    -2.162E+01   -2.160E+01   -2.158E+01   -2.156E+01   -2.154E+01   -2.152E+01   -2.150E+01   -2.148E+01   -2.146E+01   -2.144E+01
    -2.142E+01   -2.140E+01   -2.137E+01   -2.135E+01   -2.133E+01   -2.131E+01   -2.129E+01   -2.126E+01   -2.124E+01   -2.122E+01
    -2.120E+01   -2.117E+01   -2.115E+01   -2.113E+01   -2.110E+01   -2.108E+01   -2.106E+01   -2.103E+01   -2.101E+01   -2.099E+01
    -2.096E+01   -2.094E+01   -2.091E+01   -2.089E+01   -2.086E+01   -2.084E+01   -2.081E+01   -2.079E+01   -2.076E+01   -2.074E+01
    -2.071E+01   -2.069E+01   -2.066E+01   -2.063E+01   -2.061E+01   -2.058E+01   -2.056E+01   -2.053E+01   -2.050E+01   -2.048E+01
    -2.045E+01   -2.042E+01   -2.039E+01   -2.037E+01   -2.034E+01   -2.031E+01   -2.029E+01   -2.026E+01   -2.023E+01   -2.020E+01
    -2.017E+01   -2.015E+01   -2.012E+01   -2.009E+01   -2.006E+01   -2.003E+01   -2.000E+01   -1.998E+01   -1.995E+01   -1.992E+01
    -1.989E+01   -1.986E+01   -1.983E+01   -1.980E+01   -1.977E+01   -1.974E+01   -1.971E+01   -1.968E+01   -1.965E+01   -1.962E+01
    -1.959E+01   -1.956E+01   -1.953E+01   -1.950E+01   -1.947E+01   -1.944E+01   -1.941E+01   -1.938E+01   -1.935E+01   -1.932E+01
    -1.929E+01   -1.926E+01   -1.923E+01   -1.920E+01   -1.917E+01   -1.914E+01   -1.911E+01   -1.907E+01   -1.904E+01   -1.901E+01
    -1.898E+01   -1.895E+01   -1.892E+01   -1.889E+01   -1.885E+01   -1.882E+01   -1.879E+01   -1.876E+01   -1.873E+01   -1.869E+01
    -1.866E+01   -1.863E+01   -1.860E+01   -1.856E+01   -1.853E+01   -1.850E+01   -1.847E+01   -1.843E+01   -1.840E+01   -1.837E+01
    -1.833E+01   -1.830E+01   -1.827E+01   -1.824E+01   -1.820E+01   -1.817E+01   -1.813E+01   -1.810E+01   -1.807E+01   -1.803E+01
    -1.800E+01   -1.797E+01   -1.793E+01   -1.790E+01   -1.786E+01   -1.783E+01   -1.779E+01   -1.776E+01   -1.772E+01   -1.769E+01
    -1.765E+01   -1.762E+01   -1.758E+01   -1.755E+01   -1.751E+01   -1.748E+01   -1.744E+01   -1.741E+01   -1.737E+01   -1.733E+01
    -1.730E+01   -1.726E+01   -1.723E+01   -1.719E+01   -1.715E+01   -1.712E+01   -1.708E+01   -1.704E+01   -1.700E+01   -1.697E+01
    -1.693E+01   -1.689E+01   -1.685E+01   -1.682E+01   -1.678E+01   -1.674E+01   -1.670E+01   -1.666E+01   -1.663E+01   -1.659E+01
    -1.655E+01   -1.651E+01   -1.647E+01   -1.643E+01   -1.639E+01   -1.635E+01   -1.631E+01   -1.627E+01   -1.623E+01   -1.619E+01
    -1.615E+01   -1.611E+01   -1.607E+01   -1.603E+01   -1.599E+01   -1.595E+01   -1.591E+01   -1.587E+01   -1.583E+01   -1.579E+01
    -1.575E+01   -1.571E+01   -1.567E+01   -1.563E+01   -1.558E+01   -1.554E+01   -1.550E+01   -1.546E+01   -1.542E+01   -1.538E+01
    -1.533E+01   -1.529E+01   -1.525E+01   -1.521E+01   -1.516E+01   -1.512E+01   -1.508E+01   -1.504E+01   -1.499E+01   -1.495E+01
    -1.491E+01   -1.487E+01   -1.482E+01   -1.478E+01   -1.474E+01   -1.469E+01   -1.465E+01   -1.461E+01   -1.456E+01   -1.452E+01
    -1.447E+01   -1.443E+01   -1.439E+01   -1.434E+01   -1.430E+01   -1.425E+01   -1.421E+01   -1.417E+01   -1.412E+01   -1.408E+01
    -1.403E+01   -1.399E+01   -1.394E+01   -1.390E+01   -1.385E+01   -1.381E+01   -1.376E+01   -1.372E+01   -1.367E+01   -1.363E+01
    -1.358E+01   -1.354E+01   -1.349E+01   -1.345E+01   -1.340E+01   -1.336E+01   -1.331E+01   -1.327E+01   -1.322E+01   -1.318E+01
    -1.313E+01   -1.308E+01   -1.304E+01   -1.299E+01   -1.295E+01   -1.290E+01   -1.286E+01   -1.281E+01   -1.276E+01   -1.272E+01
    -1.267E+01   -1.263E+01   -1.258E+01   -1.253E+01   -1.249E+01   -1.244E+01   -1.239E+01   -1.235E+01   -1.230E+01   -1.226E+01
    -1.221E+01   -1.216E+01   -1.212E+01   -1.207E+01   -1.202E+01   -1.198E+01   -1.193E+01   -1.188E+01   -1.184E+01   -1.179E+01
    -1.174E+01   -1.170E+01   -1.165E+01   -1.161E+01   -1.156E+01   -1.151E+01   -1.147E+01   -1.142E+01   -1.137E+01   -1.133E+01
    -1.128E+01   -1.123E+01   -1.119E+01   -1.114E+01   -1.109E+01   -1.105E+01   -1.100E+01   -1.095E+01   -1.091E+01   -1.086E+01
    -1.081E+01   -1.077E+01   -1.072E+01   -1.068E+01   -1.063E+01   -1.058E+01   -1.054E+01   -1.049E+01   -1.044E+01   -1.040E+01
    -1.035E+01   -1.030E+01   -1.026E+01   -1.021E+01   -1.017E+01   -1.012E+01   -1.007E+01   -1.003E+01   -9.980E+00   -9.934E+00
    -9.887E+00   -9.841E+00   -9.795E+00   -9.749E+00   -9.702E+00   -9.656E+00   -9.610E+00   -9.564E+00   -9.517E+00   -9.471E+00
    -9.425E+00   -9.379E+00   -9.332E+00   -9.286E+00   -9.240E+00   -9.194E+00   -9.148E+00   -9.102E+00
 Cr       Conc. = 2.30E+03
