 LCModel (Version 6.3-1L) Copyright: S.W. Provencher.          Ref.: Magn. Reson. Med. 30:672-679 (1993).                
 Slice#3 Row#5 Col#11  PD_24_press_2_raw_act
 36 lines in following concentration table = NCONC+1
    Conc.  %SD /Cr+PCr  Metabolite                                         
  120.058 109%   0.248 Ala                                                 
  115.566 119%   0.239 Asp                                                 
  399.926  64%   0.826 Cr                                                  
   84.107 304%   0.174 PCr                                                 
   12.164 703% 2.5E-02 GABA                                                
   77.728 110%   0.161 Glc                                                 
  269.519  99%   0.557 Gln                                                 
 1.14E+03  28%   2.347 Glu                                                 
    0.000 999%   0.000 GPC                                                 
  171.650  14%   0.355 PCh                                                 
   76.847 107%   0.159 GSH                                                 
  513.033  53%   1.060 Ins                                                 
  203.441  70%   0.420 Lac                                                 
 1.23E+03  12%   2.549 NAA                                                 
  130.654 119%   0.270 NAAG                                                
   61.323  37%   0.127 Scyllo                                              
  211.735  62%   0.437 Tau                                                 
  474.228  20%   0.980 -CrCH2                                              
  171.650  14%   0.355 GPC+PCh                                             
 1.36E+03   7%   2.819 NAA+NAAG                                            
  484.033  13%   1.000 Cr+PCr                                              
 1.41E+03  33%   2.903 Glu+Gln                                             
  925.556  41%   1.912 Lip13a                                              
    0.000 999%   0.000 Lip13b                                              
    0.000 999%   0.000 Lip09                                               
 2.33E+03   9%   4.808 MM09                                                
  173.527  93%   0.359 Lip20                                               
 3.82E+03  11%   7.889 MM20                                                
  825.932  18%   1.706 MM12                                                
 2.50E+03  17%   5.165 MM14                                                
 1.58E+03  22%   3.271 MM17                                                
  925.556  41%   1.912 Lip13a+Lip13b                                       
 4.25E+03  11%   8.783 MM14+Lip13a+Lip13b+MM12                             
 2.33E+03   9%   4.808 MM09+Lip09                                          
 3.99E+03  10%   8.248 MM20+Lip20                                          
   6 lines in following misc. output table
  FWHM = 0.046 ppm    S/N =   7                                            
  Data shift = 0.023 ppm                                                   
  Ph: -65 deg     -22.9 deg/ppm                                            
  alphaB,S = 8.5E+01,   7.1E+01                                            
   14 spline knots.   Ns = 8(1)                                            
   3 inflections.     1 extrema                                            
  498 points on ppm-axis = NY
      4.000000     3.992357     3.984714     3.977070     3.969427     3.961784     3.954141     3.946497     3.938854     3.931211
      3.923568     3.915925     3.908281     3.900638     3.892995     3.885352     3.877708     3.870065     3.862422     3.854779
      3.847136     3.839492     3.831849     3.824206     3.816563     3.808919     3.801276     3.793633     3.785990     3.778347
      3.770703     3.763060     3.755417     3.747774     3.740130     3.732487     3.724844     3.717201     3.709558     3.701914
      3.694271     3.686628     3.678985     3.671341     3.663698     3.656055     3.648412     3.640769     3.633125     3.625482
      3.617839     3.610196     3.602552     3.594909     3.587266     3.579623     3.571980     3.564336     3.556693     3.549050
      3.541407     3.533763     3.526120     3.518477     3.510834     3.503191     3.495547     3.487904     3.480261     3.472618
      3.464974     3.457331     3.449688     3.442045     3.434402     3.426758     3.419115     3.411472     3.403829     3.396185
      3.388542     3.380899     3.373256     3.365613     3.357969     3.350326     3.342683     3.335040     3.327396     3.319753
      3.312110     3.304467     3.296824     3.289180     3.281537     3.273894     3.266251     3.258607     3.250964     3.243321
      3.235678     3.228034     3.220391     3.212748     3.205105     3.197462     3.189818     3.182175     3.174532     3.166889
      3.159245     3.151602     3.143959     3.136316     3.128673     3.121029     3.113386     3.105743     3.098100     3.090456
      3.082813     3.075170     3.067527     3.059884     3.052240     3.044597     3.036954     3.029311     3.021667     3.014024
      3.006381     2.998738     2.991095     2.983451     2.975808     2.968165     2.960522     2.952878     2.945235     2.937592
      2.929949     2.922306     2.914662     2.907019     2.899376     2.891733     2.884089     2.876446     2.868803     2.861160
      2.853517     2.845873     2.838230     2.830587     2.822944     2.815300     2.807657     2.800014     2.792371     2.784728
      2.777084     2.769441     2.761798     2.754155     2.746511     2.738868     2.731225     2.723582     2.715939     2.708295
      2.700652     2.693009     2.685366     2.677722     2.670079     2.662436     2.654793     2.647150     2.639506     2.631863
      2.624220     2.616577     2.608933     2.601290     2.593647     2.586004     2.578361     2.570717     2.563074     2.555431
      2.547788     2.540144     2.532501     2.524858     2.517215     2.509572     2.501928     2.494285     2.486642     2.478999
      2.471355     2.463712     2.456069     2.448426     2.440783     2.433139     2.425496     2.417853     2.410210     2.402566
      2.394923     2.387280     2.379637     2.371994     2.364350     2.356707     2.349064     2.341421     2.333777     2.326134
      2.318491     2.310848     2.303205     2.295561     2.287918     2.280275     2.272632     2.264988     2.257345     2.249702
      2.242059     2.234416     2.226772     2.219129     2.211486     2.203843     2.196199     2.188556     2.180913     2.173270
      2.165627     2.157983     2.150340     2.142697     2.135054     2.127410     2.119767     2.112124     2.104481     2.096838
      2.089194     2.081551     2.073908     2.066265     2.058621     2.050978     2.043335     2.035692     2.028049     2.020405
      2.012762     2.005119     1.997476     1.989833     1.982190     1.974546     1.966903     1.959260     1.951617     1.943974
      1.936331     1.928688     1.921045     1.913402     1.905759     1.898115     1.890472     1.882829     1.875186     1.867543
      1.859900     1.852257     1.844614     1.836971     1.829327     1.821684     1.814041     1.806398     1.798755     1.791112
      1.783469     1.775826     1.768183     1.760540     1.752896     1.745253     1.737610     1.729967     1.722324     1.714681
      1.707038     1.699395     1.691752     1.684108     1.676465     1.668822     1.661179     1.653536     1.645893     1.638250
      1.630607     1.622964     1.615321     1.607677     1.600034     1.592391     1.584748     1.577105     1.569462     1.561819
      1.554176     1.546533     1.538890     1.531246     1.523603     1.515960     1.508317     1.500674     1.493031     1.485388
      1.477745     1.470102     1.462458     1.454815     1.447172     1.439529     1.431886     1.424243     1.416600     1.408957
      1.401314     1.393671     1.386027     1.378384     1.370741     1.363098     1.355455     1.347812     1.340169     1.332526
      1.324883     1.317240     1.309596     1.301953     1.294310     1.286667     1.279024     1.271381     1.263738     1.256095
      1.248452     1.240808     1.233165     1.225522     1.217879     1.210236     1.202593     1.194950     1.187307     1.179664
      1.172021     1.164377     1.156734     1.149091     1.141448     1.133805     1.126162     1.118519     1.110876     1.103233
      1.095590     1.087946     1.080303     1.072660     1.065017     1.057374     1.049731     1.042088     1.034445     1.026802
      1.019158     1.011515     1.003872     0.996229     0.988586     0.980943     0.973300     0.965657     0.958014     0.950371
      0.942727     0.935084     0.927441     0.919798     0.912155     0.904512     0.896869     0.889226     0.881583     0.873940
      0.866296     0.858653     0.851010     0.843367     0.835724     0.828081     0.820438     0.812795     0.805152     0.797508
      0.789865     0.782222     0.774579     0.766936     0.759293     0.751650     0.744007     0.736364     0.728721     0.721077
      0.713434     0.705791     0.698148     0.690505     0.682862     0.675219     0.667576     0.659933     0.652290     0.644646
      0.637003     0.629360     0.621717     0.614074     0.606431     0.598788     0.591145     0.583502     0.575858     0.568215
      0.560572     0.552929     0.545286     0.537643     0.530000     0.522357     0.514714     0.507071     0.499427     0.491784
      0.484141     0.476498     0.468855     0.461212     0.453569     0.445925     0.438282     0.430639     0.422996     0.415353
      0.407710     0.400067     0.392424     0.384780     0.377137     0.369494     0.361851     0.354208     0.346565     0.338922
      0.331278     0.323635     0.315992     0.308349     0.300706     0.293063     0.285420     0.277777     0.270133     0.262490
      0.254847     0.247204     0.239561     0.231918     0.224275     0.216631     0.208988     0.201345
 NY phased data points follow
   4.50882E+00  1.60393E+00  4.50583E+00 -1.85981E+00  6.01413E+00  1.70748E+00  9.71000E-02  3.75107E+00 -2.30564E+00  1.24668E+00
   6.87504E+00  7.81077E+00  6.15121E+00  6.61791E+00  1.27688E+01  1.18885E+00  1.23979E+01 -6.48492E-01  6.70620E+00 -6.84358E-01
   1.21429E+01  7.91093E+00  7.13090E+00  5.79216E+00  8.88743E+00  8.02964E+00  1.75356E+00  2.79704E+00  3.34493E+00  2.24329E+00
   8.51760E+00  1.02244E+01  9.40300E+00  1.46258E+01  8.51609E+00  7.59124E+00  7.53468E+00  4.20172E+00  5.12987E+00  3.20658E+00
   1.22560E+01  4.20826E+00  1.08260E+01  3.12166E+00  8.73335E+00  7.58990E+00  5.68087E+00  1.18581E+01  1.53501E+01  6.13061E+00
   1.47968E+01  7.99215E+00  9.31328E+00  3.43705E+00  1.14051E+01  6.84293E+00  9.13438E+00  6.46766E+00  9.60954E+00  1.63266E+00
   1.19877E+01  3.83721E+00  4.76127E+00  4.31164E+00  9.57928E+00  6.76951E+00  1.32787E+01  4.79624E+00  4.99718E+00  1.24250E+00
   1.03096E+01  8.05783E+00  1.18769E+01  5.13587E+00  1.09340E+01  5.55354E+00  8.00338E+00  1.09677E+01  1.20708E+01  1.09277E+01
   7.53185E+00  8.13647E+00  6.24235E+00  3.07436E+00  1.05775E+01  1.29865E+01  1.42881E+01  5.56100E+00  9.31501E+00  8.01246E+00
   1.08079E+01  1.13022E+01  9.44273E+00  4.60990E+00  1.05689E+01  1.07891E+01  1.04393E+01  1.16487E+01  7.13683E+00  1.06284E+01
   9.26818E+00  1.60660E+01  2.76010E+01  2.23378E+01  2.51921E+01  2.00828E+01  1.34744E+01  1.02294E+01  6.64262E+00  4.73653E+00
   1.16671E+01  1.02388E+01  9.26572E+00  4.75217E+00  4.19525E+00  6.60437E+00  8.88828E+00  1.16181E+01  1.16921E+01  1.16782E+01
   1.05162E+01  1.29914E+01  1.33810E+01  7.12830E+00  1.24716E+01  1.90209E+01  2.50689E+01  2.39968E+01  2.15928E+01  2.54308E+01
   2.17334E+01  1.45070E+01  1.19491E+01  1.10390E+01  9.65729E+00  2.47200E+00  8.38153E+00  4.86902E+00  7.93296E+00  7.61087E-01
   7.76957E+00  7.87458E+00  5.68720E+00  2.62684E+00  1.04137E+01  1.15796E+00  1.28408E+00  4.77812E+00  4.77923E+00  5.20982E+00
   6.98551E+00 -8.04437E-01  9.90270E+00  4.69981E+00  1.47558E+00  5.38907E+00  5.65703E+00  1.27953E+01  7.83968E+00  3.88298E+00
   6.17097E+00  2.17835E+00  5.02757E+00 -2.51485E+00 -1.64849E-01 -3.52841E+00  1.52078E+00  5.79663E+00  1.42923E+00  2.86436E+00
   2.50773E+00 -2.69163E+00  8.96113E-01  6.87716E-01  3.23081E-01 -8.52365E+00  2.61919E+00  3.07077E+00  4.52529E-01  2.04844E+00
   8.18095E+00 -6.53276E-01  1.11964E+01 -1.28912E+00  6.77987E+00  6.20115E+00 -1.80390E+00  5.97279E-01  6.91917E+00  2.24046E+00
   7.29198E+00  5.29442E+00  6.69444E+00  3.05437E+00  1.17566E+01  2.03295E+00  3.58550E+00 -3.39975E+00  1.78721E+00  2.45946E+00
   1.25487E+00  3.99813E+00  9.87324E+00  7.35795E+00  1.06204E+01  2.47898E+00  8.44760E+00  4.61959E+00  8.82973E+00  4.21070E+00
   1.03684E+01  6.84787E+00  1.03037E+01  5.10741E+00  1.83075E+01  1.41686E+01  1.46570E+01  1.32532E+01  1.52523E+01  5.25906E+00
   8.34611E+00  1.13228E+01  3.29258E+00  2.78097E+00  8.74193E+00  6.50049E+00  1.35872E+01  1.00554E+01  1.56125E+01  1.30916E+01
   1.07336E+01  9.87921E+00  1.44354E+01  1.17440E+01  2.03832E+01  1.17636E+01  1.59693E+01  1.41736E+01  1.16853E+01  7.08705E+00
   8.91082E+00  2.67433E+00  9.74868E+00  9.53442E+00  1.19539E+01  7.46682E+00  1.71295E+01  1.13714E+01  1.60840E+01  1.72288E+01
   1.45746E+01  1.01229E+01  1.40765E+01  1.90367E+01  1.84496E+01  2.78916E+01  3.33968E+01  3.81751E+01  3.89300E+01  4.79412E+01
   5.45931E+01  6.03128E+01  5.57351E+01  4.59773E+01  3.91107E+01  3.30663E+01  2.98126E+01  2.46603E+01  1.40654E+01  2.05537E+01
   2.09655E+01  2.00381E+01  1.90051E+01  1.43732E+01  1.24821E+01  8.61298E+00  1.61929E+01  9.04634E+00  5.27702E+00  7.80548E+00
   9.08637E+00  9.52400E+00  8.59424E+00  5.41042E+00  8.01270E+00  9.83796E+00  6.17052E+00  8.68042E+00  1.02203E+01  9.72004E+00
   1.44105E+01  1.03547E+01  1.27367E+01  5.24728E+00  1.03656E+01  1.09704E+01  5.97878E+00  5.59017E+00  8.30957E+00  1.15974E+01
   9.36501E+00  4.13573E+00  9.19694E+00  5.66791E+00  1.18412E+01  8.82345E+00  1.25708E+01  1.79270E+01  1.39496E+01  1.78908E+01
   2.22417E+01  2.00330E+01  1.74987E+01  2.04389E+01  1.84958E+01  1.68468E+01  2.26237E+01  2.63424E+01  2.41203E+01  2.19888E+01
   1.85797E+01  2.56490E+01  2.35295E+01  1.67590E+01  2.76813E+01  1.99849E+01  2.29933E+01  2.33059E+01  2.15553E+01  2.51117E+01
   1.79396E+01  1.15473E+01  1.68023E+01  1.62518E+01  1.20001E+01  1.04542E+01  1.91121E+01  1.68065E+01  1.58452E+01  9.20152E+00
   7.98192E+00  2.73231E+00  1.39540E+01  7.39527E+00  1.21097E+01  9.15512E+00  2.14619E+01  1.29978E+01  1.47360E+01  1.36222E+01
   9.96057E+00  7.82372E+00  8.96664E+00  3.96542E+00  7.41080E+00  1.17647E+01  7.28378E+00  9.44341E+00  7.99888E+00  1.03812E+01
   9.66922E+00  1.28094E+01  1.44203E+01  1.04281E+01  1.03560E+01  1.14383E+01  1.29541E+01  1.73198E+01  1.94088E+01  9.22489E+00
   1.33151E+01  1.42867E+01  7.06605E+00  1.23358E+01  1.10581E+01  8.73040E+00  8.20211E+00  1.50227E+01  1.21023E+01  5.90943E+00
   1.37741E+01  8.32002E+00  1.11262E+01  1.19578E+01  7.84920E+00  3.47875E+00  1.16925E+01  1.10509E+01  8.75100E+00  1.12811E+01
   1.03895E+01  1.50617E+01  1.18084E+01  6.50190E+00  1.37772E+01  1.35816E+01  1.07394E+01  1.34681E+01  9.27615E+00  8.69851E+00
   1.75390E+01  1.12892E+01  1.85792E+01  8.14082E+00  1.47815E+01  1.69579E+01  1.57640E+01  1.39742E+01  1.57191E+01  1.66322E+01
   1.08643E+01  1.04789E+01  1.43307E+01  1.50520E+01  1.07084E+01  1.51679E+01  7.48843E+00  9.05549E+00  5.56987E+00  5.98196E+00
   8.13365E+00  4.11845E+00  2.90701E+00  7.11180E+00  6.39590E+00  4.77672E+00 -3.17020E-01  1.51502E+00  5.26197E+00  6.51790E+00
   5.27184E+00  2.05194E+00  7.34224E+00  4.34309E+00  2.42361E+00  5.40406E+00  5.71651E+00  1.97573E-01  2.57088E+00  5.59015E+00
  -3.47985E+00  1.42010E+00  1.39545E+00 -3.17578E+00  2.41149E+00  9.40699E-01  6.40909E-01 -4.91952E-01  1.17770E-01  2.42892E+00
   4.62837E+00 -5.48008E-01 -3.98528E+00 -2.56357E+00  1.41569E+00  1.29481E+00  3.84541E-02  3.57199E+00  4.45140E+00 -1.05638E+00
  -1.15424E+00  7.99438E-01 -1.62777E+00 -2.01559E+00 -2.44626E+00 -4.96911E+00 -4.08347E-01 -1.45306E+00  8.14369E-01 -4.45398E+00
   5.59121E+00 -6.75707E+00 -6.45169E+00  2.77441E+00 -2.18439E+00 -1.52221E+00 -2.08263E+00 -1.68545E+00  1.62659E+00 -3.34064E+00
   3.61511E+00 -7.89730E+00 -9.75867E-01  3.94900E+00  2.73483E+00 -1.67243E+00 -4.66234E+00  3.43585E+00  8.78706E-01 -1.33954E+00
   3.66163E+00 -7.02769E-01  2.40740E+00 -1.48890E+00 -4.85014E+00 -5.14793E-01 -2.12753E+00 -1.08402E+00
 NY points of the fit to the data follow
   7.18819E+00  6.71383E+00  6.20657E+00  5.74702E+00  5.29038E+00  4.63793E+00  3.65011E+00  2.58058E+00  2.19862E+00  3.18155E+00
   5.33386E+00  7.70467E+00  9.35191E+00  9.89090E+00  9.52847E+00  8.79225E+00  8.11247E+00  7.72975E+00  7.58237E+00  7.35575E+00
   7.10774E+00  7.13175E+00  7.38860E+00  7.64712E+00  7.76343E+00  7.61291E+00  7.22637E+00  6.83630E+00  6.76616E+00  7.22244E+00
   8.17976E+00  9.37652E+00  1.03948E+01  1.08225E+01  1.04722E+01  9.48658E+00  8.25039E+00  7.16379E+00  6.45507E+00  6.19162E+00
   6.28367E+00  6.51292E+00  6.76202E+00  7.05540E+00  7.52295E+00  8.22561E+00  9.04761E+00  9.70306E+00  9.87012E+00  9.44122E+00
   8.63184E+00  7.74039E+00  7.00314E+00  6.53055E+00  6.30874E+00  6.24277E+00  6.26474E+00  6.40081E+00  6.69406E+00  7.07105E+00
   7.37311E+00  7.48329E+00  7.39276E+00  7.16710E+00  6.91782E+00  6.74112E+00  6.67980E+00  6.71444E+00  6.78941E+00  6.88551E+00
   7.01996E+00  7.19031E+00  7.39415E+00  7.61291E+00  7.81002E+00  7.90008E+00  7.80882E+00  7.54472E+00  7.19215E+00  6.90967E+00
   6.80560E+00  6.89707E+00  7.20004E+00  7.71285E+00  8.35744E+00  8.94492E+00  9.21938E+00  9.01358E+00  8.41953E+00  7.69086E+00
   7.05696E+00  6.61398E+00  6.33510E+00  6.15634E+00  6.08213E+00  6.24705E+00  6.84125E+00  7.88148E+00  9.26613E+00  1.11894E+01
   1.39738E+01  1.74864E+01  2.07392E+01  2.24669E+01  2.20918E+01  1.99719E+01  1.70241E+01  1.41662E+01  1.18868E+01  1.02438E+01
   9.03074E+00  7.97136E+00  7.02203E+00  6.62222E+00  6.53804E+00  6.52635E+00  6.55206E+00  6.60120E+00  6.72686E+00  7.04873E+00
   7.64437E+00  8.53188E+00  9.75926E+00  1.15844E+01  1.43296E+01  1.78790E+01  2.12759E+01  2.32370E+01  2.31133E+01  2.11951E+01
   1.83537E+01  1.55165E+01  1.32059E+01  1.14560E+01  1.00731E+01  8.81452E+00  7.62692E+00  6.98017E+00  6.75563E+00  6.68329E+00
   6.67081E+00  6.65840E+00  6.61536E+00  6.54644E+00  6.47032E+00  6.37836E+00  6.25639E+00  6.10249E+00  5.92307E+00  5.73528E+00
   5.55932E+00  5.40022E+00  5.25546E+00  5.11190E+00  4.97212E+00  4.84454E+00  4.73260E+00  4.60881E+00  4.41670E+00  4.12740E+00
   3.79092E+00  3.53075E+00  3.45581E+00  3.57251E+00  3.76579E+00  3.87607E+00  3.81708E+00  3.60499E+00  3.31670E+00  3.04133E+00
   2.83215E+00  2.66071E+00  2.47436E+00  2.23495E+00  1.93518E+00  1.67729E+00  1.57598E+00  1.65033E+00  1.81467E+00  1.93421E+00
   1.94835E+00  1.92406E+00  1.97073E+00  2.12254E+00  2.32941E+00  2.54144E+00  2.76632E+00  3.07298E+00  3.54682E+00  4.13729E+00
   4.70719E+00  5.10191E+00  5.25731E+00  5.24933E+00  5.19165E+00  5.16043E+00  5.17075E+00  5.19770E+00  5.26730E+00  5.45987E+00
   5.80619E+00  6.29524E+00  6.85202E+00  7.31824E+00  7.50069E+00  7.25897E+00  6.55672E+00  5.51531E+00  4.37725E+00  3.47267E+00
   3.11656E+00  3.46965E+00  4.57406E+00  6.30493E+00  8.26950E+00  9.80734E+00  1.03530E+01  9.70600E+00  8.08960E+00  5.91151E+00
   3.62118E+00  1.86544E+00  1.22988E+00  1.85519E+00  3.43582E+00  5.45587E+00  7.52826E+00  9.19972E+00  1.02894E+01  1.08739E+01
   1.11471E+01  1.13094E+01  1.14099E+01  1.14857E+01  1.16536E+01  1.19544E+01  1.23194E+01  1.26988E+01  1.30192E+01  1.32245E+01
   1.33150E+01  1.33375E+01  1.34288E+01  1.37266E+01  1.42412E+01  1.48777E+01  1.54807E+01  1.59421E+01  1.62518E+01  1.64990E+01
   1.68171E+01  1.74007E+01  1.85289E+01  2.04512E+01  2.31689E+01  2.63909E+01  3.00188E+01  3.47479E+01  4.13976E+01  4.93085E+01
   5.57943E+01  5.80553E+01  5.52288E+01  4.85588E+01  4.03184E+01  3.26035E+01  2.65133E+01  2.19825E+01  1.84006E+01  1.51449E+01
   1.24765E+01  1.12359E+01  1.06476E+01  1.02726E+01  9.99647E+00  9.72015E+00  9.39455E+00  9.03535E+00  8.66015E+00  8.29306E+00
   7.95898E+00  7.67086E+00  7.42471E+00  7.21933E+00  7.05469E+00  6.92225E+00  6.81508E+00  6.73129E+00  6.67667E+00  6.66084E+00
   6.68899E+00  6.76300E+00  6.88545E+00  7.05632E+00  7.27547E+00  7.54207E+00  7.85858E+00  8.22840E+00  8.65445E+00  9.14007E+00
   9.68674E+00  1.02916E+01  1.09506E+01  1.16566E+01  1.24000E+01  1.31709E+01  1.39593E+01  1.47554E+01  1.55484E+01  1.63265E+01
   1.70786E+01  1.77945E+01  1.84647E+01  1.90815E+01  1.96386E+01  2.01313E+01  2.05569E+01  2.09153E+01  2.12102E+01  2.14506E+01
   2.16387E+01  2.17677E+01  2.18349E+01  2.18507E+01  2.18154E+01  2.16735E+01  2.13069E+01  2.06284E+01  1.96810E+01  1.86078E+01
   1.75598E+01  1.66468E+01  1.59454E+01  1.55077E+01  1.53269E+01  1.52896E+01  1.52365E+01  1.50858E+01  1.47903E+01  1.43669E+01
   1.39238E+01  1.35317E+01  1.32179E+01  1.29908E+01  1.28411E+01  1.27438E+01  1.25842E+01  1.21280E+01  1.12975E+01  1.02419E+01
   9.21333E+00  8.43769E+00  8.08772E+00  8.26359E+00  8.94390E+00  9.92177E+00  1.08825E+01  1.16170E+01  1.20816E+01  1.22298E+01
   1.21660E+01  1.20165E+01  1.18441E+01  1.16586E+01  1.14166E+01  1.11211E+01  1.08670E+01  1.06361E+01  1.04071E+01  1.01744E+01
   9.93813E+00  9.70093E+00  9.46692E+00  9.24102E+00  9.02857E+00  8.83520E+00  8.66640E+00  8.52750E+00  8.42338E+00  8.35853E+00
   8.33690E+00  8.36185E+00  8.43602E+00  8.56128E+00  8.73863E+00  8.96825E+00  9.24931E+00  9.57994E+00  9.95707E+00  1.03764E+01
   1.08323E+01  1.13179E+01  1.18252E+01  1.23446E+01  1.28659E+01  1.33777E+01  1.38681E+01  1.43252E+01  1.47371E+01  1.50923E+01
   1.53807E+01  1.55932E+01  1.57229E+01  1.57647E+01  1.57160E+01  1.55765E+01  1.53483E+01  1.50358E+01  1.46456E+01  1.41857E+01
   1.36660E+01  1.30968E+01  1.24893E+01  1.18546E+01  1.12036E+01  1.05466E+01  9.89263E+00  9.25001E+00  8.62557E+00  8.02491E+00
   7.45232E+00  6.91086E+00  6.40238E+00  5.92782E+00  5.48722E+00  5.07999E+00  4.70494E+00  4.36051E+00  4.04481E+00  3.75587E+00
   3.49158E+00  3.24993E+00  3.02885E+00  2.82644E+00  2.64083E+00  2.47039E+00  2.31357E+00  2.16901E+00  2.03542E+00  1.91169E+00
   1.79678E+00  1.68982E+00  1.59002E+00  1.49671E+00  1.40919E+00  1.32694E+00  1.24942E+00  1.17625E+00  1.10703E+00  1.04141E+00
   9.79052E-01  9.19692E-01  8.63057E-01  8.08984E-01  7.57235E-01  7.07655E-01  6.60024E-01  6.14233E-01  5.70123E-01  5.27624E-01
   4.86580E-01  4.46912E-01  4.08478E-01  3.71245E-01  3.35111E-01  3.00052E-01  2.65949E-01  2.32764E-01  2.00399E-01  1.68859E-01
   1.38071E-01  1.08031E-01  7.86418E-02  4.98964E-02  2.17239E-02 -5.84799E-03 -3.28851E-02 -5.93825E-02 -8.54279E-02 -1.11007E-01
  -1.36174E-01 -1.60889E-01 -1.85215E-01 -2.09141E-01 -2.32744E-01 -2.55992E-01 -2.78926E-01 -3.01505E-01 -3.23795E-01 -3.45778E-01
  -3.67521E-01 -3.88977E-01 -4.10185E-01 -4.31100E-01 -4.51790E-01 -4.72231E-01 -4.92478E-01 -5.12470E-01
 NY background values follow
     5.676E+00    5.663E+00    5.650E+00    5.637E+00    5.623E+00    5.610E+00    5.597E+00    5.584E+00    5.570E+00    5.557E+00
     5.544E+00    5.531E+00    5.517E+00    5.504E+00    5.491E+00    5.478E+00    5.464E+00    5.451E+00    5.438E+00    5.424E+00
     5.411E+00    5.398E+00    5.385E+00    5.371E+00    5.358E+00    5.345E+00    5.332E+00    5.318E+00    5.305E+00    5.292E+00
     5.279E+00    5.265E+00    5.252E+00    5.239E+00    5.225E+00    5.212E+00    5.199E+00    5.186E+00    5.172E+00    5.159E+00
     5.146E+00    5.133E+00    5.119E+00    5.106E+00    5.093E+00    5.080E+00    5.066E+00    5.053E+00    5.040E+00    5.027E+00
     5.013E+00    5.000E+00    4.987E+00    4.973E+00    4.960E+00    4.947E+00    4.934E+00    4.920E+00    4.907E+00    4.894E+00
     4.881E+00    4.867E+00    4.854E+00    4.841E+00    4.828E+00    4.814E+00    4.801E+00    4.788E+00    4.775E+00    4.761E+00
     4.748E+00    4.735E+00    4.721E+00    4.708E+00    4.695E+00    4.682E+00    4.668E+00    4.655E+00    4.642E+00    4.629E+00
     4.615E+00    4.602E+00    4.589E+00    4.576E+00    4.562E+00    4.549E+00    4.536E+00    4.522E+00    4.509E+00    4.496E+00
     4.483E+00    4.469E+00    4.456E+00    4.443E+00    4.430E+00    4.416E+00    4.403E+00    4.390E+00    4.377E+00    4.363E+00
     4.350E+00    4.337E+00    4.324E+00    4.310E+00    4.297E+00    4.284E+00    4.270E+00    4.257E+00    4.244E+00    4.231E+00
     4.217E+00    4.204E+00    4.191E+00    4.178E+00    4.164E+00    4.151E+00    4.138E+00    4.125E+00    4.111E+00    4.098E+00
     4.085E+00    4.071E+00    4.058E+00    4.045E+00    4.032E+00    4.018E+00    4.005E+00    3.992E+00    3.979E+00    3.965E+00
     3.952E+00    3.939E+00    3.926E+00    3.912E+00    3.899E+00    3.886E+00    3.872E+00    3.859E+00    3.846E+00    3.833E+00
     3.819E+00    3.806E+00    3.793E+00    3.780E+00    3.766E+00    3.753E+00    3.740E+00    3.727E+00    3.713E+00    3.700E+00
     3.687E+00    3.673E+00    3.660E+00    3.647E+00    3.634E+00    3.620E+00    3.607E+00    3.594E+00    3.581E+00    3.567E+00
     3.554E+00    3.541E+00    3.527E+00    3.514E+00    3.501E+00    3.488E+00    3.474E+00    3.461E+00    3.448E+00    3.435E+00
     3.421E+00    3.408E+00    3.395E+00    3.382E+00    3.368E+00    3.355E+00    3.342E+00    3.328E+00    3.315E+00    3.302E+00
     3.289E+00    3.275E+00    3.262E+00    3.249E+00    3.236E+00    3.222E+00    3.209E+00    3.196E+00    3.183E+00    3.169E+00
     3.156E+00    3.143E+00    3.129E+00    3.116E+00    3.103E+00    3.090E+00    3.076E+00    3.063E+00    3.050E+00    3.037E+00
     3.023E+00    3.010E+00    2.997E+00    2.983E+00    2.970E+00    2.957E+00    2.944E+00    2.930E+00    2.917E+00    2.904E+00
     2.891E+00    2.877E+00    2.864E+00    2.851E+00    2.837E+00    2.824E+00    2.811E+00    2.798E+00    2.784E+00    2.771E+00
     2.758E+00    2.745E+00    2.731E+00    2.718E+00    2.705E+00    2.692E+00    2.678E+00    2.665E+00    2.652E+00    2.638E+00
     2.625E+00    2.612E+00    2.599E+00    2.585E+00    2.572E+00    2.559E+00    2.546E+00    2.532E+00    2.519E+00    2.506E+00
     2.492E+00    2.479E+00    2.466E+00    2.453E+00    2.439E+00    2.426E+00    2.413E+00    2.400E+00    2.386E+00    2.373E+00
     2.360E+00    2.346E+00    2.333E+00    2.320E+00    2.307E+00    2.293E+00    2.280E+00    2.267E+00    2.254E+00    2.240E+00
     2.227E+00    2.214E+00    2.200E+00    2.187E+00    2.174E+00    2.161E+00    2.147E+00    2.134E+00    2.121E+00    2.108E+00
     2.094E+00    2.081E+00    2.068E+00    2.054E+00    2.041E+00    2.028E+00    2.015E+00    2.001E+00    1.988E+00    1.975E+00
     1.961E+00    1.948E+00    1.935E+00    1.922E+00    1.908E+00    1.895E+00    1.882E+00    1.869E+00    1.855E+00    1.842E+00
     1.829E+00    1.815E+00    1.802E+00    1.789E+00    1.776E+00    1.762E+00    1.749E+00    1.736E+00    1.723E+00    1.709E+00
     1.696E+00    1.683E+00    1.669E+00    1.656E+00    1.643E+00    1.630E+00    1.616E+00    1.603E+00    1.590E+00    1.577E+00
     1.563E+00    1.550E+00    1.537E+00    1.523E+00    1.510E+00    1.497E+00    1.484E+00    1.470E+00    1.457E+00    1.444E+00
     1.430E+00    1.417E+00    1.404E+00    1.391E+00    1.377E+00    1.364E+00    1.351E+00    1.338E+00    1.324E+00    1.311E+00
     1.298E+00    1.284E+00    1.271E+00    1.258E+00    1.245E+00    1.231E+00    1.218E+00    1.205E+00    1.191E+00    1.178E+00
     1.165E+00    1.152E+00    1.138E+00    1.125E+00    1.112E+00    1.099E+00    1.085E+00    1.072E+00    1.059E+00    1.045E+00
     1.032E+00    1.019E+00    1.006E+00    9.923E-01    9.790E-01    9.658E-01    9.525E-01    9.392E-01    9.259E-01    9.126E-01
     8.994E-01    8.861E-01    8.728E-01    8.595E-01    8.462E-01    8.330E-01    8.197E-01    8.064E-01    7.931E-01    7.799E-01
     7.666E-01    7.533E-01    7.400E-01    7.267E-01    7.135E-01    7.002E-01    6.869E-01    6.736E-01    6.603E-01    6.471E-01
     6.338E-01    6.205E-01    6.072E-01    5.939E-01    5.807E-01    5.674E-01    5.541E-01    5.408E-01    5.276E-01    5.143E-01
     5.010E-01    4.877E-01    4.744E-01    4.612E-01    4.479E-01    4.346E-01    4.213E-01    4.080E-01    3.948E-01    3.815E-01
     3.682E-01    3.549E-01    3.416E-01    3.284E-01    3.151E-01    3.018E-01    2.885E-01    2.752E-01    2.620E-01    2.487E-01
     2.354E-01    2.221E-01    2.088E-01    1.956E-01    1.823E-01    1.690E-01    1.557E-01    1.424E-01    1.292E-01    1.159E-01
     1.026E-01    8.933E-02    7.605E-02    6.277E-02    4.949E-02    3.621E-02    2.293E-02    9.648E-03   -3.632E-03   -1.691E-02
    -3.019E-02   -4.347E-02   -5.675E-02   -7.003E-02   -8.331E-02   -9.659E-02   -1.099E-01   -1.232E-01   -1.364E-01   -1.497E-01
    -1.630E-01   -1.763E-01   -1.896E-01   -2.028E-01   -2.161E-01   -2.294E-01   -2.427E-01   -2.560E-01   -2.692E-01   -2.825E-01
    -2.958E-01   -3.091E-01   -3.224E-01   -3.356E-01   -3.489E-01   -3.622E-01   -3.755E-01   -3.888E-01   -4.020E-01   -4.153E-01
    -4.286E-01   -4.419E-01   -4.552E-01   -4.684E-01   -4.817E-01   -4.950E-01   -5.083E-01   -5.216E-01   -5.348E-01   -5.481E-01
    -5.614E-01   -5.747E-01   -5.880E-01   -6.012E-01   -6.145E-01   -6.278E-01   -6.411E-01   -6.544E-01   -6.676E-01   -6.809E-01
    -6.942E-01   -7.075E-01   -7.208E-01   -7.340E-01   -7.473E-01   -7.606E-01   -7.739E-01   -7.872E-01   -8.004E-01   -8.137E-01
    -8.270E-01   -8.403E-01   -8.536E-01   -8.668E-01   -8.801E-01   -8.934E-01   -9.067E-01   -9.200E-01
 Ala      Conc. = 1.20E+02
