 LCModel (Version 6.3-1L) Copyright: S.W. Provencher.          Ref.: Magn. Reson. Med. 30:672-679 (1993).                
 Slice#1 Row#2 Col#6  PD_24_press_2_raw_act
 36 lines in following concentration table = NCONC+1
    Conc.  %SD /Cr+PCr  Metabolite                                         
   43.520 425%   0.114 Ala                                                 
   94.565  84%   0.248 Asp                                                 
  332.687  81%   0.872 Cr                                                  
   48.830 560%   0.128 PCr                                                 
   52.485  91%   0.138 GABA                                                
   58.912  82%   0.154 Glc                                                 
    0.000 999%   0.000 Gln                                                 
 1.09E+03  42%   2.845 Glu                                                 
   19.610 999% 5.1E-02 GPC                                                 
  129.421 180%   0.339 PCh                                                 
    0.000 999%   0.000 GSH                                                 
  399.412 107%   1.047 Ins                                                 
    0.000 999%   0.000 Lac                                                 
  515.848  29%   1.352 NAA                                                 
  407.383  40%   1.068 NAAG                                                
   20.851  75% 5.5E-02 Scyllo                                              
   91.050  87%   0.239 Tau                                                 
   33.419 228% 8.8E-02 -CrCH2                                              
  149.031  28%   0.391 GPC+PCh                                             
  923.231  18%   2.420 NAA+NAAG                                            
  381.518  30%   1.000 Cr+PCr                                              
 1.09E+03  42%   2.845 Glu+Gln                                             
  823.747  86%   2.159 Lip13a                                              
    0.000 999%   0.000 Lip13b                                              
  187.348 142%   0.491 Lip09                                               
  730.017  53%   1.913 MM09                                                
   93.601 180%   0.245 Lip20                                               
  585.977 110%   1.536 MM20                                                
  227.163  78%   0.595 MM12                                                
  535.651  93%   1.404 MM14                                                
 2.00E+03  13%   5.249+MM17                                                
  823.747  86%   2.159 Lip13a+Lip13b                                       
 1.59E+03  39%   4.159 MM14+Lip13a+Lip13b+MM12                             
  917.365  36%   2.405 MM09+Lip09                                          
  679.578  91%   1.781 MM20+Lip20                                          
   6 lines in following misc. output table
  FWHM = 0.038 ppm    S/N =   2                                            
  Data shift = 0.015 ppm                                                   
  Ph:-104 deg     -11.1 deg/ppm                                            
  alphaB,S = 8.5E+01,   2.6E+01                                            
   14 spline knots.   Ns = 6(1)                                            
   2 inflections.     2 extrema                                            
  498 points on ppm-axis = NY
      4.000000     3.992357     3.984714     3.977070     3.969427     3.961784     3.954141     3.946497     3.938854     3.931211
      3.923568     3.915925     3.908281     3.900638     3.892995     3.885352     3.877708     3.870065     3.862422     3.854779
      3.847136     3.839492     3.831849     3.824206     3.816563     3.808919     3.801276     3.793633     3.785990     3.778347
      3.770703     3.763060     3.755417     3.747774     3.740130     3.732487     3.724844     3.717201     3.709558     3.701914
      3.694271     3.686628     3.678985     3.671341     3.663698     3.656055     3.648412     3.640769     3.633125     3.625482
      3.617839     3.610196     3.602552     3.594909     3.587266     3.579623     3.571980     3.564336     3.556693     3.549050
      3.541407     3.533763     3.526120     3.518477     3.510834     3.503191     3.495547     3.487904     3.480261     3.472618
      3.464974     3.457331     3.449688     3.442045     3.434402     3.426758     3.419115     3.411472     3.403829     3.396185
      3.388542     3.380899     3.373256     3.365613     3.357969     3.350326     3.342683     3.335040     3.327396     3.319753
      3.312110     3.304467     3.296824     3.289180     3.281537     3.273894     3.266251     3.258607     3.250964     3.243321
      3.235678     3.228034     3.220391     3.212748     3.205105     3.197462     3.189818     3.182175     3.174532     3.166889
      3.159245     3.151602     3.143959     3.136316     3.128673     3.121029     3.113386     3.105743     3.098100     3.090456
      3.082813     3.075170     3.067527     3.059884     3.052240     3.044597     3.036954     3.029311     3.021667     3.014024
      3.006381     2.998738     2.991095     2.983451     2.975808     2.968165     2.960522     2.952878     2.945235     2.937592
      2.929949     2.922306     2.914662     2.907019     2.899376     2.891733     2.884089     2.876446     2.868803     2.861160
      2.853517     2.845873     2.838230     2.830587     2.822944     2.815300     2.807657     2.800014     2.792371     2.784728
      2.777084     2.769441     2.761798     2.754155     2.746511     2.738868     2.731225     2.723582     2.715939     2.708295
      2.700652     2.693009     2.685366     2.677722     2.670079     2.662436     2.654793     2.647150     2.639506     2.631863
      2.624220     2.616577     2.608933     2.601290     2.593647     2.586004     2.578361     2.570717     2.563074     2.555431
      2.547788     2.540144     2.532501     2.524858     2.517215     2.509572     2.501928     2.494285     2.486642     2.478999
      2.471355     2.463712     2.456069     2.448426     2.440783     2.433139     2.425496     2.417853     2.410210     2.402566
      2.394923     2.387280     2.379637     2.371994     2.364350     2.356707     2.349064     2.341421     2.333777     2.326134
      2.318491     2.310848     2.303205     2.295561     2.287918     2.280275     2.272632     2.264988     2.257345     2.249702
      2.242059     2.234416     2.226772     2.219129     2.211486     2.203843     2.196199     2.188556     2.180913     2.173270
      2.165627     2.157983     2.150340     2.142697     2.135054     2.127410     2.119767     2.112124     2.104481     2.096838
      2.089194     2.081551     2.073908     2.066265     2.058621     2.050978     2.043335     2.035692     2.028049     2.020405
      2.012762     2.005119     1.997476     1.989833     1.982190     1.974546     1.966903     1.959260     1.951617     1.943974
      1.936331     1.928688     1.921045     1.913402     1.905759     1.898115     1.890472     1.882829     1.875186     1.867543
      1.859900     1.852257     1.844614     1.836971     1.829327     1.821684     1.814041     1.806398     1.798755     1.791112
      1.783469     1.775826     1.768183     1.760540     1.752896     1.745253     1.737610     1.729967     1.722324     1.714681
      1.707038     1.699395     1.691752     1.684108     1.676465     1.668822     1.661179     1.653536     1.645893     1.638250
      1.630607     1.622964     1.615321     1.607677     1.600034     1.592391     1.584748     1.577105     1.569462     1.561819
      1.554176     1.546533     1.538890     1.531246     1.523603     1.515960     1.508317     1.500674     1.493031     1.485388
      1.477745     1.470102     1.462458     1.454815     1.447172     1.439529     1.431886     1.424243     1.416600     1.408957
      1.401314     1.393671     1.386027     1.378384     1.370741     1.363098     1.355455     1.347812     1.340169     1.332526
      1.324883     1.317240     1.309596     1.301953     1.294310     1.286667     1.279024     1.271381     1.263738     1.256095
      1.248452     1.240808     1.233165     1.225522     1.217879     1.210236     1.202593     1.194950     1.187307     1.179664
      1.172021     1.164377     1.156734     1.149091     1.141448     1.133805     1.126162     1.118519     1.110876     1.103233
      1.095590     1.087946     1.080303     1.072660     1.065017     1.057374     1.049731     1.042088     1.034445     1.026802
      1.019158     1.011515     1.003872     0.996229     0.988586     0.980943     0.973300     0.965657     0.958014     0.950371
      0.942727     0.935084     0.927441     0.919798     0.912155     0.904512     0.896869     0.889226     0.881583     0.873940
      0.866296     0.858653     0.851010     0.843367     0.835724     0.828081     0.820438     0.812795     0.805152     0.797508
      0.789865     0.782222     0.774579     0.766936     0.759293     0.751650     0.744007     0.736364     0.728721     0.721077
      0.713434     0.705791     0.698148     0.690505     0.682862     0.675219     0.667576     0.659933     0.652290     0.644646
      0.637003     0.629360     0.621717     0.614074     0.606431     0.598788     0.591145     0.583502     0.575858     0.568215
      0.560572     0.552929     0.545286     0.537643     0.530000     0.522357     0.514714     0.507071     0.499427     0.491784
      0.484141     0.476498     0.468855     0.461212     0.453569     0.445925     0.438282     0.430639     0.422996     0.415353
      0.407710     0.400067     0.392424     0.384780     0.377137     0.369494     0.361851     0.354208     0.346565     0.338922
      0.331278     0.323635     0.315992     0.308349     0.300706     0.293063     0.285420     0.277777     0.270133     0.262490
      0.254847     0.247204     0.239561     0.231918     0.224275     0.216631     0.208988     0.201345
 NY phased data points follow
  -8.05560E+00  3.65247E-01  7.18236E+00  1.46957E+01  1.49290E+01  2.25163E+01  8.55152E+00  1.78227E+01 -2.34991E+00  2.14013E+01
   7.85622E+00  2.00790E+01  1.31468E+01  1.94676E+01  8.51739E+00  3.61608E+00  4.41074E+00  1.32527E+01  3.90345E+00 -5.26528E+00
   2.50445E+00  7.17084E+00 -3.51648E+00  1.92835E+01  8.55457E+00  1.95453E+01  5.15881E+00 -2.90142E+00 -4.94944E+00  2.18454E+01
   3.75005E+00  4.13981E+00  2.83001E+00 -5.26146E+00  1.18045E+01  8.45969E+00  1.74513E+01  1.52102E+01 -1.54729E+01  7.51856E+00
   4.93812E+00  6.31840E+00  8.80131E+00  1.29261E+01  3.21011E+00 -4.98570E-01  1.07568E+01  1.09645E+01  9.23758E+00  1.55710E+01
   5.85162E+00  2.45142E+00  9.61943E-02  4.83455E+00  1.25298E+01  2.10848E+01  2.12334E+01  2.12260E+01  5.56349E+00  1.23641E+01
   3.18204E+00  9.72961E+00 -1.15456E+01 -2.62077E+00 -7.33720E+00  9.41362E-02 -2.60008E+00  2.85476E+00 -8.04198E+00  1.01967E+01
   1.42728E+00  1.11608E+01  1.06760E+01  9.29769E+00  7.01778E+00  9.66218E+00  1.99305E+01  1.71593E+01  1.01697E+01  3.14742E+00
   2.16156E+00  9.85863E+00  1.04785E+01 -5.51515E+00 -4.32631E+00  1.59470E+01  1.24693E+01  1.81152E+01  8.90373E+00  5.43515E+00
   3.68954E+00  3.16385E+01  1.34979E+01  6.24497E+00 -3.62969E+00  6.39350E+00  1.72095E+01  1.60605E+01 -6.90117E-01  1.13278E+01
   4.14037E+00  2.32257E+01  2.40583E+01  2.52342E+01  1.99878E+01  1.37254E+01  8.72710E+00  8.93081E+00 -4.77929E+00  8.26825E+00
  -5.10093E+00  4.21885E+00  1.10672E+01 -1.31596E+00  1.03633E+01  4.25134E+00  4.65133E+00 -1.49500E+01  1.33155E+01  1.28483E+01
  -1.15264E+01  1.28648E+01 -9.53624E+00  9.34119E+00  6.50556E+00  2.64421E+01  9.61384E+00  1.99463E+01  2.66944E+01  2.09194E+01
   1.62572E+00  1.50913E+01 -1.02542E+01  4.72508E+00  4.01511E-01  2.97622E+00  2.71028E-01  1.12584E+01  6.00850E+00  4.01916E+00
  -3.31054E+00  2.44864E+00  5.06583E+00  1.69856E+01  1.30342E+00  4.11542E+00  1.19041E+01 -2.43294E+00  2.18871E+00 -9.33433E+00
  -6.27497E-01  8.54409E-01 -5.80350E+00  3.09215E+00  5.22582E+00 -2.35974E+01  1.55724E+01  2.19354E+01  1.28068E+01  7.76378E+00
   6.15310E+00 -1.32066E+01 -6.51257E+00  6.74715E+00  9.17051E+00  7.11232E+00  1.13262E+00 -5.37164E+00  1.69896E+01  2.33275E+01
   6.99819E-01  1.71650E+01 -9.28051E+00 -5.95251E+00 -1.06368E+01  1.12856E+01 -1.14720E+01  3.81268E+00  1.03465E+01  5.57383E+00
   1.31121E+01 -1.03423E+01  1.15146E+01  1.65355E+01  3.01007E+00  6.18511E+00 -1.37499E+01  1.19416E+01  2.18439E+00  5.99602E+00
  -1.04109E+01 -9.76726E+00  2.74151E+00  5.79622E+00 -4.53592E+00  6.80608E+00 -9.20763E+00 -1.09993E+01 -1.07795E+01  5.02601E+00
   1.85832E+00 -3.43333E+00 -1.35393E+00  8.60432E+00 -7.81529E+00 -4.50502E+00 -3.62387E+00  4.37462E+00  2.04614E+00  9.74687E+00
  -7.29506E+00  8.02304E+00  2.44189E+00  8.89931E-01  2.35537E+01  1.40391E+01 -3.09355E+00  1.40227E-01 -5.75469E+00 -5.54594E+00
  -7.31353E+00 -1.97390E+01 -1.33713E+01 -6.39977E+00 -8.17697E+00  4.95498E-01 -9.54966E+00  6.51979E+00 -1.29913E+01  5.27099E+00
  -1.50284E+00  4.25027E+00 -9.92647E+00  4.61710E+00 -5.08439E+00  3.80490E+00  4.29723E+00  1.04388E+01 -2.36750E+00  6.78495E+00
  -1.08361E+01  5.41400E+00  6.97556E+00  1.22203E+01  1.32841E+00  9.29313E+00  1.48847E+01  5.01563E+00 -8.05079E+00 -5.21770E+00
  -1.43060E+01  1.30975E+01 -2.23054E-01  1.77696E+01  1.63502E+01  1.78160E+01  2.46011E+01  4.40088E+01  4.59114E+01  2.38925E+01
   2.43072E+01  3.33668E+01  5.06545E+00  1.09602E+01 -3.78978E+00 -1.46540E+00 -6.24736E+00  1.17133E+01 -1.68232E+01  4.44188E+00
  -1.24307E+01  6.87989E+00 -5.15703E+00  6.96023E+00  7.35396E+00 -1.20983E+01 -7.31213E+00  2.32652E+00 -7.65455E+00 -7.33337E+00
   1.65651E+00  1.65779E+00  6.20593E+00  3.54039E+00 -3.68427E+00  5.32014E+00  9.26318E-02 -4.28459E-01  4.89270E-01 -7.38964E-02
   1.07224E+01  5.95013E+00 -8.01933E+00  6.67294E+00  1.55013E+01  3.02641E+00  1.20435E+01  1.59345E+01  1.56888E+01  2.21414E+01
   6.28394E+00  2.67309E+01  2.71394E+01  3.33863E+01  2.54629E+01  2.34100E+01  3.73681E+01  1.22159E+01  2.86929E+01  2.86341E+01
   2.78588E+01  1.94697E+01  3.01785E+01  2.52017E+01  1.47398E+01  7.88966E+00  4.04796E+00  7.46177E+00  1.73766E+01  1.88791E+01
  -2.81519E+00  9.17749E+00 -5.70143E+00 -1.80468E+00  8.53433E+00  3.31256E+00 -1.43483E+01 -1.40588E+00 -3.98938E+00  2.80636E+00
  -7.85254E+00  1.79918E+01 -1.44119E+01 -5.92930E+00  2.13727E+00 -6.87115E+00 -4.79766E+00 -1.42922E+00  8.49020E+00 -7.67942E-01
   6.70578E+00  8.86145E+00 -6.57546E+00  1.30185E+01  5.04283E+00  1.36334E+01 -6.21799E-01  1.80394E+01 -9.04543E+00  5.96681E+00
   7.95406E+00  1.19215E+01  1.27833E+01  1.15819E+01  1.09946E+01 -1.09939E+00 -8.08941E+00  1.36309E+01  6.04424E+00 -2.13052E+00
  -4.37759E-01 -2.77061E+00  1.94368E+00 -1.82797E+01 -4.41353E+00 -1.01127E+01  1.14773E+01  7.56330E+00 -3.56768E+00  1.07976E+01
   9.86057E+00 -6.92557E+00  4.34030E+00  8.71826E-01 -5.24487E+00  6.25325E+00  8.67095E-01  3.78852E+00  3.03247E-01 -1.47894E+01
   1.16187E+01  1.65039E+01  2.76257E+00  1.61315E+01  1.21911E+01  1.05501E+01 -7.81596E-01  5.58010E+00 -8.52329E+00  5.85373E+00
   2.17369E+00 -2.65373E+00  1.42884E+01  1.51785E+01 -1.09363E+01  6.34292E+00  5.29519E+00  2.06278E+01  1.91486E+00 -8.50831E+00
   1.92957E+00 -1.22340E+01 -3.70172E-01 -1.26285E+01 -2.56965E+00 -1.33895E+01  2.09802E+01  1.01952E+01  2.91009E+00  4.02466E+00
  -2.66658E+00  9.82775E+00  2.84061E+00 -6.36708E+00 -1.84876E+00 -1.08208E+00  1.47097E+01  1.18773E+01 -7.06341E+00  1.35479E+01
   1.18630E+01  6.37586E+00  1.43100E+01 -2.54700E+00  8.56718E+00 -3.09006E+00 -1.29344E+00 -1.42816E+01 -5.44534E-01 -1.03556E+01
  -1.59300E+01 -1.41950E+01  5.04077E+00 -1.42909E+01 -1.51189E+01 -1.19115E+01 -8.39756E+00 -1.24332E+00  3.76084E+00 -8.89316E+00
  -1.90190E+01 -1.30044E+01  7.50219E+00  9.61346E+00  4.91174E+00 -8.13725E+00 -1.22113E+01 -6.84827E+00 -1.78945E+01 -1.85093E+01
  -9.42315E+00  1.80870E+01 -1.06350E+01 -1.32303E+01 -2.00149E+01  5.46927E+00 -5.41750E+00  1.48306E+00  1.67606E+00 -1.30411E+01
  -1.30363E+01 -1.04380E+01 -1.01439E+00  4.94250E+00  7.98780E+00  7.60347E-01  3.67335E+00 -1.30199E+00 -1.13732E+01  3.41079E+00
  -9.77505E+00 -6.46417E+00 -1.36114E+01 -9.68396E+00 -2.56233E+00 -9.21926E+00 -1.03162E+01 -5.14735E+00  6.84839E-01  3.45506E+00
   1.89197E+00 -3.80332E+00 -7.95365E+00 -3.09664E+00 -8.03576E+00 -5.41373E-01  6.75805E+00  4.73430E+00 -6.34310E+00 -1.39215E+01
   1.52541E+01  8.59334E+00  6.34120E+00  7.11425E+00 -8.25303E+00 -1.59359E+01 -4.00434E+00 -1.17876E+01
 NY points of the fit to the data follow
   7.02106E+00  6.99288E+00  7.08610E+00  7.25620E+00  7.47054E+00  7.87741E+00  8.81072E+00  1.05115E+01  1.27623E+01  1.48921E+01
   1.61804E+01  1.62847E+01  1.50939E+01  1.27111E+01  9.74331E+00  7.11641E+00  5.54884E+00  5.19983E+00  5.68574E+00  6.32405E+00
   6.77050E+00  7.24202E+00  7.68047E+00  7.82189E+00  7.45708E+00  6.62429E+00  5.62338E+00  4.84755E+00  4.69841E+00  5.45254E+00
   6.99787E+00  8.78691E+00  1.00959E+01  1.03464E+01  9.37144E+00  7.56868E+00  5.72613E+00  4.49335E+00  4.17447E+00  4.68594E+00
   5.64083E+00  6.59940E+00  7.35092E+00  7.98870E+00  8.61988E+00  9.16245E+00  9.45744E+00  9.35477E+00  8.69239E+00  7.53503E+00
   6.18828E+00  5.07841E+00  4.52288E+00  4.58290E+00  5.05331E+00  5.61916E+00  6.10497E+00  6.49542E+00  6.77864E+00  6.90845E+00
   6.82391E+00  6.51425E+00  6.05972E+00  5.59545E+00  5.26659E+00  5.16936E+00  5.30757E+00  5.57993E+00  5.87037E+00  6.10563E+00
   6.25971E+00  6.37183E+00  6.46653E+00  6.50548E+00  6.42945E+00  6.22295E+00  5.92420E+00  5.58079E+00  5.28278E+00  5.10494E+00
   5.08670E+00  5.27092E+00  5.60345E+00  5.89486E+00  5.95390E+00  5.74300E+00  5.34451E+00  4.86650E+00  4.42510E+00  4.14236E+00
   4.09058E+00  4.26034E+00  4.55194E+00  4.82320E+00  4.97183E+00  5.06123E+00  5.26009E+00  5.89710E+00  7.61864E+00  1.09009E+01
   1.53245E+01  1.95975E+01  2.23514E+01  2.28761E+01  2.08575E+01  1.64799E+01  1.09259E+01  5.95329E+00  2.92402E+00  2.13442E+00
   2.79155E+00  3.53969E+00  3.73190E+00  3.75922E+00  3.76420E+00  3.76239E+00  3.75145E+00  3.74927E+00  3.77514E+00  3.85426E+00
   4.06784E+00  4.72781E+00  6.43531E+00  9.56147E+00  1.36538E+01  1.74986E+01  1.98964E+01  2.02483E+01  1.82957E+01  1.42576E+01
   9.26589E+00  4.90143E+00  2.29570E+00  1.63601E+00  2.18606E+00  2.76076E+00  2.90833E+00  2.95330E+00  2.96512E+00  2.94385E+00
   2.90743E+00  2.87922E+00  2.87107E+00  2.88034E+00  2.89038E+00  2.88899E+00  2.86167E+00  2.79093E+00  2.67728E+00  2.53357E+00
   2.37829E+00  2.22789E+00  2.10526E+00  2.04131E+00  2.04427E+00  2.08977E+00  2.11628E+00  2.05111E+00  1.87533E+00  1.63394E+00
   1.39291E+00  1.22483E+00  1.19699E+00  1.29509E+00  1.41142E+00  1.42152E+00  1.25923E+00  9.86500E-01  7.69025E-01  7.06985E-01
   7.48919E-01  7.88909E-01  7.49947E-01  6.20381E-01  4.77521E-01  3.69951E-01  3.10013E-01  3.16154E-01  3.86899E-01  4.74668E-01
   5.43737E-01  6.14962E-01  7.30334E-01  9.55412E-01  1.32802E+00  1.75854E+00  2.11412E+00  2.35758E+00  2.53086E+00  2.67420E+00
   2.75646E+00  2.74565E+00  2.62858E+00  2.44495E+00  2.27932E+00  2.20461E+00  2.21696E+00  2.27676E+00  2.35752E+00  2.47500E+00
   2.66389E+00  2.92019E+00  3.15324E+00  3.22371E+00  2.98656E+00  2.34936E+00  1.35915E+00  1.77724E-01 -8.87142E-01 -1.42510E+00
  -1.02534E+00  5.67559E-01  3.10743E+00  5.84708E+00  7.82383E+00  8.35557E+00  7.05892E+00  3.84120E+00 -7.19826E-01 -5.33302E+00
  -8.48002E+00 -9.23520E+00 -7.67970E+00 -4.52781E+00 -7.73630E-01  2.74450E+00  5.17377E+00  6.00355E+00  5.40830E+00  4.12604E+00
   3.02469E+00  2.51156E+00  2.50149E+00  2.79910E+00  3.23504E+00  3.53962E+00  3.49791E+00  3.00087E+00  2.14210E+00  1.26064E+00
   7.06978E-01  7.08142E-01  1.28326E+00  2.25013E+00  3.34834E+00  4.23514E+00  4.56095E+00  4.20380E+00  3.45340E+00  2.84864E+00
   3.15291E+00  5.24074E+00  9.29130E+00  1.44931E+01  1.96111E+01  2.41877E+01  2.82606E+01  3.12149E+01  3.20608E+01  3.06649E+01
   2.77454E+01  2.36617E+01  1.84033E+01  1.24146E+01  6.59593E+00  2.48695E+00  9.19159E-01  1.11674E+00  1.47950E+00  1.42518E+00
   1.43083E+00  1.58134E+00  1.79292E+00  1.99756E+00  2.11413E+00  2.04520E+00  1.78416E+00  1.39836E+00  1.00907E+00  7.31730E-01
   6.18835E-01  6.43707E-01  7.45473E-01  8.79846E-01  1.02072E+00  1.16121E+00  1.30788E+00  1.49092E+00  1.76230E+00  2.17108E+00
   2.73153E+00  3.43524E+00  4.26734E+00  5.20778E+00  6.22040E+00  7.28085E+00  8.38232E+00  9.52555E+00  1.07056E+01  1.19019E+01
   1.30717E+01  1.41687E+01  1.51444E+01  1.59496E+01  1.65423E+01  1.68954E+01  1.70000E+01  1.68633E+01  1.64964E+01  1.59161E+01
   1.51486E+01  1.42255E+01  1.31836E+01  1.20628E+01  1.09033E+01  9.74331E+00  8.61755E+00  7.55565E+00  6.58157E+00  5.71401E+00
   4.96875E+00  4.36369E+00  3.91009E+00  3.58200E+00  3.31083E+00  3.02050E+00  2.67548E+00  2.28355E+00  1.86457E+00  1.46832E+00
   1.19744E+00  1.15611E+00  1.37598E+00  1.78631E+00  2.25495E+00  2.67064E+00  2.98755E+00  3.17576E+00  3.21748E+00  3.15403E+00
   3.06322E+00  3.01725E+00  3.04659E+00  3.11784E+00  3.18561E+00  3.24940E+00  3.31134E+00  3.37113E+00  3.42769E+00  3.47957E+00
   3.52514E+00  3.56254E+00  3.58990E+00  3.60532E+00  3.60704E+00  3.59345E+00  3.56324E+00  3.51537E+00  3.44927E+00  3.36475E+00
   3.26210E+00  3.14204E+00  3.00572E+00  2.85465E+00  2.69070E+00  2.51598E+00  2.33283E+00  2.14370E+00  1.95108E+00  1.75747E+00
   1.56536E+00  1.37711E+00  1.19501E+00  1.02117E+00  8.57595E-01  7.06132E-01  5.68553E-01  4.46509E-01  3.41591E-01  2.55307E-01
   1.89157E-01  1.44602E-01  1.23117E-01  1.26120E-01  1.54975E-01  2.10901E-01  2.94950E-01  4.07874E-01  5.50055E-01  7.21325E-01
   9.20879E-01  1.14711E+00  1.39758E+00  1.66884E+00  1.95650E+00  2.25516E+00  2.55851E+00  2.85949E+00  3.15050E+00  3.42365E+00
   3.67108E+00  3.88525E+00  4.05935E+00  4.18757E+00  4.26543E+00  4.28996E+00  4.25983E+00  4.17543E+00  4.03880E+00  3.85349E+00
   3.62441E+00  3.35745E+00  3.05927E+00  2.73690E+00  2.39748E+00  2.04790E+00  1.69465E+00  1.34351E+00  9.99462E-01  6.66607E-01
   3.48169E-01  4.64787E-02 -2.36925E-01 -5.01255E-01 -7.46325E-01 -9.72469E-01 -1.18038E+00 -1.37104E+00 -1.54561E+00 -1.70539E+00
  -1.85168E+00 -1.98579E+00 -2.10895E+00 -2.22235E+00 -2.32705E+00 -2.42406E+00 -2.51426E+00 -2.59845E+00 -2.67731E+00 -2.75144E+00
  -2.82137E+00 -2.88760E+00 -2.95051E+00 -3.01047E+00 -3.06777E+00 -3.12270E+00 -3.17549E+00 -3.22636E+00 -3.27548E+00 -3.32301E+00
  -3.36908E+00 -3.41384E+00 -3.45738E+00 -3.49982E+00 -3.54123E+00 -3.58169E+00 -3.62127E+00 -3.66004E+00 -3.69807E+00 -3.73542E+00
  -3.77212E+00 -3.80822E+00 -3.84374E+00 -3.87874E+00 -3.91326E+00 -3.94732E+00 -3.98093E+00 -4.01415E+00 -4.04697E+00 -4.07945E+00
  -4.11159E+00 -4.14342E+00 -4.17492E+00 -4.20614E+00 -4.23708E+00 -4.26778E+00 -4.29824E+00 -4.32848E+00 -4.35849E+00 -4.38830E+00
  -4.41792E+00 -4.44738E+00 -4.47666E+00 -4.50578E+00 -4.53474E+00 -4.56357E+00 -4.59227E+00 -4.62085E+00 -4.64932E+00 -4.67769E+00
  -4.70595E+00 -4.73414E+00 -4.76225E+00 -4.79032E+00 -4.81831E+00 -4.84626E+00 -4.87417E+00 -4.90208E+00
 NY background values follow
     5.771E+00    5.749E+00    5.727E+00    5.705E+00    5.682E+00    5.660E+00    5.638E+00    5.616E+00    5.593E+00    5.571E+00
     5.549E+00    5.527E+00    5.504E+00    5.482E+00    5.460E+00    5.437E+00    5.415E+00    5.393E+00    5.370E+00    5.348E+00
     5.326E+00    5.303E+00    5.281E+00    5.259E+00    5.236E+00    5.214E+00    5.192E+00    5.169E+00    5.147E+00    5.124E+00
     5.102E+00    5.080E+00    5.057E+00    5.035E+00    5.012E+00    4.990E+00    4.967E+00    4.945E+00    4.922E+00    4.900E+00
     4.878E+00    4.855E+00    4.833E+00    4.810E+00    4.788E+00    4.765E+00    4.743E+00    4.720E+00    4.698E+00    4.675E+00
     4.653E+00    4.630E+00    4.608E+00    4.585E+00    4.562E+00    4.540E+00    4.517E+00    4.495E+00    4.472E+00    4.450E+00
     4.427E+00    4.404E+00    4.382E+00    4.359E+00    4.337E+00    4.314E+00    4.291E+00    4.269E+00    4.246E+00    4.224E+00
     4.201E+00    4.178E+00    4.156E+00    4.133E+00    4.110E+00    4.088E+00    4.065E+00    4.042E+00    4.020E+00    3.997E+00
     3.974E+00    3.952E+00    3.929E+00    3.906E+00    3.884E+00    3.861E+00    3.838E+00    3.816E+00    3.793E+00    3.770E+00
     3.747E+00    3.725E+00    3.702E+00    3.679E+00    3.657E+00    3.634E+00    3.611E+00    3.588E+00    3.566E+00    3.543E+00
     3.520E+00    3.497E+00    3.475E+00    3.452E+00    3.429E+00    3.406E+00    3.383E+00    3.361E+00    3.338E+00    3.315E+00
     3.292E+00    3.269E+00    3.247E+00    3.224E+00    3.201E+00    3.178E+00    3.155E+00    3.133E+00    3.110E+00    3.087E+00
     3.064E+00    3.041E+00    3.018E+00    2.996E+00    2.973E+00    2.950E+00    2.927E+00    2.904E+00    2.881E+00    2.858E+00
     2.836E+00    2.813E+00    2.790E+00    2.767E+00    2.744E+00    2.721E+00    2.698E+00    2.675E+00    2.653E+00    2.630E+00
     2.607E+00    2.584E+00    2.561E+00    2.538E+00    2.515E+00    2.492E+00    2.469E+00    2.446E+00    2.424E+00    2.401E+00
     2.378E+00    2.355E+00    2.332E+00    2.309E+00    2.286E+00    2.263E+00    2.240E+00    2.217E+00    2.194E+00    2.171E+00
     2.148E+00    2.125E+00    2.102E+00    2.080E+00    2.057E+00    2.034E+00    2.011E+00    1.988E+00    1.965E+00    1.942E+00
     1.919E+00    1.896E+00    1.873E+00    1.850E+00    1.827E+00    1.804E+00    1.781E+00    1.758E+00    1.735E+00    1.712E+00
     1.689E+00    1.666E+00    1.643E+00    1.620E+00    1.597E+00    1.574E+00    1.551E+00    1.528E+00    1.505E+00    1.482E+00
     1.459E+00    1.436E+00    1.413E+00    1.390E+00    1.367E+00    1.344E+00    1.321E+00    1.298E+00    1.275E+00    1.252E+00
     1.229E+00    1.206E+00    1.183E+00    1.160E+00    1.137E+00    1.114E+00    1.091E+00    1.068E+00    1.045E+00    1.022E+00
     9.994E-01    9.764E-01    9.534E-01    9.304E-01    9.074E-01    8.843E-01    8.613E-01    8.383E-01    8.153E-01    7.923E-01
     7.693E-01    7.463E-01    7.233E-01    7.003E-01    6.773E-01    6.543E-01    6.313E-01    6.083E-01    5.852E-01    5.622E-01
     5.392E-01    5.162E-01    4.932E-01    4.702E-01    4.472E-01    4.242E-01    4.012E-01    3.782E-01    3.552E-01    3.322E-01
     3.092E-01    2.862E-01    2.632E-01    2.402E-01    2.172E-01    1.942E-01    1.712E-01    1.482E-01    1.252E-01    1.022E-01
     7.916E-02    5.616E-02    3.316E-02    1.017E-02   -1.283E-02   -3.582E-02   -5.881E-02   -8.181E-02   -1.048E-01   -1.278E-01
    -1.508E-01   -1.738E-01   -1.967E-01   -2.197E-01   -2.427E-01   -2.657E-01   -2.887E-01   -3.117E-01   -3.346E-01   -3.576E-01
    -3.806E-01   -4.036E-01   -4.265E-01   -4.495E-01   -4.725E-01   -4.954E-01   -5.184E-01   -5.414E-01   -5.643E-01   -5.873E-01
    -6.103E-01   -6.332E-01   -6.562E-01   -6.791E-01   -7.021E-01   -7.250E-01   -7.480E-01   -7.709E-01   -7.939E-01   -8.168E-01
    -8.398E-01   -8.627E-01   -8.856E-01   -9.086E-01   -9.315E-01   -9.544E-01   -9.774E-01   -1.000E+00   -1.023E+00   -1.046E+00
    -1.069E+00   -1.092E+00   -1.115E+00   -1.138E+00   -1.161E+00   -1.184E+00   -1.206E+00   -1.229E+00   -1.252E+00   -1.275E+00
    -1.298E+00   -1.321E+00   -1.344E+00   -1.367E+00   -1.390E+00   -1.413E+00   -1.435E+00   -1.458E+00   -1.481E+00   -1.504E+00
    -1.527E+00   -1.550E+00   -1.573E+00   -1.595E+00   -1.618E+00   -1.641E+00   -1.664E+00   -1.687E+00   -1.710E+00   -1.732E+00
    -1.755E+00   -1.778E+00   -1.801E+00   -1.824E+00   -1.847E+00   -1.869E+00   -1.892E+00   -1.915E+00   -1.938E+00   -1.961E+00
    -1.983E+00   -2.006E+00   -2.029E+00   -2.052E+00   -2.075E+00   -2.097E+00   -2.120E+00   -2.143E+00   -2.166E+00   -2.188E+00
    -2.211E+00   -2.234E+00   -2.257E+00   -2.279E+00   -2.302E+00   -2.325E+00   -2.348E+00   -2.370E+00   -2.393E+00   -2.416E+00
    -2.439E+00   -2.461E+00   -2.484E+00   -2.507E+00   -2.529E+00   -2.552E+00   -2.575E+00   -2.598E+00   -2.620E+00   -2.643E+00
    -2.666E+00   -2.688E+00   -2.711E+00   -2.734E+00   -2.756E+00   -2.779E+00   -2.801E+00   -2.824E+00   -2.847E+00   -2.869E+00
    -2.892E+00   -2.915E+00   -2.937E+00   -2.960E+00   -2.982E+00   -3.005E+00   -3.028E+00   -3.050E+00   -3.073E+00   -3.095E+00
    -3.118E+00   -3.141E+00   -3.163E+00   -3.186E+00   -3.208E+00   -3.231E+00   -3.253E+00   -3.276E+00   -3.298E+00   -3.321E+00
    -3.343E+00   -3.366E+00   -3.388E+00   -3.411E+00   -3.434E+00   -3.456E+00   -3.478E+00   -3.501E+00   -3.523E+00   -3.546E+00
    -3.568E+00   -3.591E+00   -3.613E+00   -3.636E+00   -3.658E+00   -3.681E+00   -3.703E+00   -3.725E+00   -3.748E+00   -3.770E+00
    -3.793E+00   -3.815E+00   -3.837E+00   -3.860E+00   -3.882E+00   -3.905E+00   -3.927E+00   -3.949E+00   -3.972E+00   -3.994E+00
    -4.016E+00   -4.039E+00   -4.061E+00   -4.083E+00   -4.106E+00   -4.128E+00   -4.150E+00   -4.173E+00   -4.195E+00   -4.217E+00
    -4.239E+00   -4.262E+00   -4.284E+00   -4.306E+00   -4.328E+00   -4.351E+00   -4.373E+00   -4.395E+00   -4.417E+00   -4.440E+00
    -4.462E+00   -4.484E+00   -4.506E+00   -4.528E+00   -4.551E+00   -4.573E+00   -4.595E+00   -4.617E+00   -4.639E+00   -4.661E+00
    -4.683E+00   -4.706E+00   -4.728E+00   -4.750E+00   -4.772E+00   -4.794E+00   -4.816E+00   -4.838E+00   -4.860E+00   -4.882E+00
    -4.904E+00   -4.926E+00   -4.948E+00   -4.970E+00   -4.993E+00   -5.015E+00   -5.037E+00   -5.059E+00   -5.081E+00   -5.103E+00
    -5.125E+00   -5.146E+00   -5.168E+00   -5.190E+00   -5.212E+00   -5.234E+00   -5.256E+00   -5.278E+00   -5.300E+00   -5.322E+00
    -5.344E+00   -5.366E+00   -5.388E+00   -5.409E+00   -5.431E+00   -5.453E+00   -5.475E+00   -5.497E+00
 Ala      Conc. = 4.35E+01
