 LCModel (Version 6.3-1L) Copyright: S.W. Provencher.          Ref.: Magn. Reson. Med. 30:672-679 (1993).                
 Slice#2 Row#3 Col#8  PD_24_press_2_raw_act
 36 lines in following concentration table = NCONC+1
    Conc.  %SD /Cr+PCr  Metabolite                                         
    0.000 999%   0.000 Ala                                                 
    0.000 999%   0.000 Asp                                                 
 1.00E+03  59%   0.487 Cr                                                  
 1.06E+03  56%   0.513 PCr                                                 
  124.180 229% 6.0E-02 GABA                                                
  185.997 151% 9.0E-02 Glc                                                 
  218.357 365%   0.106 Gln                                                 
 1.23E+03  73%   0.598 Glu                                                 
  803.965  38%   0.390 GPC                                                 
  144.357 213% 7.0E-02 PCh                                                 
    2.880 999% 1.4E-03 GSH                                                 
 1.60E+03  49%   0.778 Ins                                                 
  699.039  66%   0.339 Lac                                                 
 3.05E+03  10%   1.477 NAA                                                 
  595.853  53%   0.289 NAAG                                                
  288.723  25%   0.140 Scyllo                                              
 1.22E+03  34%   0.591 Tau                                                 
 1.62E+03  19%   0.785 -CrCH2                                              
  948.322   7%   0.460 GPC+PCh                                             
 3.64E+03   7%   1.766 NAA+NAAG                                            
 2.06E+03   9%   1.000 Cr+PCr                                              
 1.45E+03  91%   0.704 Glu+Gln                                             
    0.000 999%   0.000 Lip13a                                              
    0.000 999%   0.000 Lip13b                                              
    0.000 999%   0.000 Lip09                                               
 2.03E+03  21%   0.985 MM09                                                
    1.744 999% 8.5E-04 Lip20                                               
 3.21E+03  32%   1.554 MM20                                                
  937.789  42%   0.455 MM12                                                
 1.86E+03  33%   0.901 MM14                                                
  563.486  86%   0.273 MM17                                                
    0.000 999%   0.000 Lip13a+Lip13b                                       
 2.80E+03  28%   1.356 MM14+Lip13a+Lip13b+MM12                             
 2.03E+03  21%   0.985 MM09+Lip09                                          
 3.21E+03  32%   1.555 MM20+Lip20                                          
   6 lines in following misc. output table
  FWHM = 0.099 ppm    S/N =   6                                            
  Data shift = 0.031 ppm                                                   
  Ph: -77 deg     -17.3 deg/ppm                                            
  alphaB,S = 1.3E+00,   1.4E+01                                            
   14 spline knots.   Ns =10(1)                                            
  (15) 9 infls.   (17) 3 extrs.                                            
  498 points on ppm-axis = NY
      4.000000     3.992357     3.984714     3.977070     3.969427     3.961784     3.954141     3.946497     3.938854     3.931211
      3.923568     3.915925     3.908281     3.900638     3.892995     3.885352     3.877708     3.870065     3.862422     3.854779
      3.847136     3.839492     3.831849     3.824206     3.816563     3.808919     3.801276     3.793633     3.785990     3.778347
      3.770703     3.763060     3.755417     3.747774     3.740130     3.732487     3.724844     3.717201     3.709558     3.701914
      3.694271     3.686628     3.678985     3.671341     3.663698     3.656055     3.648412     3.640769     3.633125     3.625482
      3.617839     3.610196     3.602552     3.594909     3.587266     3.579623     3.571980     3.564336     3.556693     3.549050
      3.541407     3.533763     3.526120     3.518477     3.510834     3.503191     3.495547     3.487904     3.480261     3.472618
      3.464974     3.457331     3.449688     3.442045     3.434402     3.426758     3.419115     3.411472     3.403829     3.396185
      3.388542     3.380899     3.373256     3.365613     3.357969     3.350326     3.342683     3.335040     3.327396     3.319753
      3.312110     3.304467     3.296824     3.289180     3.281537     3.273894     3.266251     3.258607     3.250964     3.243321
      3.235678     3.228034     3.220391     3.212748     3.205105     3.197462     3.189818     3.182175     3.174532     3.166889
      3.159245     3.151602     3.143959     3.136316     3.128673     3.121029     3.113386     3.105743     3.098100     3.090456
      3.082813     3.075170     3.067527     3.059884     3.052240     3.044597     3.036954     3.029311     3.021667     3.014024
      3.006381     2.998738     2.991095     2.983451     2.975808     2.968165     2.960522     2.952878     2.945235     2.937592
      2.929949     2.922306     2.914662     2.907019     2.899376     2.891733     2.884089     2.876446     2.868803     2.861160
      2.853517     2.845873     2.838230     2.830587     2.822944     2.815300     2.807657     2.800014     2.792371     2.784728
      2.777084     2.769441     2.761798     2.754155     2.746511     2.738868     2.731225     2.723582     2.715939     2.708295
      2.700652     2.693009     2.685366     2.677722     2.670079     2.662436     2.654793     2.647150     2.639506     2.631863
      2.624220     2.616577     2.608933     2.601290     2.593647     2.586004     2.578361     2.570717     2.563074     2.555431
      2.547788     2.540144     2.532501     2.524858     2.517215     2.509572     2.501928     2.494285     2.486642     2.478999
      2.471355     2.463712     2.456069     2.448426     2.440783     2.433139     2.425496     2.417853     2.410210     2.402566
      2.394923     2.387280     2.379637     2.371994     2.364350     2.356707     2.349064     2.341421     2.333777     2.326134
      2.318491     2.310848     2.303205     2.295561     2.287918     2.280275     2.272632     2.264988     2.257345     2.249702
      2.242059     2.234416     2.226772     2.219129     2.211486     2.203843     2.196199     2.188556     2.180913     2.173270
      2.165627     2.157983     2.150340     2.142697     2.135054     2.127410     2.119767     2.112124     2.104481     2.096838
      2.089194     2.081551     2.073908     2.066265     2.058621     2.050978     2.043335     2.035692     2.028049     2.020405
      2.012762     2.005119     1.997476     1.989833     1.982190     1.974546     1.966903     1.959260     1.951617     1.943974
      1.936331     1.928688     1.921045     1.913402     1.905759     1.898115     1.890472     1.882829     1.875186     1.867543
      1.859900     1.852257     1.844614     1.836971     1.829327     1.821684     1.814041     1.806398     1.798755     1.791112
      1.783469     1.775826     1.768183     1.760540     1.752896     1.745253     1.737610     1.729967     1.722324     1.714681
      1.707038     1.699395     1.691752     1.684108     1.676465     1.668822     1.661179     1.653536     1.645893     1.638250
      1.630607     1.622964     1.615321     1.607677     1.600034     1.592391     1.584748     1.577105     1.569462     1.561819
      1.554176     1.546533     1.538890     1.531246     1.523603     1.515960     1.508317     1.500674     1.493031     1.485388
      1.477745     1.470102     1.462458     1.454815     1.447172     1.439529     1.431886     1.424243     1.416600     1.408957
      1.401314     1.393671     1.386027     1.378384     1.370741     1.363098     1.355455     1.347812     1.340169     1.332526
      1.324883     1.317240     1.309596     1.301953     1.294310     1.286667     1.279024     1.271381     1.263738     1.256095
      1.248452     1.240808     1.233165     1.225522     1.217879     1.210236     1.202593     1.194950     1.187307     1.179664
      1.172021     1.164377     1.156734     1.149091     1.141448     1.133805     1.126162     1.118519     1.110876     1.103233
      1.095590     1.087946     1.080303     1.072660     1.065017     1.057374     1.049731     1.042088     1.034445     1.026802
      1.019158     1.011515     1.003872     0.996229     0.988586     0.980943     0.973300     0.965657     0.958014     0.950371
      0.942727     0.935084     0.927441     0.919798     0.912155     0.904512     0.896869     0.889226     0.881583     0.873940
      0.866296     0.858653     0.851010     0.843367     0.835724     0.828081     0.820438     0.812795     0.805152     0.797508
      0.789865     0.782222     0.774579     0.766936     0.759293     0.751650     0.744007     0.736364     0.728721     0.721077
      0.713434     0.705791     0.698148     0.690505     0.682862     0.675219     0.667576     0.659933     0.652290     0.644646
      0.637003     0.629360     0.621717     0.614074     0.606431     0.598788     0.591145     0.583502     0.575858     0.568215
      0.560572     0.552929     0.545286     0.537643     0.530000     0.522357     0.514714     0.507071     0.499427     0.491784
      0.484141     0.476498     0.468855     0.461212     0.453569     0.445925     0.438282     0.430639     0.422996     0.415353
      0.407710     0.400067     0.392424     0.384780     0.377137     0.369494     0.361851     0.354208     0.346565     0.338922
      0.331278     0.323635     0.315992     0.308349     0.300706     0.293063     0.285420     0.277777     0.270133     0.262490
      0.254847     0.247204     0.239561     0.231918     0.224275     0.216631     0.208988     0.201345
 NY phased data points follow
  -1.05208E+02 -1.14335E+02 -7.72433E+01 -9.05844E+01 -7.53275E+01 -7.21838E+01 -7.56355E+01 -7.74515E+01 -6.47419E+01 -7.04550E+01
  -5.77302E+01 -7.87481E+01 -7.41408E+01 -7.07490E+01 -6.91679E+01 -7.08011E+01 -7.37594E+01 -8.74191E+01 -7.65438E+01 -9.34373E+01
  -9.32584E+01 -9.64537E+01 -8.39524E+01 -9.10486E+01 -6.92107E+01 -8.01962E+01 -6.41532E+01 -7.56538E+01 -7.17254E+01 -7.20478E+01
  -5.72777E+01 -7.27625E+01 -5.98147E+01 -6.75041E+01 -6.28149E+01 -6.92479E+01 -6.50206E+01 -6.81001E+01 -5.99021E+01 -7.45304E+01
  -5.90928E+01 -6.49923E+01 -5.20474E+01 -5.63827E+01 -4.45210E+01 -4.31976E+01 -4.95309E+01 -4.25142E+01 -5.21007E+01 -6.26613E+01
  -5.05120E+01 -5.34391E+01 -4.09344E+01 -6.57121E+01 -4.70997E+01 -6.16422E+01 -4.64889E+01 -6.69560E+01 -4.50606E+01 -6.22393E+01
  -4.83006E+01 -6.49834E+01 -5.98197E+01 -6.70784E+01 -5.13936E+01 -5.10243E+01 -4.71021E+01 -5.22182E+01 -4.16687E+01 -4.13963E+01
  -4.63633E+01 -5.46228E+01 -4.37322E+01 -5.18470E+01 -4.39733E+01 -5.74147E+01 -4.46778E+01 -4.01258E+01 -4.15796E+01 -3.84434E+01
  -3.08322E+01 -3.50881E+01 -3.73882E+01 -4.11473E+01 -4.07320E+01 -3.99155E+01 -3.54298E+01 -3.53352E+01 -2.83766E+01 -3.45966E+01
  -2.59011E+01 -1.95391E+01 -2.00338E+00 -1.94449E+01  4.77376E+00 -1.76965E+01 -2.96406E+00 -1.52257E+01 -6.91436E+00 -4.43065E+00
   1.54454E+01  3.12308E+01  2.58263E+01  1.37757E+01  2.96201E+00  1.07533E+01  8.18139E-01 -1.44434E+01 -5.81792E+00 -3.04711E+01
  -2.71493E+01 -1.69956E+01 -2.72609E+01 -3.62066E+01 -2.45316E+01 -2.57103E+01 -2.40077E+01 -2.34344E+01 -9.00152E+00 -2.10606E+01
  -1.50770E+01 -5.95189E+00 -1.93209E+01  6.59266E+00 -3.76332E-01  2.06951E+01  2.19031E+01  2.02602E+01  8.18911E+00 -4.87913E+00
  -3.55287E+00 -1.05603E+01 -3.50631E+00 -2.41283E+01 -2.78577E+01 -3.16070E+01 -3.00412E+01 -2.50829E+01 -1.88080E+01 -2.40620E+01
  -2.29151E+01 -2.64037E+01 -2.64372E+01 -3.66171E+01 -2.69813E+01 -1.74482E+01 -3.19842E+01 -2.01990E+01 -2.32293E+01 -2.10715E+01
  -2.03894E+01 -2.61877E+01 -2.38136E+01 -2.45510E+01 -2.95480E+01 -2.69512E+01 -2.47501E+01 -2.97292E+01 -2.39443E+01 -2.11634E+01
  -1.96457E+01 -2.84615E+01 -2.79074E+01 -2.84388E+01 -9.52597E+00 -2.74128E+01 -2.74463E+01 -2.96430E+01 -2.37515E+01 -3.87491E+01
  -2.45784E+01 -3.38593E+01 -2.73787E+01 -4.07147E+01 -3.34614E+01 -3.40647E+01 -5.11063E+01 -3.46825E+01 -3.75542E+01 -3.48614E+01
  -2.45750E+01 -3.72688E+01 -3.03607E+01 -3.40470E+01 -3.18257E+01 -1.60401E+01 -1.92637E+01 -2.38558E+01 -1.53607E+01 -1.85658E+01
  -1.35879E+01 -8.02221E+00 -5.98638E+00 -1.80902E+01 -2.41501E+01 -1.61704E+00 -1.31365E+01 -5.14112E+00 -1.68118E+01 -1.90833E+01
  -1.36773E+01 -8.38919E+00 -2.54030E+00 -1.20812E+01 -1.64182E+01 -1.85557E+01 -2.63014E+00 -1.01420E+01 -7.49014E+00 -2.15203E+01
  -1.48965E+00 -1.30849E+01 -1.23677E+01 -5.12300E+00 -1.17963E+01 -4.15370E+00  1.31333E-01 -6.60206E+00  1.49336E+01  2.92503E+00
  -1.48255E+01 -9.24351E+00 -4.89153E+00 -1.80421E+01 -1.75855E+00 -9.78338E+00 -3.36702E+00 -3.24409E+00  1.27002E+01 -5.71083E+00
   4.65721E+00 -3.95164E+00 -4.75860E+00 -4.94718E+00  1.15458E+01 -1.18167E+01  6.18869E+00  4.04986E-02  1.18905E+00 -2.92937E+00
   9.54413E-01  5.25956E+00  6.71763E+00 -1.45434E+00  1.24000E+00  3.63237E+00  2.60242E+01  1.87082E+01  2.06117E+01  3.20064E+01
   3.55715E+01  4.53977E+01  5.94494E+01  5.75524E+01  5.97445E+01  4.62146E+01  5.48705E+01  7.02306E+01  9.43138E+01  9.30615E+01
   1.00108E+02  8.06673E+01  7.46122E+01  6.13211E+01  4.17713E+01  2.04461E+01  2.96106E+01  1.21885E+01  1.42665E+01  9.08467E+00
   7.49222E+00  6.15474E+00  8.07363E+00  1.28091E+01  1.58092E+01  1.09327E+01  7.40756E+00  7.16328E+00  1.30251E+01  1.14821E+01
   1.02883E+01  1.44099E+01  1.64910E+01  1.12578E+01  1.15436E+01  2.11839E+00 -3.97118E+00  5.61469E+00  3.53712E+00 -2.22529E-03
   7.37802E+00  6.37652E+00 -1.95879E+00 -9.48034E+00  3.77485E+00  1.11479E+01  3.93236E+00  1.16225E+01  6.45419E+00  1.53675E+01
   8.15881E+00  1.11683E+01  1.53565E+01  1.38860E+01  2.00088E+01  1.86245E+01  1.33814E+01  9.47909E+00  1.33862E+01  1.53320E+01
   3.37650E+00  1.11276E+01 -1.48877E+00  1.90382E+01  2.02481E+01  2.25262E+01  1.66877E+01  2.31035E+01  7.86046E+00  1.45725E+01
   1.46287E+01  2.07997E+01  1.63947E+01  1.88007E+01  2.37016E+01  1.79118E+01  2.17692E+01  1.28568E+01  2.27177E+01  8.10925E+00
   2.39230E+01  2.16200E+01  2.73598E+01  2.61871E+01  3.38667E+01  2.41727E+01  3.14562E+01  1.81345E+01  4.08157E+01  2.04720E+01
   2.12584E+01  1.83978E+01  2.70181E+01  2.45685E+01  2.87411E+01  1.31868E+01  2.15745E+01  1.48021E+01  1.07915E+01  1.37660E+01
   1.57165E+01  8.99072E+00  8.52565E+00  6.08274E+00  1.56617E+01  1.35640E+01  2.11838E+01  8.80651E+00  7.67368E+00  2.16994E+01
   2.12270E+01  1.50953E+01  1.89774E+01  2.46297E+01  4.02768E+01  2.27403E+01  2.36871E+01  3.06203E+01  2.73333E+01  2.77874E+01
   2.41535E+01  2.57495E+01  3.21652E+01  2.30207E+01  2.70333E+01  2.23622E+01  3.37133E+01  1.21690E+01  3.67501E+01  2.56481E+01
   2.09266E+01  3.13246E+01  2.11995E+01  2.80360E+01  3.33153E+01  3.37381E+01  1.53953E+01  4.32741E+01  2.61675E+01  1.69998E+01
   1.66607E+01  1.07553E+01  1.94341E+01  3.11086E+01  1.87263E+01  1.75028E+01  3.73388E+01  3.08268E+01  2.64306E+01  3.47818E+01
   2.55239E+01  2.71865E+01  2.60771E+01  3.33073E+01  3.93371E+01  3.29128E+01  3.94093E+01  3.31042E+01  3.55317E+01  3.05526E+01
   3.29306E+01  2.69316E+01  1.28078E+01  2.69268E+01  3.11764E+01  3.88154E+01  3.28560E+01  3.45102E+01  2.90780E+01  2.42463E+01
   2.25138E+01  3.29761E+01  1.75325E+01  3.61494E+01  1.73433E+01  3.21009E+01  2.37977E+01  2.19071E+01  2.10729E+01  2.10951E+01
   2.13209E+01  3.47170E+01  3.48043E+01  2.84932E+01  3.36926E+01  2.00677E+01  2.58526E+01  2.18105E+01  1.79143E+01  2.20709E+01
   3.39593E+01  2.35318E+01  2.99663E+01  2.09609E+01  2.68517E+01  3.47700E+01  2.42156E+01  3.00086E+01  2.15696E+01  2.36670E+01
   2.73136E+01  1.08330E+01  2.64478E+01  3.50413E+01  2.35416E+01  2.38744E+01  2.58992E+01  1.32429E+01  1.70423E+01  2.54852E+01
   1.18313E+01  1.65935E+01  2.27738E+01  2.15624E+01  2.07619E+01  1.69533E+01  3.75903E+01  3.13355E+01  3.36717E+01  1.76680E+01
   2.40602E+01  1.16921E+01  9.78034E+00  1.35484E+01  3.12357E+01  8.33890E+00  1.97367E+01  1.87551E+01  2.07773E+01  2.02515E+01
   2.20010E+01  1.63684E+01  1.08683E+01  2.29855E+01  2.07946E+01  1.50286E+01  2.28862E+01  1.85906E+01  1.41488E+01  2.25398E+01
   1.07589E+01  1.03299E+01  2.39326E+01  1.77567E+01  1.42877E+01  1.97784E+01  2.21129E+01  2.14507E+01
 NY points of the fit to the data follow
  -8.65606E+01 -8.38803E+01 -7.94575E+01 -7.82713E+01 -7.61088E+01 -7.45850E+01 -7.69153E+01 -7.82110E+01 -7.71575E+01 -7.39672E+01
  -6.97017E+01 -6.87700E+01 -7.07850E+01 -7.03832E+01 -6.98239E+01 -7.15629E+01 -7.19839E+01 -7.19606E+01 -7.39446E+01 -7.56184E+01
  -7.53776E+01 -7.48313E+01 -7.44225E+01 -7.33928E+01 -7.23421E+01 -7.18010E+01 -7.18865E+01 -7.21352E+01 -7.18524E+01 -7.12109E+01
  -7.03638E+01 -6.89469E+01 -6.72385E+01 -6.60826E+01 -6.55274E+01 -6.48998E+01 -6.39743E+01 -6.28188E+01 -6.16783E+01 -6.08481E+01
  -6.06546E+01 -6.10501E+01 -6.12509E+01 -6.01755E+01 -5.78028E+01 -5.53033E+01 -5.38567E+01 -5.38078E+01 -5.46440E+01 -5.54158E+01
  -5.59015E+01 -5.63382E+01 -5.68576E+01 -5.76680E+01 -5.84106E+01 -5.84377E+01 -5.75633E+01 -5.59378E+01 -5.46077E+01 -5.37204E+01
  -5.34827E+01 -5.37417E+01 -5.36653E+01 -5.31671E+01 -5.27960E+01 -5.16643E+01 -4.98863E+01 -4.92590E+01 -4.93053E+01 -4.93001E+01
  -4.98310E+01 -5.00109E+01 -4.85941E+01 -4.67446E+01 -4.50818E+01 -4.42644E+01 -4.41774E+01 -4.25901E+01 -4.16920E+01 -4.26112E+01
  -4.30641E+01 -4.28636E+01 -4.26389E+01 -4.04710E+01 -3.73548E+01 -3.49660E+01 -3.42991E+01 -3.57798E+01 -3.67670E+01 -3.55675E+01
  -3.50041E+01 -3.38844E+01 -2.34268E+01 -1.16814E+01 -9.07120E+00 -9.62920E+00 -1.09237E+01 -1.41996E+01 -1.01135E+01  3.33751E+00
   1.86497E+01  2.95095E+01  2.91135E+01  2.00501E+01  1.23737E+01  5.60066E+00 -4.56535E+00 -1.30534E+01 -1.95375E+01 -2.70217E+01
  -3.20127E+01 -3.28329E+01 -3.30464E+01 -3.42466E+01 -3.50149E+01 -3.41164E+01 -2.84085E+01 -1.65058E+01 -9.60181E+00 -9.96556E+00
  -1.15428E+01 -1.43378E+01 -1.52060E+01 -7.05938E+00  5.66384E+00  1.61778E+01  1.97847E+01  1.48094E+01  7.81815E+00  3.17812E+00
  -3.04009E+00 -1.09421E+01 -1.60770E+01 -2.12254E+01 -2.61205E+01 -2.77207E+01 -2.73503E+01 -2.78768E+01 -2.89157E+01 -2.92809E+01
  -2.92284E+01 -2.90635E+01 -2.88814E+01 -2.87227E+01 -2.86078E+01 -2.85094E+01 -2.83402E+01 -2.81069E+01 -2.78109E+01 -2.74446E+01
  -2.73375E+01 -2.78146E+01 -2.81941E+01 -2.80874E+01 -2.75999E+01 -2.65967E+01 -2.59490E+01 -2.62520E+01 -2.69306E+01 -2.77288E+01
  -2.82569E+01 -2.77133E+01 -2.67689E+01 -2.63227E+01 -2.63256E+01 -2.67750E+01 -2.77149E+01 -2.81402E+01 -2.77244E+01 -2.73570E+01
  -2.71039E+01 -2.72911E+01 -2.79311E+01 -2.83557E+01 -2.81380E+01 -2.74661E+01 -2.65055E+01 -2.60468E+01 -2.58762E+01 -2.53028E+01
  -2.43298E+01 -2.30949E+01 -2.18697E+01 -2.12564E+01 -2.11121E+01 -2.06027E+01 -1.94409E+01 -1.76048E+01 -1.61851E+01 -1.55152E+01
  -1.49342E+01 -1.43517E+01 -1.39627E+01 -1.30472E+01 -1.17527E+01 -1.11484E+01 -1.12111E+01 -1.15334E+01 -1.19818E+01 -1.22853E+01
  -1.24691E+01 -1.22833E+01 -1.15971E+01 -1.15015E+01 -1.15263E+01 -1.09149E+01 -1.01056E+01 -9.92810E+00 -1.07102E+01 -1.18929E+01
  -1.29759E+01 -1.37163E+01 -1.36148E+01 -1.23784E+01 -1.03386E+01 -8.43498E+00 -7.48279E+00 -7.07932E+00 -7.25822E+00 -8.36266E+00
  -9.88323E+00 -1.06714E+01 -1.03467E+01 -9.02141E+00 -7.26811E+00 -5.57843E+00 -3.96794E+00 -2.70154E+00 -1.97617E+00 -1.39187E+00
  -8.50168E-01 -5.81238E-01 -3.75736E-01 -1.89420E-01  2.96630E-01  1.15666E+00  2.02065E+00  2.77624E+00  3.50900E+00  3.83461E+00
   3.86578E+00  4.03840E+00  4.68208E+00  5.84264E+00  7.33946E+00  9.58937E+00  1.40287E+01  1.75903E+01  1.86333E+01  2.16666E+01
   3.56277E+01  5.22160E+01  5.75973E+01  5.88203E+01  5.90798E+01  5.50431E+01  5.74906E+01  7.20765E+01  8.86989E+01  9.83476E+01
   9.36101E+01  8.01016E+01  6.94851E+01  6.04383E+01  4.73272E+01  3.68432E+01  2.95193E+01  1.99283E+01  1.35629E+01  1.27241E+01
   1.24384E+01  1.02437E+01  8.58986E+00  8.15890E+00  7.94187E+00  7.68401E+00  7.49348E+00  7.31741E+00  7.08289E+00  6.86324E+00
   6.70262E+00  6.60170E+00  6.59713E+00  6.66045E+00  6.73950E+00  6.84280E+00  6.93228E+00  7.00634E+00  7.12425E+00  7.27769E+00
   7.45846E+00  7.70356E+00  7.97064E+00  8.23921E+00  8.53185E+00  8.82859E+00  9.10407E+00  9.38643E+00  9.68319E+00  9.99447E+00
   1.03167E+01  1.06441E+01  1.09711E+01  1.12934E+01  1.15951E+01  1.18858E+01  1.21660E+01  1.24286E+01  1.26750E+01  1.29169E+01
   1.31551E+01  1.33931E+01  1.36351E+01  1.38884E+01  1.41559E+01  1.44440E+01  1.47546E+01  1.50926E+01  1.54589E+01  1.58558E+01
   1.62803E+01  1.67318E+01  1.72053E+01  1.76982E+01  1.82035E+01  1.87162E+01  1.92272E+01  1.97311E+01  2.02201E+01  2.06910E+01
   2.11386E+01  2.15631E+01  2.19656E+01  2.23592E+01  2.27683E+01  2.32562E+01  2.39975E+01  2.53389E+01  2.60062E+01  2.47538E+01
   2.32772E+01  2.22411E+01  2.13321E+01  2.14073E+01  2.21454E+01  2.31875E+01  2.39095E+01  2.25367E+01  2.02828E+01  1.86884E+01
   1.66757E+01  1.48472E+01  1.51613E+01  1.71296E+01  1.93696E+01  2.12404E+01  2.23199E+01  2.30525E+01  2.35566E+01  2.34226E+01
   2.32522E+01  2.31714E+01  2.26334E+01  2.20801E+01  2.19845E+01  2.20428E+01  2.19245E+01  2.17661E+01  2.16731E+01  2.16110E+01
   2.15590E+01  2.15121E+01  2.14671E+01  2.14261E+01  2.13901E+01  2.13638E+01  2.13497E+01  2.13531E+01  2.13766E+01  2.14262E+01
   2.15047E+01  2.16178E+01  2.17679E+01  2.19601E+01  2.21961E+01  2.24802E+01  2.28136E+01  2.31992E+01  2.36364E+01  2.41262E+01
   2.46657E+01  2.52537E+01  2.58841E+01  2.65523E+01  2.72487E+01  2.79649E+01  2.86882E+01  2.94070E+01  3.01059E+01  3.07716E+01
   3.13874E+01  3.19402E+01  3.24152E+01  3.28019E+01  3.30891E+01  3.32712E+01  3.33427E+01  3.33043E+01  3.31571E+01  3.29082E+01
   3.25645E+01  3.21381E+01  3.16402E+01  3.10860E+01  3.04885E+01  2.98635E+01  2.92232E+01  2.85816E+01  2.79488E+01  2.73358E+01
   2.67489E+01  2.61956E+01  2.56787E+01  2.52021E+01  2.47657E+01  2.43710E+01  2.40155E+01  2.36989E+01  2.34173E+01  2.31696E+01
   2.29517E+01  2.27621E+01  2.25966E+01  2.24538E+01  2.23299E+01  2.22239E+01  2.21324E+01  2.20549E+01  2.19884E+01  2.19327E+01
   2.18852E+01  2.18461E+01  2.18132E+01  2.17870E+01  2.17653E+01  2.17487E+01  2.17355E+01  2.17266E+01  2.17201E+01  2.17171E+01
   2.17158E+01  2.17172E+01  2.17199E+01  2.17250E+01  2.17310E+01  2.17389E+01  2.17473E+01  2.17574E+01  2.17679E+01  2.17799E+01
   2.17920E+01  2.18054E+01  2.18188E+01  2.18333E+01  2.18478E+01  2.18634E+01  2.18788E+01  2.18951E+01  2.19111E+01  2.19281E+01
   2.19449E+01  2.19625E+01  2.19797E+01  2.19977E+01  2.20154E+01  2.20340E+01  2.20521E+01  2.20711E+01  2.20896E+01  2.21088E+01
   2.21277E+01  2.21475E+01  2.21668E+01  2.21869E+01  2.22065E+01  2.22270E+01  2.22471E+01  2.22681E+01  2.22886E+01  2.23100E+01
   2.23309E+01  2.23528E+01  2.23744E+01  2.23969E+01  2.24191E+01  2.24422E+01  2.24650E+01  2.24889E+01
 NY background values follow
    -8.922E+01   -8.877E+01   -8.831E+01   -8.785E+01   -8.739E+01   -8.694E+01   -8.648E+01   -8.602E+01   -8.557E+01   -8.511E+01
    -8.465E+01   -8.420E+01   -8.374E+01   -8.328E+01   -8.283E+01   -8.237E+01   -8.191E+01   -8.146E+01   -8.100E+01   -8.054E+01
    -8.009E+01   -7.963E+01   -7.918E+01   -7.872E+01   -7.827E+01   -7.782E+01   -7.736E+01   -7.691E+01   -7.646E+01   -7.600E+01
    -7.555E+01   -7.510E+01   -7.465E+01   -7.420E+01   -7.375E+01   -7.330E+01   -7.285E+01   -7.240E+01   -7.195E+01   -7.150E+01
    -7.106E+01   -7.061E+01   -7.017E+01   -6.972E+01   -6.928E+01   -6.883E+01   -6.839E+01   -6.795E+01   -6.751E+01   -6.707E+01
    -6.663E+01   -6.619E+01   -6.575E+01   -6.531E+01   -6.488E+01   -6.444E+01   -6.401E+01   -6.357E+01   -6.314E+01   -6.271E+01
    -6.228E+01   -6.185E+01   -6.142E+01   -6.099E+01   -6.056E+01   -6.014E+01   -5.971E+01   -5.929E+01   -5.887E+01   -5.845E+01
    -5.803E+01   -5.761E+01   -5.719E+01   -5.677E+01   -5.636E+01   -5.594E+01   -5.553E+01   -5.512E+01   -5.471E+01   -5.430E+01
    -5.389E+01   -5.348E+01   -5.308E+01   -5.267E+01   -5.227E+01   -5.187E+01   -5.147E+01   -5.107E+01   -5.068E+01   -5.028E+01
    -4.989E+01   -4.949E+01   -4.910E+01   -4.871E+01   -4.833E+01   -4.794E+01   -4.755E+01   -4.717E+01   -4.679E+01   -4.641E+01
    -4.603E+01   -4.565E+01   -4.528E+01   -4.490E+01   -4.453E+01   -4.416E+01   -4.379E+01   -4.342E+01   -4.305E+01   -4.269E+01
    -4.232E+01   -4.196E+01   -4.160E+01   -4.124E+01   -4.088E+01   -4.053E+01   -4.017E+01   -3.982E+01   -3.947E+01   -3.912E+01
    -3.877E+01   -3.842E+01   -3.808E+01   -3.773E+01   -3.739E+01   -3.705E+01   -3.671E+01   -3.637E+01   -3.603E+01   -3.570E+01
    -3.537E+01   -3.504E+01   -3.470E+01   -3.438E+01   -3.405E+01   -3.372E+01   -3.340E+01   -3.308E+01   -3.276E+01   -3.244E+01
    -3.212E+01   -3.180E+01   -3.149E+01   -3.117E+01   -3.086E+01   -3.055E+01   -3.024E+01   -2.993E+01   -2.963E+01   -2.932E+01
    -2.902E+01   -2.871E+01   -2.841E+01   -2.811E+01   -2.781E+01   -2.752E+01   -2.722E+01   -2.693E+01   -2.663E+01   -2.634E+01
    -2.605E+01   -2.576E+01   -2.547E+01   -2.518E+01   -2.490E+01   -2.461E+01   -2.433E+01   -2.404E+01   -2.376E+01   -2.348E+01
    -2.320E+01   -2.292E+01   -2.264E+01   -2.237E+01   -2.209E+01   -2.182E+01   -2.154E+01   -2.127E+01   -2.100E+01   -2.073E+01
    -2.046E+01   -2.019E+01   -1.992E+01   -1.966E+01   -1.939E+01   -1.912E+01   -1.886E+01   -1.860E+01   -1.833E+01   -1.807E+01
    -1.781E+01   -1.755E+01   -1.729E+01   -1.704E+01   -1.678E+01   -1.652E+01   -1.627E+01   -1.601E+01   -1.576E+01   -1.551E+01
    -1.526E+01   -1.501E+01   -1.476E+01   -1.451E+01   -1.426E+01   -1.401E+01   -1.377E+01   -1.352E+01   -1.328E+01   -1.304E+01
    -1.280E+01   -1.255E+01   -1.231E+01   -1.208E+01   -1.184E+01   -1.160E+01   -1.137E+01   -1.113E+01   -1.090E+01   -1.066E+01
    -1.043E+01   -1.020E+01   -9.970E+00   -9.740E+00   -9.512E+00   -9.285E+00   -9.059E+00   -8.834E+00   -8.609E+00   -8.386E+00
    -8.164E+00   -7.943E+00   -7.722E+00   -7.503E+00   -7.284E+00   -7.067E+00   -6.850E+00   -6.635E+00   -6.420E+00   -6.206E+00
    -5.993E+00   -5.782E+00   -5.571E+00   -5.360E+00   -5.151E+00   -4.943E+00   -4.736E+00   -4.529E+00   -4.323E+00   -4.119E+00
    -3.915E+00   -3.712E+00   -3.510E+00   -3.308E+00   -3.108E+00   -2.908E+00   -2.709E+00   -2.512E+00   -2.315E+00   -2.118E+00
    -1.923E+00   -1.728E+00   -1.534E+00   -1.341E+00   -1.149E+00   -9.578E-01   -7.672E-01   -5.774E-01   -3.884E-01   -2.001E-01
    -1.267E-02    1.740E-01    3.600E-01    5.452E-01    7.296E-01    9.132E-01    1.096E+00    1.278E+00    1.460E+00    1.640E+00
     1.820E+00    1.999E+00    2.177E+00    2.355E+00    2.532E+00    2.708E+00    2.883E+00    3.057E+00    3.231E+00    3.404E+00
     3.576E+00    3.748E+00    3.918E+00    4.088E+00    4.257E+00    4.425E+00    4.593E+00    4.760E+00    4.926E+00    5.091E+00
     5.256E+00    5.419E+00    5.582E+00    5.744E+00    5.906E+00    6.066E+00    6.226E+00    6.385E+00    6.543E+00    6.701E+00
     6.858E+00    7.014E+00    7.169E+00    7.323E+00    7.477E+00    7.630E+00    7.782E+00    7.933E+00    8.083E+00    8.233E+00
     8.382E+00    8.530E+00    8.678E+00    8.824E+00    8.970E+00    9.115E+00    9.259E+00    9.403E+00    9.545E+00    9.687E+00
     9.828E+00    9.969E+00    1.011E+01    1.025E+01    1.038E+01    1.052E+01    1.066E+01    1.079E+01    1.093E+01    1.106E+01
     1.119E+01    1.133E+01    1.146E+01    1.159E+01    1.172E+01    1.185E+01    1.197E+01    1.210E+01    1.223E+01    1.235E+01
     1.248E+01    1.260E+01    1.273E+01    1.285E+01    1.297E+01    1.309E+01    1.321E+01    1.333E+01    1.345E+01    1.356E+01
     1.368E+01    1.379E+01    1.391E+01    1.402E+01    1.414E+01    1.425E+01    1.436E+01    1.447E+01    1.458E+01    1.469E+01
     1.479E+01    1.490E+01    1.501E+01    1.511E+01    1.522E+01    1.532E+01    1.542E+01    1.552E+01    1.563E+01    1.572E+01
     1.582E+01    1.592E+01    1.602E+01    1.612E+01    1.621E+01    1.631E+01    1.640E+01    1.649E+01    1.658E+01    1.667E+01
     1.676E+01    1.685E+01    1.694E+01    1.703E+01    1.712E+01    1.720E+01    1.729E+01    1.737E+01    1.745E+01    1.754E+01
     1.762E+01    1.770E+01    1.778E+01    1.785E+01    1.793E+01    1.801E+01    1.808E+01    1.816E+01    1.823E+01    1.831E+01
     1.838E+01    1.845E+01    1.852E+01    1.859E+01    1.866E+01    1.872E+01    1.879E+01    1.886E+01    1.892E+01    1.899E+01
     1.905E+01    1.911E+01    1.917E+01    1.923E+01    1.929E+01    1.935E+01    1.941E+01    1.947E+01    1.953E+01    1.958E+01
     1.964E+01    1.969E+01    1.975E+01    1.980E+01    1.985E+01    1.990E+01    1.996E+01    2.001E+01    2.005E+01    2.010E+01
     2.015E+01    2.020E+01    2.025E+01    2.029E+01    2.034E+01    2.038E+01    2.043E+01    2.047E+01    2.051E+01    2.055E+01
     2.059E+01    2.064E+01    2.068E+01    2.071E+01    2.075E+01    2.079E+01    2.083E+01    2.087E+01    2.090E+01    2.094E+01
     2.098E+01    2.101E+01    2.105E+01    2.108E+01    2.111E+01    2.115E+01    2.118E+01    2.121E+01    2.124E+01    2.128E+01
     2.131E+01    2.134E+01    2.137E+01    2.140E+01    2.143E+01    2.146E+01    2.149E+01    2.152E+01    2.155E+01    2.158E+01
     2.161E+01    2.164E+01    2.167E+01    2.169E+01    2.172E+01    2.175E+01    2.178E+01    2.181E+01    2.184E+01    2.186E+01
     2.189E+01    2.192E+01    2.195E+01    2.198E+01    2.201E+01    2.203E+01    2.206E+01    2.209E+01
 Cr       Conc. = 1.00E+03
