 LCModel (Version 6.3-1L) Copyright: S.W. Provencher.          Ref.: Magn. Reson. Med. 30:672-679 (1993).                
 Slice#2 Row#8 Col#7  PD_24_press_2_raw_act
 36 lines in following concentration table = NCONC+1
    Conc.  %SD /Cr+PCr  Metabolite                                         
   97.721 136% 3.7E-02 Ala                                                 
    0.000 999%   0.000 Asp                                                 
 1.60E+03  14%   0.607 Cr                                                  
 1.03E+03  22%   0.393 PCr                                                 
    0.000 999%   0.000 GABA                                                
    0.000 999%   0.000 Glc                                                 
  648.356  42%   0.246 Gln                                                 
 2.35E+03  13%   0.893 Glu                                                 
  677.442   4%   0.257 GPC                                                 
    0.000 999%   0.000 PCh                                                 
  588.450  16%   0.223 GSH                                                 
 1.92E+03  17%   0.731 Ins                                                 
   15.282 936% 5.8E-03 Lac                                                 
 3.34E+03   5%   1.268 NAA                                                 
  575.847  25%   0.219 NAAG                                                
   87.783  40% 3.3E-02 Scyllo                                              
    0.000 999%   0.000 Tau                                                 
    0.000 999%   0.000 -CrCH2                                              
  677.442   4%   0.257 GPC+PCh                                             
 3.92E+03   3%   1.487 NAA+NAAG                                            
 2.63E+03   3%   1.000 Cr+PCr                                              
 3.00E+03  14%   1.139 Glu+Gln                                             
 1.94E+03  33%   0.737 Lip13a                                              
    0.000 999%   0.000 Lip13b                                              
  411.885  73%   0.156 Lip09                                               
 1.77E+03  21%   0.672 MM09                                                
  324.029  62%   0.123 Lip20                                               
 4.09E+03  14%   1.553 MM20                                                
  419.855  66%   0.159 MM12                                                
  510.051  92%   0.194 MM14                                                
 2.09E+03  17%   0.795 MM17                                                
 1.94E+03  33%   0.737 Lip13a+Lip13b                                       
 2.87E+03  17%   1.090 MM14+Lip13a+Lip13b+MM12                             
 2.18E+03  12%   0.828 MM09+Lip09                                          
 4.41E+03  12%   1.676 MM20+Lip20                                          
   6 lines in following misc. output table
  FWHM = 0.046 ppm    S/N =  14                                            
  Data shift = 0.015 ppm                                                   
  Ph:   1 deg       1.7 deg/ppm                                            
  alphaB,S = 4.7E+00,   2.8E+01                                            
   14 spline knots.   Ns = 6(1)                                            
  (11) 3 infls.   ( 9) 1 extrs.                                            
  498 points on ppm-axis = NY
      4.000000     3.992357     3.984714     3.977070     3.969427     3.961784     3.954141     3.946497     3.938854     3.931211
      3.923568     3.915925     3.908281     3.900638     3.892995     3.885352     3.877708     3.870065     3.862422     3.854779
      3.847136     3.839492     3.831849     3.824206     3.816563     3.808919     3.801276     3.793633     3.785990     3.778347
      3.770703     3.763060     3.755417     3.747774     3.740130     3.732487     3.724844     3.717201     3.709558     3.701914
      3.694271     3.686628     3.678985     3.671341     3.663698     3.656055     3.648412     3.640769     3.633125     3.625482
      3.617839     3.610196     3.602552     3.594909     3.587266     3.579623     3.571980     3.564336     3.556693     3.549050
      3.541407     3.533763     3.526120     3.518477     3.510834     3.503191     3.495547     3.487904     3.480261     3.472618
      3.464974     3.457331     3.449688     3.442045     3.434402     3.426758     3.419115     3.411472     3.403829     3.396185
      3.388542     3.380899     3.373256     3.365613     3.357969     3.350326     3.342683     3.335040     3.327396     3.319753
      3.312110     3.304467     3.296824     3.289180     3.281537     3.273894     3.266251     3.258607     3.250964     3.243321
      3.235678     3.228034     3.220391     3.212748     3.205105     3.197462     3.189818     3.182175     3.174532     3.166889
      3.159245     3.151602     3.143959     3.136316     3.128673     3.121029     3.113386     3.105743     3.098100     3.090456
      3.082813     3.075170     3.067527     3.059884     3.052240     3.044597     3.036954     3.029311     3.021667     3.014024
      3.006381     2.998738     2.991095     2.983451     2.975808     2.968165     2.960522     2.952878     2.945235     2.937592
      2.929949     2.922306     2.914662     2.907019     2.899376     2.891733     2.884089     2.876446     2.868803     2.861160
      2.853517     2.845873     2.838230     2.830587     2.822944     2.815300     2.807657     2.800014     2.792371     2.784728
      2.777084     2.769441     2.761798     2.754155     2.746511     2.738868     2.731225     2.723582     2.715939     2.708295
      2.700652     2.693009     2.685366     2.677722     2.670079     2.662436     2.654793     2.647150     2.639506     2.631863
      2.624220     2.616577     2.608933     2.601290     2.593647     2.586004     2.578361     2.570717     2.563074     2.555431
      2.547788     2.540144     2.532501     2.524858     2.517215     2.509572     2.501928     2.494285     2.486642     2.478999
      2.471355     2.463712     2.456069     2.448426     2.440783     2.433139     2.425496     2.417853     2.410210     2.402566
      2.394923     2.387280     2.379637     2.371994     2.364350     2.356707     2.349064     2.341421     2.333777     2.326134
      2.318491     2.310848     2.303205     2.295561     2.287918     2.280275     2.272632     2.264988     2.257345     2.249702
      2.242059     2.234416     2.226772     2.219129     2.211486     2.203843     2.196199     2.188556     2.180913     2.173270
      2.165627     2.157983     2.150340     2.142697     2.135054     2.127410     2.119767     2.112124     2.104481     2.096838
      2.089194     2.081551     2.073908     2.066265     2.058621     2.050978     2.043335     2.035692     2.028049     2.020405
      2.012762     2.005119     1.997476     1.989833     1.982190     1.974546     1.966903     1.959260     1.951617     1.943974
      1.936331     1.928688     1.921045     1.913402     1.905759     1.898115     1.890472     1.882829     1.875186     1.867543
      1.859900     1.852257     1.844614     1.836971     1.829327     1.821684     1.814041     1.806398     1.798755     1.791112
      1.783469     1.775826     1.768183     1.760540     1.752896     1.745253     1.737610     1.729967     1.722324     1.714681
      1.707038     1.699395     1.691752     1.684108     1.676465     1.668822     1.661179     1.653536     1.645893     1.638250
      1.630607     1.622964     1.615321     1.607677     1.600034     1.592391     1.584748     1.577105     1.569462     1.561819
      1.554176     1.546533     1.538890     1.531246     1.523603     1.515960     1.508317     1.500674     1.493031     1.485388
      1.477745     1.470102     1.462458     1.454815     1.447172     1.439529     1.431886     1.424243     1.416600     1.408957
      1.401314     1.393671     1.386027     1.378384     1.370741     1.363098     1.355455     1.347812     1.340169     1.332526
      1.324883     1.317240     1.309596     1.301953     1.294310     1.286667     1.279024     1.271381     1.263738     1.256095
      1.248452     1.240808     1.233165     1.225522     1.217879     1.210236     1.202593     1.194950     1.187307     1.179664
      1.172021     1.164377     1.156734     1.149091     1.141448     1.133805     1.126162     1.118519     1.110876     1.103233
      1.095590     1.087946     1.080303     1.072660     1.065017     1.057374     1.049731     1.042088     1.034445     1.026802
      1.019158     1.011515     1.003872     0.996229     0.988586     0.980943     0.973300     0.965657     0.958014     0.950371
      0.942727     0.935084     0.927441     0.919798     0.912155     0.904512     0.896869     0.889226     0.881583     0.873940
      0.866296     0.858653     0.851010     0.843367     0.835724     0.828081     0.820438     0.812795     0.805152     0.797508
      0.789865     0.782222     0.774579     0.766936     0.759293     0.751650     0.744007     0.736364     0.728721     0.721077
      0.713434     0.705791     0.698148     0.690505     0.682862     0.675219     0.667576     0.659933     0.652290     0.644646
      0.637003     0.629360     0.621717     0.614074     0.606431     0.598788     0.591145     0.583502     0.575858     0.568215
      0.560572     0.552929     0.545286     0.537643     0.530000     0.522357     0.514714     0.507071     0.499427     0.491784
      0.484141     0.476498     0.468855     0.461212     0.453569     0.445925     0.438282     0.430639     0.422996     0.415353
      0.407710     0.400067     0.392424     0.384780     0.377137     0.369494     0.361851     0.354208     0.346565     0.338922
      0.331278     0.323635     0.315992     0.308349     0.300706     0.293063     0.285420     0.277777     0.270133     0.262490
      0.254847     0.247204     0.239561     0.231918     0.224275     0.216631     0.208988     0.201345
 NY phased data points follow
   4.33686E+01  4.26375E+01  3.62115E+01  4.12723E+01  4.49624E+01  5.59062E+01  6.66320E+01  7.44647E+01  8.22126E+01  9.18276E+01
   9.19731E+01  1.01172E+02  8.58340E+01  8.42832E+01  7.88028E+01  6.39461E+01  5.02599E+01  5.08946E+01  3.68101E+01  4.35571E+01
   3.46200E+01  4.33211E+01  3.95064E+01  3.82285E+01  4.41824E+01  4.72257E+01  4.81473E+01  3.71539E+01  4.38371E+01  5.66499E+01
   4.92888E+01  4.98657E+01  4.22315E+01  4.39223E+01  4.83088E+01  3.89336E+01  3.21801E+01  3.59347E+01  3.44369E+01  4.15057E+01
   3.41153E+01  4.28229E+01  3.72848E+01  3.74292E+01  4.63365E+01  4.38645E+01  4.92404E+01  5.44774E+01  4.53148E+01  4.58729E+01
   3.51537E+01  4.08972E+01  3.51947E+01  3.87336E+01  3.84315E+01  3.78735E+01  3.58195E+01  3.57475E+01  4.21220E+01  3.81340E+01
   2.26210E+01  3.06074E+01  3.10313E+01  3.00879E+01  2.06775E+01  3.11518E+01  1.39644E+01  2.61257E+01  2.25673E+01  2.46105E+01
   2.02677E+01  3.08820E+01  3.22206E+01  2.55261E+01  2.85520E+01  2.03273E+01  2.23876E+01  2.59257E+01  1.13644E+01  2.29031E+01
   1.56482E+01  2.57138E+01  2.71998E+01  2.57870E+01  2.34383E+01  3.23759E+01  2.45308E+01  2.22488E+01  2.42751E+01  2.80022E+01
   1.72590E+01  2.34522E+01  2.62290E+01  2.97865E+01  3.47785E+01  2.97328E+01  2.25198E+01  2.94750E+01  2.99607E+01  3.70895E+01
   5.91604E+01  7.19632E+01  8.80903E+01  9.42251E+01  8.60312E+01  7.28856E+01  6.02645E+01  5.07078E+01  3.77336E+01  3.58832E+01
   2.73487E+01  3.06744E+01  1.96132E+01  1.78714E+01  1.87200E+01  2.06911E+01  2.82864E+01  2.22680E+01  1.12533E+01  2.06058E+01
   1.80870E+01  2.87534E+01  3.22241E+01  4.82272E+01  6.46902E+01  9.90486E+01  1.03658E+02  1.20208E+02  1.04389E+02  9.94681E+01
   7.23824E+01  6.24826E+01  4.36251E+01  3.95421E+01  3.43970E+01  3.07362E+01  1.97550E+01  2.31634E+01  1.68408E+01  2.01105E+01
   2.39675E+01  2.06557E+01  9.24364E+00  1.44317E+01  1.49451E+01  1.64937E+01  1.69740E+01  1.15379E+01  1.98131E+01  2.11824E+01
   1.86369E+01  1.95874E+01  1.75724E+01  1.69176E+01  1.76637E+01  1.35501E+01  1.83122E+01  1.91111E+01  1.61690E+01  1.22567E+01
   2.03019E+01  5.88118E+00  1.25472E+01  1.31090E+01  2.13519E+01  1.44978E+01  1.48662E+01  1.38345E+01  7.90300E+00  7.80396E+00
   4.09563E+00  1.11198E+01  3.07735E+00  3.87411E+00 -4.88706E+00 -6.15303E+00 -9.84288E+00 -3.61261E+00 -3.12933E+00  8.70967E+00
  -4.45145E+00  2.98318E+00 -8.63989E+00 -1.58631E+00  2.07877E+00 -1.84808E+00  1.92177E+00  3.84546E+00  6.98201E+00  7.93247E+00
   1.37270E+01  1.81684E+01  1.60108E+01  1.53968E+01  1.68148E+01  8.03310E+00  1.11753E+01  1.30949E+01  6.72873E+00  8.18294E+00
   1.16738E+01  6.64865E+00  1.47139E+01  1.35615E+01  1.59558E+01  9.93263E+00  1.52181E+01  7.18531E+00  6.71447E+00  6.40619E+00
   8.45622E+00  1.73632E+01  1.49295E+01  2.42564E+01  2.80084E+01  2.78697E+01  3.03229E+01  2.38801E+01  2.29623E+01  1.57213E+01
   5.01166E+00  4.55187E+00  1.52679E+00  9.30677E+00  9.86405E+00  1.94130E+01  1.39422E+01  2.39631E+01  2.61342E+01  2.66728E+01
   2.44725E+01  2.90298E+01  2.00397E+01  1.88922E+01  1.36925E+01  2.07258E+01  1.72086E+01  1.40296E+01  1.82297E+01  2.50410E+01
   1.84125E+01  1.77644E+01  9.94510E+00  1.92882E+01  2.07789E+01  2.68530E+01  2.15684E+01  3.56188E+01  2.85438E+01  2.34778E+01
   3.29242E+01  3.16046E+01  4.06862E+01  4.74335E+01  5.53474E+01  6.15176E+01  6.34386E+01  9.86056E+01  1.26064E+02  1.54453E+02
   1.60125E+02  1.56064E+02  1.29412E+02  9.27277E+01  7.13605E+01  5.50412E+01  3.20079E+01  3.01140E+01  2.86139E+01  2.08237E+01
   1.96367E+01  1.51816E+01  1.49457E+01  2.76542E+01  1.50170E+01  1.85282E+01  1.44327E+01  2.37263E+01  1.93924E+01  1.36251E+01
   1.53778E+01  1.41884E+01  1.98528E+01  1.45012E+01  1.74361E+01  1.88480E+01  1.71269E+01  2.28549E+01  1.25577E+01  1.39396E+01
   1.36183E+01  1.08802E+01  9.83808E+00  1.56939E+01  1.14812E+01  1.92786E+01  8.18750E+00  1.65571E+01  1.74738E+01  2.27852E+01
   1.44154E+01  2.56981E+01  2.74073E+01  2.45047E+01  1.66249E+01  2.44589E+01  2.30559E+01  2.42953E+01  2.60201E+01  2.83302E+01
   2.26868E+01  3.15965E+01  2.84902E+01  2.64754E+01  1.46037E+01  2.27224E+01  1.65630E+01  2.22465E+01  1.80537E+01  1.37773E+01
   1.29881E+01  1.91295E+01  1.66589E+01  1.28909E+01  1.59468E+01  9.92660E+00  8.01447E+00  1.26092E+01  8.80951E+00  1.14636E+01
   3.22535E+00  1.18206E+01  1.21944E+01  1.70243E+01  6.72917E+00  9.13282E+00  1.30273E+01  1.35283E+01  2.02108E+01  1.28421E+01
   1.18329E+01  1.05038E+01  1.68569E+01  1.94750E+01  1.84628E+01  2.85302E+01  1.75722E+01  2.37631E+01  2.11721E+01  1.89397E+01
   1.36803E+01  2.44479E+01  1.74248E+01  2.29511E+01  2.71813E+01  2.37075E+01  1.86800E+01  1.35295E+01  1.31325E+01  1.93919E+01
   1.54461E+01  2.17969E+01  1.16866E+01  2.13840E+01  2.08268E+01  1.41852E+01  1.19733E+01  1.82272E+01  8.87385E+00  1.69034E+01
   7.98230E+00  1.53566E+01  1.59249E+01  1.68287E+01  1.57686E+01  2.15704E+01  1.09427E+01  1.18548E+01  8.26850E+00  6.60988E+00
   6.92915E+00  1.00730E+01  8.39630E+00  1.21237E+01  1.04299E+01  1.07072E+01  1.24723E+01  1.34003E+01  1.69775E+01  1.63030E+01
   1.10866E+01  1.10923E+01  1.51843E+01  2.08522E+01  1.44060E+01  1.54006E+01  1.69832E+01  2.02013E+01  1.96195E+01  1.91029E+01
   2.04581E+01  2.19445E+01  1.40165E+01  2.02620E+01  1.62900E+01  2.68930E+01  2.78989E+01  2.99933E+01  1.66574E+01  2.15394E+01
   2.38400E+01  2.06550E+01  1.92080E+01  1.72622E+01  1.10940E+01  2.00237E+01  1.83811E+01  1.49537E+01  1.82456E+01  1.90936E+01
   1.19343E+01  1.68583E+01  1.10791E+01  1.86740E+01  8.34898E+00  1.53428E+01  1.29338E+01  1.15114E+01  1.33933E+01  1.75951E+01
   1.26764E+01  1.24800E+01  1.34267E+01  1.35955E+01  1.10541E+01  1.41418E+01  8.74205E+00  8.95871E+00  1.00516E+01  6.54403E+00
  -1.91323E+00  1.35553E+01  1.13986E+01  1.43125E+01  1.55447E+01  1.01220E+01  8.04988E+00  4.58120E+00  2.60289E+00  8.40841E+00
   1.06006E+01  1.64548E+01  7.51041E+00  1.17119E+01  4.63538E+00  9.53174E+00  8.35381E+00  1.20384E+01  5.72544E+00  7.62097E+00
   1.07172E+01  2.77578E+00  4.13057E+00  1.48319E+01  9.94960E+00  4.21508E+00  1.72617E+00  1.32989E+01  8.90977E+00  1.48001E+01
   8.70380E+00  1.05869E+01  4.05956E+00  5.70660E+00  1.94977E+00  9.06045E+00  7.39535E+00  1.11703E+01  8.94304E+00  8.15622E+00
   4.35201E+00  6.00591E+00  8.50184E+00  4.76193E+00  7.26267E+00  1.20614E+01  7.99188E+00  1.08437E+01  4.81215E+00  7.26553E+00
   7.01833E+00  8.80753E+00  8.15055E+00 -3.61816E-01  2.12328E+00  4.21020E+00  4.83790E+00  1.07126E+01
 NY points of the fit to the data follow
   3.96308E+01  3.94483E+01  4.02442E+01  4.23191E+01  4.52998E+01  5.17316E+01  6.15048E+01  7.07218E+01  7.96326E+01  8.85472E+01
   9.39583E+01  9.38235E+01  8.88394E+01  8.02785E+01  6.95947E+01  5.98733E+01  5.21041E+01  4.68595E+01  4.37881E+01  4.09881E+01
   3.87560E+01  3.78957E+01  3.72482E+01  3.70481E+01  3.68495E+01  3.65926E+01  3.83610E+01  4.15469E+01  4.51816E+01  4.84434E+01
   5.06079E+01  5.11077E+01  4.94195E+01  4.65156E+01  4.29624E+01  3.91693E+01  3.59317E+01  3.35325E+01  3.27126E+01  3.26977E+01
   3.34684E+01  3.48578E+01  3.63386E+01  3.87981E+01  4.26117E+01  4.64696E+01  4.87476E+01  4.84760E+01  4.57827E+01  4.15844E+01
   3.72150E+01  3.37335E+01  3.16032E+01  3.05778E+01  2.99741E+01  2.99592E+01  3.08990E+01  3.23425E+01  3.36481E+01  3.43091E+01
   3.39767E+01  3.26723E+01  3.07710E+01  2.89414E+01  2.76620E+01  2.72494E+01  2.74426E+01  2.79046E+01  2.86841E+01  2.94808E+01
   3.00988E+01  3.03141E+01  3.00939E+01  2.95532E+01  2.87931E+01  2.81021E+01  2.75460E+01  2.71368E+01  2.68390E+01  2.65530E+01
   2.64784E+01  2.64906E+01  2.66895E+01  2.72637E+01  2.75464E+01  2.70292E+01  2.57724E+01  2.41991E+01  2.28068E+01  2.20534E+01
   2.22254E+01  2.28822E+01  2.37055E+01  2.43805E+01  2.46594E+01  2.47210E+01  2.49246E+01  2.70839E+01  3.14002E+01  3.92180E+01
   5.58544E+01  7.52537E+01  8.97158E+01  9.45239E+01  8.89914E+01  7.56465E+01  5.97863E+01  4.70072E+01  3.79562E+01  3.19364E+01
   2.75396E+01  2.32715E+01  2.18239E+01  2.14838E+01  2.13991E+01  2.14036E+01  2.14400E+01  2.15338E+01  2.17844E+01  2.23948E+01
   2.42013E+01  2.83786E+01  3.57709E+01  4.85998E+01  6.90583E+01  9.31275E+01  1.11592E+02  1.18470E+02  1.12429E+02  9.67266E+01
   7.76766E+01  6.06946E+01  4.76719E+01  3.77600E+01  2.94704E+01  2.28260E+01  1.90980E+01  1.84333E+01  1.90938E+01  2.01593E+01
   2.09851E+01  2.12708E+01  2.11365E+01  2.06299E+01  1.99366E+01  1.93391E+01  1.87606E+01  1.82419E+01  1.77017E+01  1.71658E+01
   1.66515E+01  1.61053E+01  1.56606E+01  1.54098E+01  1.53542E+01  1.53686E+01  1.54106E+01  1.50840E+01  1.40821E+01  1.28963E+01
   1.18929E+01  1.16704E+01  1.23243E+01  1.30921E+01  1.33447E+01  1.28250E+01  1.16909E+01  1.03538E+01  9.41213E+00  8.93539E+00
   8.50929E+00  7.99898E+00  7.21490E+00  5.92880E+00  4.95769E+00  4.63204E+00  5.04541E+00  5.80820E+00  6.15202E+00  6.03290E+00
   5.73447E+00  5.50331E+00  5.64702E+00  5.96337E+00  6.20091E+00  6.65121E+00  8.01519E+00  1.03316E+01  1.32511E+01  1.60015E+01
   1.75108E+01  1.75970E+01  1.66292E+01  1.52357E+01  1.38345E+01  1.28066E+01  1.22243E+01  1.23526E+01  1.32623E+01  1.45421E+01
   1.63375E+01  1.83844E+01  2.00918E+01  2.09330E+01  2.01598E+01  1.82050E+01  1.47035E+01  1.04933E+01  7.15790E+00  5.26439E+00
   5.31215E+00  7.04456E+00  1.11803E+01  1.69815E+01  2.21852E+01  2.51641E+01  2.46635E+01  2.12039E+01  1.53697E+01  8.38470E+00
   2.42697E+00 -6.64612E-01 -2.91693E-01  2.85862E+00  7.90412E+00  1.33279E+01  1.74968E+01  1.98082E+01  2.03909E+01  2.00339E+01
   1.95173E+01  1.92762E+01  1.92680E+01  2.00712E+01  2.14301E+01  2.26514E+01  2.32446E+01  2.28954E+01  2.19742E+01  2.03123E+01
   1.84151E+01  1.73410E+01  1.77093E+01  1.93147E+01  2.14681E+01  2.36871E+01  2.53354E+01  2.60643E+01  2.61305E+01  2.64273E+01
   2.78480E+01  3.02346E+01  3.54156E+01  4.26407E+01  5.21120E+01  6.23141E+01  7.28861E+01  9.76262E+01  1.28285E+02  1.52256E+02
   1.60914E+02  1.51805E+02  1.28020E+02  9.78073E+01  7.32473E+01  5.58047E+01  4.35718E+01  3.48315E+01  2.52912E+01  2.12870E+01
   1.97172E+01  1.88608E+01  1.83649E+01  1.80632E+01  1.76558E+01  1.71204E+01  1.64779E+01  1.57844E+01  1.51093E+01  1.45516E+01
   1.41203E+01  1.37765E+01  1.35136E+01  1.33243E+01  1.31630E+01  1.30041E+01  1.28665E+01  1.27772E+01  1.27946E+01  1.29374E+01
   1.32080E+01  1.36038E+01  1.41042E+01  1.46772E+01  1.53117E+01  1.59955E+01  1.67341E+01  1.75366E+01  1.84001E+01  1.93047E+01
   2.02368E+01  2.11635E+01  2.20395E+01  2.28263E+01  2.34933E+01  2.40144E+01  2.43776E+01  2.45641E+01  2.45699E+01  2.43972E+01
   2.40525E+01  2.35499E+01  2.29109E+01  2.21604E+01  2.13261E+01  2.04374E+01  1.95245E+01  1.86172E+01  1.77442E+01  1.69330E+01
   1.62153E+01  1.56256E+01  1.51272E+01  1.47914E+01  1.45630E+01  1.42094E+01  1.36492E+01  1.29260E+01  1.21525E+01  1.15071E+01
   1.10893E+01  1.09461E+01  1.11994E+01  1.18008E+01  1.25576E+01  1.33420E+01  1.40407E+01  1.45207E+01  1.48232E+01  1.50817E+01
   1.53558E+01  1.56858E+01  1.60431E+01  1.63988E+01  1.68162E+01  1.72372E+01  1.76249E+01  1.79703E+01  1.82802E+01  1.85739E+01
   1.88543E+01  1.91361E+01  1.94227E+01  1.96903E+01  1.99008E+01  2.00287E+01  2.00607E+01  1.99790E+01  1.97976E+01  1.95393E+01
   1.92156E+01  1.88407E+01  1.84151E+01  1.79506E+01  1.74644E+01  1.69629E+01  1.64537E+01  1.59456E+01  1.54466E+01  1.49638E+01
   1.45030E+01  1.40693E+01  1.36670E+01  1.32997E+01  1.29705E+01  1.26813E+01  1.24334E+01  1.22279E+01  1.20664E+01  1.19501E+01
   1.18803E+01  1.18579E+01  1.18841E+01  1.19604E+01  1.20887E+01  1.22710E+01  1.25085E+01  1.28024E+01  1.31532E+01  1.35613E+01
   1.40261E+01  1.45455E+01  1.51159E+01  1.57317E+01  1.63860E+01  1.70699E+01  1.77727E+01  1.84819E+01  1.91829E+01  1.98604E+01
   2.04986E+01  2.10818E+01  2.15948E+01  2.20234E+01  2.23552E+01  2.25807E+01  2.26934E+01  2.26901E+01  2.25709E+01  2.23391E+01
   2.20011E+01  2.15666E+01  2.10475E+01  2.04574E+01  1.98108E+01  1.91224E+01  1.84069E+01  1.76786E+01  1.69503E+01  1.62335E+01
   1.55374E+01  1.48695E+01  1.42357E+01  1.36404E+01  1.30860E+01  1.25736E+01  1.21029E+01  1.16725E+01  1.12810E+01  1.09263E+01
   1.06058E+01  1.03166E+01  1.00557E+01  9.82040E+00  9.60822E+00  9.41688E+00  9.24405E+00  9.08746E+00  8.94516E+00  8.81565E+00
   8.69766E+00  8.58996E+00  8.49128E+00  8.40044E+00  8.31657E+00  8.23908E+00  8.16749E+00  8.10114E+00  8.03935E+00  7.98154E+00
   7.92740E+00  7.87679E+00  7.82947E+00  7.78505E+00  7.74309E+00  7.70336E+00  7.66582E+00  7.63045E+00  7.59707E+00  7.56535E+00
   7.53504E+00  7.50610E+00  7.47859E+00  7.45253E+00  7.42772E+00  7.40390E+00  7.38094E+00  7.35889E+00  7.33788E+00  7.31785E+00
   7.29859E+00  7.27991E+00  7.26181E+00  7.24442E+00  7.22781E+00  7.21187E+00  7.19637E+00  7.18123E+00  7.16651E+00  7.15236E+00
   7.13877E+00  7.12559E+00  7.11265E+00  7.09993E+00  7.08756E+00  7.07566E+00  7.06414E+00  7.05283E+00  7.04161E+00  7.03055E+00
   7.01980E+00  7.00938E+00  6.99918E+00  6.98901E+00  6.97885E+00  6.96880E+00  6.95899E+00  6.94937E+00
 NY background values follow
     3.297E+01    3.283E+01    3.270E+01    3.256E+01    3.242E+01    3.228E+01    3.215E+01    3.201E+01    3.187E+01    3.173E+01
     3.160E+01    3.146E+01    3.132E+01    3.118E+01    3.105E+01    3.091E+01    3.077E+01    3.063E+01    3.049E+01    3.036E+01
     3.022E+01    3.008E+01    2.994E+01    2.981E+01    2.967E+01    2.953E+01    2.940E+01    2.926E+01    2.912E+01    2.898E+01
     2.885E+01    2.871E+01    2.857E+01    2.844E+01    2.830E+01    2.816E+01    2.803E+01    2.789E+01    2.775E+01    2.762E+01
     2.748E+01    2.734E+01    2.721E+01    2.707E+01    2.694E+01    2.680E+01    2.666E+01    2.653E+01    2.639E+01    2.626E+01
     2.612E+01    2.599E+01    2.585E+01    2.572E+01    2.558E+01    2.545E+01    2.531E+01    2.518E+01    2.505E+01    2.491E+01
     2.478E+01    2.465E+01    2.451E+01    2.438E+01    2.425E+01    2.412E+01    2.398E+01    2.385E+01    2.372E+01    2.359E+01
     2.346E+01    2.333E+01    2.320E+01    2.307E+01    2.294E+01    2.281E+01    2.268E+01    2.255E+01    2.242E+01    2.229E+01
     2.217E+01    2.204E+01    2.191E+01    2.179E+01    2.166E+01    2.153E+01    2.141E+01    2.128E+01    2.116E+01    2.103E+01
     2.091E+01    2.078E+01    2.066E+01    2.054E+01    2.042E+01    2.029E+01    2.017E+01    2.005E+01    1.993E+01    1.981E+01
     1.969E+01    1.957E+01    1.945E+01    1.933E+01    1.922E+01    1.910E+01    1.898E+01    1.886E+01    1.875E+01    1.863E+01
     1.852E+01    1.840E+01    1.829E+01    1.817E+01    1.806E+01    1.795E+01    1.784E+01    1.772E+01    1.761E+01    1.750E+01
     1.739E+01    1.728E+01    1.717E+01    1.706E+01    1.695E+01    1.685E+01    1.674E+01    1.663E+01    1.653E+01    1.642E+01
     1.632E+01    1.621E+01    1.611E+01    1.600E+01    1.590E+01    1.580E+01    1.570E+01    1.560E+01    1.549E+01    1.539E+01
     1.530E+01    1.520E+01    1.510E+01    1.500E+01    1.490E+01    1.481E+01    1.471E+01    1.461E+01    1.452E+01    1.443E+01
     1.433E+01    1.424E+01    1.415E+01    1.405E+01    1.396E+01    1.387E+01    1.378E+01    1.369E+01    1.361E+01    1.352E+01
     1.343E+01    1.334E+01    1.326E+01    1.317E+01    1.309E+01    1.300E+01    1.292E+01    1.284E+01    1.275E+01    1.267E+01
     1.259E+01    1.251E+01    1.243E+01    1.235E+01    1.227E+01    1.220E+01    1.212E+01    1.204E+01    1.197E+01    1.189E+01
     1.182E+01    1.175E+01    1.167E+01    1.160E+01    1.153E+01    1.146E+01    1.139E+01    1.132E+01    1.125E+01    1.118E+01
     1.112E+01    1.105E+01    1.098E+01    1.092E+01    1.085E+01    1.079E+01    1.073E+01    1.066E+01    1.060E+01    1.054E+01
     1.048E+01    1.042E+01    1.036E+01    1.030E+01    1.024E+01    1.018E+01    1.012E+01    1.007E+01    1.001E+01    9.955E+00
     9.900E+00    9.845E+00    9.790E+00    9.737E+00    9.684E+00    9.631E+00    9.579E+00    9.527E+00    9.476E+00    9.425E+00
     9.375E+00    9.325E+00    9.276E+00    9.227E+00    9.179E+00    9.131E+00    9.084E+00    9.037E+00    8.991E+00    8.945E+00
     8.899E+00    8.854E+00    8.809E+00    8.765E+00    8.721E+00    8.678E+00    8.635E+00    8.592E+00    8.550E+00    8.508E+00
     8.467E+00    8.426E+00    8.386E+00    8.346E+00    8.306E+00    8.267E+00    8.228E+00    8.190E+00    8.152E+00    8.114E+00
     8.077E+00    8.040E+00    8.003E+00    7.967E+00    7.931E+00    7.896E+00    7.861E+00    7.826E+00    7.792E+00    7.758E+00
     7.724E+00    7.691E+00    7.658E+00    7.625E+00    7.593E+00    7.561E+00    7.530E+00    7.499E+00    7.468E+00    7.437E+00
     7.407E+00    7.377E+00    7.348E+00    7.318E+00    7.289E+00    7.261E+00    7.233E+00    7.205E+00    7.177E+00    7.150E+00
     7.122E+00    7.096E+00    7.069E+00    7.043E+00    7.017E+00    6.992E+00    6.967E+00    6.942E+00    6.917E+00    6.893E+00
     6.869E+00    6.845E+00    6.821E+00    6.798E+00    6.775E+00    6.752E+00    6.730E+00    6.708E+00    6.686E+00    6.665E+00
     6.644E+00    6.623E+00    6.602E+00    6.581E+00    6.561E+00    6.541E+00    6.522E+00    6.502E+00    6.483E+00    6.465E+00
     6.446E+00    6.428E+00    6.410E+00    6.392E+00    6.374E+00    6.357E+00    6.340E+00    6.323E+00    6.307E+00    6.290E+00
     6.274E+00    6.258E+00    6.243E+00    6.228E+00    6.213E+00    6.198E+00    6.183E+00    6.169E+00    6.155E+00    6.141E+00
     6.127E+00    6.114E+00    6.100E+00    6.087E+00    6.075E+00    6.062E+00    6.050E+00    6.038E+00    6.026E+00    6.015E+00
     6.003E+00    5.992E+00    5.981E+00    5.970E+00    5.960E+00    5.950E+00    5.940E+00    5.930E+00    5.920E+00    5.911E+00
     5.902E+00    5.893E+00    5.884E+00    5.875E+00    5.867E+00    5.859E+00    5.851E+00    5.843E+00    5.836E+00    5.828E+00
     5.821E+00    5.814E+00    5.808E+00    5.801E+00    5.795E+00    5.789E+00    5.783E+00    5.777E+00    5.771E+00    5.766E+00
     5.761E+00    5.756E+00    5.751E+00    5.746E+00    5.742E+00    5.738E+00    5.734E+00    5.730E+00    5.726E+00    5.722E+00
     5.719E+00    5.715E+00    5.712E+00    5.709E+00    5.707E+00    5.704E+00    5.701E+00    5.699E+00    5.697E+00    5.695E+00
     5.693E+00    5.691E+00    5.689E+00    5.688E+00    5.686E+00    5.685E+00    5.684E+00    5.683E+00    5.682E+00    5.682E+00
     5.681E+00    5.680E+00    5.680E+00    5.680E+00    5.680E+00    5.680E+00    5.680E+00    5.680E+00    5.680E+00    5.681E+00
     5.681E+00    5.682E+00    5.682E+00    5.683E+00    5.684E+00    5.685E+00    5.686E+00    5.687E+00    5.688E+00    5.690E+00
     5.691E+00    5.693E+00    5.694E+00    5.696E+00    5.697E+00    5.699E+00    5.701E+00    5.702E+00    5.704E+00    5.706E+00
     5.708E+00    5.710E+00    5.712E+00    5.714E+00    5.716E+00    5.719E+00    5.721E+00    5.723E+00    5.725E+00    5.728E+00
     5.730E+00    5.732E+00    5.734E+00    5.737E+00    5.739E+00    5.741E+00    5.744E+00    5.746E+00    5.749E+00    5.751E+00
     5.753E+00    5.756E+00    5.758E+00    5.760E+00    5.763E+00    5.765E+00    5.767E+00    5.770E+00    5.772E+00    5.774E+00
     5.776E+00    5.779E+00    5.781E+00    5.783E+00    5.785E+00    5.787E+00    5.790E+00    5.792E+00    5.794E+00    5.796E+00
     5.798E+00    5.800E+00    5.803E+00    5.805E+00    5.807E+00    5.809E+00    5.811E+00    5.813E+00    5.815E+00    5.817E+00
     5.819E+00    5.822E+00    5.824E+00    5.826E+00    5.828E+00    5.830E+00    5.832E+00    5.834E+00    5.836E+00    5.838E+00
     5.840E+00    5.842E+00    5.844E+00    5.846E+00    5.848E+00    5.850E+00    5.852E+00    5.854E+00
 Ala      Conc. = 9.77E+01
