 LCModel (Version 6.3-1L) Copyright: S.W. Provencher.          Ref.: Magn. Reson. Med. 30:672-679 (1993).                
 Slice#1 Row#10 Col#10  PD_24_press_2_raw_act
 36 lines in following concentration table = NCONC+1
    Conc.  %SD /Cr+PCr  Metabolite                                         
    0.000 999%   0.000 Ala                                                 
    6.312 999% 1.2E-02 Asp                                                 
  387.734  38%   0.743 Cr                                                  
  133.849 107%   0.257 PCr                                                 
   43.180 115% 8.3E-02 GABA                                                
   34.736 142% 6.7E-02 Glc                                                 
  463.692  69%   0.889 Gln                                                 
  120.659 291%   0.231 Glu                                                 
  135.573  15%   0.260 GPC                                                 
    0.000 999%   0.000 PCh                                                 
  192.473  40%   0.369 GSH                                                 
 1.15E+03  22%   2.208 Ins                                                 
    0.000 999%   0.000 Lac                                                 
  430.182  22%   0.825 NAA                                                 
  212.018  50%   0.406 NAAG                                                
    9.780 148% 1.9E-02 Scyllo                                              
   64.623 121%   0.124 Tau                                                 
  222.825  43%   0.427 -CrCH2                                              
  135.573  15%   0.260 GPC+PCh                                             
  642.200  17%   1.231 NAA+NAAG                                            
  521.583  12%   1.000 Cr+PCr                                              
  584.350  97%   1.120 Glu+Gln                                             
 6.19E+03  14%  11.867 Lip13a                                              
  111.168  91%   0.213 Lip13b                                              
 2.13E+03  13%   4.087 Lip09                                               
    0.000 999%   0.000 MM09                                                
  845.592  29%   1.621 Lip20                                               
 2.07E+03  23%   3.965 MM20                                                
    0.000 999%   0.000 MM12                                                
 3.58E+03  13%   6.873 MM14                                                
 3.81E+03  10%   7.296+MM17                                                
 6.30E+03  13%  12.080 Lip13a+Lip13b                                       
 9.89E+03   8%  18.953 MM14+Lip13a+Lip13b+MM12                             
 2.13E+03  13%   4.087 MM09+Lip09                                          
 2.91E+03  15%   5.586 MM20+Lip20                                          
   6 lines in following misc. output table
  FWHM = 0.092 ppm    S/N =   7                                            
  Data shift = 0.031 ppm                                                   
  Ph:  39 deg      12.6 deg/ppm                                            
  alphaB,S = 5.2E-01,   4.0E+01                                            
   14 spline knots.   Ns = 6(2)                                            
  ( 7) 5 infls.   ( 7) 5 extrs.                                            
  498 points on ppm-axis = NY
      4.000000     3.992357     3.984714     3.977070     3.969427     3.961784     3.954141     3.946497     3.938854     3.931211
      3.923568     3.915925     3.908281     3.900638     3.892995     3.885352     3.877708     3.870065     3.862422     3.854779
      3.847136     3.839492     3.831849     3.824206     3.816563     3.808919     3.801276     3.793633     3.785990     3.778347
      3.770703     3.763060     3.755417     3.747774     3.740130     3.732487     3.724844     3.717201     3.709558     3.701914
      3.694271     3.686628     3.678985     3.671341     3.663698     3.656055     3.648412     3.640769     3.633125     3.625482
      3.617839     3.610196     3.602552     3.594909     3.587266     3.579623     3.571980     3.564336     3.556693     3.549050
      3.541407     3.533763     3.526120     3.518477     3.510834     3.503191     3.495547     3.487904     3.480261     3.472618
      3.464974     3.457331     3.449688     3.442045     3.434402     3.426758     3.419115     3.411472     3.403829     3.396185
      3.388542     3.380899     3.373256     3.365613     3.357969     3.350326     3.342683     3.335040     3.327396     3.319753
      3.312110     3.304467     3.296824     3.289180     3.281537     3.273894     3.266251     3.258607     3.250964     3.243321
      3.235678     3.228034     3.220391     3.212748     3.205105     3.197462     3.189818     3.182175     3.174532     3.166889
      3.159245     3.151602     3.143959     3.136316     3.128673     3.121029     3.113386     3.105743     3.098100     3.090456
      3.082813     3.075170     3.067527     3.059884     3.052240     3.044597     3.036954     3.029311     3.021667     3.014024
      3.006381     2.998738     2.991095     2.983451     2.975808     2.968165     2.960522     2.952878     2.945235     2.937592
      2.929949     2.922306     2.914662     2.907019     2.899376     2.891733     2.884089     2.876446     2.868803     2.861160
      2.853517     2.845873     2.838230     2.830587     2.822944     2.815300     2.807657     2.800014     2.792371     2.784728
      2.777084     2.769441     2.761798     2.754155     2.746511     2.738868     2.731225     2.723582     2.715939     2.708295
      2.700652     2.693009     2.685366     2.677722     2.670079     2.662436     2.654793     2.647150     2.639506     2.631863
      2.624220     2.616577     2.608933     2.601290     2.593647     2.586004     2.578361     2.570717     2.563074     2.555431
      2.547788     2.540144     2.532501     2.524858     2.517215     2.509572     2.501928     2.494285     2.486642     2.478999
      2.471355     2.463712     2.456069     2.448426     2.440783     2.433139     2.425496     2.417853     2.410210     2.402566
      2.394923     2.387280     2.379637     2.371994     2.364350     2.356707     2.349064     2.341421     2.333777     2.326134
      2.318491     2.310848     2.303205     2.295561     2.287918     2.280275     2.272632     2.264988     2.257345     2.249702
      2.242059     2.234416     2.226772     2.219129     2.211486     2.203843     2.196199     2.188556     2.180913     2.173270
      2.165627     2.157983     2.150340     2.142697     2.135054     2.127410     2.119767     2.112124     2.104481     2.096838
      2.089194     2.081551     2.073908     2.066265     2.058621     2.050978     2.043335     2.035692     2.028049     2.020405
      2.012762     2.005119     1.997476     1.989833     1.982190     1.974546     1.966903     1.959260     1.951617     1.943974
      1.936331     1.928688     1.921045     1.913402     1.905759     1.898115     1.890472     1.882829     1.875186     1.867543
      1.859900     1.852257     1.844614     1.836971     1.829327     1.821684     1.814041     1.806398     1.798755     1.791112
      1.783469     1.775826     1.768183     1.760540     1.752896     1.745253     1.737610     1.729967     1.722324     1.714681
      1.707038     1.699395     1.691752     1.684108     1.676465     1.668822     1.661179     1.653536     1.645893     1.638250
      1.630607     1.622964     1.615321     1.607677     1.600034     1.592391     1.584748     1.577105     1.569462     1.561819
      1.554176     1.546533     1.538890     1.531246     1.523603     1.515960     1.508317     1.500674     1.493031     1.485388
      1.477745     1.470102     1.462458     1.454815     1.447172     1.439529     1.431886     1.424243     1.416600     1.408957
      1.401314     1.393671     1.386027     1.378384     1.370741     1.363098     1.355455     1.347812     1.340169     1.332526
      1.324883     1.317240     1.309596     1.301953     1.294310     1.286667     1.279024     1.271381     1.263738     1.256095
      1.248452     1.240808     1.233165     1.225522     1.217879     1.210236     1.202593     1.194950     1.187307     1.179664
      1.172021     1.164377     1.156734     1.149091     1.141448     1.133805     1.126162     1.118519     1.110876     1.103233
      1.095590     1.087946     1.080303     1.072660     1.065017     1.057374     1.049731     1.042088     1.034445     1.026802
      1.019158     1.011515     1.003872     0.996229     0.988586     0.980943     0.973300     0.965657     0.958014     0.950371
      0.942727     0.935084     0.927441     0.919798     0.912155     0.904512     0.896869     0.889226     0.881583     0.873940
      0.866296     0.858653     0.851010     0.843367     0.835724     0.828081     0.820438     0.812795     0.805152     0.797508
      0.789865     0.782222     0.774579     0.766936     0.759293     0.751650     0.744007     0.736364     0.728721     0.721077
      0.713434     0.705791     0.698148     0.690505     0.682862     0.675219     0.667576     0.659933     0.652290     0.644646
      0.637003     0.629360     0.621717     0.614074     0.606431     0.598788     0.591145     0.583502     0.575858     0.568215
      0.560572     0.552929     0.545286     0.537643     0.530000     0.522357     0.514714     0.507071     0.499427     0.491784
      0.484141     0.476498     0.468855     0.461212     0.453569     0.445925     0.438282     0.430639     0.422996     0.415353
      0.407710     0.400067     0.392424     0.384780     0.377137     0.369494     0.361851     0.354208     0.346565     0.338922
      0.331278     0.323635     0.315992     0.308349     0.300706     0.293063     0.285420     0.277777     0.270133     0.262490
      0.254847     0.247204     0.239561     0.231918     0.224275     0.216631     0.208988     0.201345
 NY phased data points follow
  -1.11297E+00 -4.08170E+00 -2.94190E+00  8.41885E-01 -1.24588E+00 -7.99287E-01 -4.96665E-01  1.02828E+00 -4.81347E+00 -6.53356E-01
   5.50988E-01 -1.36394E+00 -1.27606E+00  3.29102E+00 -2.96422E+00 -4.62245E-01 -3.97525E+00 -1.63964E+00 -7.57177E-01 -1.57265E-01
  -9.71733E-01  4.97602E-01 -3.66850E+00  1.52725E-02 -3.97153E+00 -7.98787E-01 -2.06319E+00  7.22171E-01 -1.91656E+00 -9.68509E-01
  -4.62817E+00 -5.37339E-01 -3.28666E+00  7.70822E-01 -2.53764E+00 -1.51121E+00 -1.20729E+00  9.39771E-01 -3.72736E-01  1.86207E+00
  -1.99363E+00  8.79358E-01 -1.32123E+00  2.81258E-01 -1.16108E+00  1.25476E+00  3.49364E-01  1.04747E+00 -8.68390E-01  7.81950E-01
  -1.48681E+00 -1.83024E+00 -1.65732E+00  7.55009E-01 -2.11403E+00  1.18020E-01 -4.43097E+00 -1.06024E-01 -1.66557E+00 -2.37593E+00
  -2.30643E+00 -1.10140E+00 -2.91975E-01 -1.47540E+00 -2.24655E+00  8.64998E-01 -2.98779E+00 -4.23742E+00 -2.58316E+00  1.26608E-01
  -5.90535E+00 -3.00524E+00 -2.64059E+00 -4.40580E+00 -4.59899E+00 -2.79199E+00 -3.71698E+00 -3.49732E+00 -3.54751E+00 -4.92163E+00
  -5.28744E+00 -4.06078E+00 -5.04208E+00 -2.72827E+00 -5.28174E+00 -3.73178E+00 -3.83830E+00 -4.59924E+00 -2.03108E+00 -4.45861E+00
  -1.32461E+00 -2.65788E+00  1.06690E+00  4.68378E-01  2.63025E+00  1.03658E+00  1.99902E+00  1.71058E+00 -2.08145E+00  1.26509E+00
  -6.23949E-01  3.09226E+00  1.30417E+00  4.87017E+00 -6.93150E-01 -2.06764E+00 -4.94165E-01 -3.31380E+00 -4.07063E+00 -1.62229E+00
  -1.27462E+00 -3.58498E-01 -3.11703E-01 -2.11561E+00 -1.67852E-02  4.93583E-01  7.31878E-01  4.28127E+00  4.11693E+00  7.82495E+00
   6.98254E+00  7.24710E+00  6.15739E+00  3.18666E+00  1.50595E+00  3.84814E+00  7.41979E+00  6.07105E+00  5.05290E+00  1.02922E+00
  -1.70400E+00  2.40709E+00  2.64862E+00  3.33660E+00 -1.12850E+00 -1.11447E+00  1.05170E+00  1.41920E+00  2.85352E+00  1.90756E+00
   9.86714E-01  6.20661E-01 -5.07796E-01 -3.11386E-01  1.16624E+00 -2.55465E+00  1.41655E-01 -2.61441E+00 -2.79173E+00 -1.98978E+00
  -1.06180E-01 -3.53902E+00  1.27744E+00 -8.75297E-01 -2.20816E+00 -6.14398E-01 -2.03063E+00 -1.72192E+00 -1.25335E+00 -3.73900E+00
  -3.05802E+00 -3.76644E+00 -4.34279E+00 -5.48092E+00 -5.61894E+00 -3.72974E+00 -6.13093E+00 -6.13275E+00 -9.65736E+00 -6.49493E+00
  -7.09959E+00 -5.32245E+00 -4.83234E+00 -1.89205E+00 -6.19599E+00 -4.95575E+00 -4.85780E+00 -5.01269E+00 -5.78634E+00 -3.76338E+00
  -4.37531E+00 -4.34562E+00 -6.31078E+00 -4.99147E+00 -7.62486E+00 -7.23214E+00 -5.46198E+00 -2.76789E+00 -3.95722E+00 -6.13983E+00
  -3.60940E+00 -2.65631E+00 -3.52679E+00 -4.71180E+00 -2.09137E+00 -5.04093E-01  1.44816E+00 -2.66707E+00 -4.84763E+00 -1.64127E+00
  -2.04771E+00 -1.61389E+00  1.55103E+00 -2.12334E+00 -7.00831E-01  3.24157E-01  7.59511E-02  4.24026E-01 -1.92491E+00 -2.49213E-01
  -1.87311E-01 -5.25257E+00 -2.41515E+00  5.34218E-01 -7.35879E-01  3.04246E+00  1.12752E+00  8.97435E-01  2.13700E+00  2.66470E+00
   5.79455E-01  3.05751E+00  2.86199E+00  2.96508E+00  1.00698E+00  3.44057E+00  1.70912E+00  2.38672E+00  3.94332E+00  4.73865E+00
   2.46654E+00  5.82529E+00  4.28797E+00  3.68739E+00  2.79332E+00  4.57234E+00  3.89396E-01  6.37274E+00  6.97181E+00  2.92317E+00
   3.58101E+00  8.31086E+00  1.11103E+01  1.26154E+01  1.02097E+01  1.17045E+01  1.08580E+01  1.55132E+01  1.70293E+01  1.74055E+01
   2.03539E+01  2.32998E+01  2.15755E+01  2.27602E+01  2.20605E+01  1.91530E+01  1.57031E+01  1.62530E+01  1.54254E+01  1.85681E+01
   1.95284E+01  1.74255E+01  9.37332E+00  1.21142E+01  6.84823E+00  1.15728E+01  7.78383E+00  9.70605E+00  8.49389E+00  9.40854E+00
   9.11223E+00  6.88105E+00  1.20156E+01  8.08438E+00  4.08331E+00  1.15666E+01  1.12257E+01  1.17314E+01  1.35078E+01  1.33723E+01
   1.26569E+01  1.20881E+01  1.79534E+01  2.20181E+01  1.99999E+01  1.87738E+01  2.14524E+01  2.28516E+01  2.55436E+01  2.58601E+01
   2.76194E+01  2.57811E+01  2.71395E+01  3.15703E+01  2.77705E+01  3.04629E+01  2.86944E+01  2.74077E+01  2.64603E+01  2.65381E+01
   2.99601E+01  2.44358E+01  2.53838E+01  2.21311E+01  2.19805E+01  1.97600E+01  1.60523E+01  1.60609E+01  1.52063E+01  1.27606E+01
   1.46145E+01  1.36124E+01  1.42146E+01  1.81001E+01  1.39738E+01  1.49634E+01  1.62592E+01  1.81832E+01  2.13789E+01  2.05991E+01
   2.38611E+01  2.38473E+01  2.57751E+01  2.82730E+01  2.69618E+01  2.99302E+01  2.86283E+01  3.27180E+01  3.18788E+01  2.97975E+01
   3.26209E+01  2.89177E+01  3.06592E+01  3.14081E+01  3.09096E+01  2.96011E+01  2.93923E+01  2.85293E+01  2.94802E+01  2.75567E+01
   2.60526E+01  2.66065E+01  2.38866E+01  2.62814E+01  2.51341E+01  2.60127E+01  2.30915E+01  2.43688E+01  2.27368E+01  2.52466E+01
   2.45177E+01  2.56406E+01  2.33617E+01  2.39596E+01  2.07966E+01  2.35555E+01  2.22579E+01  2.13009E+01  1.95522E+01  2.06313E+01
   1.97585E+01  1.90081E+01  1.96091E+01  2.04215E+01  1.77137E+01  1.70532E+01  1.99213E+01  1.83294E+01  1.70541E+01  1.60148E+01
   1.88160E+01  1.55610E+01  1.70836E+01  1.87669E+01  1.59360E+01  1.78584E+01  1.76887E+01  1.77155E+01  1.61758E+01  1.73741E+01
   1.58818E+01  1.79083E+01  1.56182E+01  1.81291E+01  1.76241E+01  1.83543E+01  1.96656E+01  2.16259E+01  2.05885E+01  2.02033E+01
   1.73718E+01  1.56934E+01  1.89766E+01  1.53131E+01  1.80276E+01  1.82601E+01  1.86353E+01  2.05678E+01  1.76761E+01  1.76785E+01
   1.62764E+01  1.96319E+01  1.47692E+01  1.52778E+01  1.28684E+01  1.37753E+01  1.39084E+01  1.46021E+01  1.28891E+01  1.18990E+01
   1.45207E+01  1.47461E+01  1.19962E+01  1.20139E+01  1.15786E+01  9.90401E+00  1.12350E+01  1.12047E+01  1.19724E+01  8.44585E+00
   9.19565E+00  9.21238E+00  1.05723E+01  7.60502E+00  8.61974E+00  9.95063E+00  9.69189E+00  9.36678E+00  5.74182E+00  7.00629E+00
   8.34943E+00  6.80396E+00  5.65101E+00  7.83838E+00  7.17871E+00  7.26363E+00  6.53940E+00  7.83754E+00  4.64977E+00  4.96994E+00
   6.02963E+00  8.00321E+00  6.99979E+00  8.01910E+00  8.44704E+00  8.23515E+00  4.47540E+00  7.46881E+00  5.52420E+00  4.90318E+00
   5.92780E+00  8.21070E+00  2.90839E+00  4.41429E+00  6.99423E+00  8.18401E+00  3.66928E+00  2.46846E+00  4.65452E+00  6.93766E+00
   2.38459E+00  2.35991E+00  3.26205E+00  6.37708E+00  3.46963E+00  2.28733E+00  2.59162E+00  1.91676E+00  1.51536E+00  3.51030E+00
   6.89767E-01  2.66082E+00  2.52747E+00  1.84933E+00  2.31636E+00  2.27623E+00  2.74993E+00  2.99448E+00  1.92590E+00  4.87983E+00
   4.20835E+00  1.89386E+00  3.88309E+00  2.49646E+00  1.52616E+00  3.90141E+00 -3.07186E-01  2.31211E+00  3.44060E+00  1.82417E+00
   3.72083E+00 -4.18806E-01  1.02777E+00  6.49970E+00  2.08510E+00  7.83047E-01  2.48120E+00  2.85995E+00
 NY points of the fit to the data follow
  -2.16925E+00 -1.77512E+00 -7.67209E-01 -1.90425E-01 -8.95048E-02  2.48964E-01 -4.64076E-01 -5.24217E-01 -1.20829E+00 -1.03803E+00
  -1.18990E+00 -6.22410E-01 -1.10808E+00 -8.57225E-01 -1.99885E+00 -2.03266E+00 -2.88933E+00 -2.82581E+00 -2.82672E+00 -2.05140E+00
  -1.55234E+00 -4.85066E-01 -4.56828E-01  2.84034E-01 -4.96183E-01 -3.11626E-01 -1.38763E+00 -1.27349E+00 -1.57910E+00 -1.22973E+00
  -1.51643E+00 -1.34473E+00 -1.95231E+00 -1.87213E+00 -1.83279E+00 -8.00549E-01 -2.85945E-01  5.65409E-01  7.05634E-01  9.00149E-01
   4.96775E-01  2.44443E-01 -4.47094E-01 -6.75833E-01 -1.06995E+00 -9.78028E-01 -9.73150E-01 -8.04187E-01 -1.02824E+00 -1.05605E+00
  -1.45483E+00 -1.42114E+00 -1.85658E+00 -1.88717E+00 -2.17005E+00 -2.02766E+00 -2.11749E+00 -1.69348E+00 -1.91836E+00 -1.42148E+00
  -1.95698E+00 -1.84445E+00 -2.31023E+00 -2.06041E+00 -2.22966E+00 -1.99058E+00 -2.09454E+00 -1.84101E+00 -2.00263E+00 -1.76704E+00
  -1.95809E+00 -1.90395E+00 -2.13708E+00 -2.30978E+00 -2.63554E+00 -2.94612E+00 -3.39184E+00 -3.67670E+00 -4.09927E+00 -4.17510E+00
  -4.36633E+00 -4.24233E+00 -4.22329E+00 -4.06005E+00 -3.96285E+00 -4.10136E+00 -4.08550E+00 -4.28311E+00 -4.12841E+00 -3.92878E+00
  -2.35239E+00 -7.78455E-01  1.67181E-01  2.05864E+00  1.50126E+00  2.79286E+00  1.15962E+00  1.85678E+00  3.05107E-01  1.06435E+00
   4.02999E-01  1.62742E+00  4.67727E-01  1.22800E+00 -5.43919E-01 -4.83622E-01 -1.60869E+00 -1.57283E+00 -2.27607E+00 -2.12969E+00
  -2.37185E+00 -1.95310E+00 -2.06252E+00 -1.51705E+00 -1.36743E+00  6.89344E-04  1.55460E+00  3.11536E+00  4.69970E+00  5.87254E+00
   6.00535E+00  6.41064E+00  5.64734E+00  5.70444E+00  4.99507E+00  5.28303E+00  5.02084E+00  5.05163E+00  4.07632E+00  3.54449E+00
   2.20070E+00  1.71070E+00  1.05678E+00  6.93755E-01  3.12669E-01  1.21475E-01  1.25235E-02 -3.47539E-02 -1.02831E-01 -2.95509E-01
  -6.68311E-01 -1.12621E+00 -1.70910E+00 -2.00222E+00 -2.09802E+00 -2.24166E+00 -2.31113E+00 -2.37515E+00 -2.44481E+00 -2.50635E+00
  -2.51288E+00 -2.59143E+00 -2.59901E+00 -2.63218E+00 -2.71104E+00 -2.71707E+00 -2.83808E+00 -2.86297E+00 -3.03324E+00 -3.09978E+00
  -3.24094E+00 -3.27149E+00 -3.35503E+00 -3.38165E+00 -3.55130E+00 -3.61573E+00 -3.74428E+00 -3.81136E+00 -3.86947E+00 -3.96767E+00
  -3.99525E+00 -4.11289E+00 -4.07036E+00 -4.19066E+00 -4.18929E+00 -4.27147E+00 -4.19806E+00 -4.19689E+00 -4.00821E+00 -3.88412E+00
  -3.59622E+00 -3.40401E+00 -3.23730E+00 -3.12464E+00 -3.25081E+00 -3.27633E+00 -3.63785E+00 -3.54958E+00 -3.66818E+00 -3.29439E+00
  -3.08092E+00 -2.63462E+00 -2.39404E+00 -1.99242E+00 -1.95118E+00 -1.76638E+00 -1.99207E+00 -2.16948E+00 -2.68961E+00 -2.64265E+00
  -2.88619E+00 -2.61087E+00 -2.61487E+00 -2.23725E+00 -2.07231E+00 -1.83793E+00 -1.75497E+00 -1.67510E+00 -1.67678E+00 -1.42256E+00
  -1.22585E+00 -8.38134E-01 -3.78974E-01 -3.24083E-02  3.14347E-01  6.14370E-01  8.23009E-01  1.03050E+00  1.07378E+00  1.20781E+00
   1.19314E+00  1.43389E+00  1.62960E+00  1.94084E+00  2.13177E+00  2.53897E+00  2.69988E+00  3.23293E+00  3.42098E+00  3.94659E+00
   3.92415E+00  4.19206E+00  4.16403E+00  4.23824E+00  4.34916E+00  4.53707E+00  4.93238E+00  5.25670E+00  5.80077E+00  6.19757E+00
   6.68549E+00  7.06343E+00  7.71898E+00  8.53788E+00  1.02228E+01  1.10182E+01  1.29006E+01  1.34432E+01  1.65905E+01  1.75762E+01
   1.96757E+01  2.04935E+01  2.07409E+01  2.11156E+01  2.04416E+01  2.01100E+01  1.90756E+01  1.85519E+01  1.78352E+01  1.76978E+01
   1.63330E+01  1.59610E+01  1.38489E+01  1.32434E+01  1.19458E+01  1.14472E+01  1.06135E+01  1.01921E+01  9.76909E+00  9.55414E+00
   9.11594E+00  9.22888E+00  8.85763E+00  8.97814E+00  8.56832E+00  8.78506E+00  9.31815E+00  1.00017E+01  1.08395E+01  1.18266E+01
   1.29750E+01  1.42557E+01  1.56778E+01  1.71890E+01  1.87872E+01  2.03973E+01  2.20120E+01  2.35636E+01  2.50320E+01  2.63555E+01
   2.75201E+01  2.84604E+01  2.91624E+01  2.95863E+01  2.97240E+01  2.95758E+01  2.91470E+01  2.84621E+01  2.75525E+01  2.64642E+01
   2.52339E+01  2.39237E+01  2.25665E+01  2.12282E+01  1.99352E+01  1.87508E+01  1.76843E+01  1.67946E+01  1.60789E+01  1.55773E+01
   1.52751E+01  1.51998E+01  1.53233E+01  1.56652E+01  1.61836E+01  1.68920E+01  1.77434E+01  1.87434E+01  1.98397E+01  2.10327E+01
   2.22662E+01  2.35377E+01  2.47892E+01  2.60178E+01  2.71669E+01  2.82365E+01  2.91748E+01  2.99881E+01  3.06332E+01  3.11255E+01
   3.14321E+01  3.15795E+01  3.15461E+01  3.13685E+01  3.10351E+01  3.05906E+01  3.00302E+01  2.94032E+01  2.87078E+01  2.79944E+01
   2.72604E+01  2.65543E+01  2.58706E+01  2.52531E+01  2.46914E+01  2.42226E+01  2.38281E+01  2.35350E+01  2.33129E+01  2.31758E+01
   2.30800E+01  2.30281E+01  2.29690E+01  2.29031E+01  2.27841E+01  2.26231E+01  2.23893E+01  2.21102E+01  2.17708E+01  2.14100E+01
   2.10185E+01  2.06355E+01  2.02476E+01  1.98867E+01  1.95320E+01  1.92088E+01  1.88918E+01  1.86039E+01  1.83196E+01  1.80628E+01
   1.78096E+01  1.75855E+01  1.73685E+01  1.71848E+01  1.70128E+01  1.68788E+01  1.67609E+01  1.66845E+01  1.66269E+01  1.66121E+01
   1.66164E+01  1.66624E+01  1.67246E+01  1.68243E+01  1.69346E+01  1.70749E+01  1.72172E+01  1.73794E+01  1.75325E+01  1.76933E+01
   1.78324E+01  1.79663E+01  1.80656E+01  1.81473E+01  1.81830E+01  1.81910E+01  1.81445E+01  1.80637E+01  1.79240E+01  1.77479E+01
   1.75132E+01  1.72445E+01  1.69221E+01  1.65722E+01  1.61769E+01  1.57638E+01  1.53159E+01  1.48612E+01  1.43830E+01  1.39090E+01
   1.34223E+01  1.29496E+01  1.24731E+01  1.20184E+01  1.15664E+01  1.11417E+01  1.07240E+01  1.03365E+01  9.95812E+00  9.61098E+00
   9.27329E+00  8.96640E+00  8.66808E+00  8.39915E+00  8.13714E+00  7.90256E+00  7.67291E+00  7.46854E+00  7.26702E+00  7.08867E+00
   6.91120E+00  6.75491E+00  6.59774E+00  6.46001E+00  6.31987E+00  6.19767E+00  6.07174E+00  5.96248E+00  5.84840E+00  5.74992E+00
   5.64574E+00  5.55626E+00  5.46033E+00  5.37835E+00  5.28932E+00  5.21363E+00  5.13040E+00  5.05997E+00  4.98159E+00  4.91557E+00
   4.84128E+00  4.77896E+00  4.70810E+00  4.64889E+00  4.58094E+00  4.52438E+00  4.45892E+00  4.40465E+00  4.34135E+00  4.28904E+00
   4.22761E+00  4.17702E+00  4.11724E+00  4.06815E+00  4.00982E+00  3.96206E+00  3.90502E+00  3.85844E+00  3.80257E+00  3.75706E+00
   3.70223E+00  3.65769E+00  3.60384E+00  3.56020E+00  3.50725E+00  3.46444E+00  3.41233E+00  3.37032E+00  3.31903E+00  3.27777E+00
   3.22727E+00  3.18674E+00  3.13699E+00  3.09719E+00  3.04821E+00  3.00914E+00  2.96091E+00  2.92255E+00  2.87508E+00  2.83747E+00
   2.79079E+00  2.75393E+00  2.70804E+00  2.67196E+00  2.62691E+00  2.59165E+00  2.54749E+00  2.51309E+00
 NY background values follow
    -6.671E+00   -6.656E+00   -6.641E+00   -6.626E+00   -6.612E+00   -6.597E+00   -6.582E+00   -6.567E+00   -6.553E+00   -6.538E+00
    -6.523E+00   -6.509E+00   -6.494E+00   -6.479E+00   -6.465E+00   -6.450E+00   -6.436E+00   -6.421E+00   -6.407E+00   -6.392E+00
    -6.378E+00   -6.364E+00   -6.349E+00   -6.335E+00   -6.321E+00   -6.307E+00   -6.293E+00   -6.279E+00   -6.265E+00   -6.251E+00
    -6.237E+00   -6.223E+00   -6.209E+00   -6.196E+00   -6.182E+00   -6.169E+00   -6.155E+00   -6.142E+00   -6.129E+00   -6.116E+00
    -6.103E+00   -6.090E+00   -6.077E+00   -6.064E+00   -6.051E+00   -6.039E+00   -6.026E+00   -6.014E+00   -6.001E+00   -5.989E+00
    -5.977E+00   -5.965E+00   -5.953E+00   -5.941E+00   -5.930E+00   -5.918E+00   -5.906E+00   -5.895E+00   -5.883E+00   -5.872E+00
    -5.861E+00   -5.850E+00   -5.839E+00   -5.828E+00   -5.817E+00   -5.806E+00   -5.795E+00   -5.784E+00   -5.774E+00   -5.763E+00
    -5.753E+00   -5.742E+00   -5.732E+00   -5.721E+00   -5.711E+00   -5.701E+00   -5.691E+00   -5.681E+00   -5.671E+00   -5.661E+00
    -5.651E+00   -5.641E+00   -5.631E+00   -5.621E+00   -5.611E+00   -5.602E+00   -5.592E+00   -5.582E+00   -5.573E+00   -5.563E+00
    -5.553E+00   -5.544E+00   -5.535E+00   -5.525E+00   -5.516E+00   -5.506E+00   -5.497E+00   -5.488E+00   -5.478E+00   -5.469E+00
    -5.460E+00   -5.451E+00   -5.442E+00   -5.433E+00   -5.424E+00   -5.415E+00   -5.406E+00   -5.398E+00   -5.389E+00   -5.380E+00
    -5.372E+00   -5.363E+00   -5.355E+00   -5.346E+00   -5.338E+00   -5.330E+00   -5.322E+00   -5.314E+00   -5.305E+00   -5.298E+00
    -5.290E+00   -5.282E+00   -5.274E+00   -5.267E+00   -5.259E+00   -5.252E+00   -5.244E+00   -5.237E+00   -5.230E+00   -5.223E+00
    -5.216E+00   -5.209E+00   -5.202E+00   -5.195E+00   -5.189E+00   -5.182E+00   -5.176E+00   -5.170E+00   -5.163E+00   -5.157E+00
    -5.151E+00   -5.145E+00   -5.139E+00   -5.133E+00   -5.127E+00   -5.121E+00   -5.115E+00   -5.109E+00   -5.102E+00   -5.096E+00
    -5.089E+00   -5.083E+00   -5.076E+00   -5.069E+00   -5.062E+00   -5.054E+00   -5.047E+00   -5.039E+00   -5.031E+00   -5.023E+00
    -5.014E+00   -5.005E+00   -4.996E+00   -4.987E+00   -4.977E+00   -4.966E+00   -4.956E+00   -4.945E+00   -4.933E+00   -4.921E+00
    -4.909E+00   -4.896E+00   -4.883E+00   -4.869E+00   -4.855E+00   -4.840E+00   -4.825E+00   -4.809E+00   -4.792E+00   -4.775E+00
    -4.758E+00   -4.739E+00   -4.720E+00   -4.701E+00   -4.680E+00   -4.660E+00   -4.638E+00   -4.616E+00   -4.593E+00   -4.570E+00
    -4.547E+00   -4.522E+00   -4.497E+00   -4.472E+00   -4.446E+00   -4.420E+00   -4.393E+00   -4.365E+00   -4.337E+00   -4.309E+00
    -4.280E+00   -4.251E+00   -4.221E+00   -4.191E+00   -4.160E+00   -4.129E+00   -4.098E+00   -4.066E+00   -4.034E+00   -4.001E+00
    -3.968E+00   -3.935E+00   -3.901E+00   -3.867E+00   -3.832E+00   -3.798E+00   -3.763E+00   -3.727E+00   -3.692E+00   -3.656E+00
    -3.620E+00   -3.583E+00   -3.546E+00   -3.509E+00   -3.472E+00   -3.435E+00   -3.397E+00   -3.359E+00   -3.321E+00   -3.283E+00
    -3.244E+00   -3.206E+00   -3.167E+00   -3.128E+00   -3.088E+00   -3.049E+00   -3.009E+00   -2.969E+00   -2.929E+00   -2.889E+00
    -2.849E+00   -2.808E+00   -2.767E+00   -2.726E+00   -2.685E+00   -2.644E+00   -2.602E+00   -2.561E+00   -2.519E+00   -2.477E+00
    -2.435E+00   -2.392E+00   -2.350E+00   -2.307E+00   -2.264E+00   -2.221E+00   -2.178E+00   -2.135E+00   -2.092E+00   -2.048E+00
    -2.004E+00   -1.961E+00   -1.917E+00   -1.873E+00   -1.828E+00   -1.784E+00   -1.739E+00   -1.695E+00   -1.650E+00   -1.605E+00
    -1.560E+00   -1.515E+00   -1.470E+00   -1.424E+00   -1.379E+00   -1.333E+00   -1.287E+00   -1.242E+00   -1.196E+00   -1.150E+00
    -1.104E+00   -1.058E+00   -1.012E+00   -9.656E-01   -9.194E-01   -8.731E-01   -8.269E-01   -7.806E-01   -7.343E-01   -6.880E-01
    -6.416E-01   -5.953E-01   -5.490E-01   -5.027E-01   -4.565E-01   -4.103E-01   -3.641E-01   -3.179E-01   -2.718E-01   -2.258E-01
    -1.798E-01   -1.339E-01   -8.809E-02   -4.235E-02    3.297E-03    4.885E-02    9.430E-02    1.396E-01    1.849E-01    2.300E-01
     2.749E-01    3.198E-01    3.644E-01    4.090E-01    4.534E-01    4.976E-01    5.416E-01    5.855E-01    6.292E-01    6.727E-01
     7.160E-01    7.591E-01    8.021E-01    8.448E-01    8.873E-01    9.296E-01    9.717E-01    1.014E+00    1.055E+00    1.097E+00
     1.138E+00    1.179E+00    1.220E+00    1.260E+00    1.300E+00    1.340E+00    1.380E+00    1.420E+00    1.459E+00    1.498E+00
     1.536E+00    1.575E+00    1.613E+00    1.651E+00    1.688E+00    1.726E+00    1.763E+00    1.799E+00    1.836E+00    1.872E+00
     1.908E+00    1.943E+00    1.978E+00    2.013E+00    2.048E+00    2.082E+00    2.115E+00    2.149E+00    2.182E+00    2.215E+00
     2.247E+00    2.279E+00    2.311E+00    2.343E+00    2.374E+00    2.404E+00    2.434E+00    2.464E+00    2.494E+00    2.523E+00
     2.551E+00    2.580E+00    2.607E+00    2.635E+00    2.662E+00    2.688E+00    2.714E+00    2.740E+00    2.765E+00    2.789E+00
     2.813E+00    2.837E+00    2.860E+00    2.882E+00    2.904E+00    2.926E+00    2.947E+00    2.967E+00    2.987E+00    3.007E+00
     3.025E+00    3.044E+00    3.061E+00    3.078E+00    3.095E+00    3.111E+00    3.126E+00    3.141E+00    3.155E+00    3.168E+00
     3.181E+00    3.193E+00    3.204E+00    3.215E+00    3.225E+00    3.235E+00    3.244E+00    3.252E+00    3.259E+00    3.266E+00
     3.272E+00    3.277E+00    3.282E+00    3.286E+00    3.289E+00    3.292E+00    3.294E+00    3.295E+00    3.296E+00    3.296E+00
     3.296E+00    3.294E+00    3.292E+00    3.290E+00    3.287E+00    3.283E+00    3.278E+00    3.273E+00    3.267E+00    3.261E+00
     3.254E+00    3.246E+00    3.238E+00    3.229E+00    3.220E+00    3.209E+00    3.199E+00    3.187E+00    3.175E+00    3.163E+00
     3.150E+00    3.136E+00    3.122E+00    3.107E+00    3.091E+00    3.075E+00    3.058E+00    3.041E+00    3.023E+00    3.005E+00
     2.986E+00    2.966E+00    2.946E+00    2.926E+00    2.904E+00    2.883E+00    2.860E+00    2.838E+00    2.814E+00    2.791E+00
     2.766E+00    2.742E+00    2.717E+00    2.691E+00    2.666E+00    2.640E+00    2.613E+00    2.586E+00    2.559E+00    2.532E+00
     2.504E+00    2.476E+00    2.448E+00    2.419E+00    2.391E+00    2.362E+00    2.333E+00    2.304E+00    2.274E+00    2.245E+00
     2.215E+00    2.185E+00    2.155E+00    2.126E+00    2.096E+00    2.066E+00    2.036E+00    2.006E+00    1.976E+00    1.946E+00
     1.916E+00    1.886E+00    1.856E+00    1.826E+00    1.797E+00    1.767E+00    1.738E+00    1.709E+00
 Asp      Conc. = 6.31E+00
