 LCModel (Version 6.3-1L) Copyright: S.W. Provencher.          Ref.: Magn. Reson. Med. 30:672-679 (1993).                
 Slice#2 Row#11 Col#1  PD_24_press_2_raw_act
 36 lines in following concentration table = NCONC+1
    Conc.  %SD /Cr+PCr  Metabolite                                         
 1.34E+03  95%   0.289 Ala                                                 
 1.73E+04   7%   3.722+Asp                                                 
 4.65E+03  25%   1.000 Cr                                                  
    0.000 999%   0.000 PCr                                                 
    0.000 999%   0.000 GABA                                                
    0.000 999%   0.000 Glc                                                 
    0.000 999%   0.000 Gln                                                 
 3.12E+03  83%   0.672 Glu                                                 
 1.49E+03  10%   0.321 GPC                                                 
    0.000 999%   0.000 PCh                                                 
 6.17E+03  10%   1.328 GSH                                                 
 1.92E+04  10%   4.134 Ins                                                 
    0.000 999%   0.000 Lac                                                 
 1.72E+04   2%   3.708 NAA                                                 
    0.000 999%   0.000 NAAG                                                
 1.43E+03  12%   0.309+Scyllo                                              
 9.77E+03  11%   2.100+Tau                                                 
    0.000 999%   0.000 -CrCH2                                              
 1.49E+03  10%   0.321 GPC+PCh                                             
 1.72E+04   2%   3.708 NAA+NAAG                                            
 4.65E+03   6%   1.000 Cr+PCr                                              
 3.12E+03  83%   0.672 Glu+Gln                                             
 4.99E+03  43%   1.072 Lip13a                                              
    0.000 999%   0.000 Lip13b                                              
 1.87E+03  35%   0.403 Lip09                                               
  247.062 120% 5.3E-02 MM09                                                
  270.181 162% 5.8E-02 Lip20                                               
    0.000 999%   0.000 MM20                                                
   94.327 180% 2.0E-02 MM12                                                
    0.000 999%   0.000 MM14                                                
    0.000 999%   0.000 MM17                                                
 4.99E+03  43%   1.072 Lip13a+Lip13b                                       
 5.08E+03  42%   1.093 MM14+Lip13a+Lip13b+MM12                             
 2.12E+03  31%   0.456 MM09+Lip09                                          
  270.181 162% 5.8E-02 MM20+Lip20                                          
   6 lines in following misc. output table
  FWHM = 0.153 ppm    S/N =  15                                            
  Data shift = 0.436 ppm                                                   
  Ph: -63 deg     235.3 deg/ppm                                            
  alphaB,S = 3.2E-01,   3.8E+02                                            
   11 spline knots.   Ns = 9(2)                                            
  ( 4) 2 infls.   ( 1) 1 extrs.                                            
  498 points on ppm-axis = NY
      4.000000     3.992357     3.984714     3.977070     3.969427     3.961784     3.954141     3.946497     3.938854     3.931211
      3.923568     3.915925     3.908281     3.900638     3.892995     3.885352     3.877708     3.870065     3.862422     3.854779
      3.847136     3.839492     3.831849     3.824206     3.816563     3.808919     3.801276     3.793633     3.785990     3.778347
      3.770703     3.763060     3.755417     3.747774     3.740130     3.732487     3.724844     3.717201     3.709558     3.701914
      3.694271     3.686628     3.678985     3.671341     3.663698     3.656055     3.648412     3.640769     3.633125     3.625482
      3.617839     3.610196     3.602552     3.594909     3.587266     3.579623     3.571980     3.564336     3.556693     3.549050
      3.541407     3.533763     3.526120     3.518477     3.510834     3.503191     3.495547     3.487904     3.480261     3.472618
      3.464974     3.457331     3.449688     3.442045     3.434402     3.426758     3.419115     3.411472     3.403829     3.396185
      3.388542     3.380899     3.373256     3.365613     3.357969     3.350326     3.342683     3.335040     3.327396     3.319753
      3.312110     3.304467     3.296824     3.289180     3.281537     3.273894     3.266251     3.258607     3.250964     3.243321
      3.235678     3.228034     3.220391     3.212748     3.205105     3.197462     3.189818     3.182175     3.174532     3.166889
      3.159245     3.151602     3.143959     3.136316     3.128673     3.121029     3.113386     3.105743     3.098100     3.090456
      3.082813     3.075170     3.067527     3.059884     3.052240     3.044597     3.036954     3.029311     3.021667     3.014024
      3.006381     2.998738     2.991095     2.983451     2.975808     2.968165     2.960522     2.952878     2.945235     2.937592
      2.929949     2.922306     2.914662     2.907019     2.899376     2.891733     2.884089     2.876446     2.868803     2.861160
      2.853517     2.845873     2.838230     2.830587     2.822944     2.815300     2.807657     2.800014     2.792371     2.784728
      2.777084     2.769441     2.761798     2.754155     2.746511     2.738868     2.731225     2.723582     2.715939     2.708295
      2.700652     2.693009     2.685366     2.677722     2.670079     2.662436     2.654793     2.647150     2.639506     2.631863
      2.624220     2.616577     2.608933     2.601290     2.593647     2.586004     2.578361     2.570717     2.563074     2.555431
      2.547788     2.540144     2.532501     2.524858     2.517215     2.509572     2.501928     2.494285     2.486642     2.478999
      2.471355     2.463712     2.456069     2.448426     2.440783     2.433139     2.425496     2.417853     2.410210     2.402566
      2.394923     2.387280     2.379637     2.371994     2.364350     2.356707     2.349064     2.341421     2.333777     2.326134
      2.318491     2.310848     2.303205     2.295561     2.287918     2.280275     2.272632     2.264988     2.257345     2.249702
      2.242059     2.234416     2.226772     2.219129     2.211486     2.203843     2.196199     2.188556     2.180913     2.173270
      2.165627     2.157983     2.150340     2.142697     2.135054     2.127410     2.119767     2.112124     2.104481     2.096838
      2.089194     2.081551     2.073908     2.066265     2.058621     2.050978     2.043335     2.035692     2.028049     2.020405
      2.012762     2.005119     1.997476     1.989833     1.982190     1.974546     1.966903     1.959260     1.951617     1.943974
      1.936331     1.928688     1.921045     1.913402     1.905759     1.898115     1.890472     1.882829     1.875186     1.867543
      1.859900     1.852257     1.844614     1.836971     1.829327     1.821684     1.814041     1.806398     1.798755     1.791112
      1.783469     1.775826     1.768183     1.760540     1.752896     1.745253     1.737610     1.729967     1.722324     1.714681
      1.707038     1.699395     1.691752     1.684108     1.676465     1.668822     1.661179     1.653536     1.645893     1.638250
      1.630607     1.622964     1.615321     1.607677     1.600034     1.592391     1.584748     1.577105     1.569462     1.561819
      1.554176     1.546533     1.538890     1.531246     1.523603     1.515960     1.508317     1.500674     1.493031     1.485388
      1.477745     1.470102     1.462458     1.454815     1.447172     1.439529     1.431886     1.424243     1.416600     1.408957
      1.401314     1.393671     1.386027     1.378384     1.370741     1.363098     1.355455     1.347812     1.340169     1.332526
      1.324883     1.317240     1.309596     1.301953     1.294310     1.286667     1.279024     1.271381     1.263738     1.256095
      1.248452     1.240808     1.233165     1.225522     1.217879     1.210236     1.202593     1.194950     1.187307     1.179664
      1.172021     1.164377     1.156734     1.149091     1.141448     1.133805     1.126162     1.118519     1.110876     1.103233
      1.095590     1.087946     1.080303     1.072660     1.065017     1.057374     1.049731     1.042088     1.034445     1.026802
      1.019158     1.011515     1.003872     0.996229     0.988586     0.980943     0.973300     0.965657     0.958014     0.950371
      0.942727     0.935084     0.927441     0.919798     0.912155     0.904512     0.896869     0.889226     0.881583     0.873940
      0.866296     0.858653     0.851010     0.843367     0.835724     0.828081     0.820438     0.812795     0.805152     0.797508
      0.789865     0.782222     0.774579     0.766936     0.759293     0.751650     0.744007     0.736364     0.728721     0.721077
      0.713434     0.705791     0.698148     0.690505     0.682862     0.675219     0.667576     0.659933     0.652290     0.644646
      0.637003     0.629360     0.621717     0.614074     0.606431     0.598788     0.591145     0.583502     0.575858     0.568215
      0.560572     0.552929     0.545286     0.537643     0.530000     0.522357     0.514714     0.507071     0.499427     0.491784
      0.484141     0.476498     0.468855     0.461212     0.453569     0.445925     0.438282     0.430639     0.422996     0.415353
      0.407710     0.400067     0.392424     0.384780     0.377137     0.369494     0.361851     0.354208     0.346565     0.338922
      0.331278     0.323635     0.315992     0.308349     0.300706     0.293063     0.285420     0.277777     0.270133     0.262490
      0.254847     0.247204     0.239561     0.231918     0.224275     0.216631     0.208988     0.201345
 NY phased data points follow
   2.11522E+01  2.37617E+01  2.14848E+01  2.02512E+01  2.33005E+01  2.14316E+01  2.21516E+01  1.95924E+01  1.83677E+01  1.98663E+01
   1.77059E+01  1.69382E+01  1.69668E+01  1.89203E+01  1.50565E+01  1.54155E+01  1.70925E+01  1.54039E+01  1.39515E+01  1.53329E+01
   1.34861E+01  1.65012E+01  1.23702E+01  1.60007E+01  1.32823E+01  1.36420E+01  1.16803E+01  1.18922E+01  1.08250E+01  1.15585E+01
   1.08110E+01  1.17194E+01  8.11963E+00  9.11453E+00  4.94146E+00  6.10640E+00  6.66196E+00  7.77603E+00  5.26580E+00  5.52772E+00
   7.96074E+00  6.70655E+00  6.55663E+00  6.88071E+00  8.22257E+00  8.50604E+00  5.77171E+00  9.74705E+00  7.22482E+00  3.15651E+00
   4.12100E+00  7.36174E+00  7.15705E+00  6.34834E+00  8.26161E+00  6.68352E+00  4.79482E+00  3.86542E+00  5.03204E+00  7.26084E+00
   9.77846E+00  1.03715E+01  1.21725E+01  1.00503E+01  1.44092E+01  1.29582E+01  1.74034E+01  1.46020E+01  1.87640E+01  1.53979E+01
   1.31953E+01  1.44069E+01  1.58856E+01  1.16803E+01  1.20383E+01  1.29693E+01  1.58883E+01  1.03630E+01  1.36485E+01  1.22284E+01
   9.55685E+00  8.92903E+00  1.00760E+01  5.94346E+00  9.89055E+00  5.86467E+00  5.85400E+00  7.90314E+00  5.65482E+00  4.04446E+00
   6.93903E+00  5.77534E+00  6.26244E+00  5.46432E+00  5.18391E+00  4.54984E+00  4.73314E+00  5.15665E+00  7.11128E+00  4.47564E+00
   5.71950E+00  6.47679E+00  9.40480E+00  3.76350E+00  8.80933E+00  8.97113E+00  1.18768E+01  1.04601E+01  7.12699E+00  9.31004E+00
   1.06465E+01  1.06761E+01  1.20459E+01  1.18075E+01  1.55952E+01  1.37007E+01  1.43644E+01  1.38819E+01  1.84956E+01  1.34827E+01
   1.68957E+01  1.63492E+01  1.69191E+01  1.50684E+01  1.60051E+01  1.44828E+01  1.46949E+01  1.37008E+01  1.39045E+01  7.42103E+00
   1.07539E+01  7.68243E+00  5.84831E+00  5.14710E+00 -1.06556E+00 -2.84874E+00 -3.91170E+00 -6.77528E+00 -1.02413E+01 -9.98197E+00
  -1.79672E+01 -1.84354E+01 -2.04334E+01 -2.25452E+01 -2.39075E+01 -2.60822E+01 -3.02698E+01 -3.03674E+01 -3.46392E+01 -3.65842E+01
  -3.92295E+01 -4.77190E+01 -4.48725E+01 -5.34946E+01 -5.27596E+01 -5.56773E+01 -5.60832E+01 -6.10406E+01 -6.60907E+01 -6.58400E+01
  -6.52049E+01 -6.78601E+01 -7.10204E+01 -7.20882E+01 -7.43630E+01 -7.46849E+01 -7.27504E+01 -7.28553E+01 -7.30224E+01 -6.73174E+01
  -6.81823E+01 -6.33922E+01 -6.45821E+01 -6.18143E+01 -5.64534E+01 -5.38033E+01 -4.84485E+01 -4.41013E+01 -3.90922E+01 -3.37447E+01
  -3.12125E+01 -2.73545E+01 -2.49440E+01 -1.91718E+01 -1.56470E+01 -1.05181E+01 -8.31285E+00 -5.83869E+00 -1.94264E+00  1.07006E+00
   6.88976E+00  8.31648E+00  7.73270E+00  1.04731E+01  9.25427E+00  1.43845E+01  1.69767E+01  1.83419E+01  2.13497E+01  2.24429E+01
   2.37528E+01  2.44033E+01  2.49268E+01  3.11890E+01  2.98053E+01  3.08145E+01  2.76383E+01  2.41903E+01  2.55065E+01  2.23799E+01
   2.12216E+01  2.52869E+01  2.37494E+01  2.02959E+01  1.92209E+01  2.07587E+01  1.17199E+01  1.28821E+01  1.08006E+01  1.23886E+01
   1.14174E+01  4.54034E+00  4.66857E+00  3.01274E+00 -1.06730E+00 -1.63157E+00 -5.15113E+00 -5.86463E+00 -6.20867E+00 -1.01544E+01
  -1.35358E+01 -1.42995E+01 -1.61505E+01 -1.86519E+01 -1.83041E+01 -1.99756E+01 -2.08325E+01 -2.25093E+01 -2.18891E+01 -2.05640E+01
  -1.91249E+01 -1.91679E+01 -1.77035E+01 -1.27364E+01 -7.76171E+00 -2.41670E+00  5.40992E+00  1.63559E+01  3.01083E+01  4.03076E+01
   5.53654E+01  7.17532E+01  9.08004E+01  1.08232E+02  1.27975E+02  1.45139E+02  1.62187E+02  1.75519E+02  1.86051E+02  1.93194E+02
   2.00136E+02  1.98654E+02  1.95472E+02  1.87247E+02  1.80717E+02  1.62997E+02  1.51152E+02  1.34288E+02  1.17694E+02  9.88499E+01
   8.13636E+01  6.35989E+01  5.31974E+01  3.66000E+01  2.51963E+01  1.20496E+01  6.54833E+00 -6.96686E+00 -1.30358E+01 -2.23695E+01
  -2.72811E+01 -3.44961E+01 -3.75196E+01 -4.47637E+01 -4.86909E+01 -5.03814E+01 -5.36726E+01 -5.56715E+01 -5.68743E+01 -5.88218E+01
  -5.91018E+01 -6.21549E+01 -6.25322E+01 -6.34414E+01 -6.13917E+01 -6.38004E+01 -6.38697E+01 -6.28469E+01 -6.30222E+01 -6.41152E+01
  -5.91337E+01 -5.97308E+01 -5.90277E+01 -6.06425E+01 -5.52764E+01 -5.67537E+01 -5.38246E+01 -5.50962E+01 -5.23187E+01 -5.20601E+01
  -4.88087E+01 -5.03315E+01 -4.78665E+01 -4.80645E+01 -4.49340E+01 -5.01067E+01 -4.55197E+01 -4.55252E+01 -4.64482E+01 -4.74034E+01
  -4.58229E+01 -4.47956E+01 -4.36403E+01 -4.40599E+01 -4.32336E+01 -4.30624E+01 -4.19392E+01 -4.18184E+01 -3.88638E+01 -4.27729E+01
  -4.15090E+01 -3.82608E+01 -3.64617E+01 -3.69485E+01 -3.44566E+01 -3.79765E+01 -3.40059E+01 -3.25402E+01 -3.13149E+01 -3.17278E+01
  -2.86089E+01 -2.64961E+01 -2.64177E+01 -2.76315E+01 -2.18596E+01 -2.02103E+01 -1.98229E+01 -1.83130E+01 -1.76068E+01 -1.60653E+01
  -1.25336E+01 -1.48664E+01 -1.17102E+01 -1.31868E+01 -1.10191E+01 -1.01865E+01 -7.85648E+00 -6.65696E+00 -4.60653E+00 -3.58289E+00
  -2.77663E+00 -2.00386E+00 -2.34975E+00 -5.31528E-01  1.52307E+00  3.86976E+00  4.80794E+00  2.16349E+00  6.28697E+00  7.52680E+00
   7.17375E+00  6.89971E+00  8.59597E+00  1.04329E+01  1.03589E+01  1.19003E+01  1.08970E+01  1.06102E+01  1.25542E+01  1.32977E+01
   1.64164E+01  1.51832E+01  1.56687E+01  1.35903E+01  1.52461E+01  1.72971E+01  1.73807E+01  1.91281E+01  2.05407E+01  1.86240E+01
   1.85813E+01  1.92990E+01  2.07785E+01  2.38157E+01  2.29068E+01  2.56022E+01  2.19094E+01  2.49496E+01  2.26086E+01  2.23668E+01
   2.48601E+01  2.19478E+01  2.42338E+01  2.31696E+01  2.33230E+01  2.67375E+01  2.45921E+01  2.16965E+01  2.38372E+01  2.62360E+01
   2.45607E+01  2.34319E+01  2.34067E+01  2.47080E+01  2.35767E+01  2.40726E+01  2.44509E+01  2.47565E+01  2.62248E+01  2.61729E+01
   2.44801E+01  2.38573E+01  2.08072E+01  2.44907E+01  2.05361E+01  1.78375E+01  2.22047E+01  2.15422E+01  1.95473E+01  1.93305E+01
   1.83285E+01  1.73038E+01  1.52097E+01  1.71207E+01  1.59793E+01  1.90553E+01  1.65445E+01  1.85716E+01  1.39942E+01  1.75247E+01
   1.31059E+01  1.66334E+01  1.01787E+01  1.31297E+01  1.35727E+01  1.12617E+01  9.00915E+00  1.12708E+01  8.34997E+00  1.08350E+01
   4.78791E+00  5.36603E+00  5.50791E+00  6.93057E+00  6.32254E+00  4.75424E+00  3.87841E+00  3.62433E+00  2.58109E+00  5.05533E+00
   3.89229E+00  2.70143E+00  1.51516E+00 -2.90960E-01  7.32705E-01  9.12234E-01 -1.92226E+00 -7.61931E-01 -1.99412E+00 -2.92273E+00
  -2.71939E+00 -5.64186E+00 -2.46577E-01 -3.76232E+00 -6.24396E+00 -5.10222E+00 -7.61093E+00 -9.19180E+00 -7.23886E+00 -7.61442E+00
  -1.00965E+01 -1.02003E+01 -9.76925E+00 -9.91933E+00 -1.28439E+01 -1.21765E+01 -1.00937E+01 -8.37006E+00 -1.06480E+01 -1.07159E+01
  -1.46541E+01 -1.48736E+01 -1.49259E+01 -1.35860E+01 -1.26558E+01 -1.51392E+01 -1.28128E+01 -1.58584E+01
 NY points of the fit to the data follow
   2.11698E+01  2.32929E+01  2.24636E+01  2.37205E+01  2.25916E+01  2.27844E+01  2.11635E+01  2.01522E+01  1.80765E+01  1.63128E+01
   1.49894E+01  1.29886E+01  1.23287E+01  1.04504E+01  1.03590E+01  8.37695E+00  9.24157E+00  8.55554E+00  9.56735E+00  1.04691E+01
   1.20820E+01  1.41419E+01  1.53255E+01  1.78870E+01  1.79418E+01  2.03010E+01  1.91071E+01  2.04742E+01  1.77840E+01  1.78995E+01
   1.46526E+01  1.54235E+01  1.27475E+01  1.31079E+01  1.00878E+01  9.95607E+00  7.42280E+00  7.43937E+00  6.40014E+00  6.39710E+00
   6.20456E+00  6.39561E+00  7.29963E+00  7.60020E+00  7.94155E+00  7.67208E+00  6.73873E+00  6.81420E+00  8.37950E+00  9.37956E+00
   1.04097E+01  1.05585E+01  1.08710E+01  9.88825E+00  9.66057E+00  8.03202E+00  8.23790E+00  6.11831E+00  7.37450E+00  5.04275E+00
   7.59494E+00  5.28432E+00  8.99965E+00  5.99926E+00  1.00156E+01  6.40991E+00  1.03722E+01  6.25696E+00  9.82557E+00  5.62763E+00
   9.77077E+00  8.01705E+00  1.29981E+01  1.20101E+01  1.56577E+01  1.50150E+01  1.70203E+01  1.64520E+01  1.68172E+01  1.61709E+01
   1.51694E+01  1.44346E+01  1.24539E+01  1.19018E+01  9.52762E+00  8.76587E+00  6.12313E+00  4.91693E+00  2.32904E+00  1.06230E+00
  -4.83310E-01 -1.48378E+00 -2.13185E+00 -2.65351E+00 -2.19609E+00 -2.19380E+00  6.66025E-01  2.06079E+00  5.75473E+00  7.27004E+00
   1.06842E+01  1.13686E+01  1.38389E+01  1.36994E+01  1.48070E+01  1.33626E+01  1.30978E+01  1.08589E+01  1.13974E+01  1.00574E+01
   9.96917E+00  8.95710E+00  8.42067E+00  8.38660E+00  7.75301E+00  8.48368E+00  7.72862E+00  9.93204E+00  9.39784E+00  1.34278E+01
   1.40933E+01  1.78213E+01  1.81950E+01  2.02499E+01  1.97987E+01  1.95154E+01  1.91414E+01  1.87234E+01  1.86582E+01  1.60713E+01
   1.57304E+01  1.07792E+01  1.04449E+01  3.72558E+00  3.94094E+00 -3.61197E+00 -2.74746E+00 -1.03482E+01 -9.08233E+00 -1.64607E+01
  -1.50521E+01 -2.20527E+01 -2.08574E+01 -2.77062E+01 -2.71301E+01 -3.37286E+01 -3.32539E+01 -3.68837E+01 -3.68775E+01 -3.98120E+01
  -4.06922E+01 -4.26879E+01 -4.41514E+01 -4.59009E+01 -4.86660E+01 -5.01200E+01 -5.39269E+01 -5.47648E+01 -5.87420E+01 -5.87372E+01
  -6.22175E+01 -6.14299E+01 -6.42406E+01 -6.26292E+01 -6.44829E+01 -6.21695E+01 -6.29480E+01 -6.01836E+01 -6.04891E+01 -5.81540E+01
  -5.72049E+01 -5.50297E+01 -5.20255E+01 -4.99026E+01 -4.59550E+01 -4.39592E+01 -3.94405E+01 -3.75406E+01 -3.28645E+01 -3.07664E+01
  -2.61715E+01 -2.37194E+01 -1.96040E+01 -1.70206E+01 -1.35927E+01 -1.07613E+01 -8.57765E+00 -5.13023E+00 -3.98007E+00 -3.57070E-01
  -3.28153E-01  2.96858E+00  2.22906E+00  5.77695E+00  4.92618E+00  8.14857E+00  7.21365E+00  9.58644E+00  8.61220E+00  1.04352E+01
   1.02415E+01  1.17630E+01  1.20080E+01  1.24143E+01  1.27782E+01  1.22991E+01  1.24372E+01  1.09304E+01  1.08219E+01  8.50801E+00
   8.97632E+00  7.19152E+00  7.41977E+00  5.69221E+00  5.43617E+00  3.76266E+00  2.86316E+00  1.86446E+00  1.07688E+00  1.00837E-01
  -8.32490E-01 -1.54176E+00 -2.63441E+00 -3.30349E+00 -4.47850E+00 -4.89576E+00 -5.56529E+00 -6.04414E+00 -6.31571E+00 -6.96500E+00
  -7.01759E+00 -7.87439E+00 -7.95507E+00 -9.20210E+00 -9.51433E+00 -1.14068E+01 -1.15909E+01 -1.35508E+01 -1.33748E+01 -1.49652E+01
  -1.46546E+01 -1.55756E+01 -1.38752E+01 -1.28204E+01 -5.57517E+00 -1.77720E+00  1.12868E+01  1.77427E+01  3.54797E+01  4.36412E+01
   6.48003E+01  7.42582E+01  9.83429E+01  1.08390E+02  1.33174E+02  1.42588E+02  1.64676E+02  1.71265E+02  1.86641E+02  1.89280E+02
   1.96739E+02  1.94955E+02  1.93119E+02  1.87054E+02  1.77125E+02  1.67634E+02  1.51152E+02  1.39434E+02  1.19094E+02  1.06606E+02
   8.55403E+01  7.36610E+01  5.43635E+01  4.38126E+01  2.69676E+01  1.78967E+01  3.34538E+00 -4.72787E+00 -1.88476E+01 -2.62489E+01
  -3.95538E+01 -4.37034E+01 -4.53614E+01 -4.65075E+01 -4.74319E+01 -4.82552E+01 -4.89542E+01 -4.96095E+01 -5.02207E+01 -5.07700E+01
  -5.12882E+01 -5.17598E+01 -5.22079E+01 -5.26147E+01 -5.30054E+01 -5.33538E+01 -5.36606E+01 -5.39238E+01 -5.41471E+01 -5.43289E+01
  -5.44688E+01 -5.45665E+01 -5.46215E+01 -5.46398E+01 -5.46066E+01 -5.45287E+01 -5.43924E+01 -5.42000E+01 -5.39317E+01 -5.35748E+01
  -5.31363E+01 -5.25402E+01 -5.20068E+01 -5.12706E+01 -5.07272E+01 -4.99659E+01 -4.94801E+01 -4.87636E+01 -4.83792E+01 -4.76757E+01
  -4.72918E+01 -4.66590E+01 -4.62029E+01 -4.57336E+01 -4.51348E+01 -4.48597E+01 -4.40036E+01 -4.38595E+01 -4.26299E+01 -4.25815E+01
  -4.08818E+01 -4.08737E+01 -3.87014E+01 -3.86951E+01 -3.61302E+01 -3.60537E+01 -3.31892E+01 -3.30065E+01 -3.00179E+01 -2.97194E+01
  -2.67890E+01 -2.64058E+01 -2.36796E+01 -2.32278E+01 -2.07924E+01 -2.02684E+01 -1.80708E+01 -1.73599E+01 -1.52266E+01 -1.41144E+01
  -1.22948E+01 -1.12420E+01 -9.66940E+00 -8.68700E+00 -7.40001E+00 -6.55329E+00 -5.62892E+00 -4.62469E+00 -3.61473E+00 -2.62701E+00
  -1.67460E+00 -7.64632E-01  9.91320E-02  9.15068E-01  1.68334E+00  2.40544E+00  3.08395E+00  3.72217E+00  4.32402E+00  4.89386E+00
   5.43656E+00  5.95708E+00  6.46052E+00  6.95171E+00  7.43568E+00  7.91772E+00  8.40307E+00  8.89650E+00  9.40236E+00  9.92443E+00
   1.04661E+01  1.10302E+01  1.16192E+01  1.22347E+01  1.28780E+01  1.35491E+01  1.42478E+01  1.49728E+01  1.57219E+01  1.64920E+01
   1.72787E+01  1.80768E+01  1.88799E+01  1.96808E+01  2.04712E+01  2.12424E+01  2.19847E+01  2.26885E+01  2.33443E+01  2.39430E+01
   2.44762E+01  2.49365E+01  2.53179E+01  2.56160E+01  2.58283E+01  2.59543E+01  2.59950E+01  2.59535E+01  2.58346E+01  2.56442E+01
   2.53899E+01  2.50797E+01  2.47221E+01  2.43258E+01  2.38993E+01  2.34507E+01  2.29875E+01  2.25163E+01  2.20426E+01  2.15711E+01
   2.11054E+01  2.06482E+01  2.02013E+01  1.97658E+01  1.93417E+01  1.89290E+01  1.85269E+01  1.81343E+01  1.77501E+01  1.73727E+01
   1.70004E+01  1.66319E+01  1.62655E+01  1.58998E+01  1.55333E+01  1.51647E+01  1.47927E+01  1.44167E+01  1.40358E+01  1.36495E+01
   1.32573E+01  1.28588E+01  1.24535E+01  1.20412E+01  1.16218E+01  1.11952E+01  1.07611E+01  1.03195E+01  9.87047E+00  9.41406E+00
   8.95030E+00  8.47933E+00  8.00116E+00  7.51600E+00  7.02399E+00  6.52541E+00  6.02041E+00  5.50920E+00  4.99195E+00  4.46895E+00
   3.94046E+00  3.40680E+00  2.86817E+00  2.32485E+00  1.77709E+00  1.22522E+00  6.69584E-01  1.10480E-01 -4.51820E-01 -1.01704E+00
  -1.58483E+00 -2.15485E+00 -2.72674E+00 -3.30021E+00 -3.87494E+00 -4.45062E+00 -5.02689E+00 -5.60337E+00 -6.17971E+00 -6.75559E+00
  -7.33070E+00 -7.90469E+00 -8.47716E+00 -9.04772E+00 -9.61604E+00 -1.01818E+01 -1.07446E+01 -1.13041E+01 -1.18599E+01 -1.24115E+01
  -1.29587E+01 -1.35009E+01 -1.40380E+01 -1.45692E+01 -1.50943E+01 -1.56127E+01 -1.61239E+01 -1.66273E+01
 NY background values follow
    -6.504E+01   -6.521E+01   -6.538E+01   -6.553E+01   -6.569E+01   -6.583E+01   -6.597E+01   -6.611E+01   -6.624E+01   -6.637E+01
    -6.649E+01   -6.660E+01   -6.671E+01   -6.682E+01   -6.692E+01   -6.702E+01   -6.711E+01   -6.720E+01   -6.728E+01   -6.736E+01
    -6.744E+01   -6.752E+01   -6.759E+01   -6.765E+01   -6.772E+01   -6.778E+01   -6.784E+01   -6.789E+01   -6.795E+01   -6.800E+01
    -6.805E+01   -6.810E+01   -6.814E+01   -6.818E+01   -6.822E+01   -6.826E+01   -6.830E+01   -6.834E+01   -6.838E+01   -6.841E+01
    -6.844E+01   -6.848E+01   -6.851E+01   -6.854E+01   -6.857E+01   -6.861E+01   -6.864E+01   -6.867E+01   -6.870E+01   -6.874E+01
    -6.877E+01   -6.880E+01   -6.884E+01   -6.887E+01   -6.891E+01   -6.895E+01   -6.899E+01   -6.903E+01   -6.907E+01   -6.911E+01
    -6.916E+01   -6.921E+01   -6.926E+01   -6.931E+01   -6.937E+01   -6.942E+01   -6.948E+01   -6.954E+01   -6.960E+01   -6.965E+01
    -6.971E+01   -6.977E+01   -6.982E+01   -6.988E+01   -6.993E+01   -6.997E+01   -7.002E+01   -7.006E+01   -7.009E+01   -7.012E+01
    -7.015E+01   -7.017E+01   -7.019E+01   -7.019E+01   -7.020E+01   -7.019E+01   -7.018E+01   -7.015E+01   -7.012E+01   -7.008E+01
    -7.004E+01   -6.998E+01   -6.991E+01   -6.983E+01   -6.974E+01   -6.963E+01   -6.952E+01   -6.939E+01   -6.925E+01   -6.909E+01
    -6.893E+01   -6.874E+01   -6.855E+01   -6.833E+01   -6.810E+01   -6.786E+01   -6.760E+01   -6.732E+01   -6.703E+01   -6.671E+01
    -6.638E+01   -6.603E+01   -6.566E+01   -6.527E+01   -6.486E+01   -6.443E+01   -6.398E+01   -6.351E+01   -6.301E+01   -6.249E+01
    -6.196E+01   -6.139E+01   -6.081E+01   -6.020E+01   -5.956E+01   -5.890E+01   -5.822E+01   -5.751E+01   -5.678E+01   -5.603E+01
    -5.525E+01   -5.446E+01   -5.365E+01   -5.282E+01   -5.198E+01   -5.111E+01   -5.024E+01   -4.935E+01   -4.844E+01   -4.753E+01
    -4.660E+01   -4.566E+01   -4.471E+01   -4.376E+01   -4.279E+01   -4.182E+01   -4.084E+01   -3.986E+01   -3.888E+01   -3.789E+01
    -3.690E+01   -3.591E+01   -3.492E+01   -3.393E+01   -3.294E+01   -3.195E+01   -3.097E+01   -2.999E+01   -2.902E+01   -2.805E+01
    -2.709E+01   -2.614E+01   -2.520E+01   -2.427E+01   -2.334E+01   -2.244E+01   -2.154E+01   -2.066E+01   -1.979E+01   -1.894E+01
    -1.810E+01   -1.728E+01   -1.648E+01   -1.570E+01   -1.494E+01   -1.420E+01   -1.349E+01   -1.279E+01   -1.212E+01   -1.148E+01
    -1.086E+01   -1.027E+01   -9.705E+00   -9.170E+00   -8.664E+00   -8.188E+00   -7.745E+00   -7.333E+00   -6.954E+00   -6.607E+00
    -6.291E+00   -6.007E+00   -5.753E+00   -5.530E+00   -5.337E+00   -5.173E+00   -5.038E+00   -4.932E+00   -4.853E+00   -4.803E+00
    -4.779E+00   -4.783E+00   -4.813E+00   -4.869E+00   -4.950E+00   -5.057E+00   -5.188E+00   -5.343E+00   -5.522E+00   -5.725E+00
    -5.951E+00   -6.198E+00   -6.468E+00   -6.760E+00   -7.073E+00   -7.406E+00   -7.760E+00   -8.134E+00   -8.527E+00   -8.940E+00
    -9.370E+00   -9.819E+00   -1.029E+01   -1.077E+01   -1.127E+01   -1.179E+01   -1.232E+01   -1.287E+01   -1.343E+01   -1.401E+01
    -1.461E+01   -1.521E+01   -1.583E+01   -1.646E+01   -1.711E+01   -1.777E+01   -1.844E+01   -1.912E+01   -1.981E+01   -2.051E+01
    -2.122E+01   -2.194E+01   -2.267E+01   -2.341E+01   -2.416E+01   -2.491E+01   -2.567E+01   -2.644E+01   -2.721E+01   -2.800E+01
    -2.878E+01   -2.957E+01   -3.037E+01   -3.117E+01   -3.197E+01   -3.277E+01   -3.357E+01   -3.438E+01   -3.518E+01   -3.599E+01
    -3.679E+01   -3.759E+01   -3.838E+01   -3.918E+01   -3.996E+01   -4.075E+01   -4.152E+01   -4.230E+01   -4.306E+01   -4.381E+01
    -4.456E+01   -4.530E+01   -4.603E+01   -4.674E+01   -4.745E+01   -4.814E+01   -4.882E+01   -4.949E+01   -5.014E+01   -5.077E+01
    -5.140E+01   -5.200E+01   -5.259E+01   -5.316E+01   -5.371E+01   -5.424E+01   -5.475E+01   -5.524E+01   -5.571E+01   -5.616E+01
    -5.659E+01   -5.699E+01   -5.737E+01   -5.772E+01   -5.805E+01   -5.835E+01   -5.862E+01   -5.887E+01   -5.908E+01   -5.927E+01
    -5.943E+01   -5.956E+01   -5.966E+01   -5.972E+01   -5.975E+01   -5.975E+01   -5.972E+01   -5.965E+01   -5.954E+01   -5.940E+01
    -5.922E+01   -5.900E+01   -5.875E+01   -5.846E+01   -5.813E+01   -5.777E+01   -5.738E+01   -5.695E+01   -5.649E+01   -5.600E+01
    -5.547E+01   -5.492E+01   -5.434E+01   -5.373E+01   -5.310E+01   -5.243E+01   -5.175E+01   -5.104E+01   -5.030E+01   -4.955E+01
    -4.877E+01   -4.797E+01   -4.715E+01   -4.631E+01   -4.546E+01   -4.459E+01   -4.370E+01   -4.280E+01   -4.188E+01   -4.095E+01
    -4.000E+01   -3.905E+01   -3.808E+01   -3.711E+01   -3.612E+01   -3.513E+01   -3.413E+01   -3.312E+01   -3.211E+01   -3.110E+01
    -3.008E+01   -2.906E+01   -2.803E+01   -2.701E+01   -2.599E+01   -2.496E+01   -2.394E+01   -2.292E+01   -2.191E+01   -2.090E+01
    -1.989E+01   -1.890E+01   -1.791E+01   -1.692E+01   -1.595E+01   -1.499E+01   -1.403E+01   -1.309E+01   -1.216E+01   -1.125E+01
    -1.035E+01   -9.465E+00   -8.597E+00   -7.745E+00   -6.912E+00   -6.096E+00   -5.299E+00   -4.519E+00   -3.757E+00   -3.012E+00
    -2.285E+00   -1.576E+00   -8.846E-01   -2.106E-01    4.458E-01    1.085E+00    1.706E+00    2.310E+00    2.896E+00    3.465E+00
     4.017E+00    4.551E+00    5.068E+00    5.568E+00    6.050E+00    6.515E+00    6.963E+00    7.394E+00    7.807E+00    8.204E+00
     8.583E+00    8.945E+00    9.291E+00    9.619E+00    9.930E+00    1.022E+01    1.050E+01    1.076E+01    1.101E+01    1.123E+01
     1.144E+01    1.164E+01    1.181E+01    1.197E+01    1.212E+01    1.224E+01    1.235E+01    1.245E+01    1.252E+01    1.258E+01
     1.263E+01    1.265E+01    1.266E+01    1.266E+01    1.264E+01    1.260E+01    1.254E+01    1.247E+01    1.239E+01    1.228E+01
     1.216E+01    1.203E+01    1.187E+01    1.171E+01    1.152E+01    1.132E+01    1.111E+01    1.087E+01    1.063E+01    1.036E+01
     1.009E+01    9.797E+00    9.493E+00    9.175E+00    8.844E+00    8.501E+00    8.145E+00    7.777E+00    7.398E+00    7.007E+00
     6.606E+00    6.194E+00    5.772E+00    5.340E+00    4.899E+00    4.448E+00    3.990E+00    3.523E+00    3.048E+00    2.565E+00
     2.075E+00    1.579E+00    1.076E+00    5.669E-01    5.220E-02   -4.678E-01   -9.928E-01   -1.522E+00   -2.056E+00   -2.594E+00
    -3.135E+00   -3.680E+00   -4.227E+00   -4.776E+00   -5.328E+00   -5.881E+00   -6.435E+00   -6.991E+00   -7.547E+00   -8.103E+00
    -8.659E+00   -9.214E+00   -9.769E+00   -1.032E+01   -1.087E+01   -1.142E+01   -1.197E+01   -1.251E+01   -1.306E+01   -1.359E+01
    -1.413E+01   -1.466E+01   -1.518E+01   -1.570E+01   -1.622E+01   -1.673E+01   -1.723E+01   -1.773E+01
 Ala      Conc. = 1.34E+03
