 LCModel (Version 6.3-1L) Copyright: S.W. Provencher.          Ref.: Magn. Reson. Med. 30:672-679 (1993).                
 Slice#2 Row#6 Col#8  PD_24_press_2_raw_act
 36 lines in following concentration table = NCONC+1
    Conc.  %SD /Cr+PCr  Metabolite                                         
    0.000 999%   0.000 Ala                                                 
  257.777 104%   0.192 Asp                                                 
    0.000 999%   0.000 Cr                                                  
 1.34E+03   8%   1.000 PCr                                                 
   40.816 407% 3.0E-02 GABA                                                
  107.363 156% 8.0E-02 Glc                                                 
  551.103  60%   0.410 Gln                                                 
 1.73E+03  23%   1.288 Glu                                                 
    0.000 999%   0.000 GPC                                                 
  533.990   7%   0.397 PCh                                                 
    0.000 999%   0.000 GSH                                                 
  221.196 176%   0.165 Ins                                                 
    3.988 999% 3.0E-03 Lac                                                 
 2.28E+03   8%   1.696 NAA                                                 
  298.415  61%   0.222 NAAG                                                
   81.224  49% 6.0E-02 Scyllo                                              
  602.250  41%   0.448 Tau                                                 
  868.148  18%   0.646 -CrCH2                                              
  533.990   7%   0.397 GPC+PCh                                             
 2.58E+03   6%   1.918 NAA+NAAG                                            
 1.34E+03   8%   1.000 Cr+PCr                                              
 2.28E+03  23%   1.698 Glu+Gln                                             
 1.03E+03 120%   0.765 Lip13a                                              
  292.060 187%   0.217 Lip13b                                              
   59.998 582% 4.5E-02 Lip09                                               
 2.04E+03  22%   1.519 MM09                                                
  309.916  74%   0.230 Lip20                                               
 4.78E+03  14%   3.554 MM20                                                
  670.631  45%   0.499 MM12                                                
 2.05E+03  31%   1.526 MM14                                                
 1.99E+03  21%   1.477 MM17                                                
 1.32E+03  65%   0.983 Lip13a+Lip13b                                       
 4.04E+03  15%   3.007 MM14+Lip13a+Lip13b+MM12                             
 2.10E+03  15%   1.564 MM09+Lip09                                          
 5.09E+03  13%   3.785 MM20+Lip20                                          
   6 lines in following misc. output table
  FWHM = 0.038 ppm    S/N =   7                                            
  Data shift = 0.015 ppm                                                   
  Ph: -56 deg      -8.2 deg/ppm                                            
  alphaB,S = 5.7E+00,   4.1E+01                                            
   14 spline knots.   Ns = 6(1)                                            
  (12) 2 infls.   (13) 1 extrs.                                            
  498 points on ppm-axis = NY
      4.000000     3.992357     3.984714     3.977070     3.969427     3.961784     3.954141     3.946497     3.938854     3.931211
      3.923568     3.915925     3.908281     3.900638     3.892995     3.885352     3.877708     3.870065     3.862422     3.854779
      3.847136     3.839492     3.831849     3.824206     3.816563     3.808919     3.801276     3.793633     3.785990     3.778347
      3.770703     3.763060     3.755417     3.747774     3.740130     3.732487     3.724844     3.717201     3.709558     3.701914
      3.694271     3.686628     3.678985     3.671341     3.663698     3.656055     3.648412     3.640769     3.633125     3.625482
      3.617839     3.610196     3.602552     3.594909     3.587266     3.579623     3.571980     3.564336     3.556693     3.549050
      3.541407     3.533763     3.526120     3.518477     3.510834     3.503191     3.495547     3.487904     3.480261     3.472618
      3.464974     3.457331     3.449688     3.442045     3.434402     3.426758     3.419115     3.411472     3.403829     3.396185
      3.388542     3.380899     3.373256     3.365613     3.357969     3.350326     3.342683     3.335040     3.327396     3.319753
      3.312110     3.304467     3.296824     3.289180     3.281537     3.273894     3.266251     3.258607     3.250964     3.243321
      3.235678     3.228034     3.220391     3.212748     3.205105     3.197462     3.189818     3.182175     3.174532     3.166889
      3.159245     3.151602     3.143959     3.136316     3.128673     3.121029     3.113386     3.105743     3.098100     3.090456
      3.082813     3.075170     3.067527     3.059884     3.052240     3.044597     3.036954     3.029311     3.021667     3.014024
      3.006381     2.998738     2.991095     2.983451     2.975808     2.968165     2.960522     2.952878     2.945235     2.937592
      2.929949     2.922306     2.914662     2.907019     2.899376     2.891733     2.884089     2.876446     2.868803     2.861160
      2.853517     2.845873     2.838230     2.830587     2.822944     2.815300     2.807657     2.800014     2.792371     2.784728
      2.777084     2.769441     2.761798     2.754155     2.746511     2.738868     2.731225     2.723582     2.715939     2.708295
      2.700652     2.693009     2.685366     2.677722     2.670079     2.662436     2.654793     2.647150     2.639506     2.631863
      2.624220     2.616577     2.608933     2.601290     2.593647     2.586004     2.578361     2.570717     2.563074     2.555431
      2.547788     2.540144     2.532501     2.524858     2.517215     2.509572     2.501928     2.494285     2.486642     2.478999
      2.471355     2.463712     2.456069     2.448426     2.440783     2.433139     2.425496     2.417853     2.410210     2.402566
      2.394923     2.387280     2.379637     2.371994     2.364350     2.356707     2.349064     2.341421     2.333777     2.326134
      2.318491     2.310848     2.303205     2.295561     2.287918     2.280275     2.272632     2.264988     2.257345     2.249702
      2.242059     2.234416     2.226772     2.219129     2.211486     2.203843     2.196199     2.188556     2.180913     2.173270
      2.165627     2.157983     2.150340     2.142697     2.135054     2.127410     2.119767     2.112124     2.104481     2.096838
      2.089194     2.081551     2.073908     2.066265     2.058621     2.050978     2.043335     2.035692     2.028049     2.020405
      2.012762     2.005119     1.997476     1.989833     1.982190     1.974546     1.966903     1.959260     1.951617     1.943974
      1.936331     1.928688     1.921045     1.913402     1.905759     1.898115     1.890472     1.882829     1.875186     1.867543
      1.859900     1.852257     1.844614     1.836971     1.829327     1.821684     1.814041     1.806398     1.798755     1.791112
      1.783469     1.775826     1.768183     1.760540     1.752896     1.745253     1.737610     1.729967     1.722324     1.714681
      1.707038     1.699395     1.691752     1.684108     1.676465     1.668822     1.661179     1.653536     1.645893     1.638250
      1.630607     1.622964     1.615321     1.607677     1.600034     1.592391     1.584748     1.577105     1.569462     1.561819
      1.554176     1.546533     1.538890     1.531246     1.523603     1.515960     1.508317     1.500674     1.493031     1.485388
      1.477745     1.470102     1.462458     1.454815     1.447172     1.439529     1.431886     1.424243     1.416600     1.408957
      1.401314     1.393671     1.386027     1.378384     1.370741     1.363098     1.355455     1.347812     1.340169     1.332526
      1.324883     1.317240     1.309596     1.301953     1.294310     1.286667     1.279024     1.271381     1.263738     1.256095
      1.248452     1.240808     1.233165     1.225522     1.217879     1.210236     1.202593     1.194950     1.187307     1.179664
      1.172021     1.164377     1.156734     1.149091     1.141448     1.133805     1.126162     1.118519     1.110876     1.103233
      1.095590     1.087946     1.080303     1.072660     1.065017     1.057374     1.049731     1.042088     1.034445     1.026802
      1.019158     1.011515     1.003872     0.996229     0.988586     0.980943     0.973300     0.965657     0.958014     0.950371
      0.942727     0.935084     0.927441     0.919798     0.912155     0.904512     0.896869     0.889226     0.881583     0.873940
      0.866296     0.858653     0.851010     0.843367     0.835724     0.828081     0.820438     0.812795     0.805152     0.797508
      0.789865     0.782222     0.774579     0.766936     0.759293     0.751650     0.744007     0.736364     0.728721     0.721077
      0.713434     0.705791     0.698148     0.690505     0.682862     0.675219     0.667576     0.659933     0.652290     0.644646
      0.637003     0.629360     0.621717     0.614074     0.606431     0.598788     0.591145     0.583502     0.575858     0.568215
      0.560572     0.552929     0.545286     0.537643     0.530000     0.522357     0.514714     0.507071     0.499427     0.491784
      0.484141     0.476498     0.468855     0.461212     0.453569     0.445925     0.438282     0.430639     0.422996     0.415353
      0.407710     0.400067     0.392424     0.384780     0.377137     0.369494     0.361851     0.354208     0.346565     0.338922
      0.331278     0.323635     0.315992     0.308349     0.300706     0.293063     0.285420     0.277777     0.270133     0.262490
      0.254847     0.247204     0.239561     0.231918     0.224275     0.216631     0.208988     0.201345
 NY phased data points follow
  -6.12777E+01 -4.56625E+01 -6.56368E+01 -5.38454E+01 -5.72944E+01 -4.46821E+01 -5.12302E+01 -3.22950E+01 -3.30944E+01 -2.94954E+01
  -3.53111E+01 -1.32491E+01 -2.85157E+01 -1.76511E+01 -4.09480E+01 -3.13798E+01 -4.63683E+01 -3.64923E+01 -4.88169E+01 -3.38442E+01
  -5.95311E+01 -4.01948E+01 -4.69248E+01 -3.56482E+01 -3.69779E+01 -2.85873E+01 -4.42104E+01 -3.58289E+01 -3.56961E+01 -3.39668E+01
  -4.45566E+01 -2.59087E+01 -5.30828E+01 -3.01346E+01 -4.73744E+01 -3.22822E+01 -4.35452E+01 -3.34854E+01 -4.37882E+01 -2.23996E+01
  -3.97979E+01 -2.80773E+01 -4.02221E+01 -1.87760E+01 -3.69583E+01 -2.59256E+01 -2.85737E+01 -2.73551E+01 -3.74105E+01 -2.05141E+01
  -3.30634E+01 -2.66499E+01 -2.98618E+01 -2.34037E+01 -2.42573E+01 -2.42625E+01 -3.01890E+01 -2.86179E+01 -2.21728E+01 -2.00598E+01
  -3.44723E+01 -2.27626E+01 -3.72208E+01 -3.01707E+01 -3.48812E+01 -2.68434E+01 -3.67095E+01 -2.22608E+01 -3.06228E+01 -3.19855E+01
  -3.40400E+01 -2.22486E+01 -4.11176E+01 -2.28871E+01 -2.88364E+01 -2.12494E+01 -2.46190E+01 -1.81647E+01 -3.44006E+01 -2.09906E+01
  -4.08736E+01 -2.65695E+01 -2.73505E+01 -2.69271E+01 -2.23398E+01 -8.62769E+00 -1.10719E+01 -2.98231E+01 -3.16095E+01 -2.29961E+01
  -2.70397E+01 -1.76940E+01 -2.73156E+01 -1.21892E+01 -2.22873E+01 -2.10092E+01 -1.38645E+01 -2.98251E+00 -1.99373E+01  2.68053E+00
  -7.88814E-01  2.31674E+01  3.33601E+01  3.76449E+01  2.49522E+01  3.08502E+01  1.01120E+01  5.22844E+00 -1.35792E+01 -1.55529E+01
  -1.89969E+01 -8.90260E+00 -2.62737E+01 -1.97569E+01 -3.18187E+01 -2.19883E+01 -1.73084E+01 -1.92710E+01 -1.74184E+01 -1.51607E+01
  -2.26669E+01 -1.62654E+01 -2.38589E+01 -2.12055E+01 -4.76986E+00  7.52686E+00  2.26530E+01  4.08186E+01  3.57762E+01  3.31257E+01
   1.08284E+01  7.81193E+00 -1.16922E+01 -1.02611E+01 -1.55325E+01 -1.97881E+01 -2.23800E+01 -7.69510E+00 -1.85942E+01 -1.95322E+01
  -1.76077E+01 -1.33338E+01 -2.65889E+01 -1.34569E+01 -1.48193E+01 -1.90066E+01 -2.66508E+01 -1.22960E+01 -1.79170E+01 -1.34221E+01
  -2.37859E+01 -2.18652E+01 -2.02044E+01 -2.09307E+01 -2.11865E+01 -1.58570E+01 -2.31000E+01 -8.50451E+00 -2.48851E+01 -1.74733E+01
  -1.53461E+01 -1.96698E+01 -2.63206E+01 -2.36891E+01 -2.36404E+01 -1.25874E+01 -1.33737E+01 -1.87636E+01 -1.92600E+01 -1.36360E+01
  -2.73653E+01 -1.50783E+01 -1.45852E+01 -5.18439E+00 -3.71997E+01 -2.41161E+01 -1.45919E+01 -3.14381E+01 -2.47062E+01 -2.55336E+01
  -2.56333E+01 -2.77880E+01 -2.91570E+01 -1.84991E+01 -2.73805E+01 -1.63432E+01 -1.91700E+01 -1.15001E+01 -2.65281E+01 -1.02534E+01
  -9.88914E+00  4.79214E+00 -1.63853E+01 -1.05377E+01 -1.50165E+01 -1.75192E+01 -1.93850E+01 -1.32920E+01 -1.02343E+01 -1.58135E+01
  -1.02851E+01 -6.53060E+00 -7.77798E+00 -1.21852E+00 -4.81800E+00 -3.52038E+00 -8.32907E+00 -8.66935E+00 -1.34881E+01 -1.37782E+01
  -1.83064E+01 -1.40581E+01 -5.87153E+00 -1.57069E+01 -6.87640E+00  9.99778E+00  8.65241E+00  1.19572E+01  2.06870E+00  1.79975E+00
  -5.64090E+00 -1.34171E+01 -2.45937E+01 -1.46553E+01 -1.37779E+01 -2.65701E+00 -1.20168E+00  5.28365E+00  5.79691E-01  9.85317E+00
   7.46667E+00  9.26908E+00 -7.54410E-01 -5.27485E+00  8.68457E-02  2.69932E+00 -2.65271E+00  3.84681E+00 -2.68035E+00 -8.77124E-01
   8.31529E+00 -2.95669E+00 -8.34159E+00  3.12076E+00 -3.56068E+00  9.46252E+00 -6.81433E-01  1.65609E+01  8.72961E+00  7.08235E+00
   1.92214E+01  1.38454E+01  1.93777E+01  2.15724E+01  2.24269E+01  2.50648E+01  4.46896E+01  5.37900E+01  7.75074E+01  7.94172E+01
   9.27671E+01  1.08770E+02  9.50218E+01  6.96625E+01  3.40286E+01  1.95690E+01  2.54630E+01  9.64471E+00  1.91243E+01  6.40932E+00
   8.57521E+00  1.38826E+01 -2.13195E+00  1.71973E+01  5.93333E+00  7.19518E+00  1.15939E+01  2.87392E+00  2.19796E+00  1.40793E-01
  -1.01986E+00  3.64240E+00 -4.68266E+00  3.24592E+00 -1.76972E+01 -1.04925E+00 -1.51799E+01 -3.89984E+00 -6.99117E+00  6.46545E-01
   5.27959E+00 -7.81360E-01  1.06437E+01  5.72334E+00  8.73255E-01  5.68021E+00  1.75072E+00  8.61543E-01  1.16854E+01  9.66486E+00
   2.87874E+00  1.82452E+01  1.47045E+00  4.41353E+00  4.36809E+00  8.91915E+00  1.89262E+01  1.46968E+01  1.87501E+01  1.34703E+01
   7.91825E+00  1.05869E+01  7.48647E-01  1.57044E+01  6.65669E+00  1.38037E+01  5.59605E+00  1.74971E+01  1.97547E+00  1.09404E+01
   8.81703E+00  7.19527E+00  7.31224E+00  1.14145E+01 -1.36202E+00  1.39281E+01  1.24645E+01  5.67621E+00  9.33938E+00  8.67430E+00
   2.02843E+00  1.00722E+01  6.92283E+00  1.22230E+01  1.13610E+01  1.19916E+01  8.35221E+00  2.71751E+00  3.43160E+00  1.49302E+01
   4.55796E+00  4.50168E+00  1.86278E+01  1.86598E+01  1.89411E+01  1.82771E+01  9.29064E+00  2.98315E+00 -3.66916E-01  1.15923E+01
   1.25616E+01  1.61921E+01  1.27950E+01  2.72002E+01  1.00296E+01  3.62529E+00  1.47444E+01  1.12225E+01  1.61388E+01  8.74539E+00
   1.65972E+01  1.94008E+01  5.58442E+00  1.28689E+01  6.47199E+00  5.96163E+00  4.97572E+00  1.36355E+01  1.03758E+01  8.81287E+00
   4.72823E+00  2.68468E+00  3.87643E+00  7.58740E+00  1.54095E+01  1.04862E+01  5.54279E+00  1.60480E+00  9.96964E+00  1.18219E+01
   8.33941E+00  1.61042E+01  1.22322E+01  5.49086E+00  2.37879E+00  7.17265E+00  2.24768E+00  2.56151E+00  1.09112E+01  7.18235E+00
   8.84690E+00  1.12964E+01  2.96994E+00  1.35764E+01  1.27378E+01  8.16568E+00  3.41605E+00  2.37691E+00  9.25922E+00  1.02675E+01
   1.37714E+01  1.43371E+01  1.69816E+01  6.70594E+00  1.15913E+01  2.41294E+01  1.45539E+01  2.46548E+01  2.62818E+01  2.05492E+01
   1.70890E+01  8.79800E+00  1.33703E+01  1.99150E+01  1.18883E+01  1.23448E+01  5.03492E+00  1.58102E+01  7.47219E+00  9.26293E+00
   1.03765E+01  2.19365E+01  6.02146E+00  1.88403E+01  1.52282E+01  4.62942E+00 -4.57369E+00  1.32250E+01  5.88107E+00  5.91471E+00
   6.25969E+00  1.23094E+01  1.77157E+01  1.14306E+01  1.10663E+01  1.12333E+01  3.94432E+00  1.14270E+01  5.38528E+00 -2.36432E+00
   1.97744E+00  1.40378E+01  6.88880E+00  9.79874E+00  1.33109E+01  7.94776E-01  9.14400E+00  5.23296E+00  1.51443E+01 -3.46364E+00
  -9.16334E-02  6.25938E+00  2.27996E+00  1.07924E+01  4.63965E+00  2.09706E+00  1.15414E+01  5.07021E+00  4.82161E+00  1.31261E+01
  -5.15424E+00 -4.85654E+00  1.41365E+01  1.05139E+01  1.38918E+01  3.70405E+00  1.27443E+01  1.29296E+01  6.91825E+00  1.01670E+01
   1.12918E+01  7.11244E+00 -7.09685E-02 -3.59247E+00  1.53564E+00  7.41090E-01  7.17694E+00  6.76998E+00 -1.99954E+00  1.14468E+00
   7.19210E+00  1.56003E+00  1.89566E+00  1.21011E+00  9.03328E+00  1.17004E+01  2.38903E+00  9.04759E+00  7.72099E+00  1.43457E+01
   2.41349E+00  3.80890E+00  3.99071E+00  7.46044E+00 -3.02888E+00  4.20206E-01  9.64473E+00  1.18012E+01
 NY points of the fit to the data follow
  -4.07957E+01 -4.07715E+01 -4.08891E+01 -4.13394E+01 -4.21400E+01 -4.29227E+01 -4.23221E+01 -3.96342E+01 -3.53049E+01 -2.98197E+01
  -2.41624E+01 -2.09462E+01 -2.23933E+01 -2.74456E+01 -3.25137E+01 -3.50053E+01 -3.62594E+01 -3.74813E+01 -3.78562E+01 -3.77486E+01
  -3.73378E+01 -3.66346E+01 -3.57751E+01 -3.50487E+01 -3.47435E+01 -3.50754E+01 -3.59689E+01 -3.70909E+01 -3.79365E+01 -3.79094E+01
  -3.65908E+01 -3.41263E+01 -3.13241E+01 -2.93765E+01 -2.91185E+01 -3.05027E+01 -3.28747E+01 -3.52045E+01 -3.65767E+01 -3.67001E+01
  -3.57668E+01 -3.44013E+01 -3.32738E+01 -3.26289E+01 -3.23387E+01 -3.20744E+01 -3.16934E+01 -3.14098E+01 -3.13985E+01 -3.16329E+01
  -3.20389E+01 -3.23973E+01 -3.24783E+01 -3.23174E+01 -3.20964E+01 -3.19220E+01 -3.17719E+01 -3.15585E+01 -3.12689E+01 -3.09664E+01
  -3.06626E+01 -3.03802E+01 -3.01406E+01 -2.99155E+01 -2.96680E+01 -2.93888E+01 -2.91381E+01 -2.90208E+01 -2.90707E+01 -2.91792E+01
  -2.91727E+01 -2.88693E+01 -2.81392E+01 -2.71301E+01 -2.61602E+01 -2.55699E+01 -2.56299E+01 -2.63805E+01 -2.75788E+01 -2.86298E+01
  -2.88693E+01 -2.80943E+01 -2.65504E+01 -2.46045E+01 -2.27443E+01 -2.14157E+01 -2.07698E+01 -2.09131E+01 -2.18825E+01 -2.33077E+01
  -2.45726E+01 -2.53769E+01 -2.59425E+01 -2.64746E+01 -2.66720E+01 -2.61325E+01 -2.45195E+01 -2.12687E+01 -1.56394E+01 -6.58017E+00
   5.72318E+00  1.90624E+01  3.06958E+01  3.77138E+01  3.67531E+01  2.65586E+01  1.11157E+01 -2.82167E+00 -1.13463E+01 -1.59493E+01
  -1.92383E+01 -2.10404E+01 -2.16774E+01 -2.19041E+01 -2.19447E+01 -2.19005E+01 -2.17683E+01 -2.15670E+01 -2.12985E+01 -2.09421E+01
  -2.04085E+01 -1.92704E+01 -1.66067E+01 -1.11485E+01 -1.81828E+00  1.03016E+01  2.25017E+01  3.19120E+01  3.53605E+01  3.02222E+01
   1.77073E+01  3.45973E+00 -6.88991E+00 -1.22159E+01 -1.53915E+01 -1.75998E+01 -1.82908E+01 -1.84757E+01 -1.85783E+01 -1.86828E+01
  -1.87956E+01 -1.88957E+01 -1.89545E+01 -1.89421E+01 -1.88471E+01 -1.87152E+01 -1.86313E+01 -1.86658E+01 -1.88122E+01 -1.89877E+01
  -1.91237E+01 -1.92028E+01 -1.92406E+01 -1.92562E+01 -1.92364E+01 -1.91960E+01 -1.92060E+01 -1.93823E+01 -1.97972E+01 -2.03775E+01
  -2.09421E+01 -2.12406E+01 -2.10648E+01 -2.04119E+01 -1.95591E+01 -1.89605E+01 -1.89447E+01 -1.94306E+01 -2.00438E+01 -2.05080E+01
  -2.07523E+01 -2.09189E+01 -2.11757E+01 -2.15176E+01 -2.18515E+01 -2.20446E+01 -2.19740E+01 -2.16081E+01 -2.10278E+01 -2.04435E+01
  -2.01089E+01 -2.00609E+01 -1.99925E+01 -1.95783E+01 -1.88931E+01 -1.81843E+01 -1.75282E+01 -1.68232E+01 -1.58433E+01 -1.46326E+01
  -1.35557E+01 -1.29529E+01 -1.28477E+01 -1.29152E+01 -1.28763E+01 -1.27415E+01 -1.25420E+01 -1.22650E+01 -1.19479E+01 -1.15087E+01
  -1.07123E+01 -9.47753E+00 -8.05048E+00 -6.91682E+00 -6.58866E+00 -7.32564E+00 -9.23167E+00 -1.20328E+01 -1.49998E+01 -1.73183E+01
  -1.83297E+01 -1.75037E+01 -1.46555E+01 -1.02932E+01 -5.47227E+00 -1.33724E+00  1.14919E+00  1.12401E+00 -1.98884E+00 -7.35188E+00
  -1.29908E+01 -1.71333E+01 -1.89269E+01 -1.83314E+01 -1.53306E+01 -1.03908E+01 -5.16623E+00 -1.26891E+00  7.24295E-01  1.36407E+00
   1.35205E+00  9.24622E-01  3.34628E-01  3.96818E-02  2.50706E-01  9.19987E-01  1.92288E+00  3.10980E+00  4.29861E+00  5.14957E+00
   5.39875E+00  5.14895E+00  4.81014E+00  4.78984E+00  5.35897E+00  6.58905E+00  8.10477E+00  9.37717E+00  1.01819E+01  1.07669E+01
   1.15944E+01  1.30046E+01  1.54318E+01  1.90871E+01  2.40982E+01  3.10098E+01  4.11052E+01  5.54015E+01  7.20422E+01  8.76640E+01
   9.89513E+01  1.01389E+02  9.04961E+01  6.81544E+01  4.37879E+01  2.61853E+01  1.65175E+01  1.01766E+01  5.66788E+00  3.70157E+00
   2.70215E+00  2.04565E+00  1.66604E+00  1.53081E+00  1.49148E+00  1.43314E+00  1.25306E+00  8.98850E-01  4.37027E-01  1.25241E-03
  -3.39600E-01 -5.88030E-01 -7.34917E-01 -7.64173E-01 -6.98281E-01 -5.87058E-01 -4.58946E-01 -3.00865E-01 -8.36569E-02  2.03560E-01
   5.69842E-01  1.02588E+00  1.56817E+00  2.17502E+00  2.82280E+00  3.49380E+00  4.18376E+00  4.89434E+00  5.62014E+00  6.34881E+00
   7.07253E+00  7.77776E+00  8.44182E+00  9.03838E+00  9.54626E+00  9.95336E+00  1.02532E+01  1.04412E+01  1.05207E+01  1.04990E+01
   1.03850E+01  1.01902E+01  9.92978E+00  9.62018E+00  9.27993E+00  8.92745E+00  8.58084E+00  8.25609E+00  7.96742E+00  7.72607E+00
   7.54102E+00  7.41756E+00  7.35802E+00  7.36136E+00  7.42457E+00  7.54220E+00  7.70748E+00  7.91163E+00  8.14530E+00  8.39845E+00
   8.66183E+00  8.92642E+00  9.18434E+00  9.42816E+00  9.65214E+00  9.85178E+00  1.00249E+01  1.01706E+01  1.02901E+01  1.03860E+01
   1.04632E+01  1.05291E+01  1.05934E+01  1.06664E+01  1.07583E+01  1.08771E+01  1.10311E+01  1.12275E+01  1.14703E+01  1.17598E+01
   1.20924E+01  1.24551E+01  1.28204E+01  1.31454E+01  1.33866E+01  1.35087E+01  1.34848E+01  1.33001E+01  1.29628E+01  1.25013E+01
   1.19563E+01  1.13662E+01  1.07644E+01  1.01800E+01  9.63448E+00  9.13855E+00  8.69582E+00  8.30387E+00  7.95743E+00  7.64993E+00
   7.37573E+00  7.13014E+00  6.91037E+00  6.71485E+00  6.54385E+00  6.39840E+00  6.28057E+00  6.19228E+00  6.13585E+00  6.11330E+00
   6.12713E+00  6.17957E+00  6.27306E+00  6.40949E+00  6.59092E+00  6.81903E+00  7.09579E+00  7.42254E+00  7.80048E+00  8.22968E+00
   8.70976E+00  9.23915E+00  9.81547E+00  1.04346E+01  1.10910E+01  1.17769E+01  1.24834E+01  1.31994E+01  1.39128E+01  1.46097E+01
   1.52757E+01  1.58954E+01  1.64541E+01  1.69375E+01  1.73334E+01  1.76307E+01  1.78214E+01  1.79002E+01  1.78652E+01  1.77179E+01
   1.74633E+01  1.71088E+01  1.66649E+01  1.61441E+01  1.55604E+01  1.49290E+01  1.42651E+01  1.35831E+01  1.28970E+01  1.22191E+01
   1.15606E+01  1.09302E+01  1.03351E+01  9.78016E+00  9.26877E+00  8.80255E+00  8.38207E+00  8.00634E+00  7.67369E+00  7.38147E+00
   7.12702E+00  6.90722E+00  6.71912E+00  6.55937E+00  6.42500E+00  6.31295E+00  6.22078E+00  6.14608E+00  6.08687E+00  6.04103E+00
   6.00695E+00  5.98301E+00  5.96817E+00  5.96127E+00  5.96147E+00  5.96769E+00  5.97930E+00  5.99558E+00  6.01624E+00  6.04070E+00
   6.06864E+00  6.09948E+00  6.13303E+00  6.16896E+00  6.20727E+00  6.24758E+00  6.28979E+00  6.33349E+00  6.37872E+00  6.42530E+00
   6.47330E+00  6.52243E+00  6.57265E+00  6.62371E+00  6.67573E+00  6.72859E+00  6.78239E+00  6.83683E+00  6.89194E+00  6.94754E+00
   7.00382E+00  7.06066E+00  7.11814E+00  7.17600E+00  7.23430E+00  7.29294E+00  7.35212E+00  7.41169E+00  7.47171E+00  7.53193E+00
   7.59248E+00  7.65329E+00  7.71454E+00  7.77608E+00  7.83794E+00  7.89994E+00  7.96222E+00  8.02476E+00  8.08769E+00  8.15084E+00
   8.21424E+00  8.27776E+00  8.34160E+00  8.40570E+00  8.47020E+00  8.53488E+00  8.59984E+00  8.66500E+00
 NY background values follow
    -4.158E+01   -4.144E+01   -4.130E+01   -4.115E+01   -4.101E+01   -4.087E+01   -4.073E+01   -4.058E+01   -4.044E+01   -4.030E+01
    -4.015E+01   -4.001E+01   -3.987E+01   -3.973E+01   -3.958E+01   -3.944E+01   -3.930E+01   -3.916E+01   -3.901E+01   -3.887E+01
    -3.873E+01   -3.859E+01   -3.844E+01   -3.830E+01   -3.816E+01   -3.802E+01   -3.787E+01   -3.773E+01   -3.759E+01   -3.745E+01
    -3.731E+01   -3.716E+01   -3.702E+01   -3.688E+01   -3.674E+01   -3.660E+01   -3.645E+01   -3.631E+01   -3.617E+01   -3.603E+01
    -3.589E+01   -3.575E+01   -3.560E+01   -3.546E+01   -3.532E+01   -3.518E+01   -3.504E+01   -3.490E+01   -3.476E+01   -3.462E+01
    -3.448E+01   -3.434E+01   -3.419E+01   -3.405E+01   -3.391E+01   -3.377E+01   -3.363E+01   -3.349E+01   -3.335E+01   -3.321E+01
    -3.307E+01   -3.293E+01   -3.279E+01   -3.266E+01   -3.252E+01   -3.238E+01   -3.224E+01   -3.210E+01   -3.196E+01   -3.182E+01
    -3.168E+01   -3.154E+01   -3.141E+01   -3.127E+01   -3.113E+01   -3.099E+01   -3.086E+01   -3.072E+01   -3.058E+01   -3.044E+01
    -3.031E+01   -3.017E+01   -3.003E+01   -2.990E+01   -2.976E+01   -2.962E+01   -2.949E+01   -2.935E+01   -2.921E+01   -2.908E+01
    -2.894E+01   -2.881E+01   -2.867E+01   -2.854E+01   -2.840E+01   -2.827E+01   -2.813E+01   -2.800E+01   -2.787E+01   -2.773E+01
    -2.760E+01   -2.747E+01   -2.733E+01   -2.720E+01   -2.707E+01   -2.693E+01   -2.680E+01   -2.667E+01   -2.654E+01   -2.640E+01
    -2.627E+01   -2.614E+01   -2.601E+01   -2.588E+01   -2.575E+01   -2.562E+01   -2.549E+01   -2.536E+01   -2.523E+01   -2.510E+01
    -2.497E+01   -2.484E+01   -2.471E+01   -2.458E+01   -2.445E+01   -2.432E+01   -2.419E+01   -2.406E+01   -2.393E+01   -2.381E+01
    -2.368E+01   -2.355E+01   -2.342E+01   -2.330E+01   -2.317E+01   -2.304E+01   -2.292E+01   -2.279E+01   -2.266E+01   -2.254E+01
    -2.241E+01   -2.229E+01   -2.216E+01   -2.204E+01   -2.191E+01   -2.179E+01   -2.166E+01   -2.154E+01   -2.142E+01   -2.129E+01
    -2.117E+01   -2.105E+01   -2.092E+01   -2.080E+01   -2.068E+01   -2.056E+01   -2.043E+01   -2.031E+01   -2.019E+01   -2.007E+01
    -1.995E+01   -1.983E+01   -1.971E+01   -1.959E+01   -1.947E+01   -1.935E+01   -1.923E+01   -1.911E+01   -1.899E+01   -1.887E+01
    -1.875E+01   -1.863E+01   -1.851E+01   -1.839E+01   -1.828E+01   -1.816E+01   -1.804E+01   -1.793E+01   -1.781E+01   -1.769E+01
    -1.758E+01   -1.746E+01   -1.734E+01   -1.723E+01   -1.711E+01   -1.700E+01   -1.688E+01   -1.677E+01   -1.665E+01   -1.654E+01
    -1.643E+01   -1.631E+01   -1.620E+01   -1.609E+01   -1.597E+01   -1.586E+01   -1.575E+01   -1.564E+01   -1.552E+01   -1.541E+01
    -1.530E+01   -1.519E+01   -1.508E+01   -1.497E+01   -1.486E+01   -1.475E+01   -1.464E+01   -1.453E+01   -1.442E+01   -1.431E+01
    -1.420E+01   -1.409E+01   -1.399E+01   -1.388E+01   -1.377E+01   -1.366E+01   -1.355E+01   -1.345E+01   -1.334E+01   -1.324E+01
    -1.313E+01   -1.302E+01   -1.292E+01   -1.281E+01   -1.271E+01   -1.260E+01   -1.250E+01   -1.239E+01   -1.229E+01   -1.219E+01
    -1.208E+01   -1.198E+01   -1.188E+01   -1.177E+01   -1.167E+01   -1.157E+01   -1.147E+01   -1.137E+01   -1.126E+01   -1.116E+01
    -1.106E+01   -1.096E+01   -1.086E+01   -1.076E+01   -1.066E+01   -1.056E+01   -1.046E+01   -1.037E+01   -1.027E+01   -1.017E+01
    -1.007E+01   -9.972E+00   -9.874E+00   -9.777E+00   -9.680E+00   -9.583E+00   -9.486E+00   -9.390E+00   -9.293E+00   -9.198E+00
    -9.102E+00   -9.007E+00   -8.911E+00   -8.816E+00   -8.722E+00   -8.627E+00   -8.533E+00   -8.439E+00   -8.346E+00   -8.252E+00
    -8.159E+00   -8.066E+00   -7.974E+00   -7.881E+00   -7.789E+00   -7.697E+00   -7.605E+00   -7.514E+00   -7.423E+00   -7.332E+00
    -7.241E+00   -7.150E+00   -7.060E+00   -6.970E+00   -6.880E+00   -6.790E+00   -6.701E+00   -6.612E+00   -6.523E+00   -6.434E+00
    -6.346E+00   -6.258E+00   -6.170E+00   -6.082E+00   -5.994E+00   -5.907E+00   -5.820E+00   -5.733E+00   -5.646E+00   -5.560E+00
    -5.474E+00   -5.388E+00   -5.302E+00   -5.216E+00   -5.131E+00   -5.046E+00   -4.961E+00   -4.876E+00   -4.791E+00   -4.707E+00
    -4.623E+00   -4.539E+00   -4.455E+00   -4.372E+00   -4.288E+00   -4.205E+00   -4.122E+00   -4.040E+00   -3.957E+00   -3.875E+00
    -3.793E+00   -3.711E+00   -3.629E+00   -3.547E+00   -3.466E+00   -3.385E+00   -3.304E+00   -3.223E+00   -3.142E+00   -3.062E+00
    -2.982E+00   -2.902E+00   -2.822E+00   -2.742E+00   -2.663E+00   -2.583E+00   -2.504E+00   -2.425E+00   -2.346E+00   -2.268E+00
    -2.189E+00   -2.111E+00   -2.033E+00   -1.955E+00   -1.877E+00   -1.799E+00   -1.722E+00   -1.645E+00   -1.567E+00   -1.490E+00
    -1.414E+00   -1.337E+00   -1.260E+00   -1.184E+00   -1.108E+00   -1.032E+00   -9.557E-01   -8.799E-01   -8.043E-01   -7.288E-01
    -6.535E-01   -5.783E-01   -5.032E-01   -4.283E-01   -3.536E-01   -2.789E-01   -2.044E-01   -1.301E-01   -5.585E-02    1.824E-02
     9.219E-02    1.660E-01    2.397E-01    3.133E-01    3.867E-01    4.600E-01    5.332E-01    6.063E-01    6.792E-01    7.521E-01
     8.248E-01    8.974E-01    9.698E-01    1.042E+00    1.114E+00    1.187E+00    1.259E+00    1.330E+00    1.402E+00    1.474E+00
     1.546E+00    1.617E+00    1.688E+00    1.760E+00    1.831E+00    1.902E+00    1.973E+00    2.044E+00    2.115E+00    2.185E+00
     2.256E+00    2.326E+00    2.397E+00    2.467E+00    2.537E+00    2.608E+00    2.678E+00    2.748E+00    2.817E+00    2.887E+00
     2.957E+00    3.027E+00    3.096E+00    3.166E+00    3.235E+00    3.305E+00    3.374E+00    3.443E+00    3.512E+00    3.581E+00
     3.650E+00    3.719E+00    3.788E+00    3.857E+00    3.925E+00    3.994E+00    4.063E+00    4.131E+00    4.200E+00    4.268E+00
     4.336E+00    4.404E+00    4.473E+00    4.541E+00    4.609E+00    4.677E+00    4.745E+00    4.813E+00    4.881E+00    4.948E+00
     5.016E+00    5.084E+00    5.152E+00    5.219E+00    5.287E+00    5.354E+00    5.422E+00    5.489E+00    5.556E+00    5.624E+00
     5.691E+00    5.758E+00    5.825E+00    5.892E+00    5.960E+00    6.027E+00    6.094E+00    6.161E+00    6.228E+00    6.294E+00
     6.361E+00    6.428E+00    6.495E+00    6.562E+00    6.629E+00    6.695E+00    6.762E+00    6.829E+00    6.895E+00    6.962E+00
     7.029E+00    7.095E+00    7.162E+00    7.228E+00    7.295E+00    7.361E+00    7.428E+00    7.494E+00    7.561E+00    7.627E+00
     7.694E+00    7.760E+00    7.826E+00    7.893E+00    7.959E+00    8.025E+00    8.092E+00    8.158E+00    8.225E+00    8.291E+00
     8.357E+00    8.424E+00    8.490E+00    8.556E+00    8.623E+00    8.689E+00    8.755E+00    8.822E+00
 Asp      Conc. = 2.58E+02
