 LCModel (Version 6.3-1L) Copyright: S.W. Provencher.          Ref.: Magn. Reson. Med. 30:672-679 (1993).                
 Slice#2 Row#11 Col#8  PD_24_press_2_raw_act
 36 lines in following concentration table = NCONC+1
    Conc.  %SD /Cr+PCr  Metabolite                                         
    0.000 999%   0.000 Ala                                                 
   38.142 132%   0.162 Asp                                                 
  234.979  18%   1.000 Cr                                                  
    0.000 999%   0.000 PCr                                                 
   39.490  78%   0.168 GABA                                                
   35.399  87%   0.151 Glc                                                 
  292.305 144%   1.244 Gln                                                 
  548.529  89%   2.334 Glu                                                 
    0.000 999%   0.000 GPC                                                 
  114.934  15%   0.489 PCh                                                 
   95.215  83%   0.405 GSH                                                 
  760.469  30%   3.236 Ins                                                 
   64.434 305%   0.274 Lac                                                 
  533.702   8%   2.271 NAA                                                 
    0.000 999%   0.000 NAAG                                                
   18.866  51% 8.0E-02 Scyllo                                              
   99.515  50%   0.424 Tau                                                 
  274.590  27%   1.169 -CrCH2                                              
  114.934  15%   0.489 GPC+PCh                                             
  533.702   8%   2.271 NAA+NAAG                                            
  234.979  18%   1.000 Cr+PCr                                              
  840.833  97%   3.578 Glu+Gln                                             
  525.352  32%   2.236 Lip13a                                              
    0.000 999%   0.000 Lip13b                                              
   50.659 134%   0.216 Lip09                                               
 1.67E-02 999% 7.1E-05 MM09                                                
  109.013  50%   0.464 Lip20                                               
    0.103 999% 4.4E-04 MM20                                                
 9.56E-03 999% 4.1E-05 MM12                                                
    0.000 999%   0.000 MM14                                                
    0.000 999%   0.000 MM17                                                
  525.352  32%   2.236 Lip13a+Lip13b                                       
  525.362  32%   2.236 MM14+Lip13a+Lip13b+MM12                             
   50.676 134%   0.216 MM09+Lip09                                          
  109.116  50%   0.464 MM20+Lip20                                          
   6 lines in following misc. output table
  FWHM = 0.122 ppm    S/N =   2                                            
  Data shift = 0.023 ppm                                                   
  Ph: -60 deg     -18.2 deg/ppm                                            
  alphaB,S = 5.7E-01,   9.2E+01                                            
   14 spline knots.   Ns = 6(2)                                            
  (10) 2 infls.   ( 6) 1 extrs.                                            
  498 points on ppm-axis = NY
      4.000000     3.992357     3.984714     3.977070     3.969427     3.961784     3.954141     3.946497     3.938854     3.931211
      3.923568     3.915925     3.908281     3.900638     3.892995     3.885352     3.877708     3.870065     3.862422     3.854779
      3.847136     3.839492     3.831849     3.824206     3.816563     3.808919     3.801276     3.793633     3.785990     3.778347
      3.770703     3.763060     3.755417     3.747774     3.740130     3.732487     3.724844     3.717201     3.709558     3.701914
      3.694271     3.686628     3.678985     3.671341     3.663698     3.656055     3.648412     3.640769     3.633125     3.625482
      3.617839     3.610196     3.602552     3.594909     3.587266     3.579623     3.571980     3.564336     3.556693     3.549050
      3.541407     3.533763     3.526120     3.518477     3.510834     3.503191     3.495547     3.487904     3.480261     3.472618
      3.464974     3.457331     3.449688     3.442045     3.434402     3.426758     3.419115     3.411472     3.403829     3.396185
      3.388542     3.380899     3.373256     3.365613     3.357969     3.350326     3.342683     3.335040     3.327396     3.319753
      3.312110     3.304467     3.296824     3.289180     3.281537     3.273894     3.266251     3.258607     3.250964     3.243321
      3.235678     3.228034     3.220391     3.212748     3.205105     3.197462     3.189818     3.182175     3.174532     3.166889
      3.159245     3.151602     3.143959     3.136316     3.128673     3.121029     3.113386     3.105743     3.098100     3.090456
      3.082813     3.075170     3.067527     3.059884     3.052240     3.044597     3.036954     3.029311     3.021667     3.014024
      3.006381     2.998738     2.991095     2.983451     2.975808     2.968165     2.960522     2.952878     2.945235     2.937592
      2.929949     2.922306     2.914662     2.907019     2.899376     2.891733     2.884089     2.876446     2.868803     2.861160
      2.853517     2.845873     2.838230     2.830587     2.822944     2.815300     2.807657     2.800014     2.792371     2.784728
      2.777084     2.769441     2.761798     2.754155     2.746511     2.738868     2.731225     2.723582     2.715939     2.708295
      2.700652     2.693009     2.685366     2.677722     2.670079     2.662436     2.654793     2.647150     2.639506     2.631863
      2.624220     2.616577     2.608933     2.601290     2.593647     2.586004     2.578361     2.570717     2.563074     2.555431
      2.547788     2.540144     2.532501     2.524858     2.517215     2.509572     2.501928     2.494285     2.486642     2.478999
      2.471355     2.463712     2.456069     2.448426     2.440783     2.433139     2.425496     2.417853     2.410210     2.402566
      2.394923     2.387280     2.379637     2.371994     2.364350     2.356707     2.349064     2.341421     2.333777     2.326134
      2.318491     2.310848     2.303205     2.295561     2.287918     2.280275     2.272632     2.264988     2.257345     2.249702
      2.242059     2.234416     2.226772     2.219129     2.211486     2.203843     2.196199     2.188556     2.180913     2.173270
      2.165627     2.157983     2.150340     2.142697     2.135054     2.127410     2.119767     2.112124     2.104481     2.096838
      2.089194     2.081551     2.073908     2.066265     2.058621     2.050978     2.043335     2.035692     2.028049     2.020405
      2.012762     2.005119     1.997476     1.989833     1.982190     1.974546     1.966903     1.959260     1.951617     1.943974
      1.936331     1.928688     1.921045     1.913402     1.905759     1.898115     1.890472     1.882829     1.875186     1.867543
      1.859900     1.852257     1.844614     1.836971     1.829327     1.821684     1.814041     1.806398     1.798755     1.791112
      1.783469     1.775826     1.768183     1.760540     1.752896     1.745253     1.737610     1.729967     1.722324     1.714681
      1.707038     1.699395     1.691752     1.684108     1.676465     1.668822     1.661179     1.653536     1.645893     1.638250
      1.630607     1.622964     1.615321     1.607677     1.600034     1.592391     1.584748     1.577105     1.569462     1.561819
      1.554176     1.546533     1.538890     1.531246     1.523603     1.515960     1.508317     1.500674     1.493031     1.485388
      1.477745     1.470102     1.462458     1.454815     1.447172     1.439529     1.431886     1.424243     1.416600     1.408957
      1.401314     1.393671     1.386027     1.378384     1.370741     1.363098     1.355455     1.347812     1.340169     1.332526
      1.324883     1.317240     1.309596     1.301953     1.294310     1.286667     1.279024     1.271381     1.263738     1.256095
      1.248452     1.240808     1.233165     1.225522     1.217879     1.210236     1.202593     1.194950     1.187307     1.179664
      1.172021     1.164377     1.156734     1.149091     1.141448     1.133805     1.126162     1.118519     1.110876     1.103233
      1.095590     1.087946     1.080303     1.072660     1.065017     1.057374     1.049731     1.042088     1.034445     1.026802
      1.019158     1.011515     1.003872     0.996229     0.988586     0.980943     0.973300     0.965657     0.958014     0.950371
      0.942727     0.935084     0.927441     0.919798     0.912155     0.904512     0.896869     0.889226     0.881583     0.873940
      0.866296     0.858653     0.851010     0.843367     0.835724     0.828081     0.820438     0.812795     0.805152     0.797508
      0.789865     0.782222     0.774579     0.766936     0.759293     0.751650     0.744007     0.736364     0.728721     0.721077
      0.713434     0.705791     0.698148     0.690505     0.682862     0.675219     0.667576     0.659933     0.652290     0.644646
      0.637003     0.629360     0.621717     0.614074     0.606431     0.598788     0.591145     0.583502     0.575858     0.568215
      0.560572     0.552929     0.545286     0.537643     0.530000     0.522357     0.514714     0.507071     0.499427     0.491784
      0.484141     0.476498     0.468855     0.461212     0.453569     0.445925     0.438282     0.430639     0.422996     0.415353
      0.407710     0.400067     0.392424     0.384780     0.377137     0.369494     0.361851     0.354208     0.346565     0.338922
      0.331278     0.323635     0.315992     0.308349     0.300706     0.293063     0.285420     0.277777     0.270133     0.262490
      0.254847     0.247204     0.239561     0.231918     0.224275     0.216631     0.208988     0.201345
 NY phased data points follow
  -3.77044E+01 -3.86981E+01 -3.28004E+01 -3.61314E+01 -3.31190E+01 -2.98977E+01 -2.88514E+01 -2.97336E+01 -2.95683E+01 -2.89074E+01
  -3.03171E+01 -3.30317E+01 -2.84205E+01 -2.74755E+01 -2.73680E+01 -2.82318E+01 -2.63316E+01 -2.63624E+01 -2.82279E+01 -3.03473E+01
  -2.76518E+01 -2.72064E+01 -2.73288E+01 -2.74596E+01 -2.50955E+01 -2.76683E+01 -2.48116E+01 -2.10315E+01 -2.18105E+01 -2.42119E+01
  -2.37004E+01 -2.30589E+01 -2.46300E+01 -1.93581E+01 -2.25489E+01 -1.88970E+01 -2.36133E+01 -2.44240E+01 -2.22781E+01 -2.29087E+01
  -2.10582E+01 -2.17252E+01 -2.10681E+01 -1.86392E+01 -1.88673E+01 -1.76317E+01 -1.92009E+01 -1.85030E+01 -1.69363E+01 -1.65631E+01
  -1.77482E+01 -1.91884E+01 -1.92892E+01 -1.73806E+01 -1.62813E+01 -1.80433E+01 -1.62377E+01 -1.84693E+01 -1.43463E+01 -2.02346E+01
  -1.72502E+01 -1.82113E+01 -1.49474E+01 -1.57229E+01 -1.82225E+01 -1.72349E+01 -1.73080E+01 -1.49434E+01 -1.41768E+01 -1.32986E+01
  -1.28101E+01 -1.50097E+01 -1.41818E+01 -1.34760E+01 -1.30480E+01 -1.62217E+01 -1.83367E+01 -1.46345E+01 -1.87154E+01 -1.47038E+01
  -1.45503E+01 -1.25150E+01 -1.59908E+01 -1.38883E+01 -1.34145E+01 -1.44665E+01 -1.39264E+01 -1.38256E+01 -1.24366E+01 -1.36076E+01
  -1.20975E+01 -1.06548E+01 -1.47318E+01 -1.20203E+01 -1.12636E+01 -9.56287E+00 -1.10344E+01 -1.09627E+01 -1.06454E+01 -9.24894E+00
  -7.71733E+00 -8.87099E+00 -1.01393E+01 -9.46413E+00 -5.57400E+00 -7.49401E+00 -8.95967E+00 -6.72505E+00 -6.93913E+00 -4.72310E+00
  -7.04882E+00 -7.87359E+00 -9.62323E+00 -7.48320E+00 -9.10647E+00 -9.79988E+00 -1.20718E+01 -9.19273E+00 -9.98791E+00 -7.64945E+00
  -6.86070E+00 -6.98549E+00 -8.51017E+00 -4.13767E+00 -6.68933E+00 -4.44944E+00 -7.02101E+00 -7.71387E+00 -6.49623E+00 -4.42312E+00
  -4.95197E+00 -7.32240E+00 -6.37124E+00 -5.86495E+00 -7.07456E+00 -5.20618E+00 -7.66891E+00 -7.11499E+00 -7.59798E+00 -7.63727E+00
  -6.04787E+00 -7.21982E+00 -8.94738E+00 -7.48273E+00 -8.44400E+00 -5.63636E+00 -8.13432E+00 -4.68578E+00 -7.19448E+00 -4.78201E+00
  -8.38332E+00 -7.67575E+00 -8.12503E+00 -4.23533E+00 -8.06441E+00 -6.34710E+00 -7.19202E+00 -5.77517E+00 -7.29724E+00 -6.44237E+00
  -7.33910E+00 -5.42025E+00 -6.53513E+00 -7.87628E+00 -4.64741E+00 -6.41571E+00 -8.22114E+00 -6.97393E+00 -5.88597E+00 -9.40427E+00
  -6.55716E+00 -9.49466E+00 -8.63783E+00 -5.99120E+00 -6.19675E+00 -9.67632E+00 -8.37610E+00 -8.31003E+00 -8.41827E+00 -8.82798E+00
  -6.78947E+00 -6.27219E+00 -6.15201E+00 -5.79530E+00 -7.18802E+00 -7.23108E+00 -9.13099E+00 -5.87115E+00 -5.01603E+00 -6.15014E+00
  -5.25657E+00 -5.65180E+00 -4.26339E+00 -5.24616E+00 -2.24911E+00 -3.27285E+00 -7.98483E+00 -5.57360E+00 -3.32922E+00 -8.51545E-01
  -2.46700E+00 -8.03629E-01 -5.91202E+00 -5.69024E+00 -2.07374E+00 -4.02080E+00 -4.63757E+00 -5.46227E+00 -3.47422E+00 -3.13705E+00
   4.08479E-01 -3.71634E+00 -7.49821E-02 -4.19832E+00 -4.70741E+00 -4.18433E+00 -4.65159E+00 -1.26465E+00 -3.28723E+00 -3.95535E+00
  -4.29953E+00 -2.20055E+00 -1.05890E-01 -3.26820E+00 -2.31127E+00 -5.37390E+00 -4.66936E+00 -1.49888E+00 -1.09195E+00 -1.84993E+00
   1.04756E+00 -4.05828E+00 -1.00493E+00 -1.83552E+00 -2.17246E+00  1.64823E+00  1.32452E+00  6.63415E-01 -2.24908E+00 -1.98942E+00
  -3.52061E+00  2.75011E-01 -2.21854E-01  1.97593E+00 -6.65279E-01  1.43941E+00 -1.16713E+00 -2.02934E+00 -3.10817E+00  3.69234E-01
  -1.54361E+00  2.41747E+00  3.16959E-01  2.44126E+00  1.53165E+00  5.36168E+00  3.61036E+00  8.37834E+00  7.33917E+00  5.27640E+00
   8.28879E+00  6.85371E+00  6.20584E+00  7.63656E+00  7.66956E+00  5.11677E+00  8.21772E+00  1.77862E+00  4.99058E-01  2.35730E+00
   3.44222E+00  4.32085E-01  1.38423E+00  9.48229E-01 -1.94824E+00  1.34732E+00 -1.06161E+00  1.73885E+00 -3.41556E+00 -1.15730E+00
  -6.40316E-01 -3.02644E+00 -6.70675E-01 -4.91717E-01 -3.78791E+00 -4.58357E+00 -1.77782E+00 -4.40622E-01 -5.91218E+00 -4.66729E+00
  -3.28068E-01 -3.65876E+00 -1.59914E+00 -7.77918E-01 -5.98112E-01 -1.92755E+00 -1.66456E+00 -3.53564E+00  9.81016E-01  1.28499E+00
  -9.05657E-01  1.15694E+00 -5.41705E-01 -1.05169E+00 -8.13898E-01 -2.15559E+00 -3.95482E+00 -3.23446E+00 -3.40726E+00 -4.03275E+00
  -4.45173E+00 -8.77468E-01 -3.29274E+00  1.73844E-02 -2.56909E+00 -7.16403E-01 -2.22225E+00 -1.16787E+00 -2.29778E-01 -4.61552E-01
  -3.70505E-01 -1.93388E+00 -3.27648E+00 -2.21779E+00 -2.09684E+00  6.07792E-01 -1.05959E+00 -1.03979E+00  1.00505E+00 -4.04416E+00
  -1.60485E+00 -1.28170E+00  1.45313E-01 -4.29188E+00 -4.85219E-01 -2.55060E-01  4.94969E-01 -1.18372E+00 -9.30797E-01 -1.63870E+00
  -5.32413E-01  7.84681E-01 -1.37024E+00 -6.17351E-01 -6.10248E-01 -1.47260E+00  9.40410E-01  1.86000E+00  7.73395E-01 -1.23373E-01
   3.80828E+00  3.27401E-01 -2.41067E+00 -1.30241E+00  2.10518E+00 -2.14835E-01  3.22050E-01  2.74634E+00  2.73768E+00 -3.54134E-01
   7.75207E-01  3.41506E-01  9.58036E-01  4.84298E+00  2.24752E+00  2.49075E+00  2.03953E+00  3.80581E+00  2.08308E+00  2.17234E+00
   3.91403E+00  3.28710E+00  1.55168E+00  3.20281E+00  2.80103E+00  2.35873E+00  1.15404E+00 -2.44851E+00  1.40447E+00  2.26221E+00
   4.64031E-01  3.61766E+00  7.90664E-01  6.08735E-01  2.11304E-01 -6.65000E-01 -1.45324E+00  5.26465E-01 -7.52208E-01 -2.37971E+00
  -2.32609E-01 -2.30888E+00 -7.08286E-03 -4.08846E+00 -1.02877E+00 -2.18986E-01  1.38590E+00 -2.14682E+00 -2.03091E+00  1.57711E+00
   3.31704E-01 -3.59274E-01 -2.09555E+00  5.61796E-01 -5.74001E-01 -2.30888E-01 -3.04569E-01 -1.04715E+00  1.99563E+00  1.40957E+00
  -9.89779E-01  1.19999E+00 -2.72169E+00  2.51166E+00 -9.13804E-01  8.80816E-01 -7.97349E-01  2.48213E+00  1.67881E+00  2.14931E+00
   6.62537E-01  1.30104E+00 -1.80972E+00  3.02740E+00 -8.73926E-01  3.88973E-01 -2.09592E+00  2.46871E+00  2.26564E-01  1.28490E-01
   1.82543E+00  1.67155E+00  8.77787E-01  4.99940E-01  1.34030E+00  2.50322E-01  6.46217E-01  9.04580E-01 -3.41694E+00  2.52254E+00
  -1.35916E-02  2.20100E+00 -1.73347E-01  4.31067E-01  3.11032E+00  7.12031E-01  4.05310E-02  3.12316E+00  1.43105E+00  4.14723E+00
  -8.14751E-01  1.58078E+00  3.05063E+00  5.24576E-02  3.90349E-01  2.30362E+00  2.73455E+00  5.49546E+00 -2.48158E-01  1.91415E+00
  -8.23175E-01 -1.53174E+00  3.34704E+00 -7.42151E-01  2.62318E+00  2.61805E+00  5.34860E+00  1.86675E+00  3.76290E+00  4.24600E+00
   3.54507E+00  5.41101E+00  1.21803E+00  3.27385E+00  1.73471E+00  1.72245E+00  5.16781E+00  1.20900E+00  2.71041E+00  1.11885E+00
   2.52531E+00  1.90880E+00  1.82073E+00 -3.08287E-01 -4.22559E-01  3.21400E+00  9.29645E-01  2.51002E+00  2.39147E+00  2.29290E+00
  -3.32948E+00  2.85206E+00  2.22331E-01 -4.47598E-01  2.28462E+00  2.90766E+00  2.49133E+00  2.00954E+00
 NY points of the fit to the data follow
  -3.07354E+01 -3.07703E+01 -3.09679E+01 -3.09957E+01 -3.09560E+01 -3.09765E+01 -3.06621E+01 -3.07034E+01 -3.02027E+01 -3.02758E+01
  -2.96735E+01 -2.97436E+01 -2.89767E+01 -2.89873E+01 -2.81738E+01 -2.82136E+01 -2.74746E+01 -2.75502E+01 -2.69008E+01 -2.69577E+01
  -2.63093E+01 -2.62148E+01 -2.55872E+01 -2.54166E+01 -2.49224E+01 -2.47785E+01 -2.42806E+01 -2.40196E+01 -2.35880E+01 -2.34168E+01
  -2.30806E+01 -2.29800E+01 -2.26839E+01 -2.26281E+01 -2.23438E+01 -2.22497E+01 -2.19108E+01 -2.17567E+01 -2.13677E+01 -2.11474E+01
  -2.07199E+01 -2.04964E+01 -2.01251E+01 -2.00085E+01 -1.97559E+01 -1.97323E+01 -1.95074E+01 -1.94319E+01 -1.91654E+01 -1.90097E+01
  -1.87499E+01 -1.86326E+01 -1.84544E+01 -1.84070E+01 -1.82806E+01 -1.82801E+01 -1.81537E+01 -1.81511E+01 -1.80244E+01 -1.80124E+01
  -1.78691E+01 -1.77887E+01 -1.75518E+01 -1.73231E+01 -1.69793E+01 -1.67703E+01 -1.64671E+01 -1.63225E+01 -1.60550E+01 -1.59448E+01
  -1.57077E+01 -1.56288E+01 -1.54090E+01 -1.53562E+01 -1.51318E+01 -1.50762E+01 -1.48482E+01 -1.48291E+01 -1.46352E+01 -1.47002E+01
  -1.45653E+01 -1.46906E+01 -1.45764E+01 -1.47030E+01 -1.45744E+01 -1.46607E+01 -1.44955E+01 -1.45442E+01 -1.43399E+01 -1.43575E+01
  -1.41037E+01 -1.38194E+01 -1.34155E+01 -1.28076E+01 -1.22577E+01 -1.14209E+01 -1.07799E+01 -9.96264E+00 -9.33433E+00 -8.73623E+00
  -8.20598E+00 -7.93059E+00 -7.51260E+00 -7.47649E+00 -7.18301E+00 -7.34987E+00 -7.17356E+00 -7.61298E+00 -7.57285E+00 -8.19387E+00
  -8.25216E+00 -8.91936E+00 -9.00545E+00 -9.57525E+00 -9.60864E+00 -9.90621E+00 -9.86569E+00 -9.71378E+00 -9.54341E+00 -8.75260E+00
  -8.53789E+00 -7.60914E+00 -7.51482E+00 -6.64153E+00 -6.70446E+00 -6.01927E+00 -6.20812E+00 -5.67522E+00 -5.95121E+00 -5.57635E+00
  -5.92913E+00 -5.80581E+00 -6.18042E+00 -6.26871E+00 -6.59031E+00 -6.81184E+00 -7.03660E+00 -7.30395E+00 -7.44713E+00 -7.77191E+00
  -7.81293E+00 -8.07810E+00 -7.96085E+00 -7.97490E+00 -7.80908E+00 -7.80136E+00 -7.64866E+00 -7.62471E+00 -7.49466E+00 -7.46410E+00
  -7.35262E+00 -7.33696E+00 -7.25224E+00 -7.24371E+00 -7.18103E+00 -7.16021E+00 -7.09995E+00 -7.05796E+00 -6.99917E+00 -6.94285E+00
  -6.89731E+00 -6.84076E+00 -6.81028E+00 -6.76411E+00 -6.75229E+00 -6.70619E+00 -6.70177E+00 -6.65687E+00 -6.65531E+00 -6.63049E+00
  -6.61349E+00 -6.61206E+00 -6.56232E+00 -6.57501E+00 -6.49673E+00 -6.52814E+00 -6.43270E+00 -6.48092E+00 -6.34704E+00 -6.36526E+00
  -6.17296E+00 -6.14189E+00 -5.92598E+00 -5.85757E+00 -5.64310E+00 -5.54380E+00 -5.37773E+00 -5.26229E+00 -5.15257E+00 -5.01179E+00
  -4.93856E+00 -4.74927E+00 -4.67973E+00 -4.42282E+00 -4.32116E+00 -4.04445E+00 -3.93611E+00 -3.73877E+00 -3.69207E+00 -3.60261E+00
  -3.63252E+00 -3.65174E+00 -3.71083E+00 -3.75119E+00 -3.69772E+00 -3.71806E+00 -3.49461E+00 -3.54176E+00 -3.17615E+00 -3.38180E+00
  -3.02147E+00 -3.40931E+00 -3.09062E+00 -3.58434E+00 -3.27833E+00 -3.74063E+00 -3.37137E+00 -3.72122E+00 -3.29874E+00 -3.54851E+00
  -3.16030E+00 -3.31636E+00 -3.01771E+00 -3.12809E+00 -2.94058E+00 -2.97549E+00 -2.88217E+00 -2.80450E+00 -2.74870E+00 -2.55038E+00
  -2.51629E+00 -2.24455E+00 -2.21127E+00 -2.00877E+00 -1.99932E+00 -1.90684E+00 -1.93273E+00 -1.97847E+00 -2.04381E+00 -2.15815E+00
  -2.13807E+00 -2.25730E+00 -2.18234E+00 -2.28143E+00 -2.15751E+00 -2.23918E+00 -2.08057E+00 -2.04511E+00 -1.48691E+00 -1.11669E+00
  -1.70422E-01  5.84383E-01  1.73011E+00  2.79816E+00  3.81304E+00  4.98802E+00  5.54386E+00  6.60716E+00  6.55126E+00  7.35102E+00
   6.91409E+00  7.51139E+00  6.78500E+00  7.14864E+00  6.02857E+00  6.07618E+00  4.71744E+00  4.51414E+00  3.15988E+00  2.83207E+00
   1.68304E+00  1.30031E+00  2.81765E-01 -1.36366E-01 -8.53531E-01 -1.13244E+00 -1.21951E+00 -1.26951E+00 -1.30211E+00 -1.31852E+00
  -1.33465E+00 -1.35079E+00 -1.36145E+00 -1.37411E+00 -1.38353E+00 -1.39817E+00 -1.41033E+00 -1.42576E+00 -1.43805E+00 -1.44628E+00
  -1.45179E+00 -1.45463E+00 -1.45461E+00 -1.45316E+00 -1.45131E+00 -1.44876E+00 -1.44748E+00 -1.44546E+00 -1.44371E+00 -1.44166E+00
  -1.43888E+00 -1.43599E+00 -1.43090E+00 -1.42690E+00 -1.42028E+00 -1.41502E+00 -1.40639E+00 -1.40034E+00 -1.39020E+00 -1.38303E+00
  -1.37174E+00 -1.36339E+00 -1.35076E+00 -1.34100E+00 -1.32681E+00 -1.31540E+00 -1.29938E+00 -1.28599E+00 -1.26781E+00 -1.25195E+00
  -1.23122E+00 -1.21249E+00 -1.18868E+00 -1.16651E+00 -1.13892E+00 -1.11244E+00 -1.08006E+00 -1.04806E+00 -1.00946E+00 -9.70242E-01
  -9.23342E-01 -8.74288E-01 -8.15620E-01 -7.51701E-01 -6.72376E-01 -5.76456E-01 -4.78419E-01 -3.65994E-01 -2.56738E-01 -1.50029E-01
  -4.02912E-02  3.26437E-02  1.34442E-01  1.86089E-01  2.95019E-01  3.43986E-01  4.76327E-01  5.46591E-01  7.06444E-01  7.87352E-01
   9.60119E-01  1.02686E+00  1.19706E+00  1.24289E+00  1.39332E+00  1.42624E+00  1.55074E+00  1.57256E+00  1.66274E+00  1.65074E+00
   1.69724E+00  1.65794E+00  1.66174E+00  1.60676E+00  1.56063E+00  1.46489E+00  1.38342E+00  1.25893E+00  1.15132E+00  1.01589E+00
   8.97527E-01  7.88694E-01  6.89866E-01  5.96509E-01  5.12506E-01  4.34234E-01  3.65548E-01  3.02772E-01  2.49437E-01  2.01742E-01
   1.62929E-01  1.29159E-01  1.03477E-01  8.20826E-02  6.78944E-02  5.72156E-02  5.28961E-02  5.13808E-02  5.54688E-02  6.17445E-02
   7.29478E-02  8.57913E-02  1.02943E-01  1.21223E-01  1.43197E-01  1.65759E-01  1.91358E-01  2.16951E-01  2.44870E-01  2.72135E-01
   3.00961E-01  3.28452E-01  3.56741E-01  3.83051E-01  4.09475E-01  4.33399E-01  4.56910E-01  4.77588E-01  4.97553E-01  5.14598E-01
   5.30879E-01  5.44404E-01  5.57354E-01  5.67930E-01  5.78312E-01  5.86850E-01  5.95676E-01  6.03237E-01  6.11571E-01  6.19183E-01
   6.27987E-01  6.36517E-01  6.46538E-01  6.56598E-01  6.68311E-01  6.80242E-01  6.93870E-01  7.07786E-01  7.23341E-01  7.39167E-01
   7.56510E-01  7.74063E-01  7.92980E-01  8.12025E-01  8.32266E-01  8.52546E-01  8.73862E-01  8.95143E-01  9.17312E-01  9.39385E-01
   9.62210E-01  9.84891E-01  1.00821E+00  1.03135E+00  1.05503E+00  1.07851E+00  1.10243E+00  1.12614E+00  1.15020E+00  1.17407E+00
   1.19821E+00  1.22214E+00  1.24628E+00  1.27022E+00  1.29431E+00  1.31824E+00  1.34227E+00  1.36615E+00  1.39009E+00  1.41392E+00
   1.43778E+00  1.46155E+00  1.48531E+00  1.50901E+00  1.53266E+00  1.55629E+00  1.57983E+00  1.60339E+00  1.62682E+00  1.65030E+00
   1.67362E+00  1.69702E+00  1.72023E+00  1.74355E+00  1.76665E+00  1.78990E+00  1.81289E+00  1.83607E+00  1.85896E+00  1.88207E+00
   1.90485E+00  1.92790E+00  1.95059E+00  1.97357E+00  1.99617E+00  2.01909E+00  2.04160E+00  2.06447E+00  2.08689E+00  2.10972E+00
   2.13207E+00  2.15486E+00  2.17714E+00  2.19990E+00  2.22213E+00  2.24487E+00  2.26705E+00  2.28979E+00
 NY background values follow
    -3.217E+01   -3.195E+01   -3.174E+01   -3.153E+01   -3.131E+01   -3.110E+01   -3.088E+01   -3.067E+01   -3.045E+01   -3.024E+01
    -3.003E+01   -2.981E+01   -2.960E+01   -2.939E+01   -2.917E+01   -2.896E+01   -2.875E+01   -2.853E+01   -2.832E+01   -2.811E+01
    -2.790E+01   -2.769E+01   -2.748E+01   -2.726E+01   -2.705E+01   -2.684E+01   -2.663E+01   -2.642E+01   -2.622E+01   -2.601E+01
    -2.580E+01   -2.559E+01   -2.539E+01   -2.518E+01   -2.497E+01   -2.477E+01   -2.456E+01   -2.436E+01   -2.416E+01   -2.395E+01
    -2.375E+01   -2.355E+01   -2.335E+01   -2.315E+01   -2.295E+01   -2.275E+01   -2.255E+01   -2.236E+01   -2.216E+01   -2.197E+01
    -2.177E+01   -2.158E+01   -2.139E+01   -2.119E+01   -2.100E+01   -2.081E+01   -2.062E+01   -2.044E+01   -2.025E+01   -2.006E+01
    -1.988E+01   -1.969E+01   -1.951E+01   -1.933E+01   -1.914E+01   -1.896E+01   -1.878E+01   -1.860E+01   -1.843E+01   -1.825E+01
    -1.807E+01   -1.790E+01   -1.773E+01   -1.755E+01   -1.738E+01   -1.721E+01   -1.704E+01   -1.687E+01   -1.671E+01   -1.654E+01
    -1.637E+01   -1.621E+01   -1.605E+01   -1.589E+01   -1.572E+01   -1.556E+01   -1.541E+01   -1.525E+01   -1.509E+01   -1.494E+01
    -1.479E+01   -1.463E+01   -1.448E+01   -1.433E+01   -1.418E+01   -1.404E+01   -1.389E+01   -1.374E+01   -1.360E+01   -1.346E+01
    -1.331E+01   -1.317E+01   -1.304E+01   -1.290E+01   -1.276E+01   -1.262E+01   -1.249E+01   -1.236E+01   -1.222E+01   -1.209E+01
    -1.196E+01   -1.183E+01   -1.171E+01   -1.158E+01   -1.145E+01   -1.133E+01   -1.121E+01   -1.108E+01   -1.096E+01   -1.084E+01
    -1.072E+01   -1.061E+01   -1.049E+01   -1.037E+01   -1.026E+01   -1.015E+01   -1.003E+01   -9.923E+00   -9.813E+00   -9.704E+00
    -9.597E+00   -9.490E+00   -9.384E+00   -9.279E+00   -9.176E+00   -9.073E+00   -8.972E+00   -8.871E+00   -8.772E+00   -8.673E+00
    -8.576E+00   -8.480E+00   -8.384E+00   -8.290E+00   -8.197E+00   -8.104E+00   -8.012E+00   -7.922E+00   -7.832E+00   -7.743E+00
    -7.656E+00   -7.569E+00   -7.482E+00   -7.397E+00   -7.313E+00   -7.229E+00   -7.146E+00   -7.064E+00   -6.983E+00   -6.903E+00
    -6.823E+00   -6.744E+00   -6.666E+00   -6.589E+00   -6.512E+00   -6.437E+00   -6.361E+00   -6.287E+00   -6.213E+00   -6.140E+00
    -6.068E+00   -5.996E+00   -5.925E+00   -5.854E+00   -5.784E+00   -5.715E+00   -5.646E+00   -5.578E+00   -5.510E+00   -5.443E+00
    -5.377E+00   -5.311E+00   -5.245E+00   -5.180E+00   -5.116E+00   -5.052E+00   -4.989E+00   -4.926E+00   -4.864E+00   -4.802E+00
    -4.741E+00   -4.681E+00   -4.621E+00   -4.562E+00   -4.503E+00   -4.445E+00   -4.387E+00   -4.330E+00   -4.274E+00   -4.219E+00
    -4.164E+00   -4.109E+00   -4.056E+00   -4.003E+00   -3.950E+00   -3.898E+00   -3.847E+00   -3.797E+00   -3.747E+00   -3.698E+00
    -3.650E+00   -3.602E+00   -3.555E+00   -3.509E+00   -3.464E+00   -3.419E+00   -3.375E+00   -3.332E+00   -3.289E+00   -3.247E+00
    -3.206E+00   -3.166E+00   -3.127E+00   -3.088E+00   -3.050E+00   -3.013E+00   -2.976E+00   -2.941E+00   -2.906E+00   -2.872E+00
    -2.839E+00   -2.806E+00   -2.774E+00   -2.743E+00   -2.713E+00   -2.684E+00   -2.655E+00   -2.626E+00   -2.599E+00   -2.572E+00
    -2.546E+00   -2.520E+00   -2.495E+00   -2.471E+00   -2.447E+00   -2.424E+00   -2.402E+00   -2.380E+00   -2.359E+00   -2.338E+00
    -2.318E+00   -2.298E+00   -2.279E+00   -2.260E+00   -2.242E+00   -2.224E+00   -2.207E+00   -2.191E+00   -2.174E+00   -2.159E+00
    -2.143E+00   -2.128E+00   -2.114E+00   -2.100E+00   -2.086E+00   -2.073E+00   -2.060E+00   -2.047E+00   -2.035E+00   -2.023E+00
    -2.012E+00   -2.001E+00   -1.990E+00   -1.979E+00   -1.969E+00   -1.959E+00   -1.949E+00   -1.940E+00   -1.930E+00   -1.921E+00
    -1.912E+00   -1.904E+00   -1.895E+00   -1.887E+00   -1.879E+00   -1.871E+00   -1.863E+00   -1.855E+00   -1.848E+00   -1.840E+00
    -1.833E+00   -1.826E+00   -1.818E+00   -1.811E+00   -1.804E+00   -1.797E+00   -1.790E+00   -1.783E+00   -1.775E+00   -1.768E+00
    -1.761E+00   -1.754E+00   -1.746E+00   -1.739E+00   -1.732E+00   -1.724E+00   -1.716E+00   -1.708E+00   -1.700E+00   -1.692E+00
    -1.684E+00   -1.676E+00   -1.667E+00   -1.658E+00   -1.649E+00   -1.640E+00   -1.630E+00   -1.621E+00   -1.611E+00   -1.600E+00
    -1.590E+00   -1.579E+00   -1.568E+00   -1.557E+00   -1.546E+00   -1.534E+00   -1.522E+00   -1.510E+00   -1.498E+00   -1.485E+00
    -1.473E+00   -1.460E+00   -1.447E+00   -1.433E+00   -1.420E+00   -1.406E+00   -1.392E+00   -1.378E+00   -1.364E+00   -1.349E+00
    -1.335E+00   -1.320E+00   -1.305E+00   -1.290E+00   -1.275E+00   -1.259E+00   -1.244E+00   -1.228E+00   -1.212E+00   -1.196E+00
    -1.180E+00   -1.163E+00   -1.147E+00   -1.130E+00   -1.114E+00   -1.097E+00   -1.080E+00   -1.063E+00   -1.046E+00   -1.028E+00
    -1.011E+00   -9.934E-01   -9.757E-01   -9.580E-01   -9.402E-01   -9.223E-01   -9.042E-01   -8.861E-01   -8.679E-01   -8.495E-01
    -8.310E-01   -8.124E-01   -7.937E-01   -7.749E-01   -7.559E-01   -7.368E-01   -7.176E-01   -6.982E-01   -6.788E-01   -6.591E-01
    -6.394E-01   -6.195E-01   -5.995E-01   -5.793E-01   -5.590E-01   -5.385E-01   -5.179E-01   -4.972E-01   -4.763E-01   -4.552E-01
    -4.340E-01   -4.126E-01   -3.910E-01   -3.693E-01   -3.475E-01   -3.254E-01   -3.032E-01   -2.808E-01   -2.583E-01   -2.355E-01
    -2.126E-01   -1.895E-01   -1.663E-01   -1.428E-01   -1.192E-01   -9.535E-02   -7.133E-02   -4.712E-02   -2.271E-02    1.874E-03
     2.664E-02    5.158E-02    7.668E-02    1.019E-01    1.274E-01    1.529E-01    1.786E-01    2.044E-01    2.304E-01    2.564E-01
     2.826E-01    3.089E-01    3.353E-01    3.618E-01    3.883E-01    4.150E-01    4.417E-01    4.684E-01    4.953E-01    5.221E-01
     5.491E-01    5.760E-01    6.030E-01    6.300E-01    6.571E-01    6.841E-01    7.112E-01    7.382E-01    7.653E-01    7.923E-01
     8.193E-01    8.463E-01    8.732E-01    9.001E-01    9.269E-01    9.537E-01    9.804E-01    1.007E+00    1.034E+00    1.060E+00
     1.087E+00    1.113E+00    1.139E+00    1.165E+00    1.191E+00    1.217E+00    1.243E+00    1.269E+00    1.294E+00    1.320E+00
     1.345E+00    1.370E+00    1.396E+00    1.421E+00    1.446E+00    1.471E+00    1.496E+00    1.520E+00    1.545E+00    1.570E+00
     1.594E+00    1.619E+00    1.643E+00    1.667E+00    1.692E+00    1.716E+00    1.740E+00    1.764E+00    1.788E+00    1.812E+00
     1.835E+00    1.859E+00    1.883E+00    1.907E+00    1.930E+00    1.954E+00    1.977E+00    2.001E+00    2.024E+00    2.047E+00
     2.071E+00    2.094E+00    2.117E+00    2.140E+00    2.164E+00    2.187E+00    2.210E+00    2.233E+00
 Asp      Conc. = 3.81E+01
