 LCModel (Version 6.3-1L) Copyright: S.W. Provencher.          Ref.: Magn. Reson. Med. 30:672-679 (1993).                
 Slice#3 Row#10 Col#5  K_02_press_1_raw_act
 36 lines in following concentration table = NCONC+1
    Conc.  %SD /Cr+PCr  Metabolite                                         
  821.010  26%   0.326 Ala                                                 
    0.000 999%   0.000 Asp                                                 
    0.000 999%   0.000 Cr                                                  
 2.52E+03   3%   1.000 PCr                                                 
    0.000 999%   0.000 GABA                                                
  208.860 124% 8.3E-02 Glc                                                 
 1.67E+03  31%   0.663 Gln                                                 
 1.93E+03  31%   0.764 Glu                                                 
  738.333  13%   0.293 GPC                                                 
  267.701  40%   0.106 PCh                                                 
  862.142  15%   0.342 GSH                                                 
 3.45E+03  13%   1.367 Ins                                                 
   29.497 999% 1.2E-02 Lac                                                 
 3.28E+03   7%   1.300 NAA                                                 
   54.464 438% 2.2E-02 NAAG                                                
  458.765  10%   0.182+Scyllo                                              
 1.07E+03  30%   0.425 Tau                                                 
    9.063 999% 3.6E-03 -CrCH2                                              
 1.01E+03   4%   0.399 GPC+PCh                                             
 3.33E+03   3%   1.322 NAA+NAAG                                            
 2.52E+03   3%   1.000 Cr+PCr                                              
 3.60E+03  28%   1.427 Glu+Gln                                             
  135.097 390% 5.4E-02 Lip13a                                              
  336.660  45%   0.134 Lip13b                                              
   33.813 496% 1.3E-02 Lip09                                               
  788.380  25%   0.313 MM09                                                
   78.742 138% 3.1E-02 Lip20                                               
 1.59E+03  23%   0.632 MM20                                                
  260.800  50%   0.103 MM12                                                
  613.292  45%   0.243 MM14                                                
  471.712  40%   0.187 MM17                                                
  471.758  87%   0.187 Lip13a+Lip13b                                       
 1.35E+03  34%   0.534 MM14+Lip13a+Lip13b+MM12                             
  822.193  21%   0.326 MM09+Lip09                                          
 1.67E+03  21%   0.663 MM20+Lip20                                          
   6 lines in following misc. output table
  FWHM = 0.092 ppm    S/N =  13                                            
  Data shift = 0.054 ppm                                                   
  Ph: -59 deg     -31.4 deg/ppm                                            
  alphaB,S = 1.2E+00,   1.1E+02                                            
   14 spline knots.   Ns =11(1)                                            
  (19) 8 infls.   (15) 1 extrs.                                            
  498 points on ppm-axis = NY
      4.000000     3.992357     3.984714     3.977070     3.969427     3.961784     3.954141     3.946497     3.938854     3.931211
      3.923568     3.915925     3.908281     3.900638     3.892995     3.885352     3.877708     3.870065     3.862422     3.854779
      3.847136     3.839492     3.831849     3.824206     3.816563     3.808919     3.801276     3.793633     3.785990     3.778347
      3.770703     3.763060     3.755417     3.747774     3.740130     3.732487     3.724844     3.717201     3.709558     3.701914
      3.694271     3.686628     3.678985     3.671341     3.663698     3.656055     3.648412     3.640769     3.633125     3.625482
      3.617839     3.610196     3.602552     3.594909     3.587266     3.579623     3.571980     3.564336     3.556693     3.549050
      3.541407     3.533763     3.526120     3.518477     3.510834     3.503191     3.495547     3.487904     3.480261     3.472618
      3.464974     3.457331     3.449688     3.442045     3.434402     3.426758     3.419115     3.411472     3.403829     3.396185
      3.388542     3.380899     3.373256     3.365613     3.357969     3.350326     3.342683     3.335040     3.327396     3.319753
      3.312110     3.304467     3.296824     3.289180     3.281537     3.273894     3.266251     3.258607     3.250964     3.243321
      3.235678     3.228034     3.220391     3.212748     3.205105     3.197462     3.189818     3.182175     3.174532     3.166889
      3.159245     3.151602     3.143959     3.136316     3.128673     3.121029     3.113386     3.105743     3.098100     3.090456
      3.082813     3.075170     3.067527     3.059884     3.052240     3.044597     3.036954     3.029311     3.021667     3.014024
      3.006381     2.998738     2.991095     2.983451     2.975808     2.968165     2.960522     2.952878     2.945235     2.937592
      2.929949     2.922306     2.914662     2.907019     2.899376     2.891733     2.884089     2.876446     2.868803     2.861160
      2.853517     2.845873     2.838230     2.830587     2.822944     2.815300     2.807657     2.800014     2.792371     2.784728
      2.777084     2.769441     2.761798     2.754155     2.746511     2.738868     2.731225     2.723582     2.715939     2.708295
      2.700652     2.693009     2.685366     2.677722     2.670079     2.662436     2.654793     2.647150     2.639506     2.631863
      2.624220     2.616577     2.608933     2.601290     2.593647     2.586004     2.578361     2.570717     2.563074     2.555431
      2.547788     2.540144     2.532501     2.524858     2.517215     2.509572     2.501928     2.494285     2.486642     2.478999
      2.471355     2.463712     2.456069     2.448426     2.440783     2.433139     2.425496     2.417853     2.410210     2.402566
      2.394923     2.387280     2.379637     2.371994     2.364350     2.356707     2.349064     2.341421     2.333777     2.326134
      2.318491     2.310848     2.303205     2.295561     2.287918     2.280275     2.272632     2.264988     2.257345     2.249702
      2.242059     2.234416     2.226772     2.219129     2.211486     2.203843     2.196199     2.188556     2.180913     2.173270
      2.165627     2.157983     2.150340     2.142697     2.135054     2.127410     2.119767     2.112124     2.104481     2.096838
      2.089194     2.081551     2.073908     2.066265     2.058621     2.050978     2.043335     2.035692     2.028049     2.020405
      2.012762     2.005119     1.997476     1.989833     1.982190     1.974546     1.966903     1.959260     1.951617     1.943974
      1.936331     1.928688     1.921045     1.913402     1.905759     1.898115     1.890472     1.882829     1.875186     1.867543
      1.859900     1.852257     1.844614     1.836971     1.829327     1.821684     1.814041     1.806398     1.798755     1.791112
      1.783469     1.775826     1.768183     1.760540     1.752896     1.745253     1.737610     1.729967     1.722324     1.714681
      1.707038     1.699395     1.691752     1.684108     1.676465     1.668822     1.661179     1.653536     1.645893     1.638250
      1.630607     1.622964     1.615321     1.607677     1.600034     1.592391     1.584748     1.577105     1.569462     1.561819
      1.554176     1.546533     1.538890     1.531246     1.523603     1.515960     1.508317     1.500674     1.493031     1.485388
      1.477745     1.470102     1.462458     1.454815     1.447172     1.439529     1.431886     1.424243     1.416600     1.408957
      1.401314     1.393671     1.386027     1.378384     1.370741     1.363098     1.355455     1.347812     1.340169     1.332526
      1.324883     1.317240     1.309596     1.301953     1.294310     1.286667     1.279024     1.271381     1.263738     1.256095
      1.248452     1.240808     1.233165     1.225522     1.217879     1.210236     1.202593     1.194950     1.187307     1.179664
      1.172021     1.164377     1.156734     1.149091     1.141448     1.133805     1.126162     1.118519     1.110876     1.103233
      1.095590     1.087946     1.080303     1.072660     1.065017     1.057374     1.049731     1.042088     1.034445     1.026802
      1.019158     1.011515     1.003872     0.996229     0.988586     0.980943     0.973300     0.965657     0.958014     0.950371
      0.942727     0.935084     0.927441     0.919798     0.912155     0.904512     0.896869     0.889226     0.881583     0.873940
      0.866296     0.858653     0.851010     0.843367     0.835724     0.828081     0.820438     0.812795     0.805152     0.797508
      0.789865     0.782222     0.774579     0.766936     0.759293     0.751650     0.744007     0.736364     0.728721     0.721077
      0.713434     0.705791     0.698148     0.690505     0.682862     0.675219     0.667576     0.659933     0.652290     0.644646
      0.637003     0.629360     0.621717     0.614074     0.606431     0.598788     0.591145     0.583502     0.575858     0.568215
      0.560572     0.552929     0.545286     0.537643     0.530000     0.522357     0.514714     0.507071     0.499427     0.491784
      0.484141     0.476498     0.468855     0.461212     0.453569     0.445925     0.438282     0.430639     0.422996     0.415353
      0.407710     0.400067     0.392424     0.384780     0.377137     0.369494     0.361851     0.354208     0.346565     0.338922
      0.331278     0.323635     0.315992     0.308349     0.300706     0.293063     0.285420     0.277777     0.270133     0.262490
      0.254847     0.247204     0.239561     0.231918     0.224275     0.216631     0.208988     0.201345
 NY phased data points follow
  -8.83337E+01 -8.40670E+01 -8.11863E+01 -7.77393E+01 -7.53017E+01 -7.18121E+01 -6.42160E+01 -6.05307E+01 -5.91896E+01 -5.84597E+01
  -5.51613E+01 -6.32113E+01 -6.46678E+01 -7.13099E+01 -7.30375E+01 -7.59423E+01 -8.00802E+01 -8.05245E+01 -8.40181E+01 -8.70004E+01
  -8.40958E+01 -8.26146E+01 -8.44971E+01 -8.60870E+01 -8.32320E+01 -7.21406E+01 -7.01433E+01 -7.49061E+01 -7.30313E+01 -7.01965E+01
  -6.51851E+01 -6.56591E+01 -6.88261E+01 -6.99975E+01 -6.51217E+01 -6.73091E+01 -6.54373E+01 -6.45031E+01 -6.60450E+01 -6.30188E+01
  -6.37267E+01 -6.24169E+01 -6.16248E+01 -5.55990E+01 -5.97592E+01 -5.69404E+01 -5.72996E+01 -5.78656E+01 -5.89093E+01 -5.78716E+01
  -5.92415E+01 -5.76193E+01 -5.77797E+01 -6.00862E+01 -6.27873E+01 -6.14432E+01 -5.75313E+01 -5.90125E+01 -5.86563E+01 -5.87519E+01
  -6.21393E+01 -5.90643E+01 -6.01753E+01 -5.96575E+01 -6.23626E+01 -5.85147E+01 -5.38998E+01 -5.75545E+01 -5.41052E+01 -5.33055E+01
  -5.44716E+01 -5.34748E+01 -4.94707E+01 -5.04224E+01 -5.05310E+01 -4.84977E+01 -4.98281E+01 -4.44227E+01 -4.53211E+01 -4.46121E+01
  -4.37102E+01 -4.05197E+01 -3.79775E+01 -4.20448E+01 -3.92559E+01 -4.16606E+01 -3.89071E+01 -3.62664E+01 -2.99883E+01 -3.18703E+01
  -3.23428E+01 -2.91053E+01 -2.62264E+01 -2.77084E+01 -2.11370E+01 -1.82503E+01 -1.03158E+01 -2.39188E+00 -3.35988E+00  3.40183E+00
   1.10765E+01  1.35843E+01  1.33852E+01  6.26815E+00  4.40163E+00  1.76487E+00 -3.72286E+00 -1.24536E+01 -1.23501E+01 -1.64800E+01
  -1.83096E+01 -2.46050E+01 -2.65308E+01 -2.50480E+01 -2.59332E+01 -2.52679E+01 -2.40740E+01 -2.62563E+01 -1.63419E+01 -1.79025E+01
  -1.12848E+01 -7.94615E+00 -1.10470E+00  7.10781E-02  8.00391E+00  1.22048E+01  1.61238E+01  1.96867E+01  1.90382E+01  1.28688E+01
   9.41932E+00  3.93840E+00 -8.69981E-01 -1.82478E+00 -1.00159E+01 -1.49897E+01 -1.77473E+01 -2.02338E+01 -2.55037E+01 -2.41285E+01
  -2.38703E+01 -2.69077E+01 -2.56298E+01 -2.47281E+01 -2.28247E+01 -2.50409E+01 -2.55236E+01 -2.25752E+01 -2.48063E+01 -2.39465E+01
  -2.20764E+01 -2.04259E+01 -2.19599E+01 -1.96022E+01 -2.18664E+01 -2.24602E+01 -2.33625E+01 -1.99262E+01 -2.42691E+01 -2.01451E+01
  -1.94432E+01 -2.24770E+01 -1.94784E+01 -2.08522E+01 -2.44252E+01 -2.36328E+01 -2.20953E+01 -2.32241E+01 -2.40002E+01 -2.32531E+01
  -2.19041E+01 -2.76224E+01 -2.73684E+01 -2.49442E+01 -2.91596E+01 -2.81192E+01 -2.72474E+01 -2.78612E+01 -2.59858E+01 -2.45128E+01
  -2.69984E+01 -2.41140E+01 -2.32295E+01 -2.40892E+01 -2.11704E+01 -1.78238E+01 -1.49628E+01 -1.52729E+01 -1.51925E+01 -1.10281E+01
  -7.15789E+00 -5.67210E+00 -7.50294E+00 -7.18592E+00 -5.03478E+00 -7.82920E+00 -3.36233E+00 -3.79713E+00 -6.50079E+00 -4.68220E+00
  -3.92587E-01 -4.23910E+00 -7.17016E+00 -7.68254E+00 -2.31329E+00 -8.67770E+00 -7.45240E+00 -6.15953E+00 -3.70356E+00 -4.94923E+00
  -6.27258E+00 -5.01224E+00 -2.12637E+00 -7.99291E-01  1.67230E+00  4.46034E+00  1.09297E+00  4.53202E+00  3.82716E+00  1.72696E+00
  -5.55257E-01 -3.28978E+00 -3.62487E-01 -1.52564E-01 -2.89843E+00  7.93069E-01  2.58655E+00  3.36650E+00  6.96965E+00  8.09053E+00
   4.29640E+00  8.81050E+00  6.04581E+00  9.34874E+00  3.86168E+00  5.62824E+00  6.55604E+00  2.99128E+00  8.36423E+00  7.48997E+00
   5.12039E+00  5.60253E+00  5.07873E+00  6.03420E+00  5.01878E+00  5.16545E+00  1.11884E+01  1.05076E+01  1.65660E+01  1.80988E+01
   2.27918E+01  2.62938E+01  3.38399E+01  3.78394E+01  5.10433E+01  5.43554E+01  5.89687E+01  6.05027E+01  6.84703E+01  7.96071E+01
   7.82739E+01  7.84890E+01  7.79559E+01  6.95232E+01  6.37381E+01  5.38753E+01  5.07823E+01  3.49567E+01  3.40404E+01  2.79413E+01
   2.02003E+01  2.18040E+01  1.60764E+01  1.38859E+01  1.92185E+01  1.59583E+01  1.64713E+01  1.60854E+01  1.39105E+01  1.41227E+01
   1.36668E+01  1.71188E+01  1.79738E+01  1.35718E+01  1.08527E+01  1.16454E+01  1.03790E+01  1.24204E+01  8.87921E+00  8.69597E+00
   1.34961E+01  1.35579E+01  1.24666E+01  1.46196E+01  1.56505E+01  1.35013E+01  1.64855E+01  1.29975E+01  1.83693E+01  1.78751E+01
   1.98712E+01  1.69013E+01  2.13801E+01  1.71678E+01  1.69316E+01  1.60444E+01  1.76395E+01  1.77819E+01  1.80417E+01  2.00644E+01
   1.84684E+01  1.79801E+01  1.23894E+01  2.22718E+01  1.97383E+01  1.70115E+01  1.90016E+01  1.92475E+01  2.41416E+01  2.20248E+01
   2.16402E+01  2.11786E+01  1.84616E+01  1.96413E+01  1.69768E+01  1.79301E+01  2.21348E+01  1.54105E+01  1.78220E+01  1.79472E+01
   1.69311E+01  1.85803E+01  1.70866E+01  1.61487E+01  1.65871E+01  1.90427E+01  1.91406E+01  2.16685E+01  2.61516E+01  2.40489E+01
   2.37074E+01  2.52370E+01  2.32538E+01  2.23318E+01  2.07773E+01  2.30972E+01  2.18035E+01  2.31750E+01  2.41606E+01  2.21944E+01
   2.42346E+01  2.51519E+01  2.63042E+01  2.25884E+01  2.75912E+01  2.60290E+01  2.70169E+01  2.35766E+01  2.24804E+01  2.67875E+01
   2.39193E+01  2.29115E+01  2.24329E+01  1.82230E+01  2.10895E+01  2.46258E+01  2.20111E+01  2.18534E+01  1.97807E+01  2.24603E+01
   2.05962E+01  2.03216E+01  2.22995E+01  2.16546E+01  2.11004E+01  2.30084E+01  1.76508E+01  2.19625E+01  1.73966E+01  2.14465E+01
   2.00063E+01  2.18287E+01  2.18956E+01  1.95705E+01  1.72841E+01  1.94338E+01  2.05380E+01  2.19626E+01  1.82164E+01  1.99445E+01
   2.18728E+01  2.23316E+01  1.84169E+01  2.03836E+01  2.21708E+01  2.07735E+01  2.17491E+01  1.97019E+01  2.20616E+01  2.40073E+01
   2.66771E+01  2.55982E+01  2.56920E+01  2.54845E+01  2.38110E+01  2.89980E+01  2.60972E+01  2.66679E+01  2.27550E+01  2.33369E+01
   2.35330E+01  2.64561E+01  2.59302E+01  2.65347E+01  2.50027E+01  2.09353E+01  2.85010E+01  2.83085E+01  2.45375E+01  2.55006E+01
   2.27557E+01  2.37858E+01  2.28163E+01  2.41466E+01  2.09354E+01  2.29886E+01  2.20484E+01  2.11222E+01  2.16423E+01  2.10640E+01
   2.33056E+01  2.11861E+01  2.08765E+01  2.11405E+01  2.37973E+01  1.83587E+01  2.10361E+01  1.89759E+01  1.68295E+01  2.01827E+01
   2.04686E+01  1.84716E+01  2.31894E+01  2.20879E+01  2.18363E+01  2.42034E+01  1.94966E+01  2.18741E+01  1.86131E+01  2.27539E+01
   2.60110E+01  2.35437E+01  1.81067E+01  2.00859E+01  2.01274E+01  2.14693E+01  1.95879E+01  2.07669E+01  1.74764E+01  2.18838E+01
   2.21904E+01  1.67394E+01  2.08730E+01  2.56203E+01  2.02645E+01  2.12458E+01  2.35828E+01  2.26391E+01  2.14862E+01  1.78061E+01
   2.34681E+01  2.16666E+01  2.15402E+01  2.23463E+01  2.05637E+01  2.12816E+01  2.11947E+01  1.71447E+01  2.13073E+01  2.18975E+01
   2.28362E+01  2.02951E+01  2.16226E+01  2.08491E+01  2.09635E+01  1.77772E+01  2.00170E+01  2.20232E+01  2.18608E+01  2.02453E+01
   2.02699E+01  2.05662E+01  1.63482E+01  2.07651E+01  2.18378E+01  1.97750E+01  1.89565E+01  2.22681E+01
 NY points of the fit to the data follow
  -8.62385E+01 -8.39493E+01 -8.05295E+01 -7.66603E+01 -7.35425E+01 -7.09688E+01 -6.76222E+01 -6.36761E+01 -6.05963E+01 -5.92562E+01
  -5.99057E+01 -6.22601E+01 -6.51743E+01 -6.80721E+01 -7.11352E+01 -7.42894E+01 -7.69650E+01 -7.91652E+01 -8.09753E+01 -8.18646E+01
  -8.19113E+01 -8.22223E+01 -8.18030E+01 -8.04938E+01 -7.85802E+01 -7.66920E+01 -7.51925E+01 -7.37867E+01 -7.20468E+01 -6.96574E+01
  -6.72092E+01 -6.54101E+01 -6.45773E+01 -6.47155E+01 -6.53292E+01 -6.58041E+01 -6.58314E+01 -6.57720E+01 -6.58340E+01 -6.56922E+01
  -6.49866E+01 -6.37543E+01 -6.27105E+01 -6.22344E+01 -6.13752E+01 -5.98246E+01 -5.82486E+01 -5.72757E+01 -5.69750E+01 -5.75500E+01
  -5.86696E+01 -5.97211E+01 -6.06440E+01 -6.13607E+01 -6.17262E+01 -6.17081E+01 -6.13297E+01 -6.07561E+01 -6.00811E+01 -5.95684E+01
  -5.90285E+01 -5.83352E+01 -5.77602E+01 -5.74277E+01 -5.69820E+01 -5.61603E+01 -5.52687E+01 -5.44749E+01 -5.37166E+01 -5.28805E+01
  -5.20394E+01 -5.13690E+01 -5.08657E+01 -5.04494E+01 -4.99191E+01 -4.91067E+01 -4.74575E+01 -4.62655E+01 -4.59210E+01 -4.54884E+01
  -4.43469E+01 -4.27946E+01 -4.14198E+01 -4.05172E+01 -3.94531E+01 -3.77748E+01 -3.63393E+01 -3.57645E+01 -3.57597E+01 -3.53684E+01
  -3.27327E+01 -3.00160E+01 -2.82084E+01 -2.52908E+01 -2.05414E+01 -1.54565E+01 -1.10625E+01 -7.01458E+00 -2.17804E+00  3.47646E+00
   8.55544E+00  1.14951E+01  1.22292E+01  1.07298E+01  7.45280E+00  3.12257E+00 -2.06399E+00 -7.87303E+00 -1.33159E+01 -1.78522E+01
  -2.19380E+01 -2.55820E+01 -2.88330E+01 -3.19457E+01 -3.32783E+01 -3.13355E+01 -2.72270E+01 -2.42038E+01 -2.12179E+01 -1.68517E+01
  -1.11019E+01 -5.27504E+00 -6.71053E-01  3.42279E+00  8.71266E+00  1.44907E+01  1.84337E+01  1.94498E+01  1.73797E+01  1.29748E+01
   7.82489E+00  2.72466E+00 -2.38112E+00 -7.32996E+00 -1.14742E+01 -1.48471E+01 -1.77581E+01 -2.02756E+01 -2.29700E+01 -2.51430E+01
  -2.55299E+01 -2.51991E+01 -2.47372E+01 -2.43324E+01 -2.40638E+01 -2.39298E+01 -2.38823E+01 -2.37970E+01 -2.36314E+01 -2.35029E+01
  -2.34961E+01 -2.35115E+01 -2.35012E+01 -2.34420E+01 -2.33459E+01 -2.32947E+01 -2.32396E+01 -2.30634E+01 -2.28326E+01 -2.26993E+01
  -2.26746E+01 -2.26613E+01 -2.25309E+01 -2.22518E+01 -2.20203E+01 -2.20191E+01 -2.21419E+01 -2.21730E+01 -2.21973E+01 -2.23127E+01
  -2.25421E+01 -2.27008E+01 -2.26250E+01 -2.24459E+01 -2.24336E+01 -2.25635E+01 -2.26156E+01 -2.23893E+01 -2.18695E+01 -2.13238E+01
  -2.08123E+01 -2.01750E+01 -1.93605E+01 -1.84396E+01 -1.75920E+01 -1.68104E+01 -1.59156E+01 -1.50549E+01 -1.41328E+01 -1.29362E+01
  -1.16789E+01 -1.06271E+01 -9.82884E+00 -8.96771E+00 -8.13056E+00 -7.45522E+00 -7.00982E+00 -6.72045E+00 -6.42652E+00 -5.93100E+00
  -5.20382E+00 -4.66195E+00 -4.56989E+00 -4.69320E+00 -4.72357E+00 -4.53733E+00 -4.67071E+00 -5.34886E+00 -5.86802E+00 -5.72456E+00
  -5.02061E+00 -4.31159E+00 -3.82106E+00 -3.09947E+00 -1.84412E+00 -6.31467E-01 -5.10340E-02  4.57122E-02 -6.54463E-02 -2.51625E-01
  -6.05321E-01 -1.12199E+00 -1.46222E+00 -1.37792E+00 -8.82574E-01  2.84256E-02  1.17543E+00  2.36133E+00  3.38980E+00  4.22182E+00
   4.86048E+00  5.25816E+00  5.54675E+00  5.75352E+00  6.00822E+00  6.45878E+00  6.91122E+00  7.30790E+00  7.64936E+00  7.70123E+00
   7.35994E+00  6.81401E+00  6.33494E+00  6.17488E+00  6.49642E+00  7.21296E+00  8.25001E+00  9.57715E+00  1.15989E+01  1.67624E+01
   2.39965E+01  2.90605E+01  3.35182E+01  3.96855E+01  4.75447E+01  5.49056E+01  6.00910E+01  6.44126E+01  7.03279E+01  7.67883E+01
   8.05959E+01  8.04381E+01  7.62944E+01  6.93885E+01  6.18748E+01  5.43755E+01  4.67133E+01  3.95028E+01  3.37201E+01  2.91387E+01
   2.53508E+01  2.20222E+01  1.81617E+01  1.50185E+01  1.40149E+01  1.36896E+01  1.35076E+01  1.33975E+01  1.33425E+01  1.32812E+01
   1.32301E+01  1.32040E+01  1.32065E+01  1.32380E+01  1.32973E+01  1.33689E+01  1.34484E+01  1.35491E+01  1.36763E+01  1.38272E+01
   1.39997E+01  1.41925E+01  1.44072E+01  1.46429E+01  1.48899E+01  1.51460E+01  1.54094E+01  1.56774E+01  1.59467E+01  1.62130E+01
   1.64725E+01  1.67217E+01  1.69565E+01  1.71742E+01  1.73723E+01  1.75494E+01  1.77055E+01  1.78420E+01  1.79626E+01  1.80720E+01
   1.81766E+01  1.82851E+01  1.84090E+01  1.85662E+01  1.87874E+01  1.91413E+01  1.97637E+01  2.03342E+01  2.04459E+01  2.05182E+01
   2.07261E+01  2.08706E+01  2.06683E+01  2.00421E+01  1.95309E+01  1.96758E+01  1.96453E+01  1.89668E+01  1.79897E+01  1.71578E+01
   1.66884E+01  1.65221E+01  1.64878E+01  1.68299E+01  1.78247E+01  1.92615E+01  2.07185E+01  2.18784E+01  2.25618E+01  2.28717E+01
   2.31347E+01  2.34053E+01  2.34101E+01  2.32938E+01  2.32143E+01  2.31958E+01  2.32591E+01  2.32698E+01  2.31941E+01  2.33478E+01
   2.36927E+01  2.41288E+01  2.45869E+01  2.50121E+01  2.53468E+01  2.55340E+01  2.55340E+01  2.53348E+01  2.49567E+01  2.44443E+01
   2.38588E+01  2.32512E+01  2.26617E+01  2.21298E+01  2.16773E+01  2.13118E+01  2.10278E+01  2.08077E+01  2.06445E+01  2.05295E+01
   2.04476E+01  2.03877E+01  2.03425E+01  2.03075E+01  2.02804E+01  2.02601E+01  2.02467E+01  2.02407E+01  2.02428E+01  2.02541E+01
   2.02756E+01  2.03085E+01  2.03541E+01  2.04135E+01  2.04879E+01  2.05786E+01  2.06870E+01  2.08145E+01  2.09622E+01  2.11312E+01
   2.13224E+01  2.15364E+01  2.17736E+01  2.20336E+01  2.23153E+01  2.26168E+01  2.29355E+01  2.32676E+01  2.36086E+01  2.39529E+01
   2.42941E+01  2.46251E+01  2.49384E+01  2.52265E+01  2.54820E+01  2.56981E+01  2.58688E+01  2.59893E+01  2.60563E+01  2.60684E+01
   2.60255E+01  2.59296E+01  2.57840E+01  2.55937E+01  2.53648E+01  2.51044E+01  2.48198E+01  2.45185E+01  2.42081E+01  2.38953E+01
   2.35866E+01  2.32873E+01  2.30017E+01  2.27330E+01  2.24838E+01  2.22554E+01  2.20486E+01  2.18632E+01  2.16986E+01  2.15536E+01
   2.14271E+01  2.13174E+01  2.12231E+01  2.11423E+01  2.10737E+01  2.10156E+01  2.09667E+01  2.09258E+01  2.08919E+01  2.08639E+01
   2.08409E+01  2.08222E+01  2.08073E+01  2.07955E+01  2.07865E+01  2.07797E+01  2.07749E+01  2.07718E+01  2.07701E+01  2.07697E+01
   2.07702E+01  2.07717E+01  2.07738E+01  2.07766E+01  2.07800E+01  2.07838E+01  2.07880E+01  2.07924E+01  2.07972E+01  2.08022E+01
   2.08074E+01  2.08128E+01  2.08182E+01  2.08238E+01  2.08295E+01  2.08352E+01  2.08411E+01  2.08469E+01  2.08528E+01  2.08587E+01
   2.08646E+01  2.08706E+01  2.08765E+01  2.08825E+01  2.08884E+01  2.08944E+01  2.09004E+01  2.09064E+01  2.09125E+01  2.09185E+01
   2.09246E+01  2.09307E+01  2.09369E+01  2.09432E+01  2.09495E+01  2.09558E+01  2.09623E+01  2.09689E+01  2.09757E+01  2.09826E+01
   2.09896E+01  2.09968E+01  2.10043E+01  2.10120E+01  2.10201E+01  2.10285E+01  2.10372E+01  2.10464E+01
 NY background values follow
    -1.060E+02   -1.054E+02   -1.048E+02   -1.042E+02   -1.036E+02   -1.030E+02   -1.024E+02   -1.018E+02   -1.012E+02   -1.006E+02
    -1.000E+02   -9.941E+01   -9.881E+01   -9.821E+01   -9.762E+01   -9.702E+01   -9.643E+01   -9.583E+01   -9.523E+01   -9.464E+01
    -9.404E+01   -9.345E+01   -9.285E+01   -9.225E+01   -9.166E+01   -9.106E+01   -9.047E+01   -8.988E+01   -8.928E+01   -8.869E+01
    -8.810E+01   -8.750E+01   -8.691E+01   -8.632E+01   -8.573E+01   -8.514E+01   -8.455E+01   -8.396E+01   -8.337E+01   -8.278E+01
    -8.219E+01   -8.160E+01   -8.101E+01   -8.043E+01   -7.984E+01   -7.926E+01   -7.867E+01   -7.809E+01   -7.751E+01   -7.692E+01
    -7.634E+01   -7.576E+01   -7.518E+01   -7.460E+01   -7.403E+01   -7.345E+01   -7.287E+01   -7.230E+01   -7.172E+01   -7.115E+01
    -7.058E+01   -7.001E+01   -6.944E+01   -6.887E+01   -6.831E+01   -6.774E+01   -6.718E+01   -6.661E+01   -6.605E+01   -6.549E+01
    -6.493E+01   -6.437E+01   -6.382E+01   -6.326E+01   -6.271E+01   -6.216E+01   -6.161E+01   -6.106E+01   -6.051E+01   -5.997E+01
    -5.943E+01   -5.888E+01   -5.834E+01   -5.781E+01   -5.727E+01   -5.674E+01   -5.620E+01   -5.567E+01   -5.514E+01   -5.462E+01
    -5.409E+01   -5.357E+01   -5.305E+01   -5.253E+01   -5.201E+01   -5.150E+01   -5.098E+01   -5.047E+01   -4.996E+01   -4.946E+01
    -4.895E+01   -4.845E+01   -4.795E+01   -4.745E+01   -4.695E+01   -4.646E+01   -4.597E+01   -4.548E+01   -4.499E+01   -4.450E+01
    -4.402E+01   -4.354E+01   -4.306E+01   -4.258E+01   -4.211E+01   -4.163E+01   -4.116E+01   -4.069E+01   -4.023E+01   -3.976E+01
    -3.930E+01   -3.884E+01   -3.838E+01   -3.793E+01   -3.747E+01   -3.702E+01   -3.658E+01   -3.613E+01   -3.568E+01   -3.524E+01
    -3.480E+01   -3.437E+01   -3.393E+01   -3.350E+01   -3.307E+01   -3.264E+01   -3.221E+01   -3.179E+01   -3.137E+01   -3.095E+01
    -3.053E+01   -3.012E+01   -2.971E+01   -2.930E+01   -2.889E+01   -2.848E+01   -2.808E+01   -2.768E+01   -2.728E+01   -2.688E+01
    -2.648E+01   -2.609E+01   -2.570E+01   -2.531E+01   -2.492E+01   -2.453E+01   -2.415E+01   -2.377E+01   -2.339E+01   -2.301E+01
    -2.263E+01   -2.225E+01   -2.188E+01   -2.151E+01   -2.114E+01   -2.077E+01   -2.040E+01   -2.004E+01   -1.967E+01   -1.931E+01
    -1.895E+01   -1.859E+01   -1.823E+01   -1.788E+01   -1.752E+01   -1.717E+01   -1.682E+01   -1.647E+01   -1.612E+01   -1.577E+01
    -1.542E+01   -1.508E+01   -1.473E+01   -1.439E+01   -1.405E+01   -1.371E+01   -1.337E+01   -1.303E+01   -1.270E+01   -1.236E+01
    -1.203E+01   -1.170E+01   -1.137E+01   -1.104E+01   -1.071E+01   -1.039E+01   -1.007E+01   -9.744E+00   -9.424E+00   -9.106E+00
    -8.790E+00   -8.475E+00   -8.162E+00   -7.851E+00   -7.542E+00   -7.235E+00   -6.930E+00   -6.627E+00   -6.326E+00   -6.027E+00
    -5.730E+00   -5.436E+00   -5.143E+00   -4.853E+00   -4.564E+00   -4.278E+00   -3.994E+00   -3.713E+00   -3.434E+00   -3.157E+00
    -2.882E+00   -2.610E+00   -2.340E+00   -2.073E+00   -1.808E+00   -1.546E+00   -1.286E+00   -1.029E+00   -7.746E-01   -5.226E-01
    -2.730E-01   -2.591E-02    2.187E-01    4.609E-01    7.006E-01    9.380E-01    1.173E+00    1.406E+00    1.636E+00    1.864E+00
     2.090E+00    2.313E+00    2.534E+00    2.753E+00    2.970E+00    3.184E+00    3.397E+00    3.607E+00    3.815E+00    4.021E+00
     4.225E+00    4.427E+00    4.627E+00    4.825E+00    5.021E+00    5.214E+00    5.406E+00    5.596E+00    5.785E+00    5.971E+00
     6.155E+00    6.338E+00    6.518E+00    6.697E+00    6.874E+00    7.050E+00    7.223E+00    7.395E+00    7.565E+00    7.734E+00
     7.901E+00    8.066E+00    8.230E+00    8.392E+00    8.552E+00    8.711E+00    8.868E+00    9.024E+00    9.178E+00    9.331E+00
     9.482E+00    9.631E+00    9.779E+00    9.926E+00    1.007E+01    1.021E+01    1.036E+01    1.050E+01    1.064E+01    1.077E+01
     1.091E+01    1.104E+01    1.118E+01    1.131E+01    1.144E+01    1.157E+01    1.170E+01    1.182E+01    1.195E+01    1.207E+01
     1.219E+01    1.231E+01    1.243E+01    1.255E+01    1.267E+01    1.278E+01    1.290E+01    1.301E+01    1.312E+01    1.323E+01
     1.334E+01    1.345E+01    1.355E+01    1.366E+01    1.376E+01    1.387E+01    1.397E+01    1.407E+01    1.417E+01    1.426E+01
     1.436E+01    1.446E+01    1.455E+01    1.464E+01    1.473E+01    1.482E+01    1.491E+01    1.500E+01    1.509E+01    1.518E+01
     1.526E+01    1.535E+01    1.543E+01    1.551E+01    1.559E+01    1.567E+01    1.575E+01    1.583E+01    1.590E+01    1.598E+01
     1.605E+01    1.613E+01    1.620E+01    1.627E+01    1.634E+01    1.641E+01    1.648E+01    1.655E+01    1.662E+01    1.668E+01
     1.675E+01    1.681E+01    1.688E+01    1.694E+01    1.700E+01    1.706E+01    1.712E+01    1.718E+01    1.724E+01    1.730E+01
     1.736E+01    1.741E+01    1.747E+01    1.752E+01    1.758E+01    1.763E+01    1.768E+01    1.773E+01    1.778E+01    1.783E+01
     1.788E+01    1.793E+01    1.798E+01    1.803E+01    1.808E+01    1.812E+01    1.817E+01    1.821E+01    1.826E+01    1.830E+01
     1.835E+01    1.839E+01    1.843E+01    1.847E+01    1.852E+01    1.856E+01    1.860E+01    1.864E+01    1.868E+01    1.872E+01
     1.875E+01    1.879E+01    1.883E+01    1.887E+01    1.890E+01    1.894E+01    1.898E+01    1.901E+01    1.905E+01    1.908E+01
     1.912E+01    1.915E+01    1.919E+01    1.922E+01    1.925E+01    1.929E+01    1.932E+01    1.935E+01    1.939E+01    1.942E+01
     1.945E+01    1.948E+01    1.951E+01    1.955E+01    1.958E+01    1.961E+01    1.964E+01    1.967E+01    1.970E+01    1.973E+01
     1.976E+01    1.979E+01    1.981E+01    1.984E+01    1.987E+01    1.990E+01    1.993E+01    1.995E+01    1.998E+01    2.001E+01
     2.003E+01    2.006E+01    2.009E+01    2.011E+01    2.014E+01    2.016E+01    2.018E+01    2.021E+01    2.023E+01    2.025E+01
     2.028E+01    2.030E+01    2.032E+01    2.034E+01    2.036E+01    2.039E+01    2.041E+01    2.043E+01    2.045E+01    2.046E+01
     2.048E+01    2.050E+01    2.052E+01    2.054E+01    2.055E+01    2.057E+01    2.059E+01    2.060E+01    2.062E+01    2.063E+01
     2.065E+01    2.066E+01    2.068E+01    2.069E+01    2.070E+01    2.072E+01    2.073E+01    2.074E+01    2.075E+01    2.077E+01
     2.078E+01    2.079E+01    2.080E+01    2.081E+01    2.082E+01    2.083E+01    2.084E+01    2.085E+01    2.086E+01    2.087E+01
     2.088E+01    2.089E+01    2.090E+01    2.091E+01    2.092E+01    2.093E+01    2.094E+01    2.095E+01    2.095E+01    2.096E+01
     2.097E+01    2.098E+01    2.099E+01    2.100E+01    2.101E+01    2.101E+01    2.102E+01    2.103E+01
 Ala      Conc. = 8.21E+02
