 LCModel (Version 6.3-1L) Copyright: S.W. Provencher.          Ref.: Magn. Reson. Med. 30:672-679 (1993).                
 Slice#3 Row#1 Col#8  K_02_press_1_raw_act
 36 lines in following concentration table = NCONC+1
    Conc.  %SD /Cr+PCr  Metabolite                                         
    0.000 999%   0.000 Ala                                                 
   20.750  75%   0.107 Asp                                                 
    0.000 999%   0.000 Cr                                                  
  193.619  18%   1.000 PCr                                                 
   12.642  73% 6.5E-02 GABA                                                
   12.984  72% 6.7E-02 Glc                                                 
    0.000 999%   0.000 Gln                                                 
  173.899  80%   0.898 Glu                                                 
    0.000 999%   0.000 GPC                                                 
   40.925 139%   0.211 PCh                                                 
  107.690  43%   0.556 GSH                                                 
  333.546  43%   1.723 Ins                                                 
  229.465  33%   1.185 Lac                                                 
  113.642  32%   0.587 NAA                                                 
    0.000 999%   0.000 NAAG                                                
    5.170  59% 2.7E-02 Scyllo                                              
   24.226  63%   0.125 Tau                                                 
    7.279 348% 3.8E-02 -CrCH2                                              
   40.925  32%   0.211 GPC+PCh                                             
  113.642  32%   0.587 NAA+NAAG                                            
  193.619  18%   1.000 Cr+PCr                                              
  173.899  80%   0.898 Glu+Gln                                             
 1.74E+03  13%   8.965 Lip13a                                              
    0.000 999%   0.000 Lip13b                                              
  463.581  13%   2.394 Lip09                                               
    3.161 648% 1.6E-02 MM09                                                
  260.211  13%   1.344 Lip20                                               
    0.000 999%   0.000 MM20                                                
    0.658 999% 3.4E-03 MM12                                                
   13.286 314% 6.9E-02 MM14                                                
    0.000 999%   0.000 MM17                                                
 1.74E+03  13%   8.965 Lip13a+Lip13b                                       
 1.75E+03  13%   9.037 MM14+Lip13a+Lip13b+MM12                             
  466.742  13%   2.411 MM09+Lip09                                          
  260.211  13%   1.344 MM20+Lip20                                          
   6 lines in following misc. output table
  FWHM = 0.038 ppm    S/N =   2                                            
  Data shift = 0.038 ppm                                                   
  Ph:  26 deg     -16.8 deg/ppm                                            
  alphaB,S = 8.5E+01,   3.7E+01                                            
   14 spline knots.   Ns = 5(1)                                            
  ( 4) 2 infls.   ( 2) 1 extrs.                                            
  498 points on ppm-axis = NY
      4.000000     3.992357     3.984714     3.977070     3.969427     3.961784     3.954141     3.946497     3.938854     3.931211
      3.923568     3.915925     3.908281     3.900638     3.892995     3.885352     3.877708     3.870065     3.862422     3.854779
      3.847136     3.839492     3.831849     3.824206     3.816563     3.808919     3.801276     3.793633     3.785990     3.778347
      3.770703     3.763060     3.755417     3.747774     3.740130     3.732487     3.724844     3.717201     3.709558     3.701914
      3.694271     3.686628     3.678985     3.671341     3.663698     3.656055     3.648412     3.640769     3.633125     3.625482
      3.617839     3.610196     3.602552     3.594909     3.587266     3.579623     3.571980     3.564336     3.556693     3.549050
      3.541407     3.533763     3.526120     3.518477     3.510834     3.503191     3.495547     3.487904     3.480261     3.472618
      3.464974     3.457331     3.449688     3.442045     3.434402     3.426758     3.419115     3.411472     3.403829     3.396185
      3.388542     3.380899     3.373256     3.365613     3.357969     3.350326     3.342683     3.335040     3.327396     3.319753
      3.312110     3.304467     3.296824     3.289180     3.281537     3.273894     3.266251     3.258607     3.250964     3.243321
      3.235678     3.228034     3.220391     3.212748     3.205105     3.197462     3.189818     3.182175     3.174532     3.166889
      3.159245     3.151602     3.143959     3.136316     3.128673     3.121029     3.113386     3.105743     3.098100     3.090456
      3.082813     3.075170     3.067527     3.059884     3.052240     3.044597     3.036954     3.029311     3.021667     3.014024
      3.006381     2.998738     2.991095     2.983451     2.975808     2.968165     2.960522     2.952878     2.945235     2.937592
      2.929949     2.922306     2.914662     2.907019     2.899376     2.891733     2.884089     2.876446     2.868803     2.861160
      2.853517     2.845873     2.838230     2.830587     2.822944     2.815300     2.807657     2.800014     2.792371     2.784728
      2.777084     2.769441     2.761798     2.754155     2.746511     2.738868     2.731225     2.723582     2.715939     2.708295
      2.700652     2.693009     2.685366     2.677722     2.670079     2.662436     2.654793     2.647150     2.639506     2.631863
      2.624220     2.616577     2.608933     2.601290     2.593647     2.586004     2.578361     2.570717     2.563074     2.555431
      2.547788     2.540144     2.532501     2.524858     2.517215     2.509572     2.501928     2.494285     2.486642     2.478999
      2.471355     2.463712     2.456069     2.448426     2.440783     2.433139     2.425496     2.417853     2.410210     2.402566
      2.394923     2.387280     2.379637     2.371994     2.364350     2.356707     2.349064     2.341421     2.333777     2.326134
      2.318491     2.310848     2.303205     2.295561     2.287918     2.280275     2.272632     2.264988     2.257345     2.249702
      2.242059     2.234416     2.226772     2.219129     2.211486     2.203843     2.196199     2.188556     2.180913     2.173270
      2.165627     2.157983     2.150340     2.142697     2.135054     2.127410     2.119767     2.112124     2.104481     2.096838
      2.089194     2.081551     2.073908     2.066265     2.058621     2.050978     2.043335     2.035692     2.028049     2.020405
      2.012762     2.005119     1.997476     1.989833     1.982190     1.974546     1.966903     1.959260     1.951617     1.943974
      1.936331     1.928688     1.921045     1.913402     1.905759     1.898115     1.890472     1.882829     1.875186     1.867543
      1.859900     1.852257     1.844614     1.836971     1.829327     1.821684     1.814041     1.806398     1.798755     1.791112
      1.783469     1.775826     1.768183     1.760540     1.752896     1.745253     1.737610     1.729967     1.722324     1.714681
      1.707038     1.699395     1.691752     1.684108     1.676465     1.668822     1.661179     1.653536     1.645893     1.638250
      1.630607     1.622964     1.615321     1.607677     1.600034     1.592391     1.584748     1.577105     1.569462     1.561819
      1.554176     1.546533     1.538890     1.531246     1.523603     1.515960     1.508317     1.500674     1.493031     1.485388
      1.477745     1.470102     1.462458     1.454815     1.447172     1.439529     1.431886     1.424243     1.416600     1.408957
      1.401314     1.393671     1.386027     1.378384     1.370741     1.363098     1.355455     1.347812     1.340169     1.332526
      1.324883     1.317240     1.309596     1.301953     1.294310     1.286667     1.279024     1.271381     1.263738     1.256095
      1.248452     1.240808     1.233165     1.225522     1.217879     1.210236     1.202593     1.194950     1.187307     1.179664
      1.172021     1.164377     1.156734     1.149091     1.141448     1.133805     1.126162     1.118519     1.110876     1.103233
      1.095590     1.087946     1.080303     1.072660     1.065017     1.057374     1.049731     1.042088     1.034445     1.026802
      1.019158     1.011515     1.003872     0.996229     0.988586     0.980943     0.973300     0.965657     0.958014     0.950371
      0.942727     0.935084     0.927441     0.919798     0.912155     0.904512     0.896869     0.889226     0.881583     0.873940
      0.866296     0.858653     0.851010     0.843367     0.835724     0.828081     0.820438     0.812795     0.805152     0.797508
      0.789865     0.782222     0.774579     0.766936     0.759293     0.751650     0.744007     0.736364     0.728721     0.721077
      0.713434     0.705791     0.698148     0.690505     0.682862     0.675219     0.667576     0.659933     0.652290     0.644646
      0.637003     0.629360     0.621717     0.614074     0.606431     0.598788     0.591145     0.583502     0.575858     0.568215
      0.560572     0.552929     0.545286     0.537643     0.530000     0.522357     0.514714     0.507071     0.499427     0.491784
      0.484141     0.476498     0.468855     0.461212     0.453569     0.445925     0.438282     0.430639     0.422996     0.415353
      0.407710     0.400067     0.392424     0.384780     0.377137     0.369494     0.361851     0.354208     0.346565     0.338922
      0.331278     0.323635     0.315992     0.308349     0.300706     0.293063     0.285420     0.277777     0.270133     0.262490
      0.254847     0.247204     0.239561     0.231918     0.224275     0.216631     0.208988     0.201345
 NY phased data points follow
   4.60258E+00  2.82354E-01 -9.59836E-01  2.93249E-01  1.23624E+00 -3.24025E+00  9.73303E-01  4.06936E+00  7.79112E+00  4.43897E+00
   7.79629E+00  5.71360E+00  3.64091E+00  3.23224E+00  5.02735E+00 -1.99426E-01 -1.12997E+00  4.91251E+00  1.09136E+00  1.09233E+00
  -8.20698E-01  1.34049E+00  1.43772E+00  2.95236E-01  5.36373E-02 -1.99192E+00 -5.18137E-01  9.21575E-01  2.80770E+00 -8.78445E-01
   1.80428E+00  3.23095E+00  2.59474E+00  2.28037E+00  2.68068E+00  6.23130E+00  3.61197E+00 -1.74333E-01  3.81142E+00  5.62917E-01
  -2.15329E+00 -1.40615E-01  3.17628E+00  2.66878E+00 -3.74425E-02  3.36991E+00 -8.49118E-02  5.41661E+00 -8.24784E-02  6.26137E+00
  -4.13326E+00  4.97062E+00  1.03051E+00  5.88137E+00  1.28590E+00  5.49661E-01  1.31406E-01 -1.10121E+00  4.01155E+00  2.83634E+00
   2.20940E+00  1.34785E+00 -2.71842E+00 -5.61560E+00  3.62030E+00  2.03357E+00  9.33219E-01  2.17341E+00  4.36786E+00 -7.48717E-01
   2.61202E+00 -1.45883E+00  9.48242E-01  8.97465E-01  5.15923E+00  4.41245E+00  5.66452E+00 -2.51160E+00 -2.64323E+00  1.53048E+00
  -1.97935E+00  2.35956E+00 -2.69783E+00  3.39366E+00  6.40955E+00  3.21487E+00  3.71555E+00  2.96503E-01 -2.56861E+00  1.83971E+00
   2.25333E+00  3.22968E+00  1.08925E+00 -3.21772E+00  3.51519E+00  3.00586E+00  2.30239E+00  9.65306E-01  2.63984E+00 -7.86229E-01
  -8.07822E-02 -8.25265E-01  2.53205E-01  6.99758E-01  9.80671E+00  2.19221E+00  4.80704E+00  1.12413E+00  3.73369E+00  3.64307E+00
  -5.25945E-01 -4.45702E-01  2.12750E+00 -8.61654E-01  3.26360E+00  3.91106E+00  1.06576E+00 -1.32576E+00 -2.27375E+00 -2.71721E-01
   3.05999E+00 -2.89903E+00 -3.91736E-01 -3.06047E+00 -1.56920E-01  3.58314E+00  6.59947E-01  1.01849E+01  7.01435E+00  7.90285E+00
   3.54800E+00  5.64872E+00  4.67485E+00  4.87862E-01  3.42567E+00  3.68999E+00  2.41179E+00  4.30665E+00 -2.38700E+00 -2.15228E+00
  -1.72837E+00  2.14689E+00  2.40680E-01 -1.65501E+00  2.86653E+00  6.44631E+00  3.80050E+00  2.23730E+00  6.55857E-01  7.36190E-01
  -1.23226E+00  2.64948E+00  1.04629E+00  2.55167E+00 -3.62294E+00  1.15828E+00  3.37440E-01 -1.41939E+00 -3.00881E-01 -3.40112E-01
  -1.53905E+00 -3.57414E-01 -1.04827E+00  2.35355E+00 -1.88835E+00  1.72279E+00  5.30319E-01  3.02298E+00  4.49796E-01 -1.99306E-01
   3.18715E+00 -4.99876E+00  1.50055E+00 -2.62909E+00 -2.81148E+00 -7.51414E-01 -4.55318E-01 -5.85062E-01  4.34174E-01  1.96460E+00
  -2.30738E+00  1.24357E+00 -1.36772E+00  3.74165E-01 -1.11815E+00 -3.87560E-01 -2.99351E+00 -1.23316E+00  4.04029E+00 -1.34491E+00
   1.30940E+00  5.93631E+00  1.14339E+00 -2.15166E+00 -1.39147E+00  1.35854E+00  2.34633E+00 -1.47518E+00 -1.11041E+00 -5.29422E-02
  -6.41190E+00  7.94716E-01  9.56212E-02 -5.40833E+00 -1.00072E+00  8.19133E-01 -1.46560E+00 -2.65349E+00 -1.78512E+00 -1.69513E-01
  -1.19650E+00  2.61159E+00 -3.20671E+00 -2.02253E+00  1.42884E+00  6.20548E+00 -2.05733E+00  2.19256E+00 -5.41174E-01  3.03058E+00
  -4.98375E-01 -7.95154E-01 -1.31799E-01 -8.97935E+00  3.24469E+00 -1.54530E+00 -4.94318E-01  1.08045E-02 -4.05147E+00  3.93710E-01
   1.12630E+00  1.47128E+00 -4.60835E+00  2.31430E-01 -1.45416E+00  2.55878E+00  7.71719E+00  2.33573E+00  1.06623E+00 -1.31230E+00
  -1.36051E+00  2.24720E-01 -4.27193E+00  2.08405E+00 -4.89792E+00  9.42299E-01 -1.28981E+00 -9.57613E-01  1.30232E-01 -2.61790E+00
  -8.64627E-01 -4.68105E-02 -3.19050E+00  2.97088E+00  3.21041E+00  3.73180E+00  1.11884E+00 -5.40988E+00 -6.99311E+00  1.58903E+00
   9.75807E+00  1.21048E+01  4.41987E+00  4.28341E+00 -1.44826E+00  1.28042E+00 -6.55008E+00 -4.82381E+00  2.14738E+00  4.01586E+00
  -2.67210E+00 -1.54369E+00 -1.71868E+00  1.04682E+00 -3.21443E-01 -1.36739E+00 -4.94684E+00 -1.74647E+00  2.92122E+00 -2.53680E+00
  -4.05103E+00 -1.53238E+00 -7.01602E+00 -3.84092E+00 -5.53490E+00 -3.43864E+00 -4.85141E+00 -2.78285E+00 -3.99380E+00 -4.55366E+00
  -4.02565E+00 -7.16221E-01 -6.16136E+00 -1.10515E-01 -5.83185E+00 -5.33840E+00 -3.63217E+00 -2.54015E+00  3.45750E+00 -4.13020E+00
  -3.98698E+00 -2.44610E+00  9.60968E-01 -1.86367E+00 -2.18516E+00 -6.69745E-01  3.49421E-01 -2.43744E+00  8.37209E-01 -4.95425E+00
  -3.21389E+00 -7.71390E+00 -4.49679E+00  1.07873E+00  1.22690E+00  3.85034E+00 -2.77419E+00 -4.71899E+00 -1.60803E+00 -2.56573E+00
  -3.06457E+00  6.50807E-01 -3.89408E+00 -6.92093E-02  3.22358E+00  9.08134E-01 -4.44611E-01  1.74061E+00  3.06081E+00 -7.72036E-02
   2.01895E+00  7.40799E+00  3.16120E+00  9.85286E+00  5.76188E+00  1.05677E+00  6.05239E+00  6.93447E+00  8.73604E+00  8.86498E+00
   1.07230E+01  1.12161E+01  1.27650E+01  1.50119E+01  1.42423E+01  1.36076E+01  7.62666E+00  1.25595E+01  1.09923E+01  7.84533E+00
   8.29630E+00  3.23388E+00  6.85591E+00 -1.05914E-01  4.46173E+00  6.33558E+00  6.15946E+00  5.79419E+00  8.52127E+00  1.26346E+00
   3.93618E+00  3.80174E+00 -6.84227E-02  5.43140E+00  2.99114E-01  4.16205E+00  1.51466E+00  1.79441E+00  5.18221E+00 -3.02379E+00
   1.34217E+00  5.06243E+00  4.33821E+00  4.79930E+00  3.96816E+00  7.67341E-01  2.55478E-01  1.74934E+00  3.37159E+00  9.14619E-01
   2.76283E+00  1.46060E+00  3.24351E+00  2.12575E+00  1.94902E+00  3.04094E+00  8.58010E+00  6.88886E+00  5.53442E+00 -2.55665E+00
   6.85363E-01  3.03263E-01 -2.43230E-01  4.06861E+00  3.61574E+00  4.89642E+00  1.65862E+00 -2.38683E-01  2.62390E+00  5.52229E+00
   4.16009E+00  5.86356E+00  4.77482E+00  2.62155E-01  4.59331E+00 -2.48934E+00  3.46984E+00 -5.04369E-01  1.54276E+00  4.76334E-01
   1.18655E+00 -1.18976E+00  6.47276E-01  5.02936E+00  4.47799E-01  3.11094E+00 -2.56918E+00  3.78842E-01  5.69527E-01  3.38674E+00
  -2.23640E+00  3.79416E+00 -9.55968E-01  9.75001E-01 -1.04744E+00 -2.00968E+00 -3.93058E-01 -1.51599E+00  1.27324E+00 -2.41966E+00
  -1.07342E+00  6.19936E-01 -2.92029E+00  7.74099E-01 -2.23050E+00  2.05605E+00  4.26764E-02  5.93518E-01  2.66568E+00  1.97844E+00
  -4.28661E-01 -1.86496E+00 -7.89144E-01  2.43546E+00  5.33708E-01 -1.27787E+00 -4.68927E+00 -1.15628E-01 -1.47633E+00  2.58409E+00
  -5.38941E-01  2.10495E+00 -8.52399E-02  2.68129E+00  1.08861E+00  2.09714E-01  4.66053E+00  4.52184E+00  1.42424E-01  3.18911E+00
  -8.61497E-01  1.10233E+00 -5.88650E-01 -1.39304E+00  9.01930E-01  3.55493E+00 -1.03600E+00  1.72398E+00  5.81791E-01  1.24149E+00
   1.26299E+00 -3.43866E+00 -4.41077E-01 -1.46680E+00  4.13017E+00  1.86950E+00 -3.28330E+00 -1.38908E+00 -3.13019E+00  2.98723E-01
   2.42737E+00 -1.14526E+00 -4.15285E+00 -4.55976E-01 -1.93154E+00  5.05187E-01  1.29146E+00  5.98179E-01 -1.11605E-01  9.23991E-01
   2.96755E+00 -3.85191E+00 -6.52692E-01  1.08285E+00  1.56047E+00 -2.89902E+00  4.14878E+00  2.29222E+00
 NY points of the fit to the data follow
   7.44492E-01  5.54642E-01  4.45008E-01  4.40065E-01  4.75497E-01  6.44162E-01  1.23144E+00  2.33019E+00  3.71101E+00  4.90794E+00
   5.44987E+00  5.19648E+00  4.38334E+00  3.32081E+00  2.19194E+00  1.18202E+00  6.13720E-01  4.51153E-01  3.98425E-01  3.95876E-01
   4.30928E-01  4.77133E-01  5.09628E-01  5.22259E-01  5.05560E-01  4.49167E-01  4.41071E-01  6.84925E-01  1.30683E+00  2.23657E+00
   3.20116E+00  3.83608E+00  3.95342E+00  3.63982E+00  3.05427E+00  2.28506E+00  1.48372E+00  9.19398E-01  6.29638E-01  4.25315E-01
   2.89128E-01  2.27864E-01  2.06872E-01  2.51191E-01  5.35226E-01  1.18213E+00  2.05887E+00  2.87452E+00  3.30074E+00  3.16304E+00
   2.55372E+00  1.72290E+00  8.85351E-01  1.94994E-01 -1.88355E-01 -2.14185E-01 -6.25463E-03  3.08704E-01  6.87263E-01  1.08434E+00
   1.40332E+00  1.53847E+00  1.45203E+00  1.19711E+00  8.62603E-01  5.43176E-01  3.45892E-01  3.08124E-01  4.03984E-01  5.97166E-01
   8.18807E-01  1.01908E+00  1.16032E+00  1.21930E+00  1.20724E+00  1.14444E+00  1.04739E+00  9.11995E-01  7.62005E-01  6.51577E-01
   5.79004E-01  5.32369E-01  5.25227E-01  5.51326E-01  5.56114E-01  4.73500E-01  2.68256E-01 -3.45461E-02 -3.40678E-01 -5.44367E-01
  -5.96584E-01 -5.13079E-01 -3.24978E-01 -6.56420E-02  1.76730E-01  3.30060E-01  3.68904E-01  3.07888E-01  1.75948E-01  7.08902E-02
   2.77688E-01  1.02242E+00  2.22967E+00  3.54115E+00  4.44857E+00  4.61163E+00  4.10816E+00  3.22321E+00  2.18878E+00  1.15578E+00
   3.97579E-01  1.24917E-01  5.81699E-02  3.69618E-02  2.71529E-02  2.43238E-02  2.05526E-02  9.75939E-03 -9.11590E-03 -3.13509E-02
  -4.70703E-02 -4.50713E-02  2.50463E-04  3.81680E-01  1.51222E+00  3.43713E+00  5.69972E+00  7.51567E+00  8.20348E+00  7.68060E+00
   6.40223E+00  4.84720E+00  3.24218E+00  1.83549E+00  1.03074E+00  5.89227E-01  1.63690E-01 -2.00955E-01 -4.04696E-01 -3.98488E-01
  -1.90142E-01  1.52989E-01  4.88032E-01  7.04315E-01  7.83475E-01  7.45370E-01  6.38550E-01  5.22179E-01  4.18855E-01  3.55721E-01
   3.12861E-01  2.71160E-01  2.27617E-01  1.88753E-01  1.59872E-01  1.45969E-01  1.51326E-01  1.62045E-01  1.56011E-01  1.25820E-01
   8.05228E-02  4.10790E-02  2.29752E-02  2.80033E-02  4.68308E-02  6.23678E-02  6.46706E-02  5.08901E-02  2.03365E-02 -1.78620E-02
  -5.42260E-02 -8.23139E-02 -1.04015E-01 -1.40703E-01 -1.97394E-01 -2.59708E-01 -3.08799E-01 -3.36133E-01 -3.52102E-01 -3.73539E-01
  -4.01211E-01 -4.21874E-01 -4.35805E-01 -4.65616E-01 -5.21570E-01 -5.83795E-01 -6.18019E-01 -5.80275E-01 -4.45545E-01 -2.17436E-01
   5.92200E-02  3.12311E-01  4.64697E-01  4.70220E-01  3.21594E-01  4.82165E-02 -2.77167E-01 -5.54700E-01 -6.91088E-01 -6.48253E-01
  -4.67065E-01 -2.28597E-01  1.53206E-02  2.35399E-01  3.85320E-01  4.15823E-01  3.56060E-01  2.52219E-01  1.17438E-01 -3.86342E-02
  -1.82945E-01 -2.61106E-01 -2.02763E-01  3.59566E-02  4.02624E-01  7.81313E-01  1.03135E+00  1.03637E+00  7.83225E-01  3.10741E-01
  -2.96785E-01 -8.80049E-01 -1.24809E+00 -1.24692E+00 -9.36664E-01 -4.73956E-01  1.02385E-02  4.23268E-01  6.73998E-01  6.84351E-01
   4.92957E-01  2.52478E-01  9.84282E-02  8.76239E-02  2.42251E-01  5.26971E-01  8.46960E-01  1.07094E+00  1.07190E+00  8.04626E-01
   3.68482E-01 -8.18940E-02 -4.14049E-01 -5.41376E-01 -4.20937E-01 -8.07193E-02  3.36619E-01  6.68448E-01  8.40174E-01  8.51734E-01
   7.34142E-01  5.65068E-01  4.28000E-01  3.79022E-01  3.98360E-01  4.45324E-01  6.04569E-01  1.11951E+00  2.10794E+00  3.40231E+00
   4.59688E+00  5.23025E+00  5.11475E+00  4.43186E+00  3.46046E+00  2.36307E+00  1.31716E+00  6.48614E-01  3.88740E-01  2.39281E-01
   1.27620E-01  5.86516E-02  2.66337E-02  2.24794E-02  4.23875E-02  6.91985E-02  8.69129E-02  8.58443E-02  6.29513E-02  1.97529E-02
  -3.23275E-02 -8.03314E-02 -1.18495E-01 -1.44403E-01 -1.58064E-01 -1.62550E-01 -1.61411E-01 -1.58713E-01 -1.57772E-01 -1.58113E-01
  -1.59584E-01 -1.62530E-01 -1.65915E-01 -1.68259E-01 -1.69312E-01 -1.69426E-01 -1.68286E-01 -1.65463E-01 -1.61285E-01 -1.55966E-01
  -1.49283E-01 -1.41357E-01 -1.32090E-01 -1.21491E-01 -1.09647E-01 -9.65963E-02 -8.22335E-02 -6.63409E-02 -4.86583E-02 -2.88936E-02
  -6.65616E-03  1.83616E-02  4.64201E-02  7.78871E-02  1.13243E-01  1.53092E-01  1.98142E-01  2.49175E-01  3.07115E-01  3.73075E-01
   4.48375E-01  5.34524E-01  6.33215E-01  7.46340E-01  8.76031E-01  1.02466E+00  1.19477E+00  1.38900E+00  1.61000E+00  1.86032E+00
   2.14239E+00  2.45835E+00  2.80986E+00  3.19788E+00  3.62255E+00  4.08311E+00  4.57800E+00  5.10491E+00  5.66110E+00  6.24403E+00
   6.85268E+00  7.48977E+00  8.18419E+00  9.06639E+00  1.01678E+01  1.12277E+01  1.18257E+01  1.16151E+01  1.05491E+01  8.93950E+00
   7.17186E+00  5.62867E+00  4.70358E+00  4.75306E+00  5.83608E+00  7.29066E+00  8.40705E+00  8.92176E+00  8.85663E+00  8.32914E+00
   7.40413E+00  6.26649E+00  5.32736E+00  4.62502E+00  4.04641E+00  3.54816E+00  3.11266E+00  2.73073E+00  2.39645E+00  2.10534E+00
   1.85352E+00  1.63750E+00  1.45402E+00  1.30005E+00  1.17279E+00  1.06967E+00  9.88442E-01  9.27138E-01  8.84113E-01  8.57985E-01
   8.47609E-01  8.52041E-01  8.70515E-01  9.02402E-01  9.47145E-01  1.00418E+00  1.07289E+00  1.15253E+00  1.24223E+00  1.34089E+00
   1.44719E+00  1.55952E+00  1.67598E+00  1.79440E+00  1.91239E+00  2.02735E+00  2.13658E+00  2.23729E+00  2.32677E+00  2.40245E+00
   2.46206E+00  2.50368E+00  2.52584E+00  2.52757E+00  2.50848E+00  2.46874E+00  2.40914E+00  2.33095E+00  2.23592E+00  2.12617E+00
   2.00408E+00  1.87224E+00  1.73329E+00  1.58984E+00  1.44435E+00  1.29907E+00  1.15602E+00  1.01691E+00  8.83145E-01  7.55787E-01
   6.35599E-01  5.23060E-01  4.18407E-01  3.21667E-01  2.32693E-01  1.51192E-01  7.67725E-02  8.97894E-03 -5.26729E-02 -1.08687E-01
  -1.59564E-01 -2.05801E-01 -2.47863E-01 -2.86181E-01 -3.21143E-01 -3.53109E-01 -3.82404E-01 -4.09324E-01 -4.34128E-01 -4.57043E-01
  -4.78262E-01 -4.97966E-01 -5.16311E-01 -5.33443E-01 -5.49481E-01 -5.64529E-01 -5.78676E-01 -5.92010E-01 -6.04605E-01 -6.16534E-01
  -6.27851E-01 -6.38605E-01 -6.48840E-01 -6.58602E-01 -6.67930E-01 -6.76861E-01 -6.85418E-01 -6.93628E-01 -7.01514E-01 -7.09106E-01
  -7.16425E-01 -7.23491E-01 -7.30317E-01 -7.36917E-01 -7.43305E-01 -7.49500E-01 -7.55514E-01 -7.61357E-01 -7.67035E-01 -7.72559E-01
  -7.77939E-01 -7.83186E-01 -7.88307E-01 -7.93307E-01 -7.98188E-01 -8.02959E-01 -8.07626E-01 -8.12200E-01 -8.16680E-01 -8.21073E-01
  -8.25378E-01 -8.29603E-01 -8.33753E-01 -8.37833E-01 -8.41843E-01 -8.45785E-01 -8.49661E-01 -8.53475E-01 -8.57232E-01 -8.60935E-01
  -8.64582E-01 -8.68176E-01 -8.71716E-01 -8.75207E-01 -8.78652E-01 -8.82052E-01 -8.85404E-01 -8.88709E-01
 NY background values follow
     3.077E-02    2.876E-02    2.674E-02    2.473E-02    2.272E-02    2.071E-02    1.870E-02    1.669E-02    1.468E-02    1.267E-02
     1.065E-02    8.643E-03    6.631E-03    4.620E-03    2.609E-03    5.976E-04   -1.414E-03   -3.425E-03   -5.436E-03   -7.447E-03
    -9.459E-03   -1.147E-02   -1.348E-02   -1.549E-02   -1.750E-02   -1.951E-02   -2.153E-02   -2.354E-02   -2.555E-02   -2.756E-02
    -2.957E-02   -3.158E-02   -3.359E-02   -3.560E-02   -3.762E-02   -3.963E-02   -4.164E-02   -4.365E-02   -4.566E-02   -4.767E-02
    -4.968E-02   -5.169E-02   -5.371E-02   -5.572E-02   -5.773E-02   -5.974E-02   -6.175E-02   -6.376E-02   -6.577E-02   -6.778E-02
    -6.980E-02   -7.181E-02   -7.382E-02   -7.583E-02   -7.784E-02   -7.985E-02   -8.186E-02   -8.387E-02   -8.589E-02   -8.790E-02
    -8.991E-02   -9.192E-02   -9.393E-02   -9.594E-02   -9.795E-02   -9.996E-02   -1.020E-01   -1.040E-01   -1.060E-01   -1.080E-01
    -1.100E-01   -1.120E-01   -1.140E-01   -1.161E-01   -1.181E-01   -1.201E-01   -1.221E-01   -1.241E-01   -1.261E-01   -1.281E-01
    -1.301E-01   -1.321E-01   -1.342E-01   -1.362E-01   -1.382E-01   -1.402E-01   -1.422E-01   -1.442E-01   -1.462E-01   -1.482E-01
    -1.502E-01   -1.523E-01   -1.543E-01   -1.563E-01   -1.583E-01   -1.603E-01   -1.623E-01   -1.643E-01   -1.663E-01   -1.683E-01
    -1.704E-01   -1.724E-01   -1.744E-01   -1.764E-01   -1.784E-01   -1.804E-01   -1.824E-01   -1.844E-01   -1.864E-01   -1.885E-01
    -1.905E-01   -1.925E-01   -1.945E-01   -1.965E-01   -1.985E-01   -2.005E-01   -2.025E-01   -2.045E-01   -2.066E-01   -2.086E-01
    -2.106E-01   -2.126E-01   -2.146E-01   -2.166E-01   -2.186E-01   -2.206E-01   -2.226E-01   -2.247E-01   -2.267E-01   -2.287E-01
    -2.307E-01   -2.327E-01   -2.347E-01   -2.367E-01   -2.387E-01   -2.407E-01   -2.428E-01   -2.448E-01   -2.468E-01   -2.488E-01
    -2.508E-01   -2.528E-01   -2.548E-01   -2.568E-01   -2.588E-01   -2.609E-01   -2.629E-01   -2.649E-01   -2.669E-01   -2.689E-01
    -2.709E-01   -2.729E-01   -2.749E-01   -2.769E-01   -2.790E-01   -2.810E-01   -2.830E-01   -2.850E-01   -2.870E-01   -2.890E-01
    -2.910E-01   -2.930E-01   -2.950E-01   -2.970E-01   -2.991E-01   -3.011E-01   -3.031E-01   -3.051E-01   -3.071E-01   -3.091E-01
    -3.111E-01   -3.131E-01   -3.151E-01   -3.172E-01   -3.192E-01   -3.212E-01   -3.232E-01   -3.252E-01   -3.272E-01   -3.292E-01
    -3.312E-01   -3.332E-01   -3.353E-01   -3.373E-01   -3.393E-01   -3.413E-01   -3.433E-01   -3.453E-01   -3.473E-01   -3.493E-01
    -3.513E-01   -3.533E-01   -3.554E-01   -3.574E-01   -3.594E-01   -3.614E-01   -3.634E-01   -3.654E-01   -3.674E-01   -3.694E-01
    -3.714E-01   -3.735E-01   -3.755E-01   -3.775E-01   -3.795E-01   -3.815E-01   -3.835E-01   -3.855E-01   -3.875E-01   -3.895E-01
    -3.915E-01   -3.936E-01   -3.956E-01   -3.976E-01   -3.996E-01   -4.016E-01   -4.036E-01   -4.056E-01   -4.076E-01   -4.096E-01
    -4.116E-01   -4.137E-01   -4.157E-01   -4.177E-01   -4.197E-01   -4.217E-01   -4.237E-01   -4.257E-01   -4.277E-01   -4.297E-01
    -4.317E-01   -4.338E-01   -4.358E-01   -4.378E-01   -4.398E-01   -4.418E-01   -4.438E-01   -4.458E-01   -4.478E-01   -4.498E-01
    -4.518E-01   -4.539E-01   -4.559E-01   -4.579E-01   -4.599E-01   -4.619E-01   -4.639E-01   -4.659E-01   -4.679E-01   -4.699E-01
    -4.719E-01   -4.740E-01   -4.760E-01   -4.780E-01   -4.800E-01   -4.820E-01   -4.840E-01   -4.860E-01   -4.880E-01   -4.900E-01
    -4.920E-01   -4.940E-01   -4.961E-01   -4.981E-01   -5.001E-01   -5.021E-01   -5.041E-01   -5.061E-01   -5.081E-01   -5.101E-01
    -5.121E-01   -5.141E-01   -5.161E-01   -5.182E-01   -5.202E-01   -5.222E-01   -5.242E-01   -5.262E-01   -5.282E-01   -5.302E-01
    -5.322E-01   -5.342E-01   -5.362E-01   -5.382E-01   -5.403E-01   -5.423E-01   -5.443E-01   -5.463E-01   -5.483E-01   -5.503E-01
    -5.523E-01   -5.543E-01   -5.563E-01   -5.583E-01   -5.603E-01   -5.624E-01   -5.644E-01   -5.664E-01   -5.684E-01   -5.704E-01
    -5.724E-01   -5.744E-01   -5.764E-01   -5.784E-01   -5.804E-01   -5.824E-01   -5.844E-01   -5.865E-01   -5.885E-01   -5.905E-01
    -5.925E-01   -5.945E-01   -5.965E-01   -5.985E-01   -6.005E-01   -6.025E-01   -6.045E-01   -6.065E-01   -6.086E-01   -6.106E-01
    -6.126E-01   -6.146E-01   -6.166E-01   -6.186E-01   -6.206E-01   -6.226E-01   -6.246E-01   -6.266E-01   -6.286E-01   -6.306E-01
    -6.326E-01   -6.347E-01   -6.367E-01   -6.387E-01   -6.407E-01   -6.427E-01   -6.447E-01   -6.467E-01   -6.487E-01   -6.507E-01
    -6.527E-01   -6.547E-01   -6.567E-01   -6.588E-01   -6.608E-01   -6.628E-01   -6.648E-01   -6.668E-01   -6.688E-01   -6.708E-01
    -6.728E-01   -6.748E-01   -6.768E-01   -6.788E-01   -6.808E-01   -6.828E-01   -6.849E-01   -6.869E-01   -6.889E-01   -6.909E-01
    -6.929E-01   -6.949E-01   -6.969E-01   -6.989E-01   -7.009E-01   -7.029E-01   -7.049E-01   -7.069E-01   -7.089E-01   -7.110E-01
    -7.130E-01   -7.150E-01   -7.170E-01   -7.190E-01   -7.210E-01   -7.230E-01   -7.250E-01   -7.270E-01   -7.290E-01   -7.310E-01
    -7.330E-01   -7.350E-01   -7.371E-01   -7.391E-01   -7.411E-01   -7.431E-01   -7.451E-01   -7.471E-01   -7.491E-01   -7.511E-01
    -7.531E-01   -7.551E-01   -7.571E-01   -7.591E-01   -7.611E-01   -7.632E-01   -7.652E-01   -7.672E-01   -7.692E-01   -7.712E-01
    -7.732E-01   -7.752E-01   -7.772E-01   -7.792E-01   -7.812E-01   -7.832E-01   -7.852E-01   -7.872E-01   -7.892E-01   -7.913E-01
    -7.933E-01   -7.953E-01   -7.973E-01   -7.993E-01   -8.013E-01   -8.033E-01   -8.053E-01   -8.073E-01   -8.093E-01   -8.113E-01
    -8.133E-01   -8.153E-01   -8.173E-01   -8.194E-01   -8.214E-01   -8.234E-01   -8.254E-01   -8.274E-01   -8.294E-01   -8.314E-01
    -8.334E-01   -8.354E-01   -8.374E-01   -8.394E-01   -8.414E-01   -8.434E-01   -8.454E-01   -8.475E-01   -8.495E-01   -8.515E-01
    -8.535E-01   -8.555E-01   -8.575E-01   -8.595E-01   -8.615E-01   -8.635E-01   -8.655E-01   -8.675E-01   -8.695E-01   -8.715E-01
    -8.735E-01   -8.756E-01   -8.776E-01   -8.796E-01   -8.816E-01   -8.836E-01   -8.856E-01   -8.876E-01   -8.896E-01   -8.916E-01
    -8.936E-01   -8.956E-01   -8.976E-01   -8.996E-01   -9.016E-01   -9.037E-01   -9.057E-01   -9.077E-01   -9.097E-01   -9.117E-01
    -9.137E-01   -9.157E-01   -9.177E-01   -9.197E-01   -9.217E-01   -9.237E-01   -9.257E-01   -9.277E-01   -9.297E-01   -9.318E-01
    -9.338E-01   -9.358E-01   -9.378E-01   -9.398E-01   -9.418E-01   -9.438E-01   -9.458E-01   -9.478E-01   -9.498E-01   -9.518E-01
    -9.538E-01   -9.558E-01   -9.578E-01   -9.599E-01   -9.619E-01   -9.639E-01   -9.659E-01   -9.679E-01
 Asp      Conc. = 2.08E+01
