 LCModel (Version 6.3-1L) Copyright: S.W. Provencher.          Ref.: Magn. Reson. Med. 30:672-679 (1993).                
 Slice#2 Row#1 Col#12  K_02_press_1_raw_act
 36 lines in following concentration table = NCONC+1
    Conc.  %SD /Cr+PCr  Metabolite                                         
    0.000 999%   0.000 Ala                                                 
   12.602 106% 7.8E-02 Asp                                                 
    0.000 999%   0.000 Cr                                                  
  161.177  47%   1.000 PCr                                                 
    8.085  99% 5.0E-02 GABA                                                
    7.915 102% 4.9E-02 Glc                                                 
  239.151 309%   1.484 Gln                                                 
    0.000 999%   0.000 Glu                                                 
    0.000 999%   0.000 GPC                                                 
   35.856  77%   0.222 PCh                                                 
    0.000 999%   0.000 GSH                                                 
    0.000 999%   0.000 Ins                                                 
    0.000 999%   0.000 Lac                                                 
    0.000 999%   0.000 NAA                                                 
    0.000 999%   0.000 NAAG                                                
    2.657 101% 1.6E-02 Scyllo                                              
   13.389 100% 8.3E-02 Tau                                                 
   20.572 229%   0.128 -CrCH2                                              
   35.856  77%   0.222 GPC+PCh                                             
    0.000 999%   0.000 NAA+NAAG                                            
  161.177  47%   1.000 Cr+PCr                                              
  239.151 309%   1.484 Glu+Gln                                             
 1.64E+04  14% 101.762 Lip13a                                              
    0.000 999%   0.000 Lip13b                                              
 4.16E+03  12%  25.791 Lip09                                               
 6.44E+03   7%  39.956 MM09                                                
  244.065 136%   1.514 Lip20                                               
    0.000 999%   0.000 MM20                                                
 3.68E+03  15%  22.810 MM12                                                
 2.26E+04   9% 140.142+MM14                                                
 1.70E+04   8% 105.736+MM17                                                
 1.64E+04  14% 101.762 Lip13a+Lip13b                                       
 4.27E+04   4% 264.713 MM14+Lip13a+Lip13b+MM12                             
 1.06E+04   5%  65.747 MM09+Lip09                                          
  244.065 136%   1.514 MM20+Lip20                                          
   6 lines in following misc. output table
  FWHM = 0.168 ppm    S/N =  28                                            
  Data shift = 0.084 ppm                                                   
  Ph:   5 deg      94.9 deg/ppm                                            
  alphaB,S = 8.5E+01,   8.0E+01                                            
    7 spline knots.   Ns = 9(2)                                            
  ( 7) 3 infls.   ( 1) 1 extrs.                                            
  498 points on ppm-axis = NY
      4.000000     3.992357     3.984714     3.977070     3.969427     3.961784     3.954141     3.946497     3.938854     3.931211
      3.923568     3.915925     3.908281     3.900638     3.892995     3.885352     3.877708     3.870065     3.862422     3.854779
      3.847136     3.839492     3.831849     3.824206     3.816563     3.808919     3.801276     3.793633     3.785990     3.778347
      3.770703     3.763060     3.755417     3.747774     3.740130     3.732487     3.724844     3.717201     3.709558     3.701914
      3.694271     3.686628     3.678985     3.671341     3.663698     3.656055     3.648412     3.640769     3.633125     3.625482
      3.617839     3.610196     3.602552     3.594909     3.587266     3.579623     3.571980     3.564336     3.556693     3.549050
      3.541407     3.533763     3.526120     3.518477     3.510834     3.503191     3.495547     3.487904     3.480261     3.472618
      3.464974     3.457331     3.449688     3.442045     3.434402     3.426758     3.419115     3.411472     3.403829     3.396185
      3.388542     3.380899     3.373256     3.365613     3.357969     3.350326     3.342683     3.335040     3.327396     3.319753
      3.312110     3.304467     3.296824     3.289180     3.281537     3.273894     3.266251     3.258607     3.250964     3.243321
      3.235678     3.228034     3.220391     3.212748     3.205105     3.197462     3.189818     3.182175     3.174532     3.166889
      3.159245     3.151602     3.143959     3.136316     3.128673     3.121029     3.113386     3.105743     3.098100     3.090456
      3.082813     3.075170     3.067527     3.059884     3.052240     3.044597     3.036954     3.029311     3.021667     3.014024
      3.006381     2.998738     2.991095     2.983451     2.975808     2.968165     2.960522     2.952878     2.945235     2.937592
      2.929949     2.922306     2.914662     2.907019     2.899376     2.891733     2.884089     2.876446     2.868803     2.861160
      2.853517     2.845873     2.838230     2.830587     2.822944     2.815300     2.807657     2.800014     2.792371     2.784728
      2.777084     2.769441     2.761798     2.754155     2.746511     2.738868     2.731225     2.723582     2.715939     2.708295
      2.700652     2.693009     2.685366     2.677722     2.670079     2.662436     2.654793     2.647150     2.639506     2.631863
      2.624220     2.616577     2.608933     2.601290     2.593647     2.586004     2.578361     2.570717     2.563074     2.555431
      2.547788     2.540144     2.532501     2.524858     2.517215     2.509572     2.501928     2.494285     2.486642     2.478999
      2.471355     2.463712     2.456069     2.448426     2.440783     2.433139     2.425496     2.417853     2.410210     2.402566
      2.394923     2.387280     2.379637     2.371994     2.364350     2.356707     2.349064     2.341421     2.333777     2.326134
      2.318491     2.310848     2.303205     2.295561     2.287918     2.280275     2.272632     2.264988     2.257345     2.249702
      2.242059     2.234416     2.226772     2.219129     2.211486     2.203843     2.196199     2.188556     2.180913     2.173270
      2.165627     2.157983     2.150340     2.142697     2.135054     2.127410     2.119767     2.112124     2.104481     2.096838
      2.089194     2.081551     2.073908     2.066265     2.058621     2.050978     2.043335     2.035692     2.028049     2.020405
      2.012762     2.005119     1.997476     1.989833     1.982190     1.974546     1.966903     1.959260     1.951617     1.943974
      1.936331     1.928688     1.921045     1.913402     1.905759     1.898115     1.890472     1.882829     1.875186     1.867543
      1.859900     1.852257     1.844614     1.836971     1.829327     1.821684     1.814041     1.806398     1.798755     1.791112
      1.783469     1.775826     1.768183     1.760540     1.752896     1.745253     1.737610     1.729967     1.722324     1.714681
      1.707038     1.699395     1.691752     1.684108     1.676465     1.668822     1.661179     1.653536     1.645893     1.638250
      1.630607     1.622964     1.615321     1.607677     1.600034     1.592391     1.584748     1.577105     1.569462     1.561819
      1.554176     1.546533     1.538890     1.531246     1.523603     1.515960     1.508317     1.500674     1.493031     1.485388
      1.477745     1.470102     1.462458     1.454815     1.447172     1.439529     1.431886     1.424243     1.416600     1.408957
      1.401314     1.393671     1.386027     1.378384     1.370741     1.363098     1.355455     1.347812     1.340169     1.332526
      1.324883     1.317240     1.309596     1.301953     1.294310     1.286667     1.279024     1.271381     1.263738     1.256095
      1.248452     1.240808     1.233165     1.225522     1.217879     1.210236     1.202593     1.194950     1.187307     1.179664
      1.172021     1.164377     1.156734     1.149091     1.141448     1.133805     1.126162     1.118519     1.110876     1.103233
      1.095590     1.087946     1.080303     1.072660     1.065017     1.057374     1.049731     1.042088     1.034445     1.026802
      1.019158     1.011515     1.003872     0.996229     0.988586     0.980943     0.973300     0.965657     0.958014     0.950371
      0.942727     0.935084     0.927441     0.919798     0.912155     0.904512     0.896869     0.889226     0.881583     0.873940
      0.866296     0.858653     0.851010     0.843367     0.835724     0.828081     0.820438     0.812795     0.805152     0.797508
      0.789865     0.782222     0.774579     0.766936     0.759293     0.751650     0.744007     0.736364     0.728721     0.721077
      0.713434     0.705791     0.698148     0.690505     0.682862     0.675219     0.667576     0.659933     0.652290     0.644646
      0.637003     0.629360     0.621717     0.614074     0.606431     0.598788     0.591145     0.583502     0.575858     0.568215
      0.560572     0.552929     0.545286     0.537643     0.530000     0.522357     0.514714     0.507071     0.499427     0.491784
      0.484141     0.476498     0.468855     0.461212     0.453569     0.445925     0.438282     0.430639     0.422996     0.415353
      0.407710     0.400067     0.392424     0.384780     0.377137     0.369494     0.361851     0.354208     0.346565     0.338922
      0.331278     0.323635     0.315992     0.308349     0.300706     0.293063     0.285420     0.277777     0.270133     0.262490
      0.254847     0.247204     0.239561     0.231918     0.224275     0.216631     0.208988     0.201345
 NY phased data points follow
   2.54647E+00  7.38964E-01  3.08110E+00  5.52894E+00  2.20693E+00 -1.73578E+00 -3.14840E+00  2.69331E+00  8.35783E-02 -2.67898E-02
  -2.37025E+00  2.62417E+00  8.64919E-01 -1.87631E+00 -2.01940E+00 -2.78501E+00 -1.30321E+00  1.09504E-01 -3.82371E+00 -9.79015E-01
  -2.79846E+00 -2.90432E+00 -2.47540E+00  3.36473E-01 -3.96064E+00 -1.81488E+00 -3.31977E+00 -2.79203E+00 -6.05556E+00  1.16508E+00
  -2.54825E+00 -8.32534E-01 -5.16368E+00 -3.86748E+00 -2.40745E+00  4.26260E-01 -5.75205E-01 -3.39910E+00 -6.53442E+00 -7.20946E+00
  -2.78387E+00 -6.20797E+00 -4.07039E+00 -4.35162E+00 -4.23141E+00 -6.31964E+00 -7.03170E+00 -5.52215E+00 -4.47662E+00 -6.88362E+00
  -9.32338E+00 -5.60763E+00 -6.74416E+00 -6.33049E+00 -4.26918E+00 -8.80297E+00 -6.36322E+00 -7.19743E+00 -8.67374E+00 -7.31760E+00
  -4.27524E+00 -6.48016E+00 -6.91320E+00 -7.28459E+00 -1.12714E+01 -6.33081E+00 -1.07187E+01 -5.74161E+00 -9.29560E+00 -1.06434E+01
  -1.00604E+01 -6.66628E+00 -1.09999E+01 -1.13891E+01 -9.87560E+00 -1.04299E+01 -1.29987E+01 -8.41709E+00 -9.83641E+00 -1.17222E+01
  -8.69985E+00 -1.11114E+01 -1.00186E+01 -1.00534E+01 -1.09879E+01 -9.32630E+00 -1.15796E+01 -6.79797E+00 -1.43982E+01 -7.00188E+00
  -1.44651E+01 -1.04139E+01 -1.13602E+01 -1.09407E+01 -1.05121E+01 -1.21679E+01 -1.01927E+01 -1.09571E+01 -1.40076E+01 -1.62111E+01
  -1.36004E+01 -1.66739E+01 -1.47028E+01 -1.09541E+01 -1.46066E+01 -1.22577E+01 -1.30792E+01 -1.56199E+01 -1.11625E+01 -1.38569E+01
  -1.64800E+01 -1.43482E+01 -1.35668E+01 -1.40794E+01 -1.62749E+01 -1.59000E+01 -1.20480E+01 -1.38619E+01 -1.55672E+01 -1.45339E+01
  -1.67423E+01 -1.78185E+01 -1.50903E+01 -1.34455E+01 -1.72483E+01 -1.68177E+01 -1.83223E+01 -1.50462E+01 -1.74411E+01 -1.56261E+01
  -2.10734E+01 -1.61803E+01 -1.85399E+01 -1.57971E+01 -1.96887E+01 -1.73849E+01 -2.08653E+01 -1.52529E+01 -1.88141E+01 -1.83154E+01
  -1.80615E+01 -2.02135E+01 -1.43035E+01 -1.89333E+01 -1.62041E+01 -1.87876E+01 -1.91384E+01 -1.83022E+01 -2.05183E+01 -1.92835E+01
  -2.23866E+01 -1.73850E+01 -1.90778E+01 -1.99605E+01 -2.14457E+01 -2.18594E+01 -2.10946E+01 -2.19879E+01 -2.24411E+01 -1.99937E+01
  -2.25142E+01 -1.99767E+01 -1.93067E+01 -2.19032E+01 -2.09969E+01 -1.98342E+01 -2.23540E+01 -2.15574E+01 -2.42398E+01 -2.28110E+01
  -2.53828E+01 -2.20996E+01 -2.34284E+01 -2.14607E+01 -2.95314E+01 -2.45325E+01 -2.45108E+01 -2.62831E+01 -2.41762E+01 -2.80430E+01
  -2.55798E+01 -2.31889E+01 -2.47369E+01 -2.83308E+01 -2.86394E+01 -2.75876E+01 -2.73116E+01 -2.49236E+01 -2.47880E+01 -2.23803E+01
  -2.74205E+01 -2.66580E+01 -2.72868E+01 -2.19620E+01 -2.58997E+01 -2.80431E+01 -2.73489E+01 -2.83535E+01 -2.50236E+01 -2.48963E+01
  -2.24332E+01 -2.84919E+01 -2.53060E+01 -2.59433E+01 -2.81748E+01 -2.84725E+01 -2.90580E+01 -2.39175E+01 -2.52293E+01 -2.20943E+01
  -2.23083E+01 -2.83099E+01 -2.78548E+01 -2.75072E+01 -2.55603E+01 -2.54798E+01 -2.46634E+01 -2.63582E+01 -2.67741E+01 -2.21416E+01
  -2.63658E+01 -2.61987E+01 -2.77191E+01 -2.29875E+01 -2.30354E+01 -2.58562E+01 -2.54250E+01 -2.54190E+01 -2.51014E+01 -2.88608E+01
  -2.53557E+01 -2.64164E+01 -2.28047E+01 -2.78481E+01 -2.72166E+01 -2.72328E+01 -2.83902E+01 -2.35905E+01 -2.60515E+01 -2.74930E+01
  -2.67438E+01 -2.86954E+01 -2.67306E+01 -2.82253E+01 -2.55655E+01 -2.26607E+01 -2.64589E+01 -2.44854E+01 -2.21291E+01 -2.31515E+01
  -2.47544E+01 -2.81533E+01 -2.52414E+01 -2.35857E+01 -2.86550E+01 -2.46140E+01 -2.87436E+01 -2.87821E+01 -2.84299E+01 -2.88032E+01
  -2.79725E+01 -2.76574E+01 -2.84889E+01 -2.86466E+01 -2.67613E+01 -2.58389E+01 -2.88498E+01 -2.91726E+01 -2.61703E+01 -2.68224E+01
  -2.71512E+01 -2.71971E+01 -2.65821E+01 -2.42833E+01 -2.51239E+01 -2.81234E+01 -2.52640E+01 -2.71481E+01 -2.36580E+01 -2.17471E+01
  -2.08291E+01 -2.02839E+01 -1.91427E+01 -2.13644E+01 -1.79079E+01 -2.04421E+01 -1.46617E+01 -1.57463E+01 -1.66679E+01 -1.68961E+01
  -1.33170E+01 -9.43513E+00 -6.97995E+00 -6.42522E+00 -4.42938E+00 -6.39936E-01 -2.36602E+00  1.03795E+00  3.63602E+00  2.12111E+00
   6.05322E+00  6.90730E+00  9.28585E+00  1.43465E+01  1.81544E+01  2.18713E+01  2.44300E+01  2.84548E+01  3.31576E+01  3.88149E+01
   3.85086E+01  4.61379E+01  5.18737E+01  5.64222E+01  6.62537E+01  6.90709E+01  7.65119E+01  8.10718E+01  8.92209E+01  9.87693E+01
   1.03206E+02  1.09947E+02  1.16748E+02  1.18741E+02  1.24570E+02  1.22463E+02  1.28600E+02  1.26817E+02  1.28441E+02  1.25333E+02
   1.28563E+02  1.30949E+02  1.32337E+02  1.30803E+02  1.36709E+02  1.35517E+02  1.36253E+02  1.39321E+02  1.35302E+02  1.38560E+02
   1.32596E+02  1.30315E+02  1.26006E+02  1.23402E+02  1.15576E+02  1.13769E+02  1.05512E+02  9.47150E+01  9.19645E+01  8.62791E+01
   8.17725E+01  7.40215E+01  7.23778E+01  6.75738E+01  6.40702E+01  6.19800E+01  5.54718E+01  5.35431E+01  5.83957E+01  5.25585E+01
   5.03101E+01  4.69255E+01  4.91326E+01  4.81357E+01  4.31718E+01  4.53231E+01  4.51586E+01  4.66268E+01  4.49434E+01  4.01850E+01
   4.53935E+01  4.36176E+01  3.95108E+01  4.36031E+01  4.25506E+01  3.86486E+01  3.95236E+01  3.87048E+01  3.61086E+01  3.60611E+01
   3.57304E+01  3.48599E+01  3.17601E+01  3.63124E+01  3.31941E+01  3.12296E+01  2.71174E+01  2.64776E+01  3.19009E+01  2.63359E+01
   2.95126E+01  2.72245E+01  2.66194E+01  2.65307E+01  2.98734E+01  2.20607E+01  2.02548E+01  2.07749E+01  1.76504E+01  1.58720E+01
   1.72253E+01  1.25296E+01  1.29422E+01  9.05963E+00  1.10078E+01  8.56852E+00  8.10359E+00  6.83918E+00  9.14577E+00  6.67798E+00
   4.24590E+00  4.77359E+00  2.39835E+00  1.76004E+00  3.07831E+00 -2.98495E+00 -2.45015E-01 -3.37751E+00  1.01228E+00 -1.33417E+00
  -1.68877E+00 -3.27002E+00 -2.64402E+00 -7.66498E+00 -4.49807E+00 -7.85880E+00 -9.37594E+00 -8.63166E+00 -1.08853E+01 -9.96832E+00
  -8.71290E+00 -8.49715E+00 -1.39532E+01 -1.05371E+01 -1.38169E+01 -1.13331E+01 -1.53676E+01 -1.19263E+01 -1.21387E+01 -1.02008E+01
  -1.79944E+01 -1.74985E+01 -1.33428E+01 -1.76399E+01 -1.54576E+01 -1.76175E+01 -1.68377E+01 -1.92879E+01 -2.17863E+01 -1.39703E+01
  -2.24501E+01 -1.84892E+01 -1.85385E+01 -2.05992E+01 -1.84923E+01 -2.13816E+01 -2.06827E+01 -1.99745E+01 -2.02648E+01 -2.08189E+01
  -2.02104E+01 -2.23324E+01 -2.68804E+01 -1.97854E+01 -2.19863E+01 -2.05967E+01 -2.03613E+01 -2.09500E+01 -2.35934E+01 -2.26136E+01
  -2.29761E+01 -2.30894E+01 -2.56988E+01 -2.29442E+01 -2.32828E+01 -2.39598E+01 -2.31779E+01 -2.16532E+01 -2.24234E+01 -2.50653E+01
  -2.07082E+01 -2.74109E+01 -2.51603E+01 -2.50763E+01 -2.50666E+01 -2.10535E+01 -2.69401E+01 -2.42270E+01 -2.39825E+01 -2.09960E+01
  -2.22580E+01 -2.19383E+01 -2.17112E+01 -2.21819E+01 -2.16156E+01 -2.19690E+01 -2.34058E+01 -2.52500E+01
 NY points of the fit to the data follow
   3.35579E+00  3.30424E+00  2.83991E+00  2.79337E+00  2.30944E+00  2.26633E+00  1.78695E+00  1.74112E+00  1.27517E+00  1.22968E+00
   7.83614E-01  7.40558E-01  3.15234E-01  2.83644E-01 -1.14555E-01 -1.62103E-01 -5.35640E-01 -6.11102E-01 -9.55426E-01 -1.06383E+00
  -1.36507E+00 -1.49598E+00 -1.75431E+00 -1.90647E+00 -2.12688E+00 -2.29548E+00 -2.48015E+00 -2.65716E+00 -2.80286E+00 -2.97664E+00
  -3.09184E+00 -3.26163E+00 -3.39420E+00 -3.56583E+00 -3.70572E+00 -3.88051E+00 -4.02517E+00 -4.20401E+00 -4.35091E+00 -4.53188E+00
  -4.67891E+00 -4.85864E+00 -5.00497E+00 -5.18171E+00 -5.32844E+00 -5.50336E+00 -5.65356E+00 -5.82731E+00 -5.98515E+00 -6.15247E+00
  -6.30995E+00 -6.46699E+00 -6.62111E+00 -6.76926E+00 -6.91953E+00 -7.07511E+00 -7.22734E+00 -7.38567E+00 -7.53750E+00 -7.69568E+00
  -7.84386E+00 -7.99644E+00 -8.14468E+00 -8.29410E+00 -8.44258E+00 -8.58910E+00 -8.73596E+00 -8.87853E+00 -9.02152E+00 -9.16351E+00
  -9.30362E+00 -9.44622E+00 -9.58253E+00 -9.72598E+00 -9.85744E+00 -1.00018E+01 -1.01288E+01 -1.02727E+01 -1.03938E+01 -1.05337E+01
  -1.06454E+01 -1.07765E+01 -1.08736E+01 -1.09830E+01 -1.10388E+01 -1.10828E+01 -1.11535E+01 -1.11682E+01 -1.12828E+01 -1.12885E+01
  -1.14602E+01 -1.14723E+01 -1.16984E+01 -1.17233E+01 -1.19983E+01 -1.20445E+01 -1.23536E+01 -1.24214E+01 -1.27470E+01 -1.28340E+01
  -1.31553E+01 -1.32510E+01 -1.35483E+01 -1.36361E+01 -1.39012E+01 -1.39717E+01 -1.41972E+01 -1.42301E+01 -1.43521E+01 -1.43385E+01
  -1.44661E+01 -1.44244E+01 -1.46137E+01 -1.45524E+01 -1.48345E+01 -1.47595E+01 -1.51362E+01 -1.50532E+01 -1.55210E+01 -1.54376E+01
  -1.59697E+01 -1.58864E+01 -1.64463E+01 -1.63531E+01 -1.69032E+01 -1.67895E+01 -1.73247E+01 -1.72248E+01 -1.77309E+01 -1.76443E+01
  -1.81254E+01 -1.80578E+01 -1.85147E+01 -1.84699E+01 -1.88977E+01 -1.88774E+01 -1.92688E+01 -1.92732E+01 -1.96209E+01 -1.96495E+01
  -1.99511E+01 -2.00037E+01 -2.02572E+01 -2.03303E+01 -2.05287E+01 -2.06132E+01 -2.07428E+01 -2.08225E+01 -2.08851E+01 -2.09565E+01
  -2.10348E+01 -2.11172E+01 -2.12051E+01 -2.12943E+01 -2.13894E+01 -2.14834E+01 -2.15838E+01 -2.16814E+01 -2.17856E+01 -2.18861E+01
  -2.19931E+01 -2.20956E+01 -2.22043E+01 -2.23078E+01 -2.24172E+01 -2.25204E+01 -2.26285E+01 -2.27304E+01 -2.28365E+01 -2.29368E+01
  -2.30408E+01 -2.31393E+01 -2.32409E+01 -2.33379E+01 -2.34377E+01 -2.35353E+01 -2.36371E+01 -2.37343E+01 -2.38434E+01 -2.39368E+01
  -2.40496E+01 -2.41340E+01 -2.42426E+01 -2.43049E+01 -2.44003E+01 -2.44428E+01 -2.45292E+01 -2.45518E+01 -2.46409E+01 -2.46572E+01
  -2.47632E+01 -2.47950E+01 -2.49354E+01 -2.49574E+01 -2.51134E+01 -2.51174E+01 -2.52801E+01 -2.52624E+01 -2.54236E+01 -2.53861E+01
  -2.55383E+01 -2.54804E+01 -2.56147E+01 -2.55414E+01 -2.56551E+01 -2.55732E+01 -2.56689E+01 -2.55895E+01 -2.56746E+01 -2.56078E+01
  -2.56887E+01 -2.56368E+01 -2.57142E+01 -2.56748E+01 -2.57472E+01 -2.57196E+01 -2.57888E+01 -2.57804E+01 -2.58585E+01 -2.58534E+01
  -2.59266E+01 -2.59100E+01 -2.59662E+01 -2.59253E+01 -2.59744E+01 -2.59345E+01 -2.59865E+01 -2.59628E+01 -2.60247E+01 -2.60290E+01
  -2.60995E+01 -2.61284E+01 -2.61968E+01 -2.62218E+01 -2.62631E+01 -2.62844E+01 -2.63017E+01 -2.63155E+01 -2.63116E+01 -2.63145E+01
  -2.62887E+01 -2.62807E+01 -2.62332E+01 -2.62179E+01 -2.61523E+01 -2.61355E+01 -2.60558E+01 -2.60414E+01 -2.59515E+01 -2.59388E+01
  -2.58401E+01 -2.58264E+01 -2.57206E+01 -2.57033E+01 -2.55938E+01 -2.55726E+01 -2.54647E+01 -2.54390E+01 -2.53365E+01 -2.52936E+01
  -2.51844E+01 -2.51200E+01 -2.50022E+01 -2.49171E+01 -2.47948E+01 -2.46993E+01 -2.45665E+01 -2.44543E+01 -2.43061E+01 -2.41687E+01
  -2.39957E+01 -2.38252E+01 -2.36197E+01 -2.34073E+01 -2.31645E+01 -2.29079E+01 -2.26240E+01 -2.23190E+01 -2.19885E+01 -2.16297E+01
  -2.12422E+01 -2.08209E+01 -2.03637E+01 -1.98655E+01 -1.93232E+01 -1.87307E+01 -1.80833E+01 -1.73732E+01 -1.65940E+01 -1.57360E+01
  -1.47902E+01 -1.37444E+01 -1.25871E+01 -1.13029E+01 -9.87747E+00 -8.29276E+00 -6.53191E+00 -4.57470E+00 -2.40281E+00  4.33696E-03
   2.66427E+00  5.59546E+00  8.81148E+00  1.23248E+01  1.61410E+01  2.02625E+01  2.46829E+01  2.93908E+01  3.43649E+01  3.95783E+01
   4.49945E+01  5.05724E+01  5.62634E+01  6.20169E+01  6.77787E+01  7.34965E+01  7.91190E+01  8.46010E+01  8.99017E+01  9.49898E+01
   9.98403E+01  1.04438E+02  1.08773E+02  1.12844E+02  1.16649E+02  1.20192E+02  1.23472E+02  1.26487E+02  1.29228E+02  1.31679E+02
   1.33816E+02  1.35609E+02  1.37021E+02  1.38011E+02  1.38537E+02  1.38558E+02  1.38038E+02  1.36951E+02  1.35280E+02  1.33025E+02
   1.30196E+02  1.26824E+02  1.22951E+02  1.18637E+02  1.13951E+02  1.08975E+02  1.03794E+02  9.84995E+01  9.31808E+01  8.79267E+01
   8.28176E+01  7.79285E+01  7.33215E+01  6.90498E+01  6.51514E+01  6.16537E+01  5.85683E+01  5.58964E+01  5.36243E+01  5.17297E+01
   5.01779E+01  4.89283E+01  4.79319E+01  4.71382E+01  4.64926E+01  4.59440E+01  4.54426E+01  4.49466E+01  4.44195E+01  4.38365E+01
   4.31804E+01  4.24463E+01  4.16368E+01  4.07649E+01  3.98479E+01  3.89096E+01  3.79729E+01  3.70627E+01  3.61978E+01  3.53947E+01
   3.46608E+01  3.39985E+01  3.34005E+01  3.28552E+01  3.23426E+01  3.18416E+01  3.13258E+01  3.07715E+01  3.01540E+01  2.94547E+01
   2.86569E+01  2.77526E+01  2.67369E+01  2.56140E+01  2.43911E+01  2.30830E+01  2.17054E+01  2.02799E+01  1.88262E+01  1.73670E+01
   1.59212E+01  1.45084E+01  1.31425E+01  1.18370E+01  1.05991E+01  9.43501E+00  8.34482E+00  7.32835E+00  6.37980E+00  5.49421E+00
   4.66214E+00  3.87609E+00  3.12519E+00  2.40159E+00  1.69496E+00  9.98814E-01  3.04757E-01 -3.91346E-01 -1.09522E+00 -1.80821E+00
  -2.53337E+00 -3.26945E+00 -4.01712E+00 -4.77312E+00 -5.53644E+00 -6.30254E+00 -7.06952E+00 -7.83225E+00 -8.58863E+00 -9.33362E+00
  -1.00654E+01 -1.07796E+01 -1.14749E+01 -1.21478E+01 -1.27978E+01 -1.34220E+01 -1.40211E+01 -1.45928E+01 -1.51384E+01 -1.56564E+01
  -1.61486E+01 -1.66139E+01 -1.70546E+01 -1.74698E+01 -1.78620E+01 -1.82307E+01 -1.85783E+01 -1.89044E+01 -1.92115E+01 -1.94991E+01
  -1.97698E+01 -2.00230E+01 -2.02611E+01 -2.04835E+01 -2.06926E+01 -2.08877E+01 -2.10710E+01 -2.12418E+01 -2.14021E+01 -2.15512E+01
  -2.16911E+01 -2.18209E+01 -2.19426E+01 -2.20551E+01 -2.21605E+01 -2.22576E+01 -2.23483E+01 -2.24315E+01 -2.25090E+01 -2.25797E+01
  -2.26453E+01 -2.27047E+01 -2.27595E+01 -2.28085E+01 -2.28536E+01 -2.28933E+01 -2.29294E+01 -2.29605E+01 -2.29884E+01 -2.30117E+01
  -2.30321E+01 -2.30481E+01 -2.30616E+01 -2.30711E+01 -2.30782E+01 -2.30815E+01 -2.30827E+01 -2.30804E+01 -2.30761E+01 -2.30685E+01
  -2.30592E+01 -2.30467E+01 -2.30327E+01 -2.30156E+01 -2.29972E+01 -2.29760E+01 -2.29535E+01 -2.29284E+01
 NY background values follow
    -1.365E+01   -1.386E+01   -1.407E+01   -1.428E+01   -1.449E+01   -1.470E+01   -1.490E+01   -1.511E+01   -1.532E+01   -1.553E+01
    -1.573E+01   -1.594E+01   -1.615E+01   -1.635E+01   -1.656E+01   -1.676E+01   -1.696E+01   -1.717E+01   -1.737E+01   -1.758E+01
    -1.778E+01   -1.798E+01   -1.818E+01   -1.838E+01   -1.858E+01   -1.878E+01   -1.898E+01   -1.918E+01   -1.938E+01   -1.958E+01
    -1.978E+01   -1.998E+01   -2.017E+01   -2.037E+01   -2.057E+01   -2.076E+01   -2.096E+01   -2.115E+01   -2.135E+01   -2.154E+01
    -2.173E+01   -2.193E+01   -2.212E+01   -2.231E+01   -2.250E+01   -2.269E+01   -2.288E+01   -2.307E+01   -2.326E+01   -2.345E+01
    -2.364E+01   -2.383E+01   -2.402E+01   -2.420E+01   -2.439E+01   -2.458E+01   -2.476E+01   -2.495E+01   -2.513E+01   -2.531E+01
    -2.550E+01   -2.568E+01   -2.586E+01   -2.604E+01   -2.623E+01   -2.641E+01   -2.659E+01   -2.677E+01   -2.694E+01   -2.712E+01
    -2.730E+01   -2.748E+01   -2.766E+01   -2.783E+01   -2.801E+01   -2.818E+01   -2.836E+01   -2.853E+01   -2.870E+01   -2.888E+01
    -2.905E+01   -2.922E+01   -2.939E+01   -2.956E+01   -2.973E+01   -2.990E+01   -3.007E+01   -3.024E+01   -3.040E+01   -3.057E+01
    -3.074E+01   -3.090E+01   -3.107E+01   -3.123E+01   -3.140E+01   -3.156E+01   -3.172E+01   -3.189E+01   -3.205E+01   -3.221E+01
    -3.237E+01   -3.253E+01   -3.269E+01   -3.284E+01   -3.300E+01   -3.316E+01   -3.332E+01   -3.347E+01   -3.363E+01   -3.378E+01
    -3.394E+01   -3.409E+01   -3.424E+01   -3.439E+01   -3.454E+01   -3.469E+01   -3.485E+01   -3.499E+01   -3.514E+01   -3.529E+01
    -3.544E+01   -3.559E+01   -3.573E+01   -3.588E+01   -3.602E+01   -3.617E+01   -3.631E+01   -3.645E+01   -3.659E+01   -3.674E+01
    -3.688E+01   -3.702E+01   -3.716E+01   -3.730E+01   -3.743E+01   -3.757E+01   -3.771E+01   -3.784E+01   -3.798E+01   -3.811E+01
    -3.825E+01   -3.838E+01   -3.851E+01   -3.865E+01   -3.878E+01   -3.891E+01   -3.904E+01   -3.917E+01   -3.929E+01   -3.942E+01
    -3.955E+01   -3.968E+01   -3.980E+01   -3.993E+01   -4.005E+01   -4.017E+01   -4.030E+01   -4.042E+01   -4.054E+01   -4.066E+01
    -4.078E+01   -4.090E+01   -4.102E+01   -4.114E+01   -4.125E+01   -4.137E+01   -4.148E+01   -4.160E+01   -4.171E+01   -4.183E+01
    -4.194E+01   -4.205E+01   -4.216E+01   -4.227E+01   -4.238E+01   -4.249E+01   -4.260E+01   -4.271E+01   -4.282E+01   -4.292E+01
    -4.303E+01   -4.313E+01   -4.324E+01   -4.334E+01   -4.344E+01   -4.354E+01   -4.364E+01   -4.374E+01   -4.384E+01   -4.394E+01
    -4.404E+01   -4.414E+01   -4.423E+01   -4.433E+01   -4.442E+01   -4.452E+01   -4.461E+01   -4.470E+01   -4.479E+01   -4.489E+01
    -4.498E+01   -4.507E+01   -4.515E+01   -4.524E+01   -4.533E+01   -4.542E+01   -4.550E+01   -4.559E+01   -4.567E+01   -4.575E+01
    -4.584E+01   -4.592E+01   -4.600E+01   -4.608E+01   -4.616E+01   -4.624E+01   -4.632E+01   -4.639E+01   -4.647E+01   -4.655E+01
    -4.662E+01   -4.670E+01   -4.677E+01   -4.684E+01   -4.691E+01   -4.698E+01   -4.706E+01   -4.712E+01   -4.719E+01   -4.726E+01
    -4.733E+01   -4.739E+01   -4.746E+01   -4.753E+01   -4.759E+01   -4.765E+01   -4.772E+01   -4.778E+01   -4.784E+01   -4.790E+01
    -4.796E+01   -4.802E+01   -4.807E+01   -4.813E+01   -4.819E+01   -4.824E+01   -4.830E+01   -4.835E+01   -4.840E+01   -4.846E+01
    -4.851E+01   -4.856E+01   -4.861E+01   -4.866E+01   -4.871E+01   -4.875E+01   -4.880E+01   -4.885E+01   -4.889E+01   -4.894E+01
    -4.898E+01   -4.902E+01   -4.906E+01   -4.911E+01   -4.915E+01   -4.919E+01   -4.923E+01   -4.926E+01   -4.930E+01   -4.934E+01
    -4.937E+01   -4.941E+01   -4.944E+01   -4.948E+01   -4.951E+01   -4.954E+01   -4.957E+01   -4.960E+01   -4.963E+01   -4.966E+01
    -4.969E+01   -4.971E+01   -4.974E+01   -4.977E+01   -4.979E+01   -4.982E+01   -4.984E+01   -4.986E+01   -4.988E+01   -4.990E+01
    -4.992E+01   -4.994E+01   -4.996E+01   -4.998E+01   -5.000E+01   -5.001E+01   -5.003E+01   -5.004E+01   -5.006E+01   -5.007E+01
    -5.008E+01   -5.009E+01   -5.011E+01   -5.012E+01   -5.012E+01   -5.013E+01   -5.014E+01   -5.015E+01   -5.015E+01   -5.016E+01
    -5.016E+01   -5.017E+01   -5.017E+01   -5.017E+01   -5.017E+01   -5.018E+01   -5.018E+01   -5.018E+01   -5.017E+01   -5.017E+01
    -5.017E+01   -5.016E+01   -5.016E+01   -5.015E+01   -5.015E+01   -5.014E+01   -5.013E+01   -5.013E+01   -5.012E+01   -5.011E+01
    -5.010E+01   -5.009E+01   -5.007E+01   -5.006E+01   -5.005E+01   -5.003E+01   -5.002E+01   -5.000E+01   -4.999E+01   -4.997E+01
    -4.995E+01   -4.993E+01   -4.991E+01   -4.989E+01   -4.987E+01   -4.985E+01   -4.983E+01   -4.980E+01   -4.978E+01   -4.975E+01
    -4.973E+01   -4.970E+01   -4.968E+01   -4.965E+01   -4.962E+01   -4.959E+01   -4.956E+01   -4.953E+01   -4.950E+01   -4.947E+01
    -4.943E+01   -4.940E+01   -4.937E+01   -4.933E+01   -4.930E+01   -4.926E+01   -4.922E+01   -4.919E+01   -4.915E+01   -4.911E+01
    -4.907E+01   -4.903E+01   -4.899E+01   -4.895E+01   -4.890E+01   -4.886E+01   -4.882E+01   -4.877E+01   -4.873E+01   -4.868E+01
    -4.863E+01   -4.858E+01   -4.854E+01   -4.849E+01   -4.844E+01   -4.839E+01   -4.834E+01   -4.829E+01   -4.823E+01   -4.818E+01
    -4.813E+01   -4.807E+01   -4.802E+01   -4.796E+01   -4.790E+01   -4.785E+01   -4.779E+01   -4.773E+01   -4.767E+01   -4.761E+01
    -4.755E+01   -4.749E+01   -4.743E+01   -4.737E+01   -4.730E+01   -4.724E+01   -4.718E+01   -4.711E+01   -4.705E+01   -4.698E+01
    -4.691E+01   -4.685E+01   -4.678E+01   -4.671E+01   -4.664E+01   -4.657E+01   -4.650E+01   -4.643E+01   -4.635E+01   -4.628E+01
    -4.621E+01   -4.613E+01   -4.606E+01   -4.598E+01   -4.591E+01   -4.583E+01   -4.575E+01   -4.568E+01   -4.560E+01   -4.552E+01
    -4.544E+01   -4.536E+01   -4.528E+01   -4.520E+01   -4.512E+01   -4.503E+01   -4.495E+01   -4.487E+01   -4.478E+01   -4.470E+01
    -4.461E+01   -4.453E+01   -4.444E+01   -4.435E+01   -4.426E+01   -4.418E+01   -4.409E+01   -4.400E+01   -4.391E+01   -4.382E+01
    -4.372E+01   -4.363E+01   -4.354E+01   -4.345E+01   -4.335E+01   -4.326E+01   -4.316E+01   -4.307E+01   -4.297E+01   -4.288E+01
    -4.278E+01   -4.268E+01   -4.258E+01   -4.248E+01   -4.239E+01   -4.229E+01   -4.219E+01   -4.208E+01   -4.198E+01   -4.188E+01
    -4.178E+01   -4.168E+01   -4.157E+01   -4.147E+01   -4.136E+01   -4.126E+01   -4.115E+01   -4.105E+01   -4.094E+01   -4.083E+01
    -4.073E+01   -4.062E+01   -4.051E+01   -4.040E+01   -4.029E+01   -4.018E+01   -4.007E+01   -3.996E+01   -3.985E+01   -3.973E+01
    -3.962E+01   -3.951E+01   -3.939E+01   -3.928E+01   -3.917E+01   -3.905E+01   -3.893E+01   -3.882E+01
 Asp      Conc. = 1.26E+01
