 LCModel (Version 6.3-1L) Copyright: S.W. Provencher.          Ref.: Magn. Reson. Med. 30:672-679 (1993).                
 Slice#1 Row#12 Col#5  K_02_press_1_raw_act
 36 lines in following concentration table = NCONC+1
    Conc.  %SD /Cr+PCr  Metabolite                                         
   84.473 140% 7.4E-02 Ala                                                 
    0.000 999%   0.000 Asp                                                 
  508.511  47%   0.448 Cr                                                  
  626.679  39%   0.552 PCr                                                 
    0.000 999%   0.000 GABA                                                
    0.000 999%   0.000 Glc                                                 
  554.685  43%   0.489 Gln                                                 
 1.09E+03  25%   0.956 Glu                                                 
  412.447   5%   0.363 GPC                                                 
    0.000 999%   0.000 PCh                                                 
  358.948  20%   0.316 GSH                                                 
 1.47E+03  18%   1.297 Ins                                                 
  527.506  26%   0.465 Lac                                                 
 2.04E+03   8%   1.798 NAA                                                 
  382.019  44%   0.337 NAAG                                                
   95.954  27% 8.5E-02 Scyllo                                              
    0.000 999%   0.000 Tau                                                 
  332.989  33%   0.293 -CrCH2                                              
  412.447   5%   0.363 GPC+PCh                                             
 2.42E+03   3%   2.135 NAA+NAAG                                            
 1.14E+03   5%   1.000 Cr+PCr                                              
 1.64E+03  25%   1.445 Glu+Gln                                             
 2.05E+03  32%   1.810 Lip13a                                              
    0.000 999%   0.000 Lip13b                                              
  441.177  65%   0.389 Lip09                                               
 1.47E+03  21%   1.298 MM09                                                
  465.199  41%   0.410 Lip20                                               
 2.38E+03  17%   2.099 MM20                                                
  592.751  39%   0.522 MM12                                                
 1.14E+03  30%   1.001 MM14                                                
  775.253  30%   0.683 MM17                                                
 2.05E+03  32%   1.810 Lip13a+Lip13b                                       
 3.78E+03  13%   3.333 MM14+Lip13a+Lip13b+MM12                             
 1.92E+03  11%   1.687 MM09+Lip09                                          
 2.85E+03  14%   2.509 MM20+Lip20                                          
   6 lines in following misc. output table
  FWHM = 0.061 ppm    S/N =  13                                            
  Data shift = 0.000 ppm                                                   
  Ph: -32 deg      -7.3 deg/ppm                                            
  alphaB,S = 1.1E+00,   9.7E+01                                            
   14 spline knots.   Ns = 8(1)                                            
  (13) 6 infls.   (13) 1 extrs.                                            
  498 points on ppm-axis = NY
      4.000000     3.992357     3.984714     3.977070     3.969427     3.961784     3.954141     3.946497     3.938854     3.931211
      3.923568     3.915925     3.908281     3.900638     3.892995     3.885352     3.877708     3.870065     3.862422     3.854779
      3.847136     3.839492     3.831849     3.824206     3.816563     3.808919     3.801276     3.793633     3.785990     3.778347
      3.770703     3.763060     3.755417     3.747774     3.740130     3.732487     3.724844     3.717201     3.709558     3.701914
      3.694271     3.686628     3.678985     3.671341     3.663698     3.656055     3.648412     3.640769     3.633125     3.625482
      3.617839     3.610196     3.602552     3.594909     3.587266     3.579623     3.571980     3.564336     3.556693     3.549050
      3.541407     3.533763     3.526120     3.518477     3.510834     3.503191     3.495547     3.487904     3.480261     3.472618
      3.464974     3.457331     3.449688     3.442045     3.434402     3.426758     3.419115     3.411472     3.403829     3.396185
      3.388542     3.380899     3.373256     3.365613     3.357969     3.350326     3.342683     3.335040     3.327396     3.319753
      3.312110     3.304467     3.296824     3.289180     3.281537     3.273894     3.266251     3.258607     3.250964     3.243321
      3.235678     3.228034     3.220391     3.212748     3.205105     3.197462     3.189818     3.182175     3.174532     3.166889
      3.159245     3.151602     3.143959     3.136316     3.128673     3.121029     3.113386     3.105743     3.098100     3.090456
      3.082813     3.075170     3.067527     3.059884     3.052240     3.044597     3.036954     3.029311     3.021667     3.014024
      3.006381     2.998738     2.991095     2.983451     2.975808     2.968165     2.960522     2.952878     2.945235     2.937592
      2.929949     2.922306     2.914662     2.907019     2.899376     2.891733     2.884089     2.876446     2.868803     2.861160
      2.853517     2.845873     2.838230     2.830587     2.822944     2.815300     2.807657     2.800014     2.792371     2.784728
      2.777084     2.769441     2.761798     2.754155     2.746511     2.738868     2.731225     2.723582     2.715939     2.708295
      2.700652     2.693009     2.685366     2.677722     2.670079     2.662436     2.654793     2.647150     2.639506     2.631863
      2.624220     2.616577     2.608933     2.601290     2.593647     2.586004     2.578361     2.570717     2.563074     2.555431
      2.547788     2.540144     2.532501     2.524858     2.517215     2.509572     2.501928     2.494285     2.486642     2.478999
      2.471355     2.463712     2.456069     2.448426     2.440783     2.433139     2.425496     2.417853     2.410210     2.402566
      2.394923     2.387280     2.379637     2.371994     2.364350     2.356707     2.349064     2.341421     2.333777     2.326134
      2.318491     2.310848     2.303205     2.295561     2.287918     2.280275     2.272632     2.264988     2.257345     2.249702
      2.242059     2.234416     2.226772     2.219129     2.211486     2.203843     2.196199     2.188556     2.180913     2.173270
      2.165627     2.157983     2.150340     2.142697     2.135054     2.127410     2.119767     2.112124     2.104481     2.096838
      2.089194     2.081551     2.073908     2.066265     2.058621     2.050978     2.043335     2.035692     2.028049     2.020405
      2.012762     2.005119     1.997476     1.989833     1.982190     1.974546     1.966903     1.959260     1.951617     1.943974
      1.936331     1.928688     1.921045     1.913402     1.905759     1.898115     1.890472     1.882829     1.875186     1.867543
      1.859900     1.852257     1.844614     1.836971     1.829327     1.821684     1.814041     1.806398     1.798755     1.791112
      1.783469     1.775826     1.768183     1.760540     1.752896     1.745253     1.737610     1.729967     1.722324     1.714681
      1.707038     1.699395     1.691752     1.684108     1.676465     1.668822     1.661179     1.653536     1.645893     1.638250
      1.630607     1.622964     1.615321     1.607677     1.600034     1.592391     1.584748     1.577105     1.569462     1.561819
      1.554176     1.546533     1.538890     1.531246     1.523603     1.515960     1.508317     1.500674     1.493031     1.485388
      1.477745     1.470102     1.462458     1.454815     1.447172     1.439529     1.431886     1.424243     1.416600     1.408957
      1.401314     1.393671     1.386027     1.378384     1.370741     1.363098     1.355455     1.347812     1.340169     1.332526
      1.324883     1.317240     1.309596     1.301953     1.294310     1.286667     1.279024     1.271381     1.263738     1.256095
      1.248452     1.240808     1.233165     1.225522     1.217879     1.210236     1.202593     1.194950     1.187307     1.179664
      1.172021     1.164377     1.156734     1.149091     1.141448     1.133805     1.126162     1.118519     1.110876     1.103233
      1.095590     1.087946     1.080303     1.072660     1.065017     1.057374     1.049731     1.042088     1.034445     1.026802
      1.019158     1.011515     1.003872     0.996229     0.988586     0.980943     0.973300     0.965657     0.958014     0.950371
      0.942727     0.935084     0.927441     0.919798     0.912155     0.904512     0.896869     0.889226     0.881583     0.873940
      0.866296     0.858653     0.851010     0.843367     0.835724     0.828081     0.820438     0.812795     0.805152     0.797508
      0.789865     0.782222     0.774579     0.766936     0.759293     0.751650     0.744007     0.736364     0.728721     0.721077
      0.713434     0.705791     0.698148     0.690505     0.682862     0.675219     0.667576     0.659933     0.652290     0.644646
      0.637003     0.629360     0.621717     0.614074     0.606431     0.598788     0.591145     0.583502     0.575858     0.568215
      0.560572     0.552929     0.545286     0.537643     0.530000     0.522357     0.514714     0.507071     0.499427     0.491784
      0.484141     0.476498     0.468855     0.461212     0.453569     0.445925     0.438282     0.430639     0.422996     0.415353
      0.407710     0.400067     0.392424     0.384780     0.377137     0.369494     0.361851     0.354208     0.346565     0.338922
      0.331278     0.323635     0.315992     0.308349     0.300706     0.293063     0.285420     0.277777     0.270133     0.262490
      0.254847     0.247204     0.239561     0.231918     0.224275     0.216631     0.208988     0.201345
 NY phased data points follow
  -2.92491E+01 -2.96873E+01 -2.81547E+01 -2.84440E+01 -3.02543E+01 -2.40838E+01 -2.09411E+01 -2.03513E+01 -1.68014E+01 -1.19113E+01
  -1.19166E+01 -1.13297E+01 -5.65200E+00 -1.21657E+01 -1.33082E+01 -1.62721E+01 -1.66449E+01 -2.29876E+01 -2.72400E+01 -2.67000E+01
  -2.73870E+01 -2.70506E+01 -2.57286E+01 -2.60475E+01 -2.64582E+01 -2.44823E+01 -2.19074E+01 -1.98467E+01 -1.98402E+01 -1.89310E+01
  -1.61253E+01 -1.58591E+01 -1.81705E+01 -1.52116E+01 -1.35219E+01 -1.48808E+01 -1.94716E+01 -1.83846E+01 -1.66216E+01 -2.00990E+01
  -1.66316E+01 -1.82032E+01 -1.61040E+01 -1.22835E+01 -1.39833E+01 -1.07076E+01 -1.19410E+01 -1.34627E+01 -1.07601E+01 -8.23962E+00
  -1.60252E+01 -1.34071E+01 -7.37158E+00 -1.24091E+01 -1.28467E+01 -1.20501E+01 -1.55657E+01 -1.34432E+01 -1.34817E+01 -1.74978E+01
  -1.49019E+01 -1.52927E+01 -1.81978E+01 -1.98791E+01 -2.14920E+01 -1.63816E+01 -1.79698E+01 -1.78371E+01 -2.07945E+01 -1.98420E+01
  -1.57697E+01 -1.78958E+01 -1.68861E+01 -1.84640E+01 -1.67335E+01 -1.77097E+01 -1.62333E+01 -1.59145E+01 -1.82928E+01 -1.62004E+01
  -1.25336E+01 -1.35163E+01 -1.94004E+01 -1.55192E+01 -1.52797E+01 -1.63230E+01 -1.53045E+01 -1.64472E+01 -1.66405E+01 -1.50049E+01
  -1.08851E+01 -1.42541E+01 -9.66154E+00 -7.77691E+00 -9.23092E+00 -8.43071E+00 -8.45422E+00 -7.86219E+00 -1.39773E+00  5.57255E+00
   3.14831E+00  1.10077E+01  1.41575E+01  1.85079E+01  1.74825E+01  1.57660E+01  6.50514E+00  2.61865E+00 -4.90253E+00 -3.46419E+00
  -7.57038E+00 -1.11523E+01 -1.03282E+01 -1.17199E+01 -1.13321E+01 -9.69961E+00 -9.14742E+00 -8.52966E+00 -1.07397E+01 -6.93633E+00
  -7.38444E+00 -6.14953E+00  9.62624E-01  2.98407E+00  8.92286E+00  1.25403E+01  2.13778E+01  2.02548E+01  2.36609E+01  2.05607E+01
   1.38035E+01  6.92065E+00  6.26147E+00  2.67943E+00 -2.57837E+00 -6.61604E+00 -1.08958E+01 -5.53502E+00 -8.44302E+00 -6.84617E+00
  -6.80854E+00 -1.00317E+01 -1.13565E+01 -7.23268E+00 -9.61599E+00 -1.04993E+01 -7.03143E+00 -6.97026E+00 -9.58273E+00 -6.98285E+00
  -7.67119E+00 -9.94865E+00 -4.97832E+00 -1.06349E+01 -6.32858E+00 -1.02008E+01 -6.27604E+00 -7.10837E+00 -6.18223E+00 -5.23595E+00
  -5.68356E+00 -6.90710E+00 -6.11164E+00 -8.99091E+00 -5.30364E+00 -1.36155E+01 -1.22294E+01 -1.26781E+01 -1.36483E+01 -1.44656E+01
  -1.45374E+01 -1.52151E+01 -1.71325E+01 -1.90327E+01 -2.16463E+01 -2.22256E+01 -1.83432E+01 -2.33432E+01 -1.99601E+01 -1.83875E+01
  -1.54922E+01 -1.32259E+01 -1.38984E+01 -1.28701E+01 -1.68880E+01 -1.63854E+01 -1.22989E+01 -1.48681E+01 -1.19299E+01 -1.48314E+01
  -1.41609E+01 -1.16461E+01 -9.33624E+00 -1.35297E+01 -6.32139E+00 -9.48602E+00 -1.07071E+01 -1.42769E+01 -1.13711E+01 -9.40512E+00
  -1.23444E+01 -7.18055E+00 -7.10161E+00 -3.91432E+00 -7.65526E+00 -3.97154E+00 -7.85634E+00 -8.79357E+00 -9.31176E+00 -7.52901E+00
  -8.12924E+00 -1.68736E+00 -4.92372E+00 -4.03224E+00  1.02771E+00 -3.08546E-01 -3.80769E+00 -3.38634E+00 -8.56360E-01 -5.30240E+00
  -5.61246E+00 -9.12108E+00 -4.59779E+00 -8.27879E+00 -7.46190E+00 -2.59947E+00 -3.72247E+00 -3.80299E+00 -1.06413E+00  2.24122E+00
  -1.52637E+00  1.59357E+00  1.60163E+00 -1.32348E+00 -1.08369E+00  1.19039E+00 -6.40939E-01 -1.44188E+00 -1.96349E+00 -6.40097E-01
   9.78274E-02 -3.80216E+00 -3.90741E+00 -4.05520E+00 -4.54207E+00 -1.64031E+00  1.32076E+00  1.37877E+00  1.58136E+00  5.08339E+00
   7.36222E+00  1.39928E+01  1.75255E+01  2.03471E+01  2.91826E+01  3.77763E+01  4.88786E+01  5.78090E+01  5.76904E+01  6.48289E+01
   6.69845E+01  6.97906E+01  5.51771E+01  3.98664E+01  2.96481E+01  2.03763E+01  1.29050E+01  9.94236E+00 -5.40815E-01  2.11134E+00
  -1.99156E+00 -7.06781E+00 -1.29932E+00 -2.36599E+00 -4.40306E+00  2.38709E-01 -2.11380E+00 -4.62162E+00 -1.47235E+00  4.53271E-01
   7.13100E-01  2.94512E+00 -3.78916E+00  7.40612E-01 -1.76216E+00 -4.30061E+00 -2.48175E+00 -3.85586E+00 -6.66699E+00 -3.30278E+00
  -1.12593E+00 -4.64764E+00 -4.48934E+00  8.75882E-01 -2.05742E+00 -1.26934E+00 -3.40515E+00 -3.66572E+00 -3.07939E+00 -2.73503E+00
  -3.10067E+00 -9.86488E-01  6.07703E-01  5.00589E+00  2.20462E+00 -1.41330E+00 -1.23247E+00  3.16391E+00  3.52412E+00  5.37704E-01
   3.17499E-01  3.71024E+00  1.49074E+00  3.87106E+00  2.70750E+00  2.97261E+00  5.53206E-01 -1.10758E+00 -4.33365E+00 -6.54594E+00
  -2.62875E+00 -3.41618E+00 -2.97853E+00 -3.56408E+00 -2.10897E+00  1.66133E+00 -7.60326E-01 -7.52959E-01  1.21942E-01 -9.66102E-01
   2.32333E+00  1.51641E+00  3.19216E+00  2.76376E+00  4.25504E+00  9.79252E+00  6.85233E+00  1.01246E+01  1.06506E+01  1.00313E+01
   1.40192E+01  1.15767E+01  1.72748E+01  1.57683E+01  9.79160E+00  1.36656E+01  1.14559E+01  8.24418E+00  1.13780E+01  6.28452E+00
   4.79371E+00  6.53248E+00  3.20826E+00  6.53172E+00  7.69889E+00  3.46320E+00  5.76637E+00  9.65957E+00  6.32321E+00  8.07055E+00
   9.82123E+00  9.63883E+00  9.37818E+00  1.06562E+01  9.88933E+00  1.14602E+01  8.00002E+00  8.76952E+00  7.91918E+00  7.51270E+00
   7.41662E+00  7.24181E+00  4.44125E+00  2.59795E+00  3.72711E+00  6.75091E+00  2.52571E+00  5.71039E+00  4.53783E+00  2.99458E+00
   2.73087E+00  4.10797E+00  3.45611E+00  3.18617E+00  8.61023E-01  2.64280E-01  4.39882E-01  5.80777E-01  3.97852E+00  1.97792E+00
   5.55141E+00  3.70862E+00  6.14128E+00  7.36709E+00  1.04797E+01  1.00991E+01  6.35805E+00  1.05877E+01  9.51330E+00  1.15507E+01
   1.20982E+01  9.79221E+00  1.49774E+01  1.35480E+01  1.32367E+01  1.36325E+01  1.50639E+01  1.17067E+01  1.10525E+01  1.24605E+01
   1.10331E+01  9.62482E+00  8.26378E+00  7.68600E+00  6.59870E+00  4.33015E+00  1.96183E+00  3.46356E+00  3.44149E+00 -1.04290E-01
   2.34618E+00  9.83918E-01  2.06250E-01  3.78628E+00  1.08805E+00 -2.83589E-01 -7.67594E-02  1.43780E+00  1.80934E+00  1.93522E+00
   2.24390E+00 -2.58460E-01  1.43011E+00 -4.07034E-01  2.33866E+00  5.90076E+00 -2.72193E+00 -2.48351E+00 -8.29604E-01 -2.75812E-01
  -6.97826E-01 -2.65242E+00 -2.96292E+00 -3.43005E+00 -5.98471E-01  2.14829E-01  1.69725E+00 -6.85185E-01  5.92785E-02  1.57024E+00
  -1.36739E+00 -2.28048E+00 -2.24217E+00 -2.76632E-01 -1.41483E+00 -2.12953E+00 -1.95109E+00 -3.07017E+00 -3.28026E+00 -1.87310E+00
   8.35854E-01 -2.21720E+00 -2.26241E+00  3.02986E+00  9.06371E-01 -3.94972E+00 -1.23324E+00 -3.22224E+00  1.44801E-01 -2.39190E+00
  -1.25024E+00 -1.61928E+00  1.26492E-01 -4.49738E+00 -3.43976E+00 -2.65113E+00 -3.75150E+00 -7.13174E-01  1.54208E-01 -4.53712E+00
  -1.45064E+00  5.00676E-01 -2.48386E+00 -2.13833E+00 -1.80566E+00  1.38886E+00 -1.40596E+00  4.05252E+00  8.20060E-01 -7.39794E-01
  -3.45297E-01 -4.83040E+00 -2.13119E+00 -9.34380E-01  8.23019E-01 -2.91428E+00  4.48607E-01 -2.78151E+00
 NY points of the fit to the data follow
  -2.85314E+01 -2.89437E+01 -2.85668E+01 -2.75861E+01 -2.60293E+01 -2.39242E+01 -2.14164E+01 -1.88680E+01 -1.64195E+01 -1.39497E+01
  -1.15767E+01 -1.00034E+01 -1.00556E+01 -1.17406E+01 -1.41444E+01 -1.63327E+01 -1.80881E+01 -1.97073E+01 -2.12253E+01 -2.23419E+01
  -2.30531E+01 -2.34868E+01 -2.36565E+01 -2.34977E+01 -2.31660E+01 -2.25469E+01 -2.15735E+01 -2.03955E+01 -1.91097E+01 -1.75692E+01
  -1.57738E+01 -1.42084E+01 -1.34697E+01 -1.38311E+01 -1.49358E+01 -1.62524E+01 -1.75927E+01 -1.89003E+01 -1.98740E+01 -2.01278E+01
  -1.96473E+01 -1.86465E+01 -1.72239E+01 -1.56135E+01 -1.41257E+01 -1.28659E+01 -1.17508E+01 -1.09473E+01 -1.09488E+01 -1.20506E+01
  -1.38766E+01 -1.56173E+01 -1.68467E+01 -1.76051E+01 -1.80270E+01 -1.81023E+01 -1.77937E+01 -1.72609E+01 -1.67049E+01 -1.62149E+01
  -1.59134E+01 -1.59276E+01 -1.62935E+01 -1.68131E+01 -1.72406E+01 -1.74568E+01 -1.74270E+01 -1.71763E+01 -1.67723E+01 -1.63215E+01
  -1.58798E+01 -1.54882E+01 -1.52125E+01 -1.51252E+01 -1.52384E+01 -1.54511E+01 -1.56434E+01 -1.57743E+01 -1.58554E+01 -1.57818E+01
  -1.56261E+01 -1.54409E+01 -1.51869E+01 -1.49335E+01 -1.47533E+01 -1.45990E+01 -1.44141E+01 -1.42748E+01 -1.43075E+01 -1.46192E+01
  -1.50453E+01 -1.53242E+01 -1.54027E+01 -1.53306E+01 -1.46236E+01 -1.24535E+01 -9.60683E+00 -6.06983E+00 -1.74037E+00  2.77917E+00
   7.07846E+00  1.13661E+01  1.54975E+01  1.81700E+01  1.76363E+01  1.35357E+01  7.75306E+00  2.48051E+00 -1.69113E+00 -5.30973E+00
  -8.65263E+00 -1.10737E+01 -1.21361E+01 -1.25057E+01 -1.26595E+01 -1.27286E+01 -1.27409E+01 -1.26578E+01 -1.21974E+01 -1.04126E+01
  -7.55610E+00 -4.14398E+00  1.65280E-01  4.97754E+00  9.57008E+00  1.39057E+01  1.82001E+01  2.16865E+01  2.26510E+01  1.99733E+01
   1.46448E+01  8.99368E+00  4.39029E+00  5.89500E-01 -2.97455E+00 -6.09800E+00 -8.06785E+00 -8.98567E+00 -9.35414E+00 -9.36010E+00
  -9.14134E+00 -8.83243E+00 -8.54065E+00 -8.33838E+00 -8.28307E+00 -8.37307E+00 -8.55022E+00 -8.77497E+00 -9.01564E+00 -9.24451E+00
  -9.44383E+00 -9.58123E+00 -9.71014E+00 -9.89652E+00 -1.00825E+01 -1.02686E+01 -1.04176E+01 -1.04752E+01 -1.05359E+01 -1.06498E+01
  -1.08511E+01 -1.11046E+01 -1.12765E+01 -1.12706E+01 -1.12079E+01 -1.13107E+01 -1.16645E+01 -1.21818E+01 -1.27189E+01 -1.31425E+01
  -1.34957E+01 -1.38276E+01 -1.40999E+01 -1.43093E+01 -1.44689E+01 -1.46602E+01 -1.47788E+01 -1.46859E+01 -1.44421E+01 -1.42796E+01
  -1.42572E+01 -1.42976E+01 -1.41601E+01 -1.36817E+01 -1.30024E+01 -1.23485E+01 -1.17067E+01 -1.08926E+01 -9.84551E+00 -8.74634E+00
  -7.95949E+00 -7.54080E+00 -7.41521E+00 -7.54825E+00 -7.85733E+00 -8.15462E+00 -8.29371E+00 -8.23569E+00 -7.97425E+00 -7.47076E+00
  -6.71290E+00 -5.91561E+00 -5.44912E+00 -5.38327E+00 -5.78574E+00 -6.65640E+00 -7.76631E+00 -8.96712E+00 -9.92934E+00 -1.04473E+01
  -1.03637E+01 -9.57526E+00 -8.27658E+00 -6.85736E+00 -5.61079E+00 -4.64125E+00 -4.11916E+00 -4.33785E+00 -5.38945E+00 -6.78533E+00
  -7.93618E+00 -8.69247E+00 -9.04427E+00 -8.83453E+00 -7.90573E+00 -6.36277E+00 -4.76108E+00 -3.58474E+00 -2.83497E+00 -2.28793E+00
  -1.91316E+00 -1.77360E+00 -1.76090E+00 -1.60414E+00 -1.27411E+00 -9.28909E-01 -6.03482E-01 -3.28681E-01 -1.31724E-01 -1.18940E-01
  -3.48465E-01 -7.31957E-01 -1.03969E+00 -1.07427E+00 -7.53353E-01 -7.92840E-02  8.36170E-01  1.96187E+00  3.50519E+00  5.21574E+00
   7.10988E+00  1.00022E+01  1.56729E+01  2.25163E+01  3.01582E+01  3.91995E+01  4.81475E+01  5.52118E+01  6.04820E+01  6.48319E+01
   6.72288E+01  6.46886E+01  5.56213E+01  4.29107E+01  3.12378E+01  2.24323E+01  1.52777E+01  8.63968E+00  3.43321E+00  8.65257E-01
  -1.40821E-01 -7.20207E-01 -1.13471E+00 -1.44171E+00 -1.69224E+00 -1.94012E+00 -2.21080E+00 -2.50325E+00 -2.77866E+00 -3.01055E+00
  -3.20467E+00 -3.37299E+00 -3.50675E+00 -3.59191E+00 -3.63138E+00 -3.64838E+00 -3.65177E+00 -3.62708E+00 -3.56224E+00 -3.45723E+00
  -3.31213E+00 -3.12196E+00 -2.88102E+00 -2.59825E+00 -2.29103E+00 -1.96693E+00 -1.62760E+00 -1.27743E+00 -9.24727E-01 -5.78234E-01
  -2.42193E-01  7.99196E-02  3.75815E-01  6.29794E-01  8.30816E-01  9.73134E-01  1.05416E+00  1.07225E+00  1.02825E+00  9.28304E-01
   7.81312E-01  5.97771E-01  3.89939E-01  1.70600E-01 -4.69454E-02 -2.48784E-01 -4.20194E-01 -5.45410E-01 -6.04379E-01 -5.74695E-01
  -4.86577E-01 -3.53661E-01 -1.64168E-01  5.77418E-02  2.93773E-01  5.49661E-01  8.21436E-01  1.11154E+00  1.41249E+00  1.73143E+00
   2.17028E+00  2.79794E+00  3.57329E+00  4.42921E+00  5.35282E+00  6.35683E+00  7.39748E+00  8.36310E+00  9.21610E+00  1.00879E+01
   1.10419E+01  1.17957E+01  1.23764E+01  1.27338E+01  1.27145E+01  1.23029E+01  1.15528E+01  1.05320E+01  9.24842E+00  7.54088E+00
   5.87885E+00  4.96661E+00  4.94997E+00  5.50878E+00  6.45016E+00  7.80521E+00  9.46443E+00  1.08635E+01  1.14093E+01  1.12224E+01
   1.07478E+01  1.02076E+01  9.55738E+00  8.74759E+00  7.94518E+00  7.31962E+00  6.81097E+00  6.35562E+00  5.92832E+00  5.51944E+00
   5.12604E+00  4.74856E+00  4.38935E+00  4.05162E+00  3.73912E+00  3.45581E+00  3.20597E+00  2.99394E+00  2.82397E+00  2.69999E+00
   2.62576E+00  2.60483E+00  2.64075E+00  2.73681E+00  2.89593E+00  3.12032E+00  3.41151E+00  3.77016E+00  4.19591E+00  4.68689E+00
   5.23940E+00  5.84749E+00  6.50305E+00  7.19565E+00  7.91263E+00  8.63899E+00  9.35779E+00  1.00505E+01  1.06980E+01  1.12812E+01
   1.17819E+01  1.21836E+01  1.24724E+01  1.26373E+01  1.26719E+01  1.25737E+01  1.23450E+01  1.19919E+01  1.15246E+01  1.09567E+01
   1.03044E+01  9.58553E+00  8.81899E+00  8.02330E+00  7.21615E+00  6.41377E+00  5.63049E+00  4.87829E+00  4.16653E+00  3.50196E+00
   2.88895E+00  2.32979E+00  1.82502E+00  1.37355E+00  9.73083E-01  6.20336E-01  3.11598E-01  4.29170E-02 -1.89666E-01 -3.90154E-01
  -5.62404E-01 -7.10055E-01 -8.36287E-01 -9.43909E-01 -1.03537E+00 -1.11294E+00 -1.17862E+00 -1.23413E+00 -1.28083E+00 -1.31986E+00
  -1.35219E+00 -1.37880E+00 -1.40049E+00 -1.41795E+00 -1.43160E+00 -1.44188E+00 -1.44917E+00 -1.45394E+00 -1.45651E+00 -1.45714E+00
  -1.45594E+00 -1.45310E+00 -1.44882E+00 -1.44335E+00 -1.43682E+00 -1.42930E+00 -1.42080E+00 -1.41141E+00 -1.40128E+00 -1.39055E+00
  -1.37925E+00 -1.36737E+00 -1.35489E+00 -1.34191E+00 -1.32853E+00 -1.31483E+00 -1.30077E+00 -1.28633E+00 -1.27148E+00 -1.25634E+00
  -1.24097E+00 -1.22540E+00 -1.20956E+00 -1.19342E+00 -1.17698E+00 -1.16036E+00 -1.14358E+00 -1.12664E+00 -1.10944E+00 -1.09197E+00
  -1.07427E+00 -1.05644E+00 -1.03846E+00 -1.02028E+00 -1.00182E+00 -9.83096E-01 -9.64160E-01 -9.45076E-01 -9.25792E-01 -9.06237E-01
  -8.86342E-01 -8.66153E-01 -8.45711E-01 -8.25037E-01 -8.04036E-01 -7.82625E-01 -7.60753E-01 -7.38467E-01
 NY background values follow
    -3.046E+01   -3.029E+01   -3.013E+01   -2.996E+01   -2.979E+01   -2.963E+01   -2.946E+01   -2.929E+01   -2.913E+01   -2.896E+01
    -2.879E+01   -2.862E+01   -2.846E+01   -2.829E+01   -2.812E+01   -2.795E+01   -2.779E+01   -2.762E+01   -2.745E+01   -2.729E+01
    -2.712E+01   -2.695E+01   -2.679E+01   -2.662E+01   -2.645E+01   -2.629E+01   -2.612E+01   -2.596E+01   -2.579E+01   -2.563E+01
    -2.546E+01   -2.530E+01   -2.513E+01   -2.497E+01   -2.481E+01   -2.465E+01   -2.448E+01   -2.432E+01   -2.416E+01   -2.400E+01
    -2.384E+01   -2.368E+01   -2.352E+01   -2.336E+01   -2.320E+01   -2.305E+01   -2.289E+01   -2.273E+01   -2.258E+01   -2.242E+01
    -2.227E+01   -2.212E+01   -2.196E+01   -2.181E+01   -2.166E+01   -2.151E+01   -2.136E+01   -2.121E+01   -2.106E+01   -2.091E+01
    -2.077E+01   -2.062E+01   -2.048E+01   -2.033E+01   -2.019E+01   -2.004E+01   -1.990E+01   -1.976E+01   -1.962E+01   -1.948E+01
    -1.934E+01   -1.921E+01   -1.907E+01   -1.893E+01   -1.880E+01   -1.867E+01   -1.853E+01   -1.840E+01   -1.827E+01   -1.814E+01
    -1.801E+01   -1.789E+01   -1.776E+01   -1.763E+01   -1.751E+01   -1.739E+01   -1.726E+01   -1.714E+01   -1.702E+01   -1.690E+01
    -1.679E+01   -1.667E+01   -1.655E+01   -1.644E+01   -1.633E+01   -1.621E+01   -1.610E+01   -1.599E+01   -1.588E+01   -1.578E+01
    -1.567E+01   -1.556E+01   -1.546E+01   -1.536E+01   -1.526E+01   -1.516E+01   -1.506E+01   -1.496E+01   -1.486E+01   -1.477E+01
    -1.467E+01   -1.458E+01   -1.449E+01   -1.440E+01   -1.431E+01   -1.422E+01   -1.413E+01   -1.404E+01   -1.396E+01   -1.388E+01
    -1.379E+01   -1.371E+01   -1.363E+01   -1.355E+01   -1.348E+01   -1.340E+01   -1.333E+01   -1.325E+01   -1.318E+01   -1.311E+01
    -1.304E+01   -1.297E+01   -1.290E+01   -1.284E+01   -1.277E+01   -1.271E+01   -1.264E+01   -1.258E+01   -1.252E+01   -1.246E+01
    -1.241E+01   -1.235E+01   -1.229E+01   -1.224E+01   -1.219E+01   -1.213E+01   -1.208E+01   -1.203E+01   -1.198E+01   -1.193E+01
    -1.188E+01   -1.184E+01   -1.179E+01   -1.174E+01   -1.170E+01   -1.166E+01   -1.161E+01   -1.157E+01   -1.153E+01   -1.148E+01
    -1.144E+01   -1.140E+01   -1.136E+01   -1.132E+01   -1.128E+01   -1.124E+01   -1.120E+01   -1.116E+01   -1.112E+01   -1.108E+01
    -1.105E+01   -1.101E+01   -1.097E+01   -1.093E+01   -1.089E+01   -1.085E+01   -1.082E+01   -1.078E+01   -1.074E+01   -1.070E+01
    -1.066E+01   -1.062E+01   -1.058E+01   -1.055E+01   -1.051E+01   -1.047E+01   -1.043E+01   -1.039E+01   -1.035E+01   -1.031E+01
    -1.027E+01   -1.023E+01   -1.019E+01   -1.015E+01   -1.011E+01   -1.006E+01   -1.002E+01   -9.983E+00   -9.943E+00   -9.902E+00
    -9.861E+00   -9.821E+00   -9.780E+00   -9.739E+00   -9.699E+00   -9.659E+00   -9.618E+00   -9.578E+00   -9.538E+00   -9.498E+00
    -9.458E+00   -9.418E+00   -9.379E+00   -9.339E+00   -9.300E+00   -9.261E+00   -9.222E+00   -9.184E+00   -9.145E+00   -9.107E+00
    -9.069E+00   -9.032E+00   -8.994E+00   -8.957E+00   -8.921E+00   -8.884E+00   -8.848E+00   -8.813E+00   -8.777E+00   -8.742E+00
    -8.707E+00   -8.673E+00   -8.639E+00   -8.605E+00   -8.572E+00   -8.538E+00   -8.505E+00   -8.473E+00   -8.440E+00   -8.408E+00
    -8.376E+00   -8.344E+00   -8.312E+00   -8.281E+00   -8.250E+00   -8.219E+00   -8.188E+00   -8.157E+00   -8.127E+00   -8.096E+00
    -8.066E+00   -8.036E+00   -8.006E+00   -7.977E+00   -7.947E+00   -7.917E+00   -7.888E+00   -7.858E+00   -7.829E+00   -7.800E+00
    -7.771E+00   -7.741E+00   -7.712E+00   -7.683E+00   -7.654E+00   -7.625E+00   -7.596E+00   -7.567E+00   -7.538E+00   -7.509E+00
    -7.480E+00   -7.451E+00   -7.422E+00   -7.393E+00   -7.363E+00   -7.334E+00   -7.305E+00   -7.275E+00   -7.246E+00   -7.216E+00
    -7.187E+00   -7.157E+00   -7.127E+00   -7.098E+00   -7.068E+00   -7.038E+00   -7.008E+00   -6.977E+00   -6.947E+00   -6.917E+00
    -6.886E+00   -6.856E+00   -6.825E+00   -6.794E+00   -6.764E+00   -6.733E+00   -6.701E+00   -6.670E+00   -6.639E+00   -6.607E+00
    -6.576E+00   -6.544E+00   -6.512E+00   -6.480E+00   -6.448E+00   -6.416E+00   -6.383E+00   -6.351E+00   -6.318E+00   -6.285E+00
    -6.252E+00   -6.219E+00   -6.185E+00   -6.151E+00   -6.118E+00   -6.084E+00   -6.050E+00   -6.015E+00   -5.981E+00   -5.946E+00
    -5.911E+00   -5.876E+00   -5.841E+00   -5.806E+00   -5.770E+00   -5.735E+00   -5.699E+00   -5.663E+00   -5.627E+00   -5.590E+00
    -5.554E+00   -5.518E+00   -5.481E+00   -5.444E+00   -5.407E+00   -5.370E+00   -5.333E+00   -5.296E+00   -5.259E+00   -5.222E+00
    -5.184E+00   -5.147E+00   -5.109E+00   -5.071E+00   -5.034E+00   -4.996E+00   -4.958E+00   -4.920E+00   -4.882E+00   -4.844E+00
    -4.806E+00   -4.767E+00   -4.729E+00   -4.691E+00   -4.653E+00   -4.614E+00   -4.576E+00   -4.538E+00   -4.499E+00   -4.461E+00
    -4.422E+00   -4.384E+00   -4.346E+00   -4.307E+00   -4.269E+00   -4.231E+00   -4.192E+00   -4.154E+00   -4.116E+00   -4.077E+00
    -4.039E+00   -4.001E+00   -3.963E+00   -3.924E+00   -3.886E+00   -3.848E+00   -3.810E+00   -3.772E+00   -3.734E+00   -3.697E+00
    -3.659E+00   -3.621E+00   -3.584E+00   -3.546E+00   -3.509E+00   -3.471E+00   -3.434E+00   -3.397E+00   -3.360E+00   -3.323E+00
    -3.286E+00   -3.249E+00   -3.212E+00   -3.176E+00   -3.140E+00   -3.103E+00   -3.067E+00   -3.031E+00   -2.995E+00   -2.959E+00
    -2.924E+00   -2.888E+00   -2.853E+00   -2.818E+00   -2.783E+00   -2.748E+00   -2.713E+00   -2.679E+00   -2.644E+00   -2.610E+00
    -2.576E+00   -2.542E+00   -2.508E+00   -2.475E+00   -2.442E+00   -2.408E+00   -2.375E+00   -2.343E+00   -2.310E+00   -2.278E+00
    -2.245E+00   -2.213E+00   -2.182E+00   -2.150E+00   -2.119E+00   -2.087E+00   -2.056E+00   -2.025E+00   -1.995E+00   -1.964E+00
    -1.934E+00   -1.904E+00   -1.874E+00   -1.845E+00   -1.815E+00   -1.786E+00   -1.757E+00   -1.728E+00   -1.700E+00   -1.672E+00
    -1.643E+00   -1.616E+00   -1.588E+00   -1.561E+00   -1.533E+00   -1.506E+00   -1.480E+00   -1.453E+00   -1.427E+00   -1.401E+00
    -1.375E+00   -1.350E+00   -1.324E+00   -1.299E+00   -1.275E+00   -1.250E+00   -1.226E+00   -1.202E+00   -1.178E+00   -1.154E+00
    -1.130E+00   -1.107E+00   -1.084E+00   -1.061E+00   -1.038E+00   -1.015E+00   -9.928E-01   -9.704E-01   -9.482E-01   -9.261E-01
    -9.041E-01   -8.823E-01   -8.605E-01   -8.389E-01   -8.174E-01   -7.959E-01   -7.746E-01   -7.533E-01   -7.321E-01   -7.109E-01
    -6.898E-01   -6.688E-01   -6.478E-01   -6.269E-01   -6.059E-01   -5.850E-01   -5.641E-01   -5.433E-01   -5.224E-01   -5.015E-01
    -4.806E-01   -4.597E-01   -4.388E-01   -4.179E-01   -3.969E-01   -3.758E-01   -3.547E-01   -3.336E-01
 Ala      Conc. = 8.45E+01
