 LCModel (Version 6.3-1L) Copyright: S.W. Provencher.          Ref.: Magn. Reson. Med. 30:672-679 (1993).                
 Slice#1 Row#9 Col#11  K_02_press_1_raw_act
 36 lines in following concentration table = NCONC+1
    Conc.  %SD /Cr+PCr  Metabolite                                         
  178.193  46%   0.224 Ala                                                 
    0.000 999%   0.000 Asp                                                 
    0.000 999%   0.000 Cr                                                  
  796.796   6%   1.000 PCr                                                 
   66.648 174% 8.4E-02 GABA                                                
  150.273  81%   0.189 Glc                                                 
  288.213  55%   0.362 Gln                                                 
 1.17E+03  17%   1.474 Glu                                                 
  304.085   6%   0.382 GPC                                                 
    0.000 999%   0.000 PCh                                                 
  223.377  26%   0.280 GSH                                                 
  781.520  24%   0.981 Ins                                                 
   80.385 106%   0.101 Lac                                                 
 2.11E+03   6%   2.653 NAA                                                 
  570.672  20%   0.716 NAAG                                                
   54.124  41% 6.8E-02 Scyllo                                              
  198.924  78%   0.250 Tau                                                 
  519.637  15%   0.652 -CrCH2                                              
  304.085   6%   0.382 GPC+PCh                                             
 2.68E+03   3%   3.370 NAA+NAAG                                            
  796.796   6%   1.000 Cr+PCr                                              
 1.46E+03  17%   1.836 Glu+Gln                                             
 1.16E+03  51%   1.457 Lip13a                                              
    0.000 999%   0.000 Lip13b                                              
  122.477 187%   0.154 Lip09                                               
 1.46E+03  19%   1.827 MM09                                                
  203.228  72%   0.255 Lip20                                               
 2.74E+03  13%   3.435 MM20                                                
  509.372  37%   0.639 MM12                                                
 2.82E+03  18%   3.536 MM14                                                
 1.39E+03  21%   1.744 MM17                                                
 1.16E+03  51%   1.457 Lip13a+Lip13b                                       
 4.49E+03   9%   5.632 MM14+Lip13a+Lip13b+MM12                             
 1.58E+03  11%   1.981 MM09+Lip09                                          
 2.94E+03  11%   3.690 MM20+Lip20                                          
   6 lines in following misc. output table
  FWHM = 0.038 ppm    S/N =  15                                            
  Data shift = 0.000 ppm                                                   
  Ph: -15 deg      -6.1 deg/ppm                                            
  alphaB,S = 8.5E+01,   6.0E+01                                            
   14 spline knots.   Ns = 6(1)                                            
   3 inflections.     1 extrema                                            
  498 points on ppm-axis = NY
      4.000000     3.992357     3.984714     3.977070     3.969427     3.961784     3.954141     3.946497     3.938854     3.931211
      3.923568     3.915925     3.908281     3.900638     3.892995     3.885352     3.877708     3.870065     3.862422     3.854779
      3.847136     3.839492     3.831849     3.824206     3.816563     3.808919     3.801276     3.793633     3.785990     3.778347
      3.770703     3.763060     3.755417     3.747774     3.740130     3.732487     3.724844     3.717201     3.709558     3.701914
      3.694271     3.686628     3.678985     3.671341     3.663698     3.656055     3.648412     3.640769     3.633125     3.625482
      3.617839     3.610196     3.602552     3.594909     3.587266     3.579623     3.571980     3.564336     3.556693     3.549050
      3.541407     3.533763     3.526120     3.518477     3.510834     3.503191     3.495547     3.487904     3.480261     3.472618
      3.464974     3.457331     3.449688     3.442045     3.434402     3.426758     3.419115     3.411472     3.403829     3.396185
      3.388542     3.380899     3.373256     3.365613     3.357969     3.350326     3.342683     3.335040     3.327396     3.319753
      3.312110     3.304467     3.296824     3.289180     3.281537     3.273894     3.266251     3.258607     3.250964     3.243321
      3.235678     3.228034     3.220391     3.212748     3.205105     3.197462     3.189818     3.182175     3.174532     3.166889
      3.159245     3.151602     3.143959     3.136316     3.128673     3.121029     3.113386     3.105743     3.098100     3.090456
      3.082813     3.075170     3.067527     3.059884     3.052240     3.044597     3.036954     3.029311     3.021667     3.014024
      3.006381     2.998738     2.991095     2.983451     2.975808     2.968165     2.960522     2.952878     2.945235     2.937592
      2.929949     2.922306     2.914662     2.907019     2.899376     2.891733     2.884089     2.876446     2.868803     2.861160
      2.853517     2.845873     2.838230     2.830587     2.822944     2.815300     2.807657     2.800014     2.792371     2.784728
      2.777084     2.769441     2.761798     2.754155     2.746511     2.738868     2.731225     2.723582     2.715939     2.708295
      2.700652     2.693009     2.685366     2.677722     2.670079     2.662436     2.654793     2.647150     2.639506     2.631863
      2.624220     2.616577     2.608933     2.601290     2.593647     2.586004     2.578361     2.570717     2.563074     2.555431
      2.547788     2.540144     2.532501     2.524858     2.517215     2.509572     2.501928     2.494285     2.486642     2.478999
      2.471355     2.463712     2.456069     2.448426     2.440783     2.433139     2.425496     2.417853     2.410210     2.402566
      2.394923     2.387280     2.379637     2.371994     2.364350     2.356707     2.349064     2.341421     2.333777     2.326134
      2.318491     2.310848     2.303205     2.295561     2.287918     2.280275     2.272632     2.264988     2.257345     2.249702
      2.242059     2.234416     2.226772     2.219129     2.211486     2.203843     2.196199     2.188556     2.180913     2.173270
      2.165627     2.157983     2.150340     2.142697     2.135054     2.127410     2.119767     2.112124     2.104481     2.096838
      2.089194     2.081551     2.073908     2.066265     2.058621     2.050978     2.043335     2.035692     2.028049     2.020405
      2.012762     2.005119     1.997476     1.989833     1.982190     1.974546     1.966903     1.959260     1.951617     1.943974
      1.936331     1.928688     1.921045     1.913402     1.905759     1.898115     1.890472     1.882829     1.875186     1.867543
      1.859900     1.852257     1.844614     1.836971     1.829327     1.821684     1.814041     1.806398     1.798755     1.791112
      1.783469     1.775826     1.768183     1.760540     1.752896     1.745253     1.737610     1.729967     1.722324     1.714681
      1.707038     1.699395     1.691752     1.684108     1.676465     1.668822     1.661179     1.653536     1.645893     1.638250
      1.630607     1.622964     1.615321     1.607677     1.600034     1.592391     1.584748     1.577105     1.569462     1.561819
      1.554176     1.546533     1.538890     1.531246     1.523603     1.515960     1.508317     1.500674     1.493031     1.485388
      1.477745     1.470102     1.462458     1.454815     1.447172     1.439529     1.431886     1.424243     1.416600     1.408957
      1.401314     1.393671     1.386027     1.378384     1.370741     1.363098     1.355455     1.347812     1.340169     1.332526
      1.324883     1.317240     1.309596     1.301953     1.294310     1.286667     1.279024     1.271381     1.263738     1.256095
      1.248452     1.240808     1.233165     1.225522     1.217879     1.210236     1.202593     1.194950     1.187307     1.179664
      1.172021     1.164377     1.156734     1.149091     1.141448     1.133805     1.126162     1.118519     1.110876     1.103233
      1.095590     1.087946     1.080303     1.072660     1.065017     1.057374     1.049731     1.042088     1.034445     1.026802
      1.019158     1.011515     1.003872     0.996229     0.988586     0.980943     0.973300     0.965657     0.958014     0.950371
      0.942727     0.935084     0.927441     0.919798     0.912155     0.904512     0.896869     0.889226     0.881583     0.873940
      0.866296     0.858653     0.851010     0.843367     0.835724     0.828081     0.820438     0.812795     0.805152     0.797508
      0.789865     0.782222     0.774579     0.766936     0.759293     0.751650     0.744007     0.736364     0.728721     0.721077
      0.713434     0.705791     0.698148     0.690505     0.682862     0.675219     0.667576     0.659933     0.652290     0.644646
      0.637003     0.629360     0.621717     0.614074     0.606431     0.598788     0.591145     0.583502     0.575858     0.568215
      0.560572     0.552929     0.545286     0.537643     0.530000     0.522357     0.514714     0.507071     0.499427     0.491784
      0.484141     0.476498     0.468855     0.461212     0.453569     0.445925     0.438282     0.430639     0.422996     0.415353
      0.407710     0.400067     0.392424     0.384780     0.377137     0.369494     0.361851     0.354208     0.346565     0.338922
      0.331278     0.323635     0.315992     0.308349     0.300706     0.293063     0.285420     0.277777     0.270133     0.262490
      0.254847     0.247204     0.239561     0.231918     0.224275     0.216631     0.208988     0.201345
 NY phased data points follow
   1.03429E+01  8.32289E+00  8.15804E+00  5.89469E+00  5.94366E+00  1.07326E+01  8.23751E+00  9.12750E+00  9.34774E+00  1.10167E+01
   1.54756E+01  9.79909E+00  9.86474E+00  8.19954E+00  7.46826E+00  8.43299E+00  4.03229E+00  4.16097E+00  4.26790E+00  2.74481E+00
   8.49472E+00  8.35340E+00  6.94411E+00  9.22624E+00  8.53206E+00  8.25012E+00  7.06098E+00  7.21448E+00  5.60489E+00  8.91282E+00
   7.27955E+00  1.02150E+01  7.35380E+00  7.26888E+00  9.00002E+00  5.31929E+00  4.68757E+00  6.47237E+00  6.27541E+00  6.28142E+00
   5.88282E+00  6.27092E+00  8.71796E+00  5.48959E+00  1.04476E+01  9.09456E+00  8.66879E+00  1.31951E+01  1.48182E+01  1.35710E+01
   9.86537E+00  8.96349E+00  9.42541E+00  9.61247E+00  9.02152E+00  9.79323E+00  6.92934E+00  1.30991E+01  8.93871E+00  1.03877E+01
   4.44151E+00  7.81715E+00  5.15319E+00  2.96976E+00  7.44783E+00  4.18051E+00  4.04249E+00  2.36656E+00  4.67222E+00  8.80419E-01
   4.88235E+00  5.95449E+00  1.43994E+00  5.04881E+00  7.73851E+00  4.13845E+00  8.01676E+00  4.79885E+00  4.92284E+00  6.36969E+00
   2.52207E+00  7.13193E+00  4.02478E+00  4.48635E+00  4.50469E+00  8.09775E+00  5.56903E+00  5.70756E+00  3.66624E+00  5.71260E+00
   7.43600E+00  7.20578E+00  5.99669E+00  5.57857E+00  4.19190E+00  9.50789E+00  7.00748E+00  1.15647E+01  7.85302E+00  1.47999E+01
   1.55132E+01  2.56525E+01  3.85014E+01  4.17177E+01  3.91231E+01  2.97515E+01  1.56281E+01  1.52893E+01  1.06116E+01  7.73210E+00
   8.45136E+00  8.43485E+00  7.11217E+00  8.16112E+00  5.38599E+00  5.11499E+00  5.27924E+00  8.97273E+00  9.40906E+00  8.18403E+00
   1.02925E+01  6.62804E+00  8.06136E+00  1.04849E+01  1.55931E+01  2.01920E+01  3.95218E+01  4.08166E+01  3.83758E+01  3.34581E+01
   2.20603E+01  1.62867E+01  1.34918E+01  8.48210E+00  9.15702E+00  8.32852E+00  2.29643E+00  7.80655E+00  7.01033E+00  1.03641E+01
   7.29623E+00  7.37069E+00  6.85660E+00  1.02308E+01  8.52532E+00  1.08615E+01  7.65000E+00  5.21753E+00  6.28290E+00  7.72978E+00
   7.37680E+00  4.02607E+00  2.18406E+00  4.25489E+00  8.22187E+00  7.27020E+00  8.68610E+00  6.89778E+00  7.83613E+00  9.45430E+00
   9.88233E+00  4.37729E+00  4.02992E+00 -9.14218E-02  5.29706E+00  3.37702E+00 -3.65888E-01  5.54883E-01 -2.29797E-01 -8.54095E+00
  -5.27223E+00 -4.47755E+00 -7.48929E+00 -5.16526E+00 -7.79705E+00 -1.06572E+01 -1.27773E+01 -9.87055E+00 -8.52560E+00 -7.51364E+00
  -3.12789E+00 -4.87661E+00 -8.31647E+00 -2.23047E+00 -1.55975E+00 -5.27989E-01 -4.35240E+00 -5.43361E+00 -3.29020E+00 -8.71224E-01
   1.83174E+00  3.07431E+00  3.31365E+00  1.08875E+00 -3.97343E-01 -2.85567E+00  1.84968E-02 -8.09004E+00 -1.15570E+01 -8.27860E+00
  -6.67493E+00 -1.41829E+00  2.42653E+00  4.89298E+00  7.88556E+00  8.80681E+00  3.97936E+00  4.62910E+00 -1.22965E+00  4.52886E+00
   2.60989E+00  6.12448E+00  7.36752E+00  1.33037E+01  1.60979E+01  1.92244E+01  1.84307E+01  1.52400E+01  1.10989E+01  6.74721E+00
   3.42654E+00  8.40764E-01 -3.08204E+00  4.74845E+00  7.21622E+00  8.72553E+00  9.66520E+00  1.30581E+01  1.21363E+01  9.93761E+00
   1.19678E+01  9.20779E+00  1.01452E+01  1.12522E+01  1.10975E+01  1.02715E+01  1.31440E+01  9.45119E+00  1.15792E+01  1.08975E+01
   9.59088E+00  7.37526E+00  3.24490E+00  6.37153E+00  1.09681E+01  1.08210E+01  1.54016E+01  1.61273E+01  1.95605E+01  1.66116E+01
   2.11848E+01  1.86331E+01  1.90622E+01  2.62281E+01  4.03137E+01  5.49354E+01  6.00110E+01  6.75083E+01  8.05715E+01  9.99216E+01
   1.11522E+02  1.10619E+02  8.28887E+01  5.24804E+01  3.40823E+01  2.49943E+01  1.20701E+01  9.88978E+00  7.68238E+00  5.68338E+00
   7.35560E+00  5.85286E+00  1.07807E+01  7.99444E+00  9.07235E+00  6.07232E+00  8.02703E+00  4.53305E+00  6.21729E+00  7.69993E+00
   9.21218E+00  5.31683E+00  4.28861E+00  5.65678E+00  5.20508E+00  3.89040E+00  6.90767E+00  4.29738E+00  5.96060E+00  8.84813E+00
   8.14001E+00  6.38685E+00  6.05724E+00  5.72425E+00  4.93338E+00  3.26475E+00  5.26626E+00  5.49482E+00  5.77972E+00  9.59826E+00
   6.45959E+00  6.66449E+00  1.06367E+01  8.83495E+00  1.03421E+01  1.05747E+01  1.20397E+01  9.34900E+00  1.37509E+01  1.60053E+01
   8.90105E+00  1.47336E+01  1.43036E+01  1.52548E+01  1.13529E+01  1.28323E+01  1.68357E+01  1.90126E+01  1.92283E+01  1.85871E+01
   1.97585E+01  2.51428E+01  1.79880E+01  1.57880E+01  1.71763E+01  1.54454E+01  1.66736E+01  1.81791E+01  1.58170E+01  1.52834E+01
   1.67712E+01  1.69380E+01  1.34190E+01  1.78775E+01  1.96522E+01  2.26784E+01  1.93612E+01  2.30348E+01  1.97471E+01  1.95947E+01
   1.97323E+01  2.03321E+01  2.27744E+01  2.37785E+01  2.28800E+01  2.46077E+01  2.47705E+01  2.11238E+01  1.86485E+01  1.58773E+01
   1.60994E+01  1.31731E+01  1.60186E+01  1.08288E+01  1.36330E+01  1.24859E+01  1.12406E+01  7.03259E+00  7.82547E+00  1.11148E+01
   1.40456E+01  7.34669E+00  1.18980E+01  8.74046E+00  1.36302E+01  1.02064E+01  9.45412E+00  9.65851E+00  1.37114E+01  1.21265E+01
   9.21806E+00  8.36487E+00  1.32127E+01  9.14491E+00  8.78100E+00  8.91396E+00  6.19837E+00  6.58405E+00  6.25143E+00  2.77322E+00
   4.23621E+00  6.62829E+00  3.17370E+00  6.69977E+00  5.05588E+00  6.95902E+00  6.15898E+00  7.27877E+00  5.05933E+00  5.81784E+00
   1.03679E+01  1.04071E+01  9.41493E+00  9.04731E+00  1.08050E+01  1.08787E+01  1.16428E+01  1.63105E+01  8.17223E+00  9.04927E+00
   1.17881E+01  9.82831E+00  1.10369E+01  1.23577E+01  1.38751E+01  1.35954E+01  1.11239E+01  1.50123E+01  1.53823E+01  9.49525E+00
   9.55490E+00  1.26561E+01  1.03777E+01  9.83608E+00  9.14823E+00  3.98825E+00  1.97931E+00  6.04880E+00  4.48335E+00  5.68958E+00
   6.10020E+00  8.68994E-01  1.29136E+00  2.01190E+00  5.34104E+00  3.84317E+00  6.34723E-01  2.63769E+00 -1.74631E+00  3.15557E+00
  -4.85110E-01  1.53695E+00  3.27000E+00  1.26987E-01  2.34835E-01  1.39099E+00 -4.59717E-01 -1.14032E+00 -9.95452E-01  4.14765E-01
   2.44224E+00  2.52910E+00 -1.12430E+00  1.23342E+00 -1.06426E+00 -1.57020E+00  1.12065E+00  4.03338E+00  1.03690E+00  1.43247E+00
   8.82430E-01  1.65824E+00  2.29276E+00  2.26669E+00  2.39108E-01 -2.50939E+00  2.81510E+00  1.62330E+00  3.67391E+00  2.96047E+00
  -3.04263E+00  1.39988E+00  1.08094E+00  1.30609E+00  2.72031E+00  1.17634E+00 -2.05155E+00  1.75683E+00  1.40093E+00  2.61392E+00
   3.39361E-01  2.16809E+00  3.01529E+00  3.57112E+00 -2.89728E+00  1.46150E+00 -8.58083E-01  3.34269E-01  5.20073E-01  4.76156E-01
   3.75819E+00 -6.63640E-01  2.66525E+00  4.87167E-01 -4.23731E-01  4.56361E+00  2.42315E+00 -2.52512E+00  3.18307E+00 -8.55660E-01
   3.00319E-01  4.52517E+00  1.66231E+00  2.29237E+00  5.80086E-01  7.90179E-01  7.47417E-01  1.60397E+00
 NY points of the fit to the data follow
   4.82874E+00  4.60713E+00  4.63956E+00  5.00396E+00  5.83096E+00  6.70859E+00  7.75955E+00  9.35047E+00  1.13253E+01  1.29499E+01
   1.33468E+01  1.22891E+01  1.03617E+01  8.59155E+00  7.47364E+00  6.81714E+00  6.39396E+00  6.12990E+00  5.93386E+00  5.91730E+00
   6.07511E+00  6.25349E+00  6.25295E+00  6.30258E+00  6.57946E+00  6.51399E+00  6.09461E+00  6.03743E+00  7.02979E+00  8.98246E+00
   1.10964E+01  1.25788E+01  1.30606E+01  1.26367E+01  1.13919E+01  9.31105E+00  7.07020E+00  5.54251E+00  4.86611E+00  4.76625E+00
   5.07553E+00  5.72207E+00  6.50933E+00  7.21748E+00  7.98129E+00  9.15079E+00  1.08226E+01  1.23810E+01  1.28364E+01  1.17874E+01
   9.74606E+00  7.60548E+00  5.97188E+00  5.06239E+00  4.78832E+00  4.87871E+00  5.13405E+00  5.49692E+00  6.03161E+00  6.69992E+00
   7.22755E+00  7.28389E+00  6.74949E+00  5.91345E+00  5.13485E+00  4.65477E+00  4.60795E+00  4.84640E+00  5.13684E+00  5.45179E+00
   5.83370E+00  6.21246E+00  6.54562E+00  6.84621E+00  7.06349E+00  7.11064E+00  6.90755E+00  6.37072E+00  5.61732E+00  4.99446E+00
   4.81231E+00  5.01668E+00  5.28848E+00  5.64095E+00  6.20609E+00  6.83475E+00  7.05844E+00  6.46695E+00  5.20120E+00  3.94516E+00
   3.31246E+00  3.26050E+00  3.35742E+00  3.43271E+00  3.48802E+00  3.68625E+00  4.66075E+00  7.30795E+00  1.00240E+01  1.29181E+01
   1.84783E+01  2.75492E+01  3.70243E+01  4.16802E+01  3.85725E+01  2.96847E+01  2.02336E+01  1.36593E+01  9.64666E+00  7.15635E+00
   5.91970E+00  5.40796E+00  5.16832E+00  5.02917E+00  4.92201E+00  4.85030E+00  4.80504E+00  4.75610E+00  4.71169E+00  4.75377E+00
   5.23196E+00  7.18208E+00  9.80088E+00  1.24345E+01  1.70073E+01  2.48783E+01  3.40190E+01  3.98572E+01  3.89306E+01  3.18683E+01
   2.30764E+01  1.64945E+01  1.24317E+01  9.63418E+00  7.61953E+00  6.16386E+00  5.14267E+00  4.68717E+00  4.82413E+00  5.37165E+00
   6.04335E+00  6.52611E+00  6.63730E+00  6.42331E+00  6.03698E+00  5.64352E+00  5.33517E+00  5.10528E+00  4.89911E+00  4.69627E+00
   4.50644E+00  4.29587E+00  4.04546E+00  3.80533E+00  3.61252E+00  3.47530E+00  3.56668E+00  3.76796E+00  3.67054E+00  3.07524E+00
   2.05306E+00  1.24072E+00  1.30975E+00  2.17103E+00  2.96634E+00  2.98570E+00  2.20332E+00  1.04762E+00  4.86192E-02 -5.32523E-01
  -8.19498E-01 -8.54455E-01 -7.58576E-01 -1.05330E+00 -1.86588E+00 -2.72511E+00 -2.85162E+00 -2.06858E+00 -1.04092E+00 -6.72946E-01
  -1.12892E+00 -1.74038E+00 -1.66443E+00 -9.58117E-01 -3.06635E-01  1.37125E-02  4.38476E-01  1.50386E+00  3.24467E+00  5.19907E+00
   6.66834E+00  7.25428E+00  6.92348E+00  6.11727E+00  5.26582E+00  4.61160E+00  4.16642E+00  3.94032E+00  4.08375E+00  4.60630E+00
   5.49288E+00  6.58022E+00  7.69539E+00  8.54066E+00  8.60530E+00  7.69756E+00  5.87833E+00  3.41951E+00  1.09475E+00 -4.18266E-01
  -6.51525E-01  1.24403E-01  1.82450E+00  4.59474E+00  8.05019E+00  1.09414E+01  1.16371E+01  9.73307E+00  6.39302E+00  2.83774E+00
  -4.01618E-01 -2.70755E+00 -3.13927E+00 -1.12064E+00  2.60157E+00  6.35693E+00  8.94119E+00  1.02232E+01  1.05234E+01  1.00670E+01
   9.18428E+00  8.55256E+00  8.60710E+00  9.31011E+00  1.03170E+01  1.12724E+01  1.19207E+01  1.20851E+01  1.18294E+01  1.12163E+01
   1.03636E+01  9.61372E+00  9.49374E+00  1.02746E+01  1.17897E+01  1.34976E+01  1.48115E+01  1.55046E+01  1.57280E+01  1.60984E+01
   1.75437E+01  1.94492E+01  2.21818E+01  2.77791E+01  3.93248E+01  5.23633E+01  6.05409E+01  6.81579E+01  8.19245E+01  1.00369E+02
   1.12252E+02  1.06476E+02  8.35510E+01  5.59643E+01  3.55236E+01  2.34584E+01  1.59812E+01  1.18822E+01  1.01875E+01  9.27212E+00
   8.65741E+00  8.32368E+00  8.23520E+00  8.26498E+00  8.22695E+00  7.97260E+00  7.50948E+00  6.97103E+00  6.47874E+00  6.07454E+00
   5.77375E+00  5.58552E+00  5.50081E+00  5.47325E+00  5.43182E+00  5.34559E+00  5.24240E+00  5.14024E+00  5.04490E+00  4.98975E+00
   5.02015E+00  5.14712E+00  5.33657E+00  5.53883E+00  5.73218E+00  5.92482E+00  6.13305E+00  6.36833E+00  6.64944E+00  7.00779E+00
   7.46038E+00  7.99771E+00  8.59037E+00  9.21359E+00  9.85639E+00  1.05103E+01  1.11639E+01  1.18092E+01  1.24364E+01  1.30354E+01
   1.35957E+01  1.41074E+01  1.45613E+01  1.49529E+01  1.52822E+01  1.55547E+01  1.57789E+01  1.59673E+01  1.61364E+01  1.63128E+01
   1.65423E+01  1.68741E+01  1.71707E+01  1.74473E+01  1.78765E+01  1.83539E+01  1.84823E+01  1.79395E+01  1.68413E+01  1.58329E+01
   1.54417E+01  1.56066E+01  1.61667E+01  1.72175E+01  1.88342E+01  2.06498E+01  2.20490E+01  2.26386E+01  2.25200E+01  2.21171E+01
   2.17037E+01  2.13229E+01  2.09417E+01  2.05393E+01  2.01717E+01  1.98152E+01  1.93031E+01  1.84575E+01  1.72845E+01  1.60641E+01
   1.50601E+01  1.43316E+01  1.38580E+01  1.36604E+01  1.37400E+01  1.39192E+01  1.39235E+01  1.36067E+01  1.30470E+01  1.24352E+01
   1.18688E+01  1.13470E+01  1.08723E+01  1.04436E+01  1.00438E+01  9.66329E+00  9.29765E+00  8.94530E+00  8.60540E+00  8.27898E+00
   7.96764E+00  7.67404E+00  7.40009E+00  7.14813E+00  6.92016E+00  6.71930E+00  6.54840E+00  6.41062E+00  6.30801E+00  6.24291E+00
   6.21733E+00  6.23409E+00  6.29535E+00  6.40311E+00  6.55805E+00  6.76092E+00  7.01167E+00  7.31027E+00  7.65491E+00  8.04267E+00
   8.46846E+00  8.92646E+00  9.40913E+00  9.90804E+00  1.04124E+01  1.09102E+01  1.13881E+01  1.18330E+01  1.22317E+01  1.25718E+01
   1.28412E+01  1.30297E+01  1.31289E+01  1.31342E+01  1.30432E+01  1.28569E+01  1.25786E+01  1.22144E+01  1.17732E+01  1.12662E+01
   1.07060E+01  1.01057E+01  9.47807E+00  8.83624E+00  8.19223E+00  7.55760E+00  6.94167E+00  6.35221E+00  5.79457E+00  5.27315E+00
   4.79059E+00  4.34860E+00  3.94688E+00  3.58431E+00  3.25855E+00  2.96761E+00  2.70883E+00  2.47978E+00  2.27710E+00  2.09787E+00
   1.93900E+00  1.79846E+00  1.67400E+00  1.56387E+00  1.46570E+00  1.37787E+00  1.29876E+00  1.22773E+00  1.16372E+00  1.10597E+00
   1.05314E+00  1.00469E+00  9.59981E-01  9.19105E-01  8.81478E-01  8.46757E-01  8.14106E-01  7.83503E-01  7.54749E-01  7.28134E-01
   7.03170E-01  6.79654E-01  6.57019E-01  6.35534E-01  6.15154E-01  5.96155E-01  5.78013E-01  5.60604E-01  5.43564E-01  5.27321E-01
   5.11838E-01  4.97291E-01  4.83121E-01  4.69318E-01  4.55696E-01  4.42759E-01  4.30391E-01  4.18646E-01  4.06971E-01  3.95495E-01
   3.84169E-01  3.73489E-01  3.63222E-01  3.53343E-01  3.43363E-01  3.33557E-01  3.23951E-01  3.14959E-01  3.06220E-01  2.97678E-01
   2.88960E-01  2.80472E-01  2.72255E-01  2.64605E-01  2.57061E-01  2.49601E-01  2.41994E-01  2.34736E-01  2.27812E-01  2.21387E-01
   2.14950E-01  2.08572E-01  2.02167E-01  1.96267E-01  1.90761E-01  1.85703E-01  1.80600E-01  1.75666E-01
 NY background values follow
     3.800E+00    3.794E+00    3.788E+00    3.782E+00    3.776E+00    3.770E+00    3.764E+00    3.758E+00    3.752E+00    3.746E+00
     3.740E+00    3.734E+00    3.728E+00    3.722E+00    3.716E+00    3.710E+00    3.704E+00    3.698E+00    3.692E+00    3.686E+00
     3.680E+00    3.674E+00    3.668E+00    3.662E+00    3.656E+00    3.650E+00    3.644E+00    3.638E+00    3.631E+00    3.625E+00
     3.619E+00    3.613E+00    3.607E+00    3.601E+00    3.595E+00    3.589E+00    3.583E+00    3.577E+00    3.571E+00    3.565E+00
     3.558E+00    3.552E+00    3.546E+00    3.540E+00    3.534E+00    3.528E+00    3.522E+00    3.516E+00    3.510E+00    3.504E+00
     3.497E+00    3.491E+00    3.485E+00    3.479E+00    3.473E+00    3.467E+00    3.461E+00    3.455E+00    3.448E+00    3.442E+00
     3.436E+00    3.430E+00    3.424E+00    3.418E+00    3.412E+00    3.405E+00    3.399E+00    3.393E+00    3.387E+00    3.381E+00
     3.375E+00    3.368E+00    3.362E+00    3.356E+00    3.350E+00    3.344E+00    3.338E+00    3.331E+00    3.325E+00    3.319E+00
     3.313E+00    3.307E+00    3.301E+00    3.294E+00    3.288E+00    3.282E+00    3.276E+00    3.270E+00    3.263E+00    3.257E+00
     3.251E+00    3.245E+00    3.239E+00    3.232E+00    3.226E+00    3.220E+00    3.214E+00    3.208E+00    3.201E+00    3.195E+00
     3.189E+00    3.183E+00    3.176E+00    3.170E+00    3.164E+00    3.158E+00    3.151E+00    3.145E+00    3.139E+00    3.133E+00
     3.127E+00    3.120E+00    3.114E+00    3.108E+00    3.102E+00    3.095E+00    3.089E+00    3.083E+00    3.077E+00    3.070E+00
     3.064E+00    3.058E+00    3.052E+00    3.045E+00    3.039E+00    3.033E+00    3.026E+00    3.020E+00    3.014E+00    3.008E+00
     3.001E+00    2.995E+00    2.989E+00    2.983E+00    2.976E+00    2.970E+00    2.964E+00    2.957E+00    2.951E+00    2.945E+00
     2.938E+00    2.932E+00    2.926E+00    2.920E+00    2.913E+00    2.907E+00    2.901E+00    2.894E+00    2.888E+00    2.882E+00
     2.875E+00    2.869E+00    2.863E+00    2.857E+00    2.850E+00    2.844E+00    2.838E+00    2.831E+00    2.825E+00    2.819E+00
     2.812E+00    2.806E+00    2.800E+00    2.793E+00    2.787E+00    2.781E+00    2.774E+00    2.768E+00    2.762E+00    2.755E+00
     2.749E+00    2.743E+00    2.736E+00    2.730E+00    2.724E+00    2.717E+00    2.711E+00    2.705E+00    2.698E+00    2.692E+00
     2.686E+00    2.679E+00    2.673E+00    2.666E+00    2.660E+00    2.654E+00    2.647E+00    2.641E+00    2.635E+00    2.628E+00
     2.622E+00    2.616E+00    2.609E+00    2.603E+00    2.597E+00    2.590E+00    2.584E+00    2.577E+00    2.571E+00    2.565E+00
     2.558E+00    2.552E+00    2.546E+00    2.539E+00    2.533E+00    2.526E+00    2.520E+00    2.514E+00    2.507E+00    2.501E+00
     2.495E+00    2.488E+00    2.482E+00    2.475E+00    2.469E+00    2.463E+00    2.456E+00    2.450E+00    2.443E+00    2.437E+00
     2.431E+00    2.424E+00    2.418E+00    2.411E+00    2.405E+00    2.399E+00    2.392E+00    2.386E+00    2.379E+00    2.373E+00
     2.367E+00    2.360E+00    2.354E+00    2.347E+00    2.341E+00    2.335E+00    2.328E+00    2.322E+00    2.315E+00    2.309E+00
     2.303E+00    2.296E+00    2.290E+00    2.283E+00    2.277E+00    2.271E+00    2.264E+00    2.258E+00    2.251E+00    2.245E+00
     2.238E+00    2.232E+00    2.226E+00    2.219E+00    2.213E+00    2.206E+00    2.200E+00    2.193E+00    2.187E+00    2.181E+00
     2.174E+00    2.168E+00    2.161E+00    2.155E+00    2.149E+00    2.142E+00    2.136E+00    2.129E+00    2.123E+00    2.116E+00
     2.110E+00    2.104E+00    2.097E+00    2.091E+00    2.084E+00    2.078E+00    2.071E+00    2.065E+00    2.058E+00    2.052E+00
     2.046E+00    2.039E+00    2.033E+00    2.026E+00    2.020E+00    2.013E+00    2.007E+00    2.001E+00    1.994E+00    1.988E+00
     1.981E+00    1.975E+00    1.968E+00    1.962E+00    1.955E+00    1.949E+00    1.943E+00    1.936E+00    1.930E+00    1.923E+00
     1.917E+00    1.910E+00    1.904E+00    1.897E+00    1.891E+00    1.885E+00    1.878E+00    1.872E+00    1.865E+00    1.859E+00
     1.852E+00    1.846E+00    1.839E+00    1.833E+00    1.826E+00    1.820E+00    1.814E+00    1.807E+00    1.801E+00    1.794E+00
     1.788E+00    1.781E+00    1.775E+00    1.768E+00    1.762E+00    1.756E+00    1.749E+00    1.743E+00    1.736E+00    1.730E+00
     1.723E+00    1.717E+00    1.710E+00    1.704E+00    1.697E+00    1.691E+00    1.685E+00    1.678E+00    1.672E+00    1.665E+00
     1.659E+00    1.652E+00    1.646E+00    1.639E+00    1.633E+00    1.626E+00    1.620E+00    1.614E+00    1.607E+00    1.601E+00
     1.594E+00    1.588E+00    1.581E+00    1.575E+00    1.568E+00    1.562E+00    1.555E+00    1.549E+00    1.542E+00    1.536E+00
     1.530E+00    1.523E+00    1.517E+00    1.510E+00    1.504E+00    1.497E+00    1.491E+00    1.484E+00    1.478E+00    1.471E+00
     1.465E+00    1.459E+00    1.452E+00    1.446E+00    1.439E+00    1.433E+00    1.426E+00    1.420E+00    1.413E+00    1.407E+00
     1.400E+00    1.394E+00    1.388E+00    1.381E+00    1.375E+00    1.368E+00    1.362E+00    1.355E+00    1.349E+00    1.342E+00
     1.336E+00    1.330E+00    1.323E+00    1.317E+00    1.310E+00    1.304E+00    1.297E+00    1.291E+00    1.284E+00    1.278E+00
     1.271E+00    1.265E+00    1.259E+00    1.252E+00    1.246E+00    1.239E+00    1.233E+00    1.226E+00    1.220E+00    1.213E+00
     1.207E+00    1.201E+00    1.194E+00    1.188E+00    1.181E+00    1.175E+00    1.168E+00    1.162E+00    1.156E+00    1.149E+00
     1.143E+00    1.136E+00    1.130E+00    1.123E+00    1.117E+00    1.110E+00    1.104E+00    1.098E+00    1.091E+00    1.085E+00
     1.078E+00    1.072E+00    1.065E+00    1.059E+00    1.053E+00    1.046E+00    1.040E+00    1.033E+00    1.027E+00    1.020E+00
     1.014E+00    1.008E+00    1.001E+00    9.947E-01    9.883E-01    9.818E-01    9.754E-01    9.690E-01    9.626E-01    9.561E-01
     9.497E-01    9.433E-01    9.369E-01    9.305E-01    9.240E-01    9.176E-01    9.112E-01    9.048E-01    8.984E-01    8.920E-01
     8.856E-01    8.791E-01    8.727E-01    8.663E-01    8.599E-01    8.535E-01    8.471E-01    8.407E-01    8.343E-01    8.279E-01
     8.215E-01    8.151E-01    8.087E-01    8.023E-01    7.959E-01    7.895E-01    7.830E-01    7.767E-01    7.703E-01    7.639E-01
     7.575E-01    7.511E-01    7.447E-01    7.383E-01    7.319E-01    7.255E-01    7.191E-01    7.127E-01    7.063E-01    6.999E-01
     6.935E-01    6.872E-01    6.808E-01    6.744E-01    6.680E-01    6.616E-01    6.552E-01    6.489E-01
 Ala      Conc. = 1.78E+02
