 LCModel (Version 6.3-1L) Copyright: S.W. Provencher.          Ref.: Magn. Reson. Med. 30:672-679 (1993).                
 Slice#1 Row#4 Col#5  K_02_press_1_raw_act
 36 lines in following concentration table = NCONC+1
    Conc.  %SD /Cr+PCr  Metabolite                                         
  176.319 128%   0.127 Ala                                                 
    0.000 999%   0.000 Asp                                                 
    0.000 999%   0.000 Cr                                                  
 1.38E+03   6%   1.000 PCr                                                 
    0.000 999%   0.000 GABA                                                
   92.141 205% 6.7E-02 Glc                                                 
   53.187 916% 3.8E-02 Gln                                                 
  861.967  64%   0.623 Glu                                                 
  639.414   5%   0.462 GPC                                                 
    0.000 999%   0.000 PCh                                                 
  610.314  20%   0.441 GSH                                                 
 1.83E+03  21%   1.322 Ins                                                 
    0.000 999%   0.000 Lac                                                 
 2.64E+03   7%   1.907 NAA                                                 
    3.008 999% 2.2E-03 NAAG                                                
  230.710  17%   0.167 Scyllo                                              
  942.224  27%   0.681 Tau                                                 
  866.038  17%   0.626 -CrCH2                                              
  639.414   5%   0.462 GPC+PCh                                             
 2.64E+03   5%   1.909 NAA+NAAG                                            
 1.38E+03   6%   1.000 Cr+PCr                                              
  915.154  97%   0.661 Glu+Gln                                             
 2.92E+03  18%   2.113 Lip13a                                              
    0.000 999%   0.000 Lip13b                                              
  646.925  64%   0.467 Lip09                                               
 1.16E+03  34%   0.836 MM09                                                
  619.455  50%   0.448 Lip20                                               
 3.10E+03  17%   2.240 MM20                                                
  219.912 136%   0.159 MM12                                                
    0.000 999%   0.000 MM14                                                
 1.54E+03  19%   1.114 MM17                                                
 2.92E+03  18%   2.113 Lip13a+Lip13b                                       
 3.14E+03  13%   2.272 MM14+Lip13a+Lip13b+MM12                             
 1.80E+03  12%   1.304 MM09+Lip09                                          
 3.72E+03  13%   2.688 MM20+Lip20                                          
   6 lines in following misc. output table
  FWHM = 0.069 ppm    S/N =  10                                            
  Data shift = 0.031 ppm                                                   
  Ph: -67 deg     -25.5 deg/ppm                                            
  alphaB,S = 1.5E+00,   2.4E+01                                            
   14 spline knots.   Ns =10(1)                                            
  (17)12 infls.   (19) 9 extrs.                                            
  498 points on ppm-axis = NY
      4.000000     3.992357     3.984714     3.977070     3.969427     3.961784     3.954141     3.946497     3.938854     3.931211
      3.923568     3.915925     3.908281     3.900638     3.892995     3.885352     3.877708     3.870065     3.862422     3.854779
      3.847136     3.839492     3.831849     3.824206     3.816563     3.808919     3.801276     3.793633     3.785990     3.778347
      3.770703     3.763060     3.755417     3.747774     3.740130     3.732487     3.724844     3.717201     3.709558     3.701914
      3.694271     3.686628     3.678985     3.671341     3.663698     3.656055     3.648412     3.640769     3.633125     3.625482
      3.617839     3.610196     3.602552     3.594909     3.587266     3.579623     3.571980     3.564336     3.556693     3.549050
      3.541407     3.533763     3.526120     3.518477     3.510834     3.503191     3.495547     3.487904     3.480261     3.472618
      3.464974     3.457331     3.449688     3.442045     3.434402     3.426758     3.419115     3.411472     3.403829     3.396185
      3.388542     3.380899     3.373256     3.365613     3.357969     3.350326     3.342683     3.335040     3.327396     3.319753
      3.312110     3.304467     3.296824     3.289180     3.281537     3.273894     3.266251     3.258607     3.250964     3.243321
      3.235678     3.228034     3.220391     3.212748     3.205105     3.197462     3.189818     3.182175     3.174532     3.166889
      3.159245     3.151602     3.143959     3.136316     3.128673     3.121029     3.113386     3.105743     3.098100     3.090456
      3.082813     3.075170     3.067527     3.059884     3.052240     3.044597     3.036954     3.029311     3.021667     3.014024
      3.006381     2.998738     2.991095     2.983451     2.975808     2.968165     2.960522     2.952878     2.945235     2.937592
      2.929949     2.922306     2.914662     2.907019     2.899376     2.891733     2.884089     2.876446     2.868803     2.861160
      2.853517     2.845873     2.838230     2.830587     2.822944     2.815300     2.807657     2.800014     2.792371     2.784728
      2.777084     2.769441     2.761798     2.754155     2.746511     2.738868     2.731225     2.723582     2.715939     2.708295
      2.700652     2.693009     2.685366     2.677722     2.670079     2.662436     2.654793     2.647150     2.639506     2.631863
      2.624220     2.616577     2.608933     2.601290     2.593647     2.586004     2.578361     2.570717     2.563074     2.555431
      2.547788     2.540144     2.532501     2.524858     2.517215     2.509572     2.501928     2.494285     2.486642     2.478999
      2.471355     2.463712     2.456069     2.448426     2.440783     2.433139     2.425496     2.417853     2.410210     2.402566
      2.394923     2.387280     2.379637     2.371994     2.364350     2.356707     2.349064     2.341421     2.333777     2.326134
      2.318491     2.310848     2.303205     2.295561     2.287918     2.280275     2.272632     2.264988     2.257345     2.249702
      2.242059     2.234416     2.226772     2.219129     2.211486     2.203843     2.196199     2.188556     2.180913     2.173270
      2.165627     2.157983     2.150340     2.142697     2.135054     2.127410     2.119767     2.112124     2.104481     2.096838
      2.089194     2.081551     2.073908     2.066265     2.058621     2.050978     2.043335     2.035692     2.028049     2.020405
      2.012762     2.005119     1.997476     1.989833     1.982190     1.974546     1.966903     1.959260     1.951617     1.943974
      1.936331     1.928688     1.921045     1.913402     1.905759     1.898115     1.890472     1.882829     1.875186     1.867543
      1.859900     1.852257     1.844614     1.836971     1.829327     1.821684     1.814041     1.806398     1.798755     1.791112
      1.783469     1.775826     1.768183     1.760540     1.752896     1.745253     1.737610     1.729967     1.722324     1.714681
      1.707038     1.699395     1.691752     1.684108     1.676465     1.668822     1.661179     1.653536     1.645893     1.638250
      1.630607     1.622964     1.615321     1.607677     1.600034     1.592391     1.584748     1.577105     1.569462     1.561819
      1.554176     1.546533     1.538890     1.531246     1.523603     1.515960     1.508317     1.500674     1.493031     1.485388
      1.477745     1.470102     1.462458     1.454815     1.447172     1.439529     1.431886     1.424243     1.416600     1.408957
      1.401314     1.393671     1.386027     1.378384     1.370741     1.363098     1.355455     1.347812     1.340169     1.332526
      1.324883     1.317240     1.309596     1.301953     1.294310     1.286667     1.279024     1.271381     1.263738     1.256095
      1.248452     1.240808     1.233165     1.225522     1.217879     1.210236     1.202593     1.194950     1.187307     1.179664
      1.172021     1.164377     1.156734     1.149091     1.141448     1.133805     1.126162     1.118519     1.110876     1.103233
      1.095590     1.087946     1.080303     1.072660     1.065017     1.057374     1.049731     1.042088     1.034445     1.026802
      1.019158     1.011515     1.003872     0.996229     0.988586     0.980943     0.973300     0.965657     0.958014     0.950371
      0.942727     0.935084     0.927441     0.919798     0.912155     0.904512     0.896869     0.889226     0.881583     0.873940
      0.866296     0.858653     0.851010     0.843367     0.835724     0.828081     0.820438     0.812795     0.805152     0.797508
      0.789865     0.782222     0.774579     0.766936     0.759293     0.751650     0.744007     0.736364     0.728721     0.721077
      0.713434     0.705791     0.698148     0.690505     0.682862     0.675219     0.667576     0.659933     0.652290     0.644646
      0.637003     0.629360     0.621717     0.614074     0.606431     0.598788     0.591145     0.583502     0.575858     0.568215
      0.560572     0.552929     0.545286     0.537643     0.530000     0.522357     0.514714     0.507071     0.499427     0.491784
      0.484141     0.476498     0.468855     0.461212     0.453569     0.445925     0.438282     0.430639     0.422996     0.415353
      0.407710     0.400067     0.392424     0.384780     0.377137     0.369494     0.361851     0.354208     0.346565     0.338922
      0.331278     0.323635     0.315992     0.308349     0.300706     0.293063     0.285420     0.277777     0.270133     0.262490
      0.254847     0.247204     0.239561     0.231918     0.224275     0.216631     0.208988     0.201345
 NY phased data points follow
  -5.08832E+01 -4.43266E+01 -4.43811E+01 -4.35663E+01 -4.54392E+01 -3.99865E+01 -3.40701E+01 -3.18781E+01 -2.64166E+01 -2.80836E+01
  -3.36959E+01 -2.78372E+01 -3.27726E+01 -3.57300E+01 -4.04984E+01 -3.65874E+01 -4.24952E+01 -4.81655E+01 -3.59584E+01 -4.10959E+01
  -3.98228E+01 -4.32445E+01 -3.65424E+01 -3.88712E+01 -3.42645E+01 -3.36129E+01 -3.47748E+01 -3.02694E+01 -3.04229E+01 -2.84784E+01
  -2.97511E+01 -3.03350E+01 -3.38738E+01 -3.09555E+01 -2.52361E+01 -2.70248E+01 -2.75760E+01 -2.53553E+01 -2.99355E+01 -2.89600E+01
  -2.54980E+01 -2.38344E+01 -2.73768E+01 -3.01448E+01 -1.87695E+01 -2.26725E+01 -2.37456E+01 -2.21307E+01 -2.54406E+01 -2.41631E+01
  -2.77528E+01 -2.43051E+01 -2.76376E+01 -3.10779E+01 -2.81282E+01 -2.74624E+01 -2.61658E+01 -2.83680E+01 -2.58934E+01 -2.64115E+01
  -3.18474E+01 -2.89557E+01 -2.85711E+01 -2.87570E+01 -2.78491E+01 -2.67253E+01 -2.48764E+01 -2.29117E+01 -3.15260E+01 -2.61718E+01
  -2.21279E+01 -2.57715E+01 -2.14522E+01 -2.36042E+01 -2.24980E+01 -2.81633E+01 -2.23134E+01 -2.38229E+01 -2.34680E+01 -2.31174E+01
  -1.64993E+01 -2.19783E+01 -2.17364E+01 -1.68731E+01 -1.78587E+01 -1.90165E+01 -2.08125E+01 -2.46085E+01 -1.96139E+01 -1.33710E+01
  -1.44918E+01 -1.00909E+01 -1.38978E+01 -7.39050E+00 -5.70184E+00 -8.18277E+00 -4.04474E+00  1.95233E+00  4.68646E+00  1.38943E+01
   1.89101E+01  1.58852E+01  1.58927E+01  2.00408E+01  1.30453E+01  4.84834E+00 -9.97667E-01 -3.26292E+00 -1.09194E+00 -8.71556E+00
  -1.22417E+01 -1.34896E+01 -1.54531E+01 -1.58014E+01 -1.46421E+01 -1.04704E+01 -8.83371E+00 -9.38893E+00 -1.21440E+01 -6.77267E+00
  -7.63555E+00 -1.89712E+00 -4.38172E+00  8.00780E+00  9.78818E+00  2.01635E+01  1.09944E+01  1.48975E+01  9.40932E+00  8.35256E+00
   6.22502E+00  1.72892E+00 -5.39585E-01 -5.61023E+00 -1.07982E+01 -9.35594E+00 -1.29758E+01 -7.10918E+00 -1.49493E+01 -1.23600E+01
  -9.22466E+00 -1.16572E+01 -1.06644E+01 -1.53142E+01 -1.60978E+01 -1.22084E+01 -1.50375E+01 -6.68601E+00 -1.38808E+01 -9.01131E+00
  -1.72307E+01 -1.14383E+01 -1.59742E+01 -1.13540E+01 -1.25285E+01 -1.37886E+01 -1.28815E+01 -8.00116E+00 -1.32016E+01 -1.67359E+01
  -1.69967E+01 -1.29715E+01 -1.14942E+01 -1.11613E+01 -9.28448E+00 -1.82437E+01 -1.29717E+01 -1.43367E+01 -1.84320E+01 -1.35969E+01
  -2.25361E+01 -1.78097E+01 -2.13340E+01 -2.54762E+01 -2.34726E+01 -1.81538E+01 -2.38010E+01 -2.29443E+01 -1.97420E+01 -2.19690E+01
  -1.77527E+01 -1.76798E+01 -1.32674E+01 -1.76521E+01 -1.70079E+01 -1.49766E+01 -1.25700E+01 -1.31478E+01 -1.07116E+01 -6.95560E+00
  -1.01716E+01 -5.22760E+00 -1.08949E+01 -8.65619E+00 -8.61943E+00 -1.00645E+01 -1.35104E+01 -7.93251E+00 -1.29140E+01 -8.39676E+00
  -8.25050E+00 -8.02046E+00 -3.30585E+00 -5.66524E+00 -1.39449E+00 -1.10498E+01 -3.81227E+00 -5.62827E+00 -6.92328E+00 -6.25395E+00
  -2.74663E+00 -1.33934E+00 -4.01084E+00 -4.24576E+00  2.13699E+00 -3.84503E-01  1.63789E+00 -1.67030E+00  6.48031E+00 -2.30102E+00
  -2.87901E+00 -5.44428E+00 -4.34507E+00 -3.65001E-01 -5.66203E+00 -7.87940E+00  4.32984E+00 -2.17133E+00  9.21741E-01  1.08712E+00
   4.01121E+00  1.08347E+00  3.36334E+00 -2.08271E+00  3.10904E+00 -1.04671E+00 -8.49049E-01  8.09704E+00  2.05653E+00 -1.75422E+00
  -1.36256E+00  2.81221E+00  1.23880E+00 -1.75497E+00  8.86773E+00  9.92649E+00  1.00782E+01  1.21705E+01  1.44139E+01  1.30189E+01
   1.59218E+01  2.40571E+01  2.14097E+01  3.44650E+01  3.65598E+01  3.58632E+01  4.35467E+01  5.43820E+01  5.93696E+01  6.77944E+01
   6.19555E+01  6.94933E+01  7.05487E+01  4.88074E+01  5.08782E+01  4.33059E+01  3.29363E+01  2.69214E+01  1.85825E+01  2.33578E+01
   8.19116E+00  9.69735E+00  8.33528E+00  1.12092E+01  1.04687E+01  5.33063E+00  5.80313E+00  2.63964E+00  3.14775E+00 -3.68059E+00
   3.64304E+00  3.61123E+00  2.50583E+00  2.61573E+00  1.13543E+00  3.38725E+00  7.71432E+00  8.24357E+00  6.19929E+00  7.68847E+00
   9.58365E+00  3.41833E+00  8.00605E+00  6.11308E+00  9.18100E+00  4.04449E+00  6.20204E+00  1.22346E+01  1.10089E+01  9.80947E+00
   1.34220E+01  1.32026E+01  1.06355E+01  1.38529E+01  1.33040E+01  1.88109E+01  1.09115E+01  6.00369E+00  9.29729E+00  1.02033E+01
   1.07341E+01  1.03130E+01  6.03364E+00  5.19577E+00  1.04286E+01  1.09180E+01  5.23155E-02  5.25460E+00  1.36620E+01  5.18236E+00
   5.41053E+00  2.19004E+00  9.93017E+00  3.62050E+00  3.24756E+00  5.74937E+00  4.35503E+00  3.09989E+00  7.63407E+00  6.53315E+00
   5.93360E+00  9.15828E-02  1.10972E+01  4.95301E+00  5.23538E+00  4.66647E+00  8.91309E+00  9.61725E+00  7.18126E+00  7.78939E+00
   1.57750E+01  1.29641E+01  8.64272E+00  1.79876E+01  1.70644E+01  1.93373E+01  2.30562E+01  2.00722E+01  1.71778E+01  2.43825E+01
   2.33566E+01  2.11511E+01  2.39634E+01  2.84548E+01  2.06394E+01  1.61028E+01  1.43418E+01  1.29505E+01  1.77958E+01  1.74209E+01
   1.69490E+01  1.78708E+01  1.68243E+01  1.52299E+01  1.63769E+01  1.33118E+01  1.75134E+01  1.03437E+01  1.59410E+01  1.56122E+01
   8.77159E+00  8.52660E+00  9.35411E+00  1.01971E+01  9.75842E+00  1.08664E+01  1.08928E+01  8.17381E+00  1.16084E+01  8.47014E+00
   1.25014E+01  9.59357E+00  8.43422E+00  7.26203E+00  1.42736E+01  1.33837E+01  1.68248E+01  1.10161E+01  1.06346E+01  1.18789E+01
   9.44907E+00  1.10983E+01  1.09615E+01  8.64493E+00  1.47336E+01  1.29480E+01  1.84284E+01  1.32784E+01  1.73335E+01  1.93795E+01
   1.66791E+01  1.69491E+01  1.80154E+01  1.49192E+01  1.97927E+01  2.03327E+01  1.82874E+01  1.72866E+01  2.03097E+01  1.88237E+01
   2.16284E+01  1.69389E+01  1.48767E+01  1.86606E+01  2.05614E+01  1.31610E+01  1.56162E+01  1.05118E+01  1.44996E+01  9.30764E+00
   8.87465E+00  9.31945E+00  9.92093E+00  1.28050E+01  1.53564E+01  7.69493E+00  5.19599E+00  8.18059E+00  1.28545E+01  9.32496E+00
   1.19483E+01  1.25055E+01  5.35110E+00  1.02381E+01  7.90556E+00  1.08290E+01  1.13808E+01  7.20575E+00  1.03751E+01  1.11545E+01
   1.10546E+01  1.07332E+01  5.08264E+00  1.05685E+01  1.19989E+01  8.34059E+00  8.72245E+00  6.88210E+00  1.23477E+01  7.71136E+00
   8.46501E+00  1.03238E+01  6.45813E+00  7.31011E+00  4.61128E+00  6.89145E+00  4.18410E+00  9.14803E+00  8.79025E+00  5.28826E+00
   8.86995E+00  1.15256E+01  9.17952E+00  7.29236E+00  1.06650E+01  1.06987E+01  7.23861E+00  9.50239E+00  5.63732E+00  7.12276E+00
   5.06381E+00  1.17017E+01  1.05907E+01  7.66981E+00  6.38853E+00  6.49188E+00  3.82424E+00  8.50244E+00  7.16638E+00  4.97494E+00
   8.03870E+00  5.10842E+00  1.22307E+01  9.23484E+00  4.71638E+00  8.96745E+00  3.07720E+00  1.17694E+01  3.67385E+00  7.27817E+00
   5.64059E+00  7.05972E+00  7.97103E+00  6.82847E+00  7.77061E+00  1.03826E+01  6.64279E+00  9.74366E+00
 NY points of the fit to the data follow
  -4.04537E+01 -3.99025E+01 -3.93422E+01 -3.90520E+01 -3.80416E+01 -3.62404E+01 -3.44457E+01 -3.34191E+01 -3.32092E+01 -3.27460E+01
  -3.26672E+01 -3.36510E+01 -3.41714E+01 -3.47440E+01 -3.58095E+01 -3.63845E+01 -3.71651E+01 -3.77453E+01 -3.82961E+01 -3.82314E+01
  -3.74142E+01 -3.71675E+01 -3.66436E+01 -3.57396E+01 -3.53627E+01 -3.47620E+01 -3.31444E+01 -3.07480E+01 -2.88006E+01 -2.84798E+01
  -2.77278E+01 -2.65966E+01 -2.70851E+01 -2.78409E+01 -2.80541E+01 -2.87099E+01 -2.93255E+01 -2.95026E+01 -2.92590E+01 -2.92482E+01
  -2.93447E+01 -2.94675E+01 -2.90151E+01 -2.77010E+01 -2.61534E+01 -2.49302E+01 -2.44891E+01 -2.45667E+01 -2.47228E+01 -2.54793E+01
  -2.65066E+01 -2.71613E+01 -2.78702E+01 -2.86315E+01 -2.90961E+01 -2.92000E+01 -2.87789E+01 -2.81293E+01 -2.79402E+01 -2.75218E+01
  -2.74824E+01 -2.74395E+01 -2.72583E+01 -2.72198E+01 -2.70982E+01 -2.65707E+01 -2.60020E+01 -2.56289E+01 -2.51795E+01 -2.48978E+01
  -2.48757E+01 -2.48251E+01 -2.42338E+01 -2.35068E+01 -2.33335E+01 -2.35043E+01 -2.31401E+01 -2.23740E+01 -2.30527E+01 -2.26641E+01
  -2.24184E+01 -2.24810E+01 -2.16073E+01 -2.01403E+01 -1.89338E+01 -1.83168E+01 -1.86483E+01 -1.88155E+01 -1.86036E+01 -1.92197E+01
  -1.94046E+01 -1.66652E+01 -1.23140E+01 -1.12608E+01 -8.57547E+00 -6.61631E+00 -5.11316E+00 -6.12883E-01  6.26673E+00  1.38341E+01
   1.78793E+01  1.74605E+01  1.86989E+01  1.77469E+01  1.16888E+01  7.39375E+00  3.32378E+00 -1.72967E+00 -5.28094E+00 -8.75243E+00
  -1.19113E+01 -1.40388E+01 -1.52225E+01 -1.77219E+01 -1.87967E+01 -1.84572E+01 -1.51584E+01 -1.19584E+01 -1.05859E+01 -7.80682E+00
  -6.49319E+00 -5.01816E+00 -7.69572E-01  5.53896E+00  1.13916E+01  1.33831E+01  1.33661E+01  1.45483E+01  1.25126E+01  8.11285E+00
   5.53137E+00  2.27244E+00 -1.11525E+00 -4.06871E+00 -6.94990E+00 -9.32868E+00 -1.08700E+01 -1.19316E+01 -1.33887E+01 -1.36499E+01
  -1.34054E+01 -1.32361E+01 -1.30902E+01 -1.29505E+01 -1.30261E+01 -1.31796E+01 -1.32369E+01 -1.33188E+01 -1.34042E+01 -1.34752E+01
  -1.35470E+01 -1.38606E+01 -1.41127E+01 -1.42380E+01 -1.43090E+01 -1.41285E+01 -1.39966E+01 -1.41245E+01 -1.43197E+01 -1.46720E+01
  -1.48088E+01 -1.46797E+01 -1.46104E+01 -1.45324E+01 -1.45540E+01 -1.47807E+01 -1.49632E+01 -1.54024E+01 -1.56751E+01 -1.58467E+01
  -1.60249E+01 -1.63195E+01 -1.67547E+01 -1.70781E+01 -1.73547E+01 -1.73721E+01 -1.71993E+01 -1.74581E+01 -1.76126E+01 -1.71772E+01
  -1.67758E+01 -1.61896E+01 -1.56944E+01 -1.54163E+01 -1.49601E+01 -1.44383E+01 -1.36168E+01 -1.25114E+01 -1.15813E+01 -1.04945E+01
  -9.49697E+00 -8.98512E+00 -8.55235E+00 -8.20412E+00 -8.02802E+00 -8.04311E+00 -7.96625E+00 -7.72332E+00 -7.63606E+00 -7.41622E+00
  -7.05872E+00 -6.54563E+00 -6.13487E+00 -6.09389E+00 -6.02459E+00 -5.70511E+00 -5.56081E+00 -5.41453E+00 -5.63258E+00 -5.79730E+00
  -6.06988E+00 -6.41513E+00 -6.27522E+00 -5.87792E+00 -5.45676E+00 -5.05319E+00 -4.78859E+00 -4.43462E+00 -4.45029E+00 -4.94481E+00
  -5.31237E+00 -5.45455E+00 -5.25334E+00 -4.77212E+00 -4.22759E+00 -3.16509E+00 -1.99963E+00 -1.07496E+00 -4.25437E-01 -1.95292E-02
   4.53726E-01  9.32875E-01  1.27638E+00  1.71731E+00  2.54644E+00  3.33766E+00  3.73125E+00  3.84094E+00  4.09504E+00  4.18015E+00
   4.05082E+00  4.19427E+00  4.73210E+00  5.63473E+00  6.52262E+00  7.43080E+00  8.51894E+00  9.43121E+00  1.01453E+01  1.13588E+01
   1.62162E+01  2.45924E+01  2.72871E+01  3.23073E+01  3.58233E+01  3.75336E+01  4.30374E+01  5.28443E+01  6.30327E+01  6.81173E+01
   6.66307E+01  6.70778E+01  6.50181E+01  5.52718E+01  4.77000E+01  4.07922E+01  3.27221E+01  2.69452E+01  2.11611E+01  1.64879E+01
   1.30897E+01  1.13549E+01  7.63291E+00  5.69377E+00  5.04816E+00  4.68588E+00  4.38379E+00  4.15601E+00  3.96969E+00  3.81875E+00
   3.72779E+00  3.68405E+00  3.68815E+00  3.76233E+00  3.90358E+00  4.09548E+00  4.35008E+00  4.66672E+00  5.05143E+00  5.49248E+00
   5.98930E+00  6.53015E+00  7.11285E+00  7.71744E+00  8.33533E+00  8.94604E+00  9.53764E+00  1.00892E+01  1.05884E+01  1.10155E+01
   1.13629E+01  1.16147E+01  1.17666E+01  1.18109E+01  1.17531E+01  1.15927E+01  1.13417E+01  1.10074E+01  1.06079E+01  1.01549E+01
   9.66975E+00  9.16568E+00  8.66415E+00  8.17799E+00  7.72872E+00  7.33236E+00  7.02803E+00  6.85194E+00  6.57697E+00  6.25686E+00
   6.05919E+00  5.80989E+00  5.66921E+00  5.65688E+00  5.60425E+00  5.54710E+00  5.44532E+00  5.27974E+00  5.34238E+00  5.22259E+00
   5.11446E+00  5.35720E+00  5.84559E+00  6.60952E+00  7.43133E+00  8.16461E+00  9.10897E+00  1.00728E+01  1.08110E+01  1.15976E+01
   1.24556E+01  1.32681E+01  1.41153E+01  1.49340E+01  1.57486E+01  1.65777E+01  1.74097E+01  1.81186E+01  1.87970E+01  1.94191E+01
   1.99563E+01  2.03848E+01  2.06944E+01  2.08720E+01  2.09168E+01  2.08249E+01  2.06040E+01  2.02585E+01  1.98035E+01  1.92502E+01
   1.86189E+01  1.79241E+01  1.71879E+01  1.64251E+01  1.56566E+01  1.48949E+01  1.41575E+01  1.34529E+01  1.27939E+01  1.21844E+01
   1.16327E+01  1.11388E+01  1.07075E+01  1.03357E+01  1.00257E+01  9.77265E+00  9.57801E+00  9.43637E+00  9.34904E+00  9.31073E+00
   9.32319E+00  9.38189E+00  9.48940E+00  9.64197E+00  9.84270E+00  1.00882E+01  1.03815E+01  1.07193E+01  1.11043E+01  1.15318E+01
   1.20031E+01  1.25115E+01  1.30560E+01  1.36273E+01  1.42214E+01  1.48261E+01  1.54341E+01  1.60307E+01  1.66065E+01  1.71452E+01
   1.76369E+01  1.80657E+01  1.84230E+01  1.86956E+01  1.88788E+01  1.89639E+01  1.89514E+01  1.88384E+01  1.86312E+01  1.83326E+01
   1.79542E+01  1.75033E+01  1.69950E+01  1.64390E+01  1.58516E+01  1.52428E+01  1.46281E+01  1.40158E+01  1.34188E+01  1.28422E+01
   1.22958E+01  1.17816E+01  1.13059E+01  1.08677E+01  1.04704E+01  1.01107E+01  9.79026E+00  9.50428E+00  9.25335E+00  9.03191E+00
   8.84009E+00  8.67223E+00  8.52862E+00  8.40386E+00  8.29850E+00  8.20745E+00  8.13163E+00  8.06647E+00  8.01335E+00  7.96809E+00
   7.93236E+00  7.90224E+00  7.87969E+00  7.86114E+00  7.84880E+00  7.83928E+00  7.83486E+00  7.83227E+00  7.83395E+00  7.83682E+00
   7.84342E+00  7.85069E+00  7.86116E+00  7.87185E+00  7.88538E+00  7.89891E+00  7.91504E+00  7.93090E+00  7.94908E+00  7.96676E+00
   7.98663E+00  8.00593E+00  8.02729E+00  8.04791E+00  8.07042E+00  8.09210E+00  8.11565E+00  8.13835E+00  8.16282E+00  8.18632E+00
   8.21149E+00  8.23569E+00  8.26157E+00  8.28648E+00  8.31300E+00  8.33844E+00  8.36545E+00  8.39144E+00  8.41903E+00  8.44558E+00
   8.47365E+00  8.50063E+00  8.52914E+00  8.55664E+00  8.58571E+00  8.61374E+00  8.64327E+00  8.67175E+00  8.70181E+00  8.73092E+00
   8.76162E+00  8.79135E+00  8.82265E+00  8.85304E+00  8.88513E+00  8.91644E+00  8.94949E+00  8.98179E+00
 NY background values follow
    -4.627E+01   -4.606E+01   -4.586E+01   -4.565E+01   -4.544E+01   -4.523E+01   -4.503E+01   -4.482E+01   -4.461E+01   -4.440E+01
    -4.420E+01   -4.399E+01   -4.378E+01   -4.357E+01   -4.336E+01   -4.316E+01   -4.295E+01   -4.274E+01   -4.253E+01   -4.232E+01
    -4.212E+01   -4.191E+01   -4.170E+01   -4.149E+01   -4.128E+01   -4.108E+01   -4.087E+01   -4.066E+01   -4.045E+01   -4.025E+01
    -4.004E+01   -3.983E+01   -3.962E+01   -3.942E+01   -3.921E+01   -3.900E+01   -3.880E+01   -3.859E+01   -3.838E+01   -3.818E+01
    -3.797E+01   -3.776E+01   -3.756E+01   -3.735E+01   -3.715E+01   -3.694E+01   -3.674E+01   -3.653E+01   -3.633E+01   -3.612E+01
    -3.592E+01   -3.571E+01   -3.551E+01   -3.531E+01   -3.510E+01   -3.490E+01   -3.470E+01   -3.450E+01   -3.429E+01   -3.409E+01
    -3.389E+01   -3.369E+01   -3.349E+01   -3.329E+01   -3.309E+01   -3.289E+01   -3.269E+01   -3.249E+01   -3.229E+01   -3.209E+01
    -3.189E+01   -3.169E+01   -3.150E+01   -3.130E+01   -3.110E+01   -3.091E+01   -3.071E+01   -3.051E+01   -3.032E+01   -3.012E+01
    -2.993E+01   -2.974E+01   -2.954E+01   -2.935E+01   -2.916E+01   -2.896E+01   -2.877E+01   -2.858E+01   -2.839E+01   -2.820E+01
    -2.801E+01   -2.782E+01   -2.763E+01   -2.744E+01   -2.726E+01   -2.707E+01   -2.688E+01   -2.670E+01   -2.651E+01   -2.632E+01
    -2.614E+01   -2.596E+01   -2.577E+01   -2.559E+01   -2.541E+01   -2.522E+01   -2.504E+01   -2.486E+01   -2.468E+01   -2.450E+01
    -2.432E+01   -2.414E+01   -2.396E+01   -2.378E+01   -2.361E+01   -2.343E+01   -2.325E+01   -2.308E+01   -2.290E+01   -2.273E+01
    -2.255E+01   -2.238E+01   -2.221E+01   -2.203E+01   -2.186E+01   -2.169E+01   -2.152E+01   -2.135E+01   -2.118E+01   -2.101E+01
    -2.084E+01   -2.067E+01   -2.050E+01   -2.034E+01   -2.017E+01   -2.001E+01   -1.984E+01   -1.968E+01   -1.951E+01   -1.935E+01
    -1.919E+01   -1.902E+01   -1.886E+01   -1.870E+01   -1.854E+01   -1.838E+01   -1.822E+01   -1.806E+01   -1.790E+01   -1.774E+01
    -1.759E+01   -1.743E+01   -1.727E+01   -1.712E+01   -1.696E+01   -1.681E+01   -1.665E+01   -1.650E+01   -1.635E+01   -1.620E+01
    -1.604E+01   -1.589E+01   -1.574E+01   -1.559E+01   -1.544E+01   -1.529E+01   -1.514E+01   -1.500E+01   -1.485E+01   -1.470E+01
    -1.455E+01   -1.441E+01   -1.426E+01   -1.412E+01   -1.397E+01   -1.383E+01   -1.368E+01   -1.354E+01   -1.340E+01   -1.326E+01
    -1.312E+01   -1.297E+01   -1.283E+01   -1.269E+01   -1.255E+01   -1.241E+01   -1.228E+01   -1.214E+01   -1.200E+01   -1.186E+01
    -1.173E+01   -1.159E+01   -1.145E+01   -1.132E+01   -1.118E+01   -1.105E+01   -1.092E+01   -1.078E+01   -1.065E+01   -1.052E+01
    -1.039E+01   -1.026E+01   -1.013E+01   -9.996E+00   -9.867E+00   -9.738E+00   -9.610E+00   -9.482E+00   -9.355E+00   -9.228E+00
    -9.102E+00   -8.977E+00   -8.852E+00   -8.727E+00   -8.604E+00   -8.480E+00   -8.358E+00   -8.236E+00   -8.114E+00   -7.993E+00
    -7.873E+00   -7.753E+00   -7.634E+00   -7.515E+00   -7.397E+00   -7.280E+00   -7.163E+00   -7.047E+00   -6.931E+00   -6.816E+00
    -6.702E+00   -6.588E+00   -6.475E+00   -6.362E+00   -6.250E+00   -6.138E+00   -6.027E+00   -5.917E+00   -5.807E+00   -5.698E+00
    -5.589E+00   -5.481E+00   -5.373E+00   -5.266E+00   -5.160E+00   -5.054E+00   -4.948E+00   -4.844E+00   -4.739E+00   -4.635E+00
    -4.532E+00   -4.430E+00   -4.327E+00   -4.226E+00   -4.125E+00   -4.024E+00   -3.924E+00   -3.824E+00   -3.725E+00   -3.627E+00
    -3.529E+00   -3.431E+00   -3.334E+00   -3.237E+00   -3.141E+00   -3.046E+00   -2.951E+00   -2.856E+00   -2.762E+00   -2.669E+00
    -2.575E+00   -2.483E+00   -2.391E+00   -2.299E+00   -2.208E+00   -2.117E+00   -2.027E+00   -1.937E+00   -1.848E+00   -1.759E+00
    -1.670E+00   -1.582E+00   -1.495E+00   -1.408E+00   -1.321E+00   -1.235E+00   -1.149E+00   -1.064E+00   -9.794E-01   -8.951E-01
    -8.112E-01   -7.277E-01   -6.447E-01   -5.621E-01   -4.799E-01   -3.982E-01   -3.169E-01   -2.361E-01   -1.556E-01   -7.561E-02
     3.979E-03    8.315E-02    1.619E-01    2.402E-01    3.181E-01    3.956E-01    4.727E-01    5.494E-01    6.257E-01    7.015E-01
     7.770E-01    8.521E-01    9.267E-01    1.001E+00    1.075E+00    1.148E+00    1.221E+00    1.294E+00    1.366E+00    1.438E+00
     1.510E+00    1.581E+00    1.652E+00    1.722E+00    1.792E+00    1.862E+00    1.931E+00    2.000E+00    2.068E+00    2.136E+00
     2.204E+00    2.272E+00    2.339E+00    2.405E+00    2.472E+00    2.538E+00    2.603E+00    2.668E+00    2.733E+00    2.798E+00
     2.862E+00    2.926E+00    2.989E+00    3.052E+00    3.115E+00    3.178E+00    3.240E+00    3.302E+00    3.363E+00    3.424E+00
     3.485E+00    3.545E+00    3.605E+00    3.665E+00    3.725E+00    3.784E+00    3.842E+00    3.901E+00    3.959E+00    4.017E+00
     4.074E+00    4.132E+00    4.188E+00    4.245E+00    4.301E+00    4.357E+00    4.413E+00    4.468E+00    4.523E+00    4.578E+00
     4.632E+00    4.686E+00    4.740E+00    4.794E+00    4.847E+00    4.900E+00    4.952E+00    5.005E+00    5.057E+00    5.109E+00
     5.160E+00    5.211E+00    5.262E+00    5.312E+00    5.363E+00    5.413E+00    5.462E+00    5.512E+00    5.561E+00    5.610E+00
     5.658E+00    5.706E+00    5.754E+00    5.802E+00    5.849E+00    5.897E+00    5.943E+00    5.990E+00    6.036E+00    6.082E+00
     6.128E+00    6.173E+00    6.219E+00    6.264E+00    6.308E+00    6.353E+00    6.397E+00    6.440E+00    6.484E+00    6.527E+00
     6.570E+00    6.613E+00    6.656E+00    6.698E+00    6.740E+00    6.782E+00    6.823E+00    6.865E+00    6.906E+00    6.946E+00
     6.987E+00    7.027E+00    7.067E+00    7.107E+00    7.147E+00    7.186E+00    7.225E+00    7.264E+00    7.303E+00    7.341E+00
     7.379E+00    7.417E+00    7.455E+00    7.493E+00    7.530E+00    7.567E+00    7.604E+00    7.641E+00    7.677E+00    7.713E+00
     7.749E+00    7.785E+00    7.821E+00    7.856E+00    7.892E+00    7.927E+00    7.962E+00    7.996E+00    8.031E+00    8.065E+00
     8.099E+00    8.133E+00    8.167E+00    8.201E+00    8.234E+00    8.267E+00    8.300E+00    8.333E+00    8.366E+00    8.398E+00
     8.431E+00    8.463E+00    8.495E+00    8.527E+00    8.559E+00    8.591E+00    8.623E+00    8.654E+00    8.686E+00    8.717E+00
     8.748E+00    8.779E+00    8.810E+00    8.841E+00    8.872E+00    8.903E+00    8.934E+00    8.964E+00    8.995E+00    9.025E+00
     9.056E+00    9.086E+00    9.117E+00    9.147E+00    9.177E+00    9.208E+00    9.238E+00    9.268E+00    9.298E+00    9.328E+00
     9.358E+00    9.388E+00    9.419E+00    9.449E+00    9.479E+00    9.509E+00    9.539E+00    9.569E+00
 Ala      Conc. = 1.76E+02
