 LCModel (Version 6.3-1L) Copyright: S.W. Provencher.          Ref.: Magn. Reson. Med. 30:672-679 (1993).                
 Slice#3 Row#9 Col#1  K_02_press_1_raw_act
 36 lines in following concentration table = NCONC+1
    Conc.  %SD /Cr+PCr  Metabolite                                         
    0.000 999%   0.000 Ala                                                 
   58.629  70%   0.149 Asp                                                 
  393.395  14%   1.000 Cr                                                  
    0.000 999%   0.000 PCr                                                 
   28.703  87% 7.3E-02 GABA                                                
   34.259  73% 8.7E-02 Glc                                                 
 2.37E+03  22%   6.028 Gln                                                 
  787.069  80%   2.001 Glu                                                 
    0.000 999%   0.000 GPC                                                 
  147.640  16%   0.375 PCh                                                 
    0.000 999%   0.000 GSH                                                 
 1.50E+03  20%   3.825 Ins                                                 
    0.000 999%   0.000 Lac                                                 
    0.000 999%   0.000 NAA                                                 
   56.277 111%   0.143 NAAG                                                
   15.941  52% 4.1E-02 Scyllo                                              
   80.273  51%   0.204 Tau                                                 
  459.972  27%   1.169 -CrCH2                                              
  147.640  16%   0.375 GPC+PCh                                             
   56.277 111%   0.143 NAA+NAAG                                            
  393.395  14%   1.000 Cr+PCr                                              
 3.16E+03  32%   8.028 Glu+Gln                                             
    0.000 999%   0.000 Lip13a                                              
  291.328  48%   0.741 Lip13b                                              
   30.768 243% 7.8E-02 Lip09                                               
  163.702  50%   0.416 MM09                                                
   39.637 133%   0.101 Lip20                                               
  276.382  55%   0.703 MM20                                                
   59.215  63%   0.151 MM12                                                
    0.000 999%   0.000 MM14                                                
  145.985  46%   0.371 MM17                                                
  291.328  48%   0.741 Lip13a+Lip13b                                       
  350.543  40%   0.891 MM14+Lip13a+Lip13b+MM12                             
  194.470  44%   0.494 MM09+Lip09                                          
  316.019  50%   0.803 MM20+Lip20                                          
   6 lines in following misc. output table
  FWHM = 0.153 ppm    S/N =   2                                            
  Data shift = 0.107 ppm                                                   
  Ph: -41 deg      40.2 deg/ppm                                            
  alphaB,S = 7.5E-01,   5.3E+01                                            
   12 spline knots.   Ns = 9(2)                                            
  (13)11 infls.   (11) 5 extrs.                                            
  498 points on ppm-axis = NY
      4.000000     3.992357     3.984714     3.977070     3.969427     3.961784     3.954141     3.946497     3.938854     3.931211
      3.923568     3.915925     3.908281     3.900638     3.892995     3.885352     3.877708     3.870065     3.862422     3.854779
      3.847136     3.839492     3.831849     3.824206     3.816563     3.808919     3.801276     3.793633     3.785990     3.778347
      3.770703     3.763060     3.755417     3.747774     3.740130     3.732487     3.724844     3.717201     3.709558     3.701914
      3.694271     3.686628     3.678985     3.671341     3.663698     3.656055     3.648412     3.640769     3.633125     3.625482
      3.617839     3.610196     3.602552     3.594909     3.587266     3.579623     3.571980     3.564336     3.556693     3.549050
      3.541407     3.533763     3.526120     3.518477     3.510834     3.503191     3.495547     3.487904     3.480261     3.472618
      3.464974     3.457331     3.449688     3.442045     3.434402     3.426758     3.419115     3.411472     3.403829     3.396185
      3.388542     3.380899     3.373256     3.365613     3.357969     3.350326     3.342683     3.335040     3.327396     3.319753
      3.312110     3.304467     3.296824     3.289180     3.281537     3.273894     3.266251     3.258607     3.250964     3.243321
      3.235678     3.228034     3.220391     3.212748     3.205105     3.197462     3.189818     3.182175     3.174532     3.166889
      3.159245     3.151602     3.143959     3.136316     3.128673     3.121029     3.113386     3.105743     3.098100     3.090456
      3.082813     3.075170     3.067527     3.059884     3.052240     3.044597     3.036954     3.029311     3.021667     3.014024
      3.006381     2.998738     2.991095     2.983451     2.975808     2.968165     2.960522     2.952878     2.945235     2.937592
      2.929949     2.922306     2.914662     2.907019     2.899376     2.891733     2.884089     2.876446     2.868803     2.861160
      2.853517     2.845873     2.838230     2.830587     2.822944     2.815300     2.807657     2.800014     2.792371     2.784728
      2.777084     2.769441     2.761798     2.754155     2.746511     2.738868     2.731225     2.723582     2.715939     2.708295
      2.700652     2.693009     2.685366     2.677722     2.670079     2.662436     2.654793     2.647150     2.639506     2.631863
      2.624220     2.616577     2.608933     2.601290     2.593647     2.586004     2.578361     2.570717     2.563074     2.555431
      2.547788     2.540144     2.532501     2.524858     2.517215     2.509572     2.501928     2.494285     2.486642     2.478999
      2.471355     2.463712     2.456069     2.448426     2.440783     2.433139     2.425496     2.417853     2.410210     2.402566
      2.394923     2.387280     2.379637     2.371994     2.364350     2.356707     2.349064     2.341421     2.333777     2.326134
      2.318491     2.310848     2.303205     2.295561     2.287918     2.280275     2.272632     2.264988     2.257345     2.249702
      2.242059     2.234416     2.226772     2.219129     2.211486     2.203843     2.196199     2.188556     2.180913     2.173270
      2.165627     2.157983     2.150340     2.142697     2.135054     2.127410     2.119767     2.112124     2.104481     2.096838
      2.089194     2.081551     2.073908     2.066265     2.058621     2.050978     2.043335     2.035692     2.028049     2.020405
      2.012762     2.005119     1.997476     1.989833     1.982190     1.974546     1.966903     1.959260     1.951617     1.943974
      1.936331     1.928688     1.921045     1.913402     1.905759     1.898115     1.890472     1.882829     1.875186     1.867543
      1.859900     1.852257     1.844614     1.836971     1.829327     1.821684     1.814041     1.806398     1.798755     1.791112
      1.783469     1.775826     1.768183     1.760540     1.752896     1.745253     1.737610     1.729967     1.722324     1.714681
      1.707038     1.699395     1.691752     1.684108     1.676465     1.668822     1.661179     1.653536     1.645893     1.638250
      1.630607     1.622964     1.615321     1.607677     1.600034     1.592391     1.584748     1.577105     1.569462     1.561819
      1.554176     1.546533     1.538890     1.531246     1.523603     1.515960     1.508317     1.500674     1.493031     1.485388
      1.477745     1.470102     1.462458     1.454815     1.447172     1.439529     1.431886     1.424243     1.416600     1.408957
      1.401314     1.393671     1.386027     1.378384     1.370741     1.363098     1.355455     1.347812     1.340169     1.332526
      1.324883     1.317240     1.309596     1.301953     1.294310     1.286667     1.279024     1.271381     1.263738     1.256095
      1.248452     1.240808     1.233165     1.225522     1.217879     1.210236     1.202593     1.194950     1.187307     1.179664
      1.172021     1.164377     1.156734     1.149091     1.141448     1.133805     1.126162     1.118519     1.110876     1.103233
      1.095590     1.087946     1.080303     1.072660     1.065017     1.057374     1.049731     1.042088     1.034445     1.026802
      1.019158     1.011515     1.003872     0.996229     0.988586     0.980943     0.973300     0.965657     0.958014     0.950371
      0.942727     0.935084     0.927441     0.919798     0.912155     0.904512     0.896869     0.889226     0.881583     0.873940
      0.866296     0.858653     0.851010     0.843367     0.835724     0.828081     0.820438     0.812795     0.805152     0.797508
      0.789865     0.782222     0.774579     0.766936     0.759293     0.751650     0.744007     0.736364     0.728721     0.721077
      0.713434     0.705791     0.698148     0.690505     0.682862     0.675219     0.667576     0.659933     0.652290     0.644646
      0.637003     0.629360     0.621717     0.614074     0.606431     0.598788     0.591145     0.583502     0.575858     0.568215
      0.560572     0.552929     0.545286     0.537643     0.530000     0.522357     0.514714     0.507071     0.499427     0.491784
      0.484141     0.476498     0.468855     0.461212     0.453569     0.445925     0.438282     0.430639     0.422996     0.415353
      0.407710     0.400067     0.392424     0.384780     0.377137     0.369494     0.361851     0.354208     0.346565     0.338922
      0.331278     0.323635     0.315992     0.308349     0.300706     0.293063     0.285420     0.277777     0.270133     0.262490
      0.254847     0.247204     0.239561     0.231918     0.224275     0.216631     0.208988     0.201345
 NY phased data points follow
  -1.12201E+02 -1.10150E+02 -1.12258E+02 -1.10369E+02 -1.09509E+02 -1.06434E+02 -1.06350E+02 -1.05454E+02 -1.02766E+02 -1.05483E+02
  -1.02639E+02 -1.04627E+02 -9.95319E+01 -9.89604E+01 -1.01061E+02 -9.77381E+01 -9.73526E+01 -9.81503E+01 -9.52734E+01 -9.58515E+01
  -9.56944E+01 -9.50969E+01 -9.31574E+01 -9.19620E+01 -9.26851E+01 -9.10692E+01 -8.73566E+01 -8.98694E+01 -9.17268E+01 -8.94234E+01
  -8.60584E+01 -8.77192E+01 -8.57956E+01 -8.49629E+01 -8.56287E+01 -8.57432E+01 -8.41952E+01 -8.17629E+01 -8.16168E+01 -8.11109E+01
  -8.07095E+01 -8.10182E+01 -7.75157E+01 -7.79631E+01 -7.74022E+01 -7.79509E+01 -7.70029E+01 -7.77071E+01 -7.56915E+01 -7.35417E+01
  -7.42865E+01 -7.41228E+01 -7.16311E+01 -7.12513E+01 -7.04661E+01 -7.12304E+01 -7.09508E+01 -6.84046E+01 -6.96236E+01 -6.83668E+01
  -6.70662E+01 -7.07133E+01 -6.78217E+01 -6.70351E+01 -6.97388E+01 -6.81851E+01 -6.53207E+01 -6.63404E+01 -6.56636E+01 -6.48410E+01
  -6.48525E+01 -6.68415E+01 -6.29380E+01 -6.51799E+01 -6.64149E+01 -6.25503E+01 -6.57148E+01 -6.60719E+01 -6.32280E+01 -6.46473E+01
  -6.62679E+01 -6.28875E+01 -5.98426E+01 -6.13565E+01 -5.91219E+01 -5.83370E+01 -5.99640E+01 -5.77379E+01 -5.95604E+01 -6.10587E+01
  -6.14218E+01 -6.21262E+01 -5.99081E+01 -5.96769E+01 -5.36769E+01 -5.93328E+01 -5.67596E+01 -5.47907E+01 -5.40677E+01 -5.47880E+01
  -5.53424E+01 -5.31010E+01 -5.35544E+01 -5.49416E+01 -5.48195E+01 -5.34946E+01 -5.12800E+01 -5.46761E+01 -5.20196E+01 -5.20121E+01
  -5.45366E+01 -5.22282E+01 -5.16906E+01 -5.13780E+01 -5.14481E+01 -5.16860E+01 -4.84930E+01 -4.88716E+01 -4.93833E+01 -5.06820E+01
  -4.60809E+01 -4.72268E+01 -4.67132E+01 -4.68650E+01 -4.94050E+01 -4.66268E+01 -4.77569E+01 -4.67474E+01 -4.76243E+01 -4.67222E+01
  -4.82960E+01 -4.65556E+01 -4.93068E+01 -4.81463E+01 -4.73829E+01 -4.77100E+01 -4.74808E+01 -4.74883E+01 -4.99115E+01 -4.85884E+01
  -4.71901E+01 -4.82926E+01 -4.92254E+01 -4.96770E+01 -4.52971E+01 -4.61475E+01 -4.84808E+01 -5.03743E+01 -4.77173E+01 -4.72072E+01
  -4.66827E+01 -4.99519E+01 -4.60856E+01 -4.75304E+01 -4.54386E+01 -4.81039E+01 -4.57842E+01 -4.63395E+01 -4.47759E+01 -4.29517E+01
  -4.61493E+01 -4.31233E+01 -4.10782E+01 -4.25285E+01 -4.14221E+01 -4.33833E+01 -4.02927E+01 -3.92979E+01 -4.08529E+01 -4.11974E+01
  -3.89701E+01 -4.09111E+01 -4.19616E+01 -4.03844E+01 -4.06087E+01 -3.87003E+01 -3.95607E+01 -3.97107E+01 -4.00109E+01 -3.78954E+01
  -3.81988E+01 -3.73299E+01 -3.80019E+01 -3.81013E+01 -3.61241E+01 -3.65986E+01 -3.20795E+01 -3.67291E+01 -3.68000E+01 -3.55655E+01
  -3.45505E+01 -3.46222E+01 -3.46178E+01 -3.58520E+01 -3.47054E+01 -3.47053E+01 -3.42121E+01 -3.24285E+01 -3.34836E+01 -3.28430E+01
  -3.11300E+01 -3.35194E+01 -3.06082E+01 -2.94278E+01 -3.18822E+01 -3.03540E+01 -3.08025E+01 -2.93132E+01 -2.69542E+01 -2.90887E+01
  -2.75795E+01 -2.74631E+01 -2.84000E+01 -2.73963E+01 -2.58890E+01 -2.51799E+01 -2.59147E+01 -2.53703E+01 -2.43125E+01 -2.26763E+01
  -2.30922E+01 -2.31402E+01 -2.27949E+01 -1.99265E+01 -2.05332E+01 -2.15862E+01 -2.08404E+01 -2.18124E+01 -1.87009E+01 -2.13019E+01
  -1.69482E+01 -1.82761E+01 -1.81062E+01 -1.51273E+01 -1.74804E+01 -1.74471E+01 -1.67789E+01 -1.83647E+01 -1.48086E+01 -1.50526E+01
  -1.51238E+01 -1.75091E+01 -1.60928E+01 -1.75989E+01 -1.70815E+01 -1.45497E+01 -1.75349E+01 -1.89036E+01 -1.67388E+01 -1.35689E+01
  -1.12941E+01 -1.25772E+01 -1.23782E+01 -1.24853E+01 -1.15673E+01 -1.35121E+01 -1.08547E+01 -1.20988E+01 -1.05198E+01 -1.09405E+01
  -1.06248E+01 -1.18428E+01 -1.45996E+01 -9.70615E+00 -1.15356E+01 -1.07775E+01 -1.17105E+01 -8.30228E+00 -1.11747E+01 -7.77993E+00
  -8.51915E+00 -9.72335E+00 -6.72900E+00 -8.66034E+00 -9.51748E+00 -7.50130E+00 -6.45008E+00 -8.03633E+00 -8.66207E+00 -9.00052E+00
  -6.84787E+00 -5.58564E+00 -5.58325E+00 -7.20239E+00 -6.78421E+00 -7.53833E+00 -6.07709E+00 -5.97748E+00 -6.09398E+00 -8.39059E+00
  -4.84216E+00 -3.84449E+00 -5.33580E+00 -4.92639E+00 -5.09199E+00 -4.00685E+00 -4.50330E+00 -5.09074E+00 -4.66717E+00 -5.13012E+00
  -4.91521E+00 -4.12695E+00 -4.79054E+00 -2.43243E+00 -5.35527E+00 -3.62578E+00 -2.39692E+00 -3.01858E+00 -1.74906E+00 -1.77104E+00
  -3.77947E+00 -2.83941E+00 -1.13679E+00 -2.04103E+00 -7.59755E-01 -2.43483E+00 -4.73284E+00 -2.84387E+00 -1.78254E+00 -2.82471E+00
  -3.49639E+00 -2.62189E+00 -3.26566E+00 -2.52145E+00 -2.76753E+00 -2.36084E+00 -3.57727E+00 -1.41213E-01 -3.45086E+00 -2.71136E+00
  -3.02216E+00 -3.37699E+00 -9.80951E-01 -1.45860E+00  1.46243E-01 -3.76882E+00 -2.43800E-01 -2.02411E+00 -7.21305E-01  4.49152E-02
   8.28072E-01 -1.74008E+00  2.70781E-01  2.71802E+00  1.73090E+00  2.96369E+00  1.31333E+00  2.36960E+00  2.87679E+00  3.24568E+00
   2.78250E+00  2.20488E+00  4.75780E+00  2.99110E+00  4.28226E+00  3.81908E+00  3.87522E+00  7.02657E+00  6.64101E+00  6.80576E+00
   7.75355E+00  4.63595E+00  6.78387E+00  7.29389E+00  6.99837E+00  6.75767E+00  7.26339E+00  8.24406E+00  7.66841E+00  7.24482E+00
   6.66426E+00  7.11279E+00  6.40532E+00  6.98414E+00  7.82971E+00  8.81665E+00  4.20521E+00  7.81870E+00  7.55533E+00  7.26653E+00
   9.53213E+00  8.33673E+00  7.31070E+00  8.52172E+00  1.15722E+01  8.52503E+00  9.42783E+00  8.91687E+00  1.12842E+01  8.02268E+00
   8.55650E+00  9.57801E+00  1.03413E+01  9.80896E+00  1.00214E+01  9.19231E+00  1.20284E+01  1.01770E+01  1.03079E+01  7.62545E+00
   1.12029E+01  1.19569E+01  1.24090E+01  1.00846E+01  1.50236E+01  1.28266E+01  1.06388E+01  1.03306E+01  1.09367E+01  1.26276E+01
   1.07181E+01  1.28120E+01  1.06746E+01  1.30621E+01  1.27154E+01  1.23446E+01  1.12792E+01  1.12667E+01  1.16378E+01  1.00893E+01
   1.11280E+01  1.22328E+01  1.22216E+01  1.18508E+01  1.06067E+01  1.34645E+01  1.27770E+01  1.31766E+01  1.18511E+01  1.29385E+01
   1.27310E+01  1.20242E+01  1.34892E+01  1.46954E+01  1.19878E+01  1.09116E+01  1.18605E+01  1.27738E+01  1.03186E+01  1.29235E+01
   1.22017E+01  1.19181E+01  1.36799E+01  1.33468E+01  1.36792E+01  1.29010E+01  1.30594E+01  1.38759E+01  1.59842E+01  1.39457E+01
   1.30511E+01  1.28294E+01  1.42613E+01  1.28174E+01  1.42559E+01  1.47685E+01  1.31032E+01  1.38791E+01  1.32361E+01  1.54742E+01
   1.46256E+01  1.35438E+01  1.29639E+01  1.19113E+01  1.30612E+01  1.34802E+01  1.38217E+01  1.20813E+01  1.36526E+01  1.28977E+01
   1.44930E+01  1.23026E+01  1.22159E+01  1.43005E+01  1.36995E+01  1.42028E+01  1.33265E+01  1.16090E+01  1.33294E+01  1.12365E+01
   1.14789E+01  1.17662E+01  1.13772E+01  1.25013E+01  1.10126E+01  1.34935E+01  1.16580E+01  1.23576E+01  1.06732E+01  1.19285E+01
   1.27878E+01  1.47537E+01  1.50857E+01  1.26829E+01  1.27018E+01  1.34395E+01  1.44595E+01  1.27412E+01
 NY points of the fit to the data follow
  -1.10047E+02 -1.09020E+02 -1.08901E+02 -1.08080E+02 -1.07499E+02 -1.06436E+02 -1.05830E+02 -1.05139E+02 -1.04519E+02 -1.04069E+02
  -1.03372E+02 -1.02903E+02 -1.01838E+02 -1.01280E+02 -9.96552E+01 -9.90038E+01 -9.79837E+01 -9.77788E+01 -9.70743E+01 -9.69152E+01
  -9.59489E+01 -9.55040E+01 -9.39631E+01 -9.31804E+01 -9.20926E+01 -9.16753E+01 -9.06241E+01 -9.00435E+01 -8.91031E+01 -8.80979E+01
  -8.71279E+01 -8.64226E+01 -8.57221E+01 -8.49304E+01 -8.44461E+01 -8.36880E+01 -8.32150E+01 -8.23226E+01 -8.15949E+01 -8.07688E+01
  -7.99919E+01 -7.89803E+01 -7.80134E+01 -7.73746E+01 -7.68005E+01 -7.65174E+01 -7.60124E+01 -7.55431E+01 -7.48484E+01 -7.43593E+01
  -7.36805E+01 -7.34456E+01 -7.32242E+01 -7.32451E+01 -7.25160E+01 -7.23024E+01 -7.14316E+01 -7.11394E+01 -7.02808E+01 -7.01552E+01
  -6.94190E+01 -6.94093E+01 -6.86784E+01 -6.86009E+01 -6.77968E+01 -6.77150E+01 -6.69935E+01 -6.70927E+01 -6.65865E+01 -6.65949E+01
  -6.58779E+01 -6.58593E+01 -6.51896E+01 -6.51893E+01 -6.45657E+01 -6.45711E+01 -6.40163E+01 -6.41189E+01 -6.36118E+01 -6.37994E+01
  -6.34154E+01 -6.36193E+01 -6.32581E+01 -6.33046E+01 -6.26823E+01 -6.21196E+01 -6.11844E+01 -6.10778E+01 -6.03209E+01 -6.05400E+01
  -5.98880E+01 -5.96708E+01 -5.88080E+01 -5.83107E+01 -5.71362E+01 -5.70354E+01 -5.58960E+01 -5.58209E+01 -5.46128E+01 -5.50916E+01
  -5.40658E+01 -5.44799E+01 -5.33754E+01 -5.38914E+01 -5.28580E+01 -5.35788E+01 -5.27331E+01 -5.35014E+01 -5.25924E+01 -5.25889E+01
  -5.19898E+01 -5.20106E+01 -5.16257E+01 -5.17768E+01 -5.13337E+01 -5.10696E+01 -5.06233E+01 -4.99996E+01 -4.98134E+01 -4.90131E+01
  -4.88355E+01 -4.78567E+01 -4.80747E+01 -4.77840E+01 -4.82655E+01 -4.74163E+01 -4.77842E+01 -4.69927E+01 -4.74476E+01 -4.68884E+01
  -4.74197E+01 -4.71665E+01 -4.76196E+01 -4.74078E+01 -4.76947E+01 -4.73986E+01 -4.75880E+01 -4.72916E+01 -4.74376E+01 -4.72142E+01
  -4.73575E+01 -4.73065E+01 -4.73062E+01 -4.70589E+01 -4.70152E+01 -4.68272E+01 -4.68895E+01 -4.70852E+01 -4.69176E+01 -4.67313E+01
  -4.64917E+01 -4.62789E+01 -4.60299E+01 -4.58072E+01 -4.55509E+01 -4.53137E+01 -4.50478E+01 -4.47985E+01 -4.45352E+01 -4.42815E+01
  -4.40160E+01 -4.37483E+01 -4.34667E+01 -4.31937E+01 -4.29093E+01 -4.26307E+01 -4.23295E+01 -4.20338E+01 -4.17255E+01 -4.14249E+01
  -4.11118E+01 -4.08181E+01 -4.04939E+01 -4.01948E+01 -3.98526E+01 -3.95599E+01 -3.93058E+01 -3.90508E+01 -3.88495E+01 -3.86971E+01
  -3.83942E+01 -3.82222E+01 -3.78551E+01 -3.75009E+01 -3.69677E+01 -3.66220E+01 -3.62112E+01 -3.59508E+01 -3.56062E+01 -3.55115E+01
  -3.51186E+01 -3.52286E+01 -3.52348E+01 -3.50445E+01 -3.43476E+01 -3.38182E+01 -3.26753E+01 -3.23778E+01 -3.18054E+01 -3.18602E+01
  -3.16008E+01 -3.17609E+01 -3.12021E+01 -3.13185E+01 -3.09258E+01 -3.09675E+01 -2.98007E+01 -2.98255E+01 -2.88458E+01 -2.88683E+01
  -2.78122E+01 -2.78217E+01 -2.67124E+01 -2.65699E+01 -2.51657E+01 -2.49930E+01 -2.39332E+01 -2.38608E+01 -2.34028E+01 -2.33539E+01
  -2.28827E+01 -2.26336E+01 -2.19348E+01 -2.13949E+01 -2.06343E+01 -2.07881E+01 -2.06076E+01 -2.07256E+01 -2.01876E+01 -1.99236E+01
  -1.90230E+01 -1.89154E+01 -1.82615E+01 -1.85610E+01 -1.78556E+01 -1.82716E+01 -1.76034E+01 -1.83272E+01 -1.73869E+01 -1.80060E+01
  -1.69183E+01 -1.75218E+01 -1.62507E+01 -1.68248E+01 -1.57833E+01 -1.63274E+01 -1.52236E+01 -1.56587E+01 -1.46017E+01 -1.47964E+01
  -1.36190E+01 -1.37885E+01 -1.28725E+01 -1.31277E+01 -1.23121E+01 -1.25177E+01 -1.15801E+01 -1.16851E+01 -1.11751E+01 -1.14246E+01
  -1.10388E+01 -1.12465E+01 -1.08817E+01 -1.05915E+01 -1.02241E+01 -1.00324E+01 -9.69713E+00 -9.51674E+00 -9.29428E+00 -9.14527E+00
  -8.94992E+00 -8.87581E+00 -8.72675E+00 -8.63797E+00 -8.49507E+00 -8.42283E+00 -8.29134E+00 -8.12373E+00 -7.93876E+00 -7.74166E+00
  -7.58279E+00 -7.45371E+00 -7.29918E+00 -7.16062E+00 -7.00387E+00 -6.84931E+00 -6.66810E+00 -6.52485E+00 -6.34322E+00 -6.18947E+00
  -5.99683E+00 -5.83561E+00 -5.63695E+00 -5.47998E+00 -5.29190E+00 -5.13310E+00 -4.94520E+00 -4.78888E+00 -4.60558E+00 -4.45595E+00
  -4.28205E+00 -4.14188E+00 -3.98507E+00 -3.86299E+00 -3.72539E+00 -3.62138E+00 -3.50289E+00 -3.41609E+00 -3.31200E+00 -3.23817E+00
  -3.14642E+00 -3.08071E+00 -2.99523E+00 -2.93316E+00 -2.84781E+00 -2.78357E+00 -2.69442E+00 -2.62430E+00 -2.52785E+00 -2.44853E+00
  -2.34313E+00 -2.25425E+00 -2.13887E+00 -2.03992E+00 -1.91459E+00 -1.80543E+00 -1.67077E+00 -1.55230E+00 -1.40857E+00 -1.28107E+00
  -1.12863E+00 -9.92337E-01 -8.31285E-01 -6.86151E-01 -5.16370E-01 -3.62185E-01 -1.83192E-01 -1.90703E-02  1.70553E-01  3.46745E-01
   5.50031E-01  7.42384E-01  9.64630E-01  1.17978E+00  1.42906E+00  1.67640E+00  1.96299E+00  2.25277E+00  2.58547E+00  2.92325E+00
   3.30227E+00  3.68065E+00  4.08907E+00  4.48058E+00  4.88071E+00  5.23950E+00  5.58119E+00  5.85797E+00  6.09854E+00  6.26265E+00
   6.38757E+00  6.44260E+00  6.47298E+00  6.45444E+00  6.43529E+00  6.39199E+00  6.37040E+00  6.34325E+00  6.35106E+00  6.36165E+00
   6.41058E+00  6.46226E+00  6.54943E+00  6.63534E+00  6.75190E+00  6.86270E+00  6.99986E+00  7.12794E+00  7.27954E+00  7.42021E+00
   7.58285E+00  7.73374E+00  7.90585E+00  8.06594E+00  8.24689E+00  8.41577E+00  8.60512E+00  8.78213E+00  8.97891E+00  9.16276E+00
   9.36526E+00  9.55361E+00  9.75871E+00  9.94763E+00  1.01507E+01  1.03348E+01  1.05298E+01  1.07028E+01  1.08832E+01  1.10385E+01
   1.11983E+01  1.13305E+01  1.14650E+01  1.15706E+01  1.16776E+01  1.17558E+01  1.18359E+01  1.18887E+01  1.19454E+01  1.19773E+01
   1.20157E+01  1.20325E+01  1.20588E+01  1.20667E+01  1.20870E+01  1.20916E+01  1.21107E+01  1.21164E+01  1.21379E+01  1.21472E+01
   1.21731E+01  1.21873E+01  1.22182E+01  1.22374E+01  1.22728E+01  1.22962E+01  1.23353E+01  1.23619E+01  1.24033E+01  1.24319E+01
   1.24746E+01  1.25040E+01  1.25469E+01  1.25761E+01  1.26183E+01  1.26466E+01  1.26875E+01  1.27142E+01  1.27532E+01  1.27779E+01
   1.28147E+01  1.28371E+01  1.28713E+01  1.28912E+01  1.29226E+01  1.29399E+01  1.29686E+01  1.29833E+01  1.30093E+01  1.30213E+01
   1.30447E+01  1.30542E+01  1.30749E+01  1.30819E+01  1.31001E+01  1.31047E+01  1.31205E+01  1.31229E+01  1.31363E+01  1.31365E+01
   1.31477E+01  1.31459E+01  1.31550E+01  1.31512E+01  1.31584E+01  1.31528E+01  1.31581E+01  1.31508E+01  1.31544E+01  1.31456E+01
   1.31477E+01  1.31374E+01  1.31380E+01  1.31265E+01  1.31258E+01  1.31131E+01  1.31113E+01  1.30976E+01  1.30948E+01  1.30802E+01
   1.30765E+01  1.30613E+01  1.30568E+01  1.30410E+01  1.30359E+01  1.30197E+01  1.30142E+01  1.29977E+01  1.29919E+01  1.29753E+01
   1.29694E+01  1.29528E+01  1.29470E+01  1.29306E+01  1.29250E+01  1.29091E+01  1.29039E+01  1.28887E+01
 NY background values follow
    -1.124E+02   -1.117E+02   -1.110E+02   -1.103E+02   -1.096E+02   -1.089E+02   -1.082E+02   -1.075E+02   -1.068E+02   -1.061E+02
    -1.054E+02   -1.047E+02   -1.040E+02   -1.033E+02   -1.026E+02   -1.019E+02   -1.012E+02   -1.005E+02   -9.980E+01   -9.911E+01
    -9.842E+01   -9.773E+01   -9.705E+01   -9.637E+01   -9.569E+01   -9.501E+01   -9.434E+01   -9.367E+01   -9.300E+01   -9.234E+01
    -9.168E+01   -9.102E+01   -9.037E+01   -8.972E+01   -8.907E+01   -8.843E+01   -8.779E+01   -8.716E+01   -8.653E+01   -8.591E+01
    -8.529E+01   -8.468E+01   -8.407E+01   -8.347E+01   -8.287E+01   -8.228E+01   -8.169E+01   -8.111E+01   -8.054E+01   -7.997E+01
    -7.941E+01   -7.885E+01   -7.830E+01   -7.776E+01   -7.723E+01   -7.670E+01   -7.618E+01   -7.566E+01   -7.515E+01   -7.465E+01
    -7.416E+01   -7.367E+01   -7.319E+01   -7.272E+01   -7.225E+01   -7.179E+01   -7.134E+01   -7.089E+01   -7.044E+01   -7.001E+01
    -6.958E+01   -6.915E+01   -6.873E+01   -6.832E+01   -6.791E+01   -6.751E+01   -6.711E+01   -6.672E+01   -6.633E+01   -6.595E+01
    -6.557E+01   -6.520E+01   -6.483E+01   -6.447E+01   -6.411E+01   -6.376E+01   -6.341E+01   -6.307E+01   -6.273E+01   -6.239E+01
    -6.206E+01   -6.173E+01   -6.141E+01   -6.109E+01   -6.077E+01   -6.046E+01   -6.015E+01   -5.984E+01   -5.954E+01   -5.924E+01
    -5.894E+01   -5.865E+01   -5.836E+01   -5.807E+01   -5.779E+01   -5.751E+01   -5.723E+01   -5.695E+01   -5.668E+01   -5.641E+01
    -5.614E+01   -5.587E+01   -5.560E+01   -5.534E+01   -5.508E+01   -5.482E+01   -5.456E+01   -5.431E+01   -5.405E+01   -5.380E+01
    -5.355E+01   -5.329E+01   -5.304E+01   -5.280E+01   -5.255E+01   -5.230E+01   -5.206E+01   -5.181E+01   -5.157E+01   -5.132E+01
    -5.108E+01   -5.084E+01   -5.059E+01   -5.035E+01   -5.011E+01   -4.986E+01   -4.962E+01   -4.938E+01   -4.913E+01   -4.889E+01
    -4.864E+01   -4.840E+01   -4.815E+01   -4.790E+01   -4.766E+01   -4.741E+01   -4.716E+01   -4.691E+01   -4.665E+01   -4.640E+01
    -4.614E+01   -4.589E+01   -4.563E+01   -4.537E+01   -4.511E+01   -4.484E+01   -4.458E+01   -4.431E+01   -4.404E+01   -4.376E+01
    -4.349E+01   -4.321E+01   -4.293E+01   -4.265E+01   -4.236E+01   -4.207E+01   -4.178E+01   -4.149E+01   -4.119E+01   -4.089E+01
    -4.059E+01   -4.028E+01   -3.997E+01   -3.966E+01   -3.935E+01   -3.903E+01   -3.871E+01   -3.839E+01   -3.807E+01   -3.775E+01
    -3.742E+01   -3.710E+01   -3.677E+01   -3.644E+01   -3.610E+01   -3.577E+01   -3.544E+01   -3.510E+01   -3.476E+01   -3.442E+01
    -3.408E+01   -3.374E+01   -3.340E+01   -3.306E+01   -3.272E+01   -3.238E+01   -3.203E+01   -3.169E+01   -3.135E+01   -3.100E+01
    -3.066E+01   -3.031E+01   -2.997E+01   -2.963E+01   -2.928E+01   -2.894E+01   -2.860E+01   -2.825E+01   -2.791E+01   -2.757E+01
    -2.723E+01   -2.689E+01   -2.655E+01   -2.621E+01   -2.588E+01   -2.554E+01   -2.521E+01   -2.488E+01   -2.455E+01   -2.422E+01
    -2.389E+01   -2.356E+01   -2.324E+01   -2.292E+01   -2.260E+01   -2.228E+01   -2.196E+01   -2.165E+01   -2.134E+01   -2.103E+01
    -2.072E+01   -2.041E+01   -2.011E+01   -1.981E+01   -1.951E+01   -1.921E+01   -1.891E+01   -1.862E+01   -1.833E+01   -1.804E+01
    -1.775E+01   -1.747E+01   -1.719E+01   -1.691E+01   -1.663E+01   -1.636E+01   -1.609E+01   -1.582E+01   -1.555E+01   -1.529E+01
    -1.502E+01   -1.476E+01   -1.451E+01   -1.425E+01   -1.400E+01   -1.375E+01   -1.351E+01   -1.327E+01   -1.303E+01   -1.279E+01
    -1.255E+01   -1.232E+01   -1.209E+01   -1.187E+01   -1.164E+01   -1.142E+01   -1.121E+01   -1.099E+01   -1.078E+01   -1.058E+01
    -1.037E+01   -1.017E+01   -9.971E+00   -9.776E+00   -9.584E+00   -9.395E+00   -9.210E+00   -9.027E+00   -8.848E+00   -8.673E+00
    -8.500E+00   -8.330E+00   -8.163E+00   -7.998E+00   -7.837E+00   -7.677E+00   -7.521E+00   -7.366E+00   -7.214E+00   -7.064E+00
    -6.916E+00   -6.770E+00   -6.625E+00   -6.483E+00   -6.342E+00   -6.203E+00   -6.065E+00   -5.928E+00   -5.793E+00   -5.659E+00
    -5.526E+00   -5.394E+00   -5.263E+00   -5.132E+00   -5.003E+00   -4.874E+00   -4.745E+00   -4.617E+00   -4.489E+00   -4.361E+00
    -4.233E+00   -4.106E+00   -3.978E+00   -3.850E+00   -3.722E+00   -3.593E+00   -3.464E+00   -3.335E+00   -3.204E+00   -3.073E+00
    -2.941E+00   -2.808E+00   -2.674E+00   -2.539E+00   -2.402E+00   -2.265E+00   -2.125E+00   -1.985E+00   -1.842E+00   -1.698E+00
    -1.552E+00   -1.404E+00   -1.254E+00   -1.102E+00   -9.476E-01   -7.917E-01   -6.340E-01   -4.747E-01   -3.137E-01   -1.511E-01
     1.289E-02    1.783E-01    3.450E-01    5.130E-01    6.821E-01    8.523E-01    1.024E+00    1.196E+00    1.369E+00    1.542E+00
     1.717E+00    1.892E+00    2.067E+00    2.244E+00    2.420E+00    2.597E+00    2.774E+00    2.951E+00    3.128E+00    3.305E+00
     3.482E+00    3.659E+00    3.836E+00    4.012E+00    4.188E+00    4.363E+00    4.538E+00    4.712E+00    4.886E+00    5.059E+00
     5.230E+00    5.401E+00    5.571E+00    5.740E+00    5.907E+00    6.074E+00    6.239E+00    6.402E+00    6.564E+00    6.725E+00
     6.884E+00    7.041E+00    7.196E+00    7.349E+00    7.501E+00    7.650E+00    7.797E+00    7.942E+00    8.085E+00    8.226E+00
     8.364E+00    8.500E+00    8.634E+00    8.766E+00    8.896E+00    9.023E+00    9.148E+00    9.271E+00    9.392E+00    9.511E+00
     9.627E+00    9.742E+00    9.854E+00    9.964E+00    1.007E+01    1.018E+01    1.028E+01    1.038E+01    1.048E+01    1.058E+01
     1.068E+01    1.077E+01    1.086E+01    1.095E+01    1.104E+01    1.112E+01    1.121E+01    1.129E+01    1.137E+01    1.145E+01
     1.152E+01    1.159E+01    1.167E+01    1.174E+01    1.180E+01    1.187E+01    1.193E+01    1.199E+01    1.205E+01    1.211E+01
     1.217E+01    1.222E+01    1.227E+01    1.232E+01    1.237E+01    1.242E+01    1.246E+01    1.251E+01    1.255E+01    1.259E+01
     1.263E+01    1.266E+01    1.270E+01    1.273E+01    1.276E+01    1.279E+01    1.281E+01    1.284E+01    1.286E+01    1.288E+01
     1.291E+01    1.292E+01    1.294E+01    1.296E+01    1.297E+01    1.299E+01    1.300E+01    1.301E+01    1.302E+01    1.303E+01
     1.304E+01    1.304E+01    1.305E+01    1.305E+01    1.305E+01    1.306E+01    1.306E+01    1.306E+01    1.306E+01    1.306E+01
     1.305E+01    1.305E+01    1.305E+01    1.304E+01    1.304E+01    1.303E+01    1.303E+01    1.302E+01    1.301E+01    1.300E+01
     1.299E+01    1.299E+01    1.298E+01    1.297E+01    1.296E+01    1.295E+01    1.294E+01    1.293E+01    1.292E+01    1.291E+01
     1.290E+01    1.289E+01    1.287E+01    1.286E+01    1.285E+01    1.284E+01    1.283E+01    1.282E+01
 Asp      Conc. = 5.86E+01
