 LCModel (Version 6.3-1L) Copyright: S.W. Provencher.          Ref.: Magn. Reson. Med. 30:672-679 (1993).                
 Slice#2 Row#1 Col#1  K_02_press_1_raw_act
 36 lines in following concentration table = NCONC+1
    Conc.  %SD /Cr+PCr  Metabolite                                         
    0.000 999%   0.000 Ala                                                 
    6.617 121%   0.173 Asp                                                 
   10.557 219%   0.275 Cr                                                  
   27.762  86%   0.725 PCr                                                 
    5.193  92%   0.136 GABA                                                
    4.337 111%   0.113 Glc                                                 
    0.000 999%   0.000 Gln                                                 
    0.000 999%   0.000 Glu                                                 
    0.000 999%   0.000 GPC                                                 
   16.256  22%   0.424 PCh                                                 
    0.000 999%   0.000 GSH                                                 
   36.045 104%   0.941 Ins                                                 
    7.299 242%   0.190 Lac                                                 
   58.701  21%   1.532 NAA                                                 
    9.282 134%   0.242 NAAG                                                
    1.938  80% 5.1E-02 Scyllo                                              
    8.379  94%   0.219 Tau                                                 
   22.838  47%   0.596 -CrCH2                                              
   16.256  22%   0.424 GPC+PCh                                             
   67.983  17%   1.774 NAA+NAAG                                            
   38.319  25%   1.000 Cr+PCr                                              
    0.000 999%   0.000 Glu+Gln                                             
    0.000 999%   0.000 Lip13a                                              
    0.000 999%   0.000 Lip13b                                              
    0.000 999%   0.000 Lip09                                               
 3.18E-03 999% 8.3E-05 MM09                                                
 7.89E-05 999% 2.1E-06 Lip20                                               
 6.78E-03 999% 1.8E-04 MM20                                                
 7.92E-04 999% 2.1E-05 MM12                                                
    0.000 999%   0.000 MM14                                                
 1.34E-03 999% 3.5E-05 MM17                                                
    0.000 999%   0.000 Lip13a+Lip13b                                       
 7.92E-04 999% 2.1E-05 MM14+Lip13a+Lip13b+MM12                             
 3.18E-03 999% 8.3E-05 MM09+Lip09                                          
 6.86E-03 999% 1.8E-04 MM20+Lip20                                          
   6 lines in following misc. output table
  FWHM = 0.031 ppm    S/N =   2                                            
  Data shift = 0.023 ppm                                                   
  Ph:-147 deg      -6.4 deg/ppm                                            
  alphaB,S = 2.2E+00,   1.2E+01                                            
   14 spline knots.   Ns = 5(1)                                            
  ( 8) 2 infls.   ( 8) 1 extrs.                                            
  498 points on ppm-axis = NY
      4.000000     3.992357     3.984714     3.977070     3.969427     3.961784     3.954141     3.946497     3.938854     3.931211
      3.923568     3.915925     3.908281     3.900638     3.892995     3.885352     3.877708     3.870065     3.862422     3.854779
      3.847136     3.839492     3.831849     3.824206     3.816563     3.808919     3.801276     3.793633     3.785990     3.778347
      3.770703     3.763060     3.755417     3.747774     3.740130     3.732487     3.724844     3.717201     3.709558     3.701914
      3.694271     3.686628     3.678985     3.671341     3.663698     3.656055     3.648412     3.640769     3.633125     3.625482
      3.617839     3.610196     3.602552     3.594909     3.587266     3.579623     3.571980     3.564336     3.556693     3.549050
      3.541407     3.533763     3.526120     3.518477     3.510834     3.503191     3.495547     3.487904     3.480261     3.472618
      3.464974     3.457331     3.449688     3.442045     3.434402     3.426758     3.419115     3.411472     3.403829     3.396185
      3.388542     3.380899     3.373256     3.365613     3.357969     3.350326     3.342683     3.335040     3.327396     3.319753
      3.312110     3.304467     3.296824     3.289180     3.281537     3.273894     3.266251     3.258607     3.250964     3.243321
      3.235678     3.228034     3.220391     3.212748     3.205105     3.197462     3.189818     3.182175     3.174532     3.166889
      3.159245     3.151602     3.143959     3.136316     3.128673     3.121029     3.113386     3.105743     3.098100     3.090456
      3.082813     3.075170     3.067527     3.059884     3.052240     3.044597     3.036954     3.029311     3.021667     3.014024
      3.006381     2.998738     2.991095     2.983451     2.975808     2.968165     2.960522     2.952878     2.945235     2.937592
      2.929949     2.922306     2.914662     2.907019     2.899376     2.891733     2.884089     2.876446     2.868803     2.861160
      2.853517     2.845873     2.838230     2.830587     2.822944     2.815300     2.807657     2.800014     2.792371     2.784728
      2.777084     2.769441     2.761798     2.754155     2.746511     2.738868     2.731225     2.723582     2.715939     2.708295
      2.700652     2.693009     2.685366     2.677722     2.670079     2.662436     2.654793     2.647150     2.639506     2.631863
      2.624220     2.616577     2.608933     2.601290     2.593647     2.586004     2.578361     2.570717     2.563074     2.555431
      2.547788     2.540144     2.532501     2.524858     2.517215     2.509572     2.501928     2.494285     2.486642     2.478999
      2.471355     2.463712     2.456069     2.448426     2.440783     2.433139     2.425496     2.417853     2.410210     2.402566
      2.394923     2.387280     2.379637     2.371994     2.364350     2.356707     2.349064     2.341421     2.333777     2.326134
      2.318491     2.310848     2.303205     2.295561     2.287918     2.280275     2.272632     2.264988     2.257345     2.249702
      2.242059     2.234416     2.226772     2.219129     2.211486     2.203843     2.196199     2.188556     2.180913     2.173270
      2.165627     2.157983     2.150340     2.142697     2.135054     2.127410     2.119767     2.112124     2.104481     2.096838
      2.089194     2.081551     2.073908     2.066265     2.058621     2.050978     2.043335     2.035692     2.028049     2.020405
      2.012762     2.005119     1.997476     1.989833     1.982190     1.974546     1.966903     1.959260     1.951617     1.943974
      1.936331     1.928688     1.921045     1.913402     1.905759     1.898115     1.890472     1.882829     1.875186     1.867543
      1.859900     1.852257     1.844614     1.836971     1.829327     1.821684     1.814041     1.806398     1.798755     1.791112
      1.783469     1.775826     1.768183     1.760540     1.752896     1.745253     1.737610     1.729967     1.722324     1.714681
      1.707038     1.699395     1.691752     1.684108     1.676465     1.668822     1.661179     1.653536     1.645893     1.638250
      1.630607     1.622964     1.615321     1.607677     1.600034     1.592391     1.584748     1.577105     1.569462     1.561819
      1.554176     1.546533     1.538890     1.531246     1.523603     1.515960     1.508317     1.500674     1.493031     1.485388
      1.477745     1.470102     1.462458     1.454815     1.447172     1.439529     1.431886     1.424243     1.416600     1.408957
      1.401314     1.393671     1.386027     1.378384     1.370741     1.363098     1.355455     1.347812     1.340169     1.332526
      1.324883     1.317240     1.309596     1.301953     1.294310     1.286667     1.279024     1.271381     1.263738     1.256095
      1.248452     1.240808     1.233165     1.225522     1.217879     1.210236     1.202593     1.194950     1.187307     1.179664
      1.172021     1.164377     1.156734     1.149091     1.141448     1.133805     1.126162     1.118519     1.110876     1.103233
      1.095590     1.087946     1.080303     1.072660     1.065017     1.057374     1.049731     1.042088     1.034445     1.026802
      1.019158     1.011515     1.003872     0.996229     0.988586     0.980943     0.973300     0.965657     0.958014     0.950371
      0.942727     0.935084     0.927441     0.919798     0.912155     0.904512     0.896869     0.889226     0.881583     0.873940
      0.866296     0.858653     0.851010     0.843367     0.835724     0.828081     0.820438     0.812795     0.805152     0.797508
      0.789865     0.782222     0.774579     0.766936     0.759293     0.751650     0.744007     0.736364     0.728721     0.721077
      0.713434     0.705791     0.698148     0.690505     0.682862     0.675219     0.667576     0.659933     0.652290     0.644646
      0.637003     0.629360     0.621717     0.614074     0.606431     0.598788     0.591145     0.583502     0.575858     0.568215
      0.560572     0.552929     0.545286     0.537643     0.530000     0.522357     0.514714     0.507071     0.499427     0.491784
      0.484141     0.476498     0.468855     0.461212     0.453569     0.445925     0.438282     0.430639     0.422996     0.415353
      0.407710     0.400067     0.392424     0.384780     0.377137     0.369494     0.361851     0.354208     0.346565     0.338922
      0.331278     0.323635     0.315992     0.308349     0.300706     0.293063     0.285420     0.277777     0.270133     0.262490
      0.254847     0.247204     0.239561     0.231918     0.224275     0.216631     0.208988     0.201345
 NY phased data points follow
  -3.34627E+00 -3.52984E+00 -4.38393E+00 -4.19479E+00 -3.87461E+00 -4.65061E+00 -3.67490E+00 -2.60890E+00 -2.87872E+00 -1.70641E+00
  -2.25562E+00 -2.37320E+00 -2.97601E+00 -1.15338E+00 -2.95122E+00 -2.72383E+00 -2.94583E+00 -2.96973E+00 -4.55016E+00 -2.31837E+00
  -2.52843E+00 -2.84542E+00 -2.34530E+00 -3.45493E+00 -2.49603E+00 -2.56391E+00 -2.54123E+00 -1.89279E+00 -2.17327E+00 -3.57275E+00
  -3.21219E+00 -1.75099E+00 -2.52866E+00 -2.32910E+00 -2.31869E+00 -2.35151E+00 -3.61599E+00 -1.20175E+00 -1.69155E+00 -1.70316E+00
  -2.35502E+00 -2.46544E+00 -1.87445E+00 -2.62690E+00 -1.58510E+00 -2.18537E+00 -1.60530E+00 -1.89628E+00 -1.25170E+00 -5.19863E-01
  -2.06990E+00 -1.79766E+00 -5.96248E-01 -1.45073E+00 -2.11627E+00 -1.98594E+00 -3.11530E+00 -7.88361E-01 -1.55997E+00 -1.40277E+00
  -2.12875E+00 -1.93610E+00 -1.08247E+00 -3.18262E+00 -1.02994E+00 -2.64354E+00 -2.84002E+00 -1.73732E+00 -2.17663E+00 -1.28691E+00
  -2.50193E+00 -2.42477E+00 -1.94539E+00 -1.37735E+00 -1.98071E+00 -2.29038E+00 -1.51245E+00 -1.85944E+00 -1.43469E+00 -2.10145E+00
  -1.06936E+00 -5.75549E-01 -1.85959E+00 -1.52497E+00 -2.10927E+00 -1.04403E+00 -8.99449E-01 -1.88930E+00 -2.18613E+00 -2.12974E+00
  -9.14720E-01 -2.36869E+00 -1.20791E+00 -1.51537E+00 -1.62893E+00 -2.18160E+00 -2.62972E+00 -1.86673E+00 -1.81913E+00 -2.42648E+00
  -9.67172E-01 -1.38941E+00 -4.78325E-01  7.52933E-01  3.13633E-01 -2.96492E-01 -5.14170E-01 -9.76245E-01 -1.43253E+00 -1.42390E+00
  -7.47604E-01 -1.22929E+00 -1.40196E+00 -1.86995E+00 -1.16467E+00 -2.22730E+00 -2.12079E+00 -2.13251E+00 -1.51456E+00 -4.85565E-01
  -4.33916E-01 -1.89015E+00 -2.18960E-01 -7.37921E-01 -1.76828E+00 -7.56893E-01 -5.89032E-01  7.03865E-01  4.18249E-01 -8.43936E-01
   4.13704E-01 -1.28176E+00 -2.03515E-01 -1.36433E+00 -2.26011E+00 -9.10045E-01 -1.11784E+00 -1.03722E+00 -2.30305E+00 -1.89647E+00
  -1.73690E+00 -2.55250E+00 -6.82241E-01  2.14743E-01 -5.79258E-01 -1.84585E+00 -7.10360E-01 -1.68505E+00 -2.08262E+00 -2.12142E+00
  -8.63870E-01 -6.65936E-01 -2.40028E+00 -1.21164E+00 -1.43103E+00 -8.52326E-01 -9.71934E-01 -9.12139E-01 -1.48492E+00 -1.21418E+00
  -1.96107E+00 -1.76548E+00 -2.81391E+00 -1.28393E+00 -1.13431E+00 -2.00612E+00 -2.04916E+00 -1.49682E+00 -1.20220E+00 -1.64126E+00
  -1.53307E+00 -4.53626E-01 -2.85364E+00 -1.94984E+00 -7.58637E-01 -1.62078E+00 -3.59528E-01 -1.36993E+00 -1.72930E+00 -1.62545E+00
  -2.07454E+00 -1.24128E+00 -1.29251E+00 -1.32366E+00 -2.31300E-01 -7.34894E-01 -2.30327E+00 -1.73964E+00 -1.92214E+00 -9.66630E-01
  -4.31408E-01 -1.39107E+00 -2.02541E+00  2.30485E-01 -4.83716E-02 -1.03501E+00 -1.70916E+00 -1.22926E+00 -1.13691E+00 -2.27467E+00
  -9.74004E-01 -1.39750E+00 -1.44644E+00 -1.43577E+00 -2.08027E-01 -8.44570E-01 -1.73674E-01 -1.26386E+00 -7.80814E-01 -8.04892E-01
  -7.17261E-01 -1.45471E+00 -1.33497E+00 -2.46095E+00 -4.63930E-01 -2.05936E-01 -1.10011E+00 -8.43802E-01 -9.97276E-01 -1.99538E+00
  -6.86536E-01 -7.06623E-01 -8.21802E-01 -6.07374E-01 -1.08188E+00 -1.90352E-01 -1.32916E+00 -2.40377E-01 -1.28304E+00 -1.81896E+00
  -1.07567E+00 -1.20719E+00  8.29849E-01  7.92541E-01 -8.38834E-01 -1.15636E+00  3.56059E-01 -1.62645E+00 -8.51047E-01 -1.86107E+00
   5.09747E-01 -1.71208E+00 -9.82322E-01 -8.15202E-01 -8.53398E-01 -1.21430E+00 -7.56384E-01 -9.39574E-01 -4.69557E-01 -4.37055E-01
  -2.49688E+00 -1.27068E-01  8.36762E-01 -1.23932E+00 -1.08350E+00 -1.25509E+00 -4.23964E-01  5.54070E-01 -1.20930E-01  1.38477E-01
   9.77059E-01  2.22430E+00  1.76705E+00  2.62998E-01 -4.42709E-01 -1.05311E+00 -3.27255E-01 -7.48596E-01 -6.51740E-01 -1.15872E-01
  -2.80128E+00 -6.50052E-01 -1.11930E-01 -9.64348E-01 -1.89083E+00 -9.31737E-01 -3.22725E-01  1.07905E-01  7.47399E-01 -3.92542E-01
   4.25859E-01 -1.33294E+00 -7.93408E-01 -1.70861E+00 -1.46833E+00 -1.01882E+00 -9.94011E-01 -1.99405E+00 -1.61017E+00 -6.77978E-01
  -1.11410E+00 -1.90147E+00 -1.36830E+00 -6.85787E-01 -1.84827E+00 -3.33631E-01 -1.56566E+00 -5.72337E-01 -5.62437E-01 -3.81652E-01
   1.25411E-02 -7.49120E-01 -1.14389E+00 -4.96083E-01 -4.35391E-01 -2.25049E+00 -1.35855E+00 -9.50518E-01 -5.61100E-01 -2.05947E+00
  -2.65526E-01 -5.40615E-02 -1.83736E+00  1.80078E-01 -2.26423E+00 -1.10272E+00 -1.92099E+00 -1.54310E+00 -5.03810E-01 -1.73405E-02
  -4.05635E-01 -1.16645E-01 -1.07246E+00  5.22373E-01 -1.42927E+00 -1.87596E+00 -8.65497E-01 -4.59412E-01 -1.41352E+00 -1.33420E+00
  -1.58865E+00 -1.35234E+00 -9.90426E-01 -3.48574E-01 -2.15332E-01 -2.13078E+00 -3.60013E-01 -2.07487E+00 -1.94354E+00 -2.31198E+00
  -1.07428E+00 -1.42235E+00 -1.86764E+00 -1.84882E+00 -6.46016E-01 -1.49024E+00  5.54336E-01 -1.79834E+00  3.96588E-02 -1.64965E+00
  -1.76228E+00 -1.68636E+00 -2.27788E+00 -1.71258E+00 -1.15392E+00 -1.27293E+00 -1.51169E+00 -1.73400E+00 -2.17509E+00 -4.44797E-01
  -5.11734E-01 -2.38754E+00 -1.26939E+00 -1.89643E+00 -1.58853E+00 -4.21721E-01  1.05003E+00 -1.94348E+00  2.37388E-01 -1.36473E+00
  -8.28679E-01 -1.38824E+00 -1.35484E+00 -5.42147E-01 -7.19239E-01 -8.53815E-01 -8.26461E-01 -1.63059E+00 -1.01571E+00 -1.55354E+00
  -1.48560E+00 -8.97797E-01 -2.03963E+00 -7.11925E-01 -3.66017E-01 -1.32056E+00 -7.16584E-01 -1.52305E+00 -1.58316E+00 -1.69120E+00
  -1.23009E+00 -5.14288E-01 -9.68320E-01 -1.40911E+00 -1.08683E-01 -5.22112E-01 -2.51076E+00 -6.30477E-01 -3.96903E-01 -1.34892E+00
   6.50113E-02 -8.52760E-01 -3.79023E-01 -7.75113E-01 -1.40601E+00 -2.24020E-01  8.84824E-01  6.15516E-01 -8.93335E-01 -1.56909E+00
  -1.01293E+00 -5.32570E-01 -9.34867E-01 -4.26926E-01 -6.48344E-01  4.98379E-01 -1.13017E+00 -1.29696E+00 -9.72475E-01 -8.62024E-01
  -1.23810E+00 -3.07864E+00 -8.26440E-02 -2.60865E-01 -1.34780E+00 -1.12251E+00 -1.10369E+00 -1.22628E+00 -1.07504E+00 -1.40843E+00
   7.62873E-01  1.98487E-01 -8.70417E-01 -5.94578E-01 -6.42271E-01 -1.49657E+00 -6.08920E-02 -8.13758E-01 -1.28871E+00 -8.40420E-01
  -1.34368E+00 -3.87950E-01 -1.72530E-01 -1.25751E+00 -1.06970E+00 -6.34535E-01 -9.32139E-01 -5.86561E-01 -1.45268E+00  8.46643E-01
  -8.62918E-01 -4.04240E-01 -2.51199E+00  3.05738E-01 -1.02858E+00  1.10582E+00 -1.27399E+00 -1.00961E+00  3.65232E-02 -9.18170E-01
   1.23387E-02 -2.49974E-01  9.84055E-03 -4.83202E-01 -1.00311E-01 -4.93012E-01  1.32311E-02 -8.92032E-01 -1.93096E+00  2.63553E-01
  -6.87853E-01 -1.34360E+00 -1.58066E+00 -5.15995E-01  1.02716E+00  5.55342E-01 -1.51217E+00  1.19328E+00  7.59389E-01 -5.00847E-01
  -5.31733E-01  1.34384E+00 -1.17098E-01  5.37852E-01 -8.56269E-01 -4.76604E-01 -1.81543E-01  1.61460E-01 -6.78108E-01  7.16430E-01
   2.30589E-01  9.71075E-01 -5.06709E-01 -1.32130E+00 -1.28751E-01  7.01440E-01 -1.05997E+00 -1.80247E-01
 NY points of the fit to the data follow
  -2.29543E+00 -2.30639E+00 -2.31314E+00 -2.31541E+00 -2.31260E+00 -2.29990E+00 -2.27916E+00 -2.25107E+00 -2.19202E+00 -2.07905E+00
  -1.93481E+00 -1.83530E+00 -1.83758E+00 -1.92774E+00 -2.03819E+00 -2.12621E+00 -2.18652E+00 -2.22517E+00 -2.25286E+00 -2.26370E+00
  -2.26174E+00 -2.24834E+00 -2.23069E+00 -2.21550E+00 -2.20409E+00 -2.19391E+00 -2.18333E+00 -2.17403E+00 -2.16695E+00 -2.16146E+00
  -2.15710E+00 -2.15259E+00 -2.14599E+00 -2.13531E+00 -2.12065E+00 -2.10390E+00 -2.08402E+00 -2.06493E+00 -2.06148E+00 -2.08093E+00
  -2.11041E+00 -2.13360E+00 -2.14178E+00 -2.13058E+00 -2.09870E+00 -2.03585E+00 -1.93100E+00 -1.80814E+00 -1.73515E+00 -1.76561E+00
  -1.87623E+00 -1.98786E+00 -2.05120E+00 -2.07480E+00 -2.07756E+00 -2.06236E+00 -2.03529E+00 -2.00376E+00 -1.96680E+00 -1.92146E+00
  -1.87848E+00 -1.85910E+00 -1.87220E+00 -1.90673E+00 -1.94227E+00 -1.96441E+00 -1.96784E+00 -1.95372E+00 -1.93104E+00 -1.90896E+00
  -1.88982E+00 -1.86663E+00 -1.84101E+00 -1.82325E+00 -1.81156E+00 -1.80192E+00 -1.79953E+00 -1.81386E+00 -1.84221E+00 -1.86771E+00
  -1.87907E+00 -1.87280E+00 -1.85229E+00 -1.82734E+00 -1.80005E+00 -1.76805E+00 -1.75100E+00 -1.77676E+00 -1.83693E+00 -1.88896E+00
  -1.90492E+00 -1.89210E+00 -1.87445E+00 -1.85984E+00 -1.84760E+00 -1.83496E+00 -1.81937E+00 -1.79283E+00 -1.72165E+00 -1.57477E+00
  -1.36930E+00 -1.03486E+00 -4.57118E-01  1.74693E-01  4.19984E-01  1.05559E-01 -4.72791E-01 -9.64834E-01 -1.27878E+00 -1.50797E+00
  -1.66062E+00 -1.70860E+00 -1.72488E+00 -1.73172E+00 -1.73575E+00 -1.73784E+00 -1.73894E+00 -1.73926E+00 -1.73964E+00 -1.73979E+00
  -1.73509E+00 -1.71220E+00 -1.63718E+00 -1.49696E+00 -1.30094E+00 -9.60757E-01 -4.38711E-01  1.71933E-02  7.18722E-02 -2.82025E-01
  -7.49446E-01 -1.10446E+00 -1.33461E+00 -1.51862E+00 -1.61872E+00 -1.64793E+00 -1.65689E+00 -1.65920E+00 -1.65742E+00 -1.65180E+00
  -1.64550E+00 -1.64236E+00 -1.64209E+00 -1.63936E+00 -1.63141E+00 -1.62087E+00 -1.61260E+00 -1.61005E+00 -1.61129E+00 -1.61258E+00
  -1.61207E+00 -1.60983E+00 -1.60741E+00 -1.60545E+00 -1.60321E+00 -1.59940E+00 -1.59425E+00 -1.58979E+00 -1.58890E+00 -1.59831E+00
  -1.62025E+00 -1.64211E+00 -1.64513E+00 -1.62095E+00 -1.58270E+00 -1.55515E+00 -1.55204E+00 -1.56568E+00 -1.58275E+00 -1.59550E+00
  -1.60141E+00 -1.60354E+00 -1.60332E+00 -1.60481E+00 -1.61326E+00 -1.62959E+00 -1.64109E+00 -1.63011E+00 -1.59764E+00 -1.56950E+00
  -1.56681E+00 -1.57980E+00 -1.58212E+00 -1.56294E+00 -1.53520E+00 -1.51595E+00 -1.51204E+00 -1.50403E+00 -1.47385E+00 -1.42910E+00
  -1.39146E+00 -1.37219E+00 -1.36525E+00 -1.36101E+00 -1.35630E+00 -1.34636E+00 -1.33080E+00 -1.32438E+00 -1.33590E+00 -1.35465E+00
  -1.36692E+00 -1.36850E+00 -1.35607E+00 -1.33007E+00 -1.30173E+00 -1.29077E+00 -1.30106E+00 -1.32027E+00 -1.34001E+00 -1.35824E+00
  -1.37436E+00 -1.38963E+00 -1.41035E+00 -1.42804E+00 -1.42606E+00 -1.40372E+00 -1.37744E+00 -1.35811E+00 -1.34365E+00 -1.32789E+00
  -1.31246E+00 -1.29758E+00 -1.27951E+00 -1.25936E+00 -1.24363E+00 -1.23936E+00 -1.24744E+00 -1.26237E+00 -1.27817E+00 -1.29321E+00
  -1.30455E+00 -1.30439E+00 -1.28866E+00 -1.26388E+00 -1.23992E+00 -1.22282E+00 -1.21413E+00 -1.21275E+00 -1.21578E+00 -1.21826E+00
  -1.21890E+00 -1.21995E+00 -1.21969E+00 -1.21433E+00 -1.20420E+00 -1.19375E+00 -1.18566E+00 -1.17984E+00 -1.17468E+00 -1.16884E+00
  -1.15804E+00 -1.13179E+00 -1.08665E+00 -1.02456E+00 -9.17260E-01 -7.20322E-01 -4.45119E-01 -1.83476E-01  1.13978E-01  6.68069E-01
   1.36878E+00  1.69322E+00  1.33224E+00  5.96979E-01 -5.68762E-02 -4.79613E-01 -7.72970E-01 -9.84589E-01 -1.05878E+00 -1.08616E+00
  -1.09960E+00 -1.10276E+00 -1.09878E+00 -1.09194E+00 -1.08483E+00 -1.07844E+00 -1.07432E+00 -1.07443E+00 -1.07746E+00 -1.08060E+00
  -1.08265E+00 -1.08342E+00 -1.08268E+00 -1.08010E+00 -1.07578E+00 -1.07027E+00 -1.06454E+00 -1.05946E+00 -1.05533E+00 -1.05197E+00
  -1.04872E+00 -1.04484E+00 -1.04038E+00 -1.03598E+00 -1.03257E+00 -1.03010E+00 -1.02779E+00 -1.02550E+00 -1.02361E+00 -1.02164E+00
  -1.01883E+00 -1.01523E+00 -1.01129E+00 -1.00738E+00 -1.00359E+00 -9.99868E-01 -9.96338E-01 -9.92956E-01 -9.89598E-01 -9.86234E-01
  -9.82850E-01 -9.79470E-01 -9.76105E-01 -9.72764E-01 -9.69428E-01 -9.66081E-01 -9.62715E-01 -9.59344E-01 -9.55971E-01 -9.52587E-01
  -9.49171E-01 -9.45729E-01 -9.42275E-01 -9.38821E-01 -9.35351E-01 -9.31845E-01 -9.28287E-01 -9.24687E-01 -9.21054E-01 -9.17389E-01
  -9.13665E-01 -9.09856E-01 -9.05935E-01 -9.01899E-01 -8.97727E-01 -8.93382E-01 -8.88785E-01 -8.83840E-01 -8.78408E-01 -8.72280E-01
  -8.65051E-01 -8.55804E-01 -8.42634E-01 -8.25771E-01 -8.08359E-01 -7.88228E-01 -7.67983E-01 -7.70600E-01 -8.15503E-01 -8.86307E-01
  -9.43525E-01 -9.67874E-01 -9.70402E-01 -9.56701E-01 -9.10111E-01 -8.35099E-01 -7.70777E-01 -7.43113E-01 -7.45510E-01 -7.57400E-01
  -7.67628E-01 -7.78934E-01 -7.87946E-01 -7.91593E-01 -7.92609E-01 -7.92290E-01 -7.91170E-01 -7.89533E-01 -7.87534E-01 -7.85275E-01
  -7.82815E-01 -7.80206E-01 -7.77482E-01 -7.74675E-01 -7.71794E-01 -7.68853E-01 -7.65855E-01 -7.62816E-01 -7.59745E-01 -7.56651E-01
  -7.53530E-01 -7.50385E-01 -7.47214E-01 -7.44030E-01 -7.40835E-01 -7.37634E-01 -7.34415E-01 -7.31184E-01 -7.27938E-01 -7.24690E-01
  -7.21436E-01 -7.18181E-01 -7.14911E-01 -7.11633E-01 -7.08347E-01 -7.05064E-01 -7.01777E-01 -6.98489E-01 -6.95187E-01 -6.91881E-01
  -6.88571E-01 -6.85266E-01 -6.81958E-01 -6.78646E-01 -6.75322E-01 -6.71999E-01 -6.68674E-01 -6.65354E-01 -6.62028E-01 -6.58698E-01
  -6.55359E-01 -6.52021E-01 -6.48684E-01 -6.45351E-01 -6.42010E-01 -6.38664E-01 -6.35311E-01 -6.31963E-01 -6.28614E-01 -6.25267E-01
  -6.21910E-01 -6.18551E-01 -6.15187E-01 -6.11830E-01 -6.08472E-01 -6.05113E-01 -6.01743E-01 -5.98373E-01 -5.95001E-01 -5.91635E-01
  -5.88267E-01 -5.84897E-01 -5.81517E-01 -5.78139E-01 -5.74761E-01 -5.71388E-01 -5.68010E-01 -5.64629E-01 -5.61239E-01 -5.57854E-01
  -5.54469E-01 -5.51089E-01 -5.47700E-01 -5.44309E-01 -5.40913E-01 -5.37522E-01 -5.34132E-01 -5.30743E-01 -5.27345E-01 -5.23946E-01
  -5.20544E-01 -5.17149E-01 -5.13752E-01 -5.10356E-01 -5.06950E-01 -5.03544E-01 -5.00138E-01 -4.96738E-01 -4.93335E-01 -4.89930E-01
  -4.86517E-01 -4.83107E-01 -4.79697E-01 -4.76293E-01 -4.72883E-01 -4.69471E-01 -4.66053E-01 -4.62639E-01 -4.59226E-01 -4.55818E-01
  -4.52401E-01 -4.48983E-01 -4.45561E-01 -4.42145E-01 -4.38729E-01 -4.35314E-01 -4.31892E-01 -4.28469E-01 -4.25043E-01 -4.21625E-01
  -4.18205E-01 -4.14785E-01 -4.11356E-01 -4.07929E-01 -4.04501E-01 -4.01079E-01 -3.97654E-01 -3.94227E-01 -3.90792E-01 -3.87360E-01
  -3.83928E-01 -3.80502E-01 -3.77069E-01 -3.73633E-01 -3.70190E-01 -3.66751E-01 -3.63312E-01 -3.59875E-01
 NY background values follow
    -2.371E+00   -2.365E+00   -2.360E+00   -2.355E+00   -2.350E+00   -2.345E+00   -2.339E+00   -2.334E+00   -2.329E+00   -2.324E+00
    -2.318E+00   -2.313E+00   -2.308E+00   -2.303E+00   -2.297E+00   -2.292E+00   -2.287E+00   -2.282E+00   -2.277E+00   -2.271E+00
    -2.266E+00   -2.261E+00   -2.256E+00   -2.250E+00   -2.245E+00   -2.240E+00   -2.235E+00   -2.229E+00   -2.224E+00   -2.219E+00
    -2.214E+00   -2.209E+00   -2.203E+00   -2.198E+00   -2.193E+00   -2.188E+00   -2.183E+00   -2.177E+00   -2.172E+00   -2.167E+00
    -2.162E+00   -2.156E+00   -2.151E+00   -2.146E+00   -2.141E+00   -2.136E+00   -2.130E+00   -2.125E+00   -2.120E+00   -2.115E+00
    -2.110E+00   -2.105E+00   -2.099E+00   -2.094E+00   -2.089E+00   -2.084E+00   -2.079E+00   -2.074E+00   -2.068E+00   -2.063E+00
    -2.058E+00   -2.053E+00   -2.048E+00   -2.043E+00   -2.038E+00   -2.032E+00   -2.027E+00   -2.022E+00   -2.017E+00   -2.012E+00
    -2.007E+00   -2.002E+00   -1.997E+00   -1.991E+00   -1.986E+00   -1.981E+00   -1.976E+00   -1.971E+00   -1.966E+00   -1.961E+00
    -1.956E+00   -1.951E+00   -1.946E+00   -1.941E+00   -1.936E+00   -1.931E+00   -1.926E+00   -1.921E+00   -1.916E+00   -1.910E+00
    -1.905E+00   -1.900E+00   -1.895E+00   -1.890E+00   -1.885E+00   -1.880E+00   -1.875E+00   -1.871E+00   -1.866E+00   -1.861E+00
    -1.856E+00   -1.851E+00   -1.846E+00   -1.841E+00   -1.836E+00   -1.831E+00   -1.826E+00   -1.821E+00   -1.816E+00   -1.811E+00
    -1.806E+00   -1.801E+00   -1.797E+00   -1.792E+00   -1.787E+00   -1.782E+00   -1.777E+00   -1.772E+00   -1.767E+00   -1.763E+00
    -1.758E+00   -1.753E+00   -1.748E+00   -1.743E+00   -1.739E+00   -1.734E+00   -1.729E+00   -1.724E+00   -1.719E+00   -1.715E+00
    -1.710E+00   -1.705E+00   -1.700E+00   -1.696E+00   -1.691E+00   -1.686E+00   -1.682E+00   -1.677E+00   -1.672E+00   -1.668E+00
    -1.663E+00   -1.658E+00   -1.654E+00   -1.649E+00   -1.644E+00   -1.640E+00   -1.635E+00   -1.630E+00   -1.626E+00   -1.621E+00
    -1.617E+00   -1.612E+00   -1.607E+00   -1.603E+00   -1.598E+00   -1.594E+00   -1.589E+00   -1.585E+00   -1.580E+00   -1.576E+00
    -1.571E+00   -1.567E+00   -1.562E+00   -1.558E+00   -1.553E+00   -1.549E+00   -1.544E+00   -1.540E+00   -1.535E+00   -1.531E+00
    -1.527E+00   -1.522E+00   -1.518E+00   -1.513E+00   -1.509E+00   -1.505E+00   -1.500E+00   -1.496E+00   -1.492E+00   -1.487E+00
    -1.483E+00   -1.479E+00   -1.474E+00   -1.470E+00   -1.466E+00   -1.461E+00   -1.457E+00   -1.453E+00   -1.449E+00   -1.444E+00
    -1.440E+00   -1.436E+00   -1.432E+00   -1.427E+00   -1.423E+00   -1.419E+00   -1.415E+00   -1.411E+00   -1.407E+00   -1.402E+00
    -1.398E+00   -1.394E+00   -1.390E+00   -1.386E+00   -1.382E+00   -1.378E+00   -1.374E+00   -1.369E+00   -1.365E+00   -1.361E+00
    -1.357E+00   -1.353E+00   -1.349E+00   -1.345E+00   -1.341E+00   -1.337E+00   -1.333E+00   -1.329E+00   -1.325E+00   -1.321E+00
    -1.317E+00   -1.313E+00   -1.309E+00   -1.305E+00   -1.301E+00   -1.297E+00   -1.294E+00   -1.290E+00   -1.286E+00   -1.282E+00
    -1.278E+00   -1.274E+00   -1.270E+00   -1.266E+00   -1.263E+00   -1.259E+00   -1.255E+00   -1.251E+00   -1.247E+00   -1.243E+00
    -1.240E+00   -1.236E+00   -1.232E+00   -1.228E+00   -1.225E+00   -1.221E+00   -1.217E+00   -1.213E+00   -1.210E+00   -1.206E+00
    -1.202E+00   -1.199E+00   -1.195E+00   -1.191E+00   -1.187E+00   -1.184E+00   -1.180E+00   -1.176E+00   -1.173E+00   -1.169E+00
    -1.165E+00   -1.162E+00   -1.158E+00   -1.155E+00   -1.151E+00   -1.147E+00   -1.144E+00   -1.140E+00   -1.137E+00   -1.133E+00
    -1.129E+00   -1.126E+00   -1.122E+00   -1.119E+00   -1.115E+00   -1.112E+00   -1.108E+00   -1.105E+00   -1.101E+00   -1.098E+00
    -1.094E+00   -1.091E+00   -1.087E+00   -1.084E+00   -1.080E+00   -1.077E+00   -1.073E+00   -1.070E+00   -1.066E+00   -1.063E+00
    -1.059E+00   -1.056E+00   -1.052E+00   -1.049E+00   -1.045E+00   -1.042E+00   -1.038E+00   -1.035E+00   -1.032E+00   -1.028E+00
    -1.025E+00   -1.021E+00   -1.018E+00   -1.015E+00   -1.011E+00   -1.008E+00   -1.004E+00   -1.001E+00   -9.976E-01   -9.942E-01
    -9.908E-01   -9.874E-01   -9.841E-01   -9.807E-01   -9.773E-01   -9.739E-01   -9.706E-01   -9.672E-01   -9.639E-01   -9.605E-01
    -9.571E-01   -9.538E-01   -9.504E-01   -9.471E-01   -9.437E-01   -9.404E-01   -9.370E-01   -9.337E-01   -9.304E-01   -9.270E-01
    -9.237E-01   -9.204E-01   -9.170E-01   -9.137E-01   -9.104E-01   -9.070E-01   -9.037E-01   -9.004E-01   -8.970E-01   -8.937E-01
    -8.904E-01   -8.871E-01   -8.837E-01   -8.804E-01   -8.771E-01   -8.738E-01   -8.705E-01   -8.671E-01   -8.638E-01   -8.605E-01
    -8.572E-01   -8.539E-01   -8.505E-01   -8.472E-01   -8.439E-01   -8.406E-01   -8.373E-01   -8.339E-01   -8.306E-01   -8.273E-01
    -8.240E-01   -8.206E-01   -8.173E-01   -8.140E-01   -8.107E-01   -8.073E-01   -8.040E-01   -8.007E-01   -7.974E-01   -7.940E-01
    -7.907E-01   -7.874E-01   -7.840E-01   -7.807E-01   -7.774E-01   -7.740E-01   -7.707E-01   -7.674E-01   -7.640E-01   -7.607E-01
    -7.574E-01   -7.540E-01   -7.507E-01   -7.473E-01   -7.440E-01   -7.407E-01   -7.373E-01   -7.340E-01   -7.306E-01   -7.273E-01
    -7.239E-01   -7.206E-01   -7.172E-01   -7.139E-01   -7.105E-01   -7.072E-01   -7.038E-01   -7.004E-01   -6.971E-01   -6.937E-01
    -6.904E-01   -6.870E-01   -6.836E-01   -6.803E-01   -6.769E-01   -6.735E-01   -6.702E-01   -6.668E-01   -6.634E-01   -6.601E-01
    -6.567E-01   -6.533E-01   -6.499E-01   -6.466E-01   -6.432E-01   -6.398E-01   -6.364E-01   -6.330E-01   -6.297E-01   -6.263E-01
    -6.229E-01   -6.195E-01   -6.161E-01   -6.127E-01   -6.093E-01   -6.059E-01   -6.025E-01   -5.991E-01   -5.958E-01   -5.924E-01
    -5.890E-01   -5.856E-01   -5.822E-01   -5.788E-01   -5.754E-01   -5.720E-01   -5.686E-01   -5.651E-01   -5.617E-01   -5.583E-01
    -5.549E-01   -5.515E-01   -5.481E-01   -5.447E-01   -5.413E-01   -5.379E-01   -5.345E-01   -5.310E-01   -5.276E-01   -5.242E-01
    -5.208E-01   -5.174E-01   -5.140E-01   -5.105E-01   -5.071E-01   -5.037E-01   -5.003E-01   -4.969E-01   -4.934E-01   -4.900E-01
    -4.866E-01   -4.832E-01   -4.797E-01   -4.763E-01   -4.729E-01   -4.695E-01   -4.660E-01   -4.626E-01   -4.592E-01   -4.558E-01
    -4.523E-01   -4.489E-01   -4.455E-01   -4.420E-01   -4.386E-01   -4.352E-01   -4.317E-01   -4.283E-01   -4.249E-01   -4.215E-01
    -4.180E-01   -4.146E-01   -4.112E-01   -4.077E-01   -4.043E-01   -4.009E-01   -3.974E-01   -3.940E-01   -3.906E-01   -3.871E-01
    -3.837E-01   -3.803E-01   -3.768E-01   -3.734E-01   -3.700E-01   -3.665E-01   -3.631E-01   -3.597E-01
 Asp      Conc. = 6.62E+00
