 LCModel (Version 6.3-1L) Copyright: S.W. Provencher.          Ref.: Magn. Reson. Med. 30:672-679 (1993).                
 Slice#2 Row#13 Col#2  K_02_press_1_raw_act
 36 lines in following concentration table = NCONC+1
    Conc.  %SD /Cr+PCr  Metabolite                                         
    0.000 999%   0.000 Ala                                                 
  176.403  48%   0.205 Asp                                                 
    0.000 999%   0.000 Cr                                                  
  860.368   7%   1.000 PCr                                                 
   46.552 112% 5.4E-02 GABA                                                
   44.554 117% 5.2E-02 Glc                                                 
 3.85E+03  17%   4.470 Gln                                                 
 3.28E+03  27%   3.809 Glu                                                 
   81.775 144% 9.5E-02 GPC                                                 
  135.486  86%   0.157 PCh                                                 
    0.000 999%   0.000 GSH                                                 
 4.61E+03   7%   5.358 Ins                                                 
    0.000 999%   0.000 Lac                                                 
  234.536  26%   0.273 NAA                                                 
    0.000 999%   0.000 NAAG                                                
    8.355 192% 9.7E-03 Scyllo                                              
   60.759 139% 7.1E-02 Tau                                                 
    0.000 999%   0.000 -CrCH2                                              
  217.261  16%   0.253 GPC+PCh                                             
  234.536  26%   0.273 NAA+NAAG                                            
  860.368   7%   1.000 Cr+PCr                                              
 7.12E+03  19%   8.279 Glu+Gln                                             
    0.000 999%   0.000 Lip13a                                              
    0.000 999%   0.000 Lip13b                                              
    0.000 999%   0.000 Lip09                                               
  372.569  21%   0.433 MM09                                                
    0.249 999% 2.9E-04 Lip20                                               
  669.628  21%   0.778 MM20                                                
  120.038  35%   0.140 MM12                                                
    0.000 999%   0.000 MM14                                                
  340.026  25%   0.395 MM17                                                
    0.000 999%   0.000 Lip13a+Lip13b                                       
  120.038  35%   0.140 MM14+Lip13a+Lip13b+MM12                             
  372.569  21%   0.433 MM09+Lip09                                          
  669.877  21%   0.779 MM20+Lip20                                          
   6 lines in following misc. output table
  FWHM = 0.183 ppm    S/N =   6                                            
  Data shift = 0.099 ppm                                                   
  Ph:-160 deg      13.1 deg/ppm                                            
  alphaB,S = 1.6E+00,   2.1E+02                                            
   10 spline knots.   Ns = 9(2)                                            
  (14) 4 infls.   ( 9) 1 extrs.                                            
  498 points on ppm-axis = NY
      4.000000     3.992357     3.984714     3.977070     3.969427     3.961784     3.954141     3.946497     3.938854     3.931211
      3.923568     3.915925     3.908281     3.900638     3.892995     3.885352     3.877708     3.870065     3.862422     3.854779
      3.847136     3.839492     3.831849     3.824206     3.816563     3.808919     3.801276     3.793633     3.785990     3.778347
      3.770703     3.763060     3.755417     3.747774     3.740130     3.732487     3.724844     3.717201     3.709558     3.701914
      3.694271     3.686628     3.678985     3.671341     3.663698     3.656055     3.648412     3.640769     3.633125     3.625482
      3.617839     3.610196     3.602552     3.594909     3.587266     3.579623     3.571980     3.564336     3.556693     3.549050
      3.541407     3.533763     3.526120     3.518477     3.510834     3.503191     3.495547     3.487904     3.480261     3.472618
      3.464974     3.457331     3.449688     3.442045     3.434402     3.426758     3.419115     3.411472     3.403829     3.396185
      3.388542     3.380899     3.373256     3.365613     3.357969     3.350326     3.342683     3.335040     3.327396     3.319753
      3.312110     3.304467     3.296824     3.289180     3.281537     3.273894     3.266251     3.258607     3.250964     3.243321
      3.235678     3.228034     3.220391     3.212748     3.205105     3.197462     3.189818     3.182175     3.174532     3.166889
      3.159245     3.151602     3.143959     3.136316     3.128673     3.121029     3.113386     3.105743     3.098100     3.090456
      3.082813     3.075170     3.067527     3.059884     3.052240     3.044597     3.036954     3.029311     3.021667     3.014024
      3.006381     2.998738     2.991095     2.983451     2.975808     2.968165     2.960522     2.952878     2.945235     2.937592
      2.929949     2.922306     2.914662     2.907019     2.899376     2.891733     2.884089     2.876446     2.868803     2.861160
      2.853517     2.845873     2.838230     2.830587     2.822944     2.815300     2.807657     2.800014     2.792371     2.784728
      2.777084     2.769441     2.761798     2.754155     2.746511     2.738868     2.731225     2.723582     2.715939     2.708295
      2.700652     2.693009     2.685366     2.677722     2.670079     2.662436     2.654793     2.647150     2.639506     2.631863
      2.624220     2.616577     2.608933     2.601290     2.593647     2.586004     2.578361     2.570717     2.563074     2.555431
      2.547788     2.540144     2.532501     2.524858     2.517215     2.509572     2.501928     2.494285     2.486642     2.478999
      2.471355     2.463712     2.456069     2.448426     2.440783     2.433139     2.425496     2.417853     2.410210     2.402566
      2.394923     2.387280     2.379637     2.371994     2.364350     2.356707     2.349064     2.341421     2.333777     2.326134
      2.318491     2.310848     2.303205     2.295561     2.287918     2.280275     2.272632     2.264988     2.257345     2.249702
      2.242059     2.234416     2.226772     2.219129     2.211486     2.203843     2.196199     2.188556     2.180913     2.173270
      2.165627     2.157983     2.150340     2.142697     2.135054     2.127410     2.119767     2.112124     2.104481     2.096838
      2.089194     2.081551     2.073908     2.066265     2.058621     2.050978     2.043335     2.035692     2.028049     2.020405
      2.012762     2.005119     1.997476     1.989833     1.982190     1.974546     1.966903     1.959260     1.951617     1.943974
      1.936331     1.928688     1.921045     1.913402     1.905759     1.898115     1.890472     1.882829     1.875186     1.867543
      1.859900     1.852257     1.844614     1.836971     1.829327     1.821684     1.814041     1.806398     1.798755     1.791112
      1.783469     1.775826     1.768183     1.760540     1.752896     1.745253     1.737610     1.729967     1.722324     1.714681
      1.707038     1.699395     1.691752     1.684108     1.676465     1.668822     1.661179     1.653536     1.645893     1.638250
      1.630607     1.622964     1.615321     1.607677     1.600034     1.592391     1.584748     1.577105     1.569462     1.561819
      1.554176     1.546533     1.538890     1.531246     1.523603     1.515960     1.508317     1.500674     1.493031     1.485388
      1.477745     1.470102     1.462458     1.454815     1.447172     1.439529     1.431886     1.424243     1.416600     1.408957
      1.401314     1.393671     1.386027     1.378384     1.370741     1.363098     1.355455     1.347812     1.340169     1.332526
      1.324883     1.317240     1.309596     1.301953     1.294310     1.286667     1.279024     1.271381     1.263738     1.256095
      1.248452     1.240808     1.233165     1.225522     1.217879     1.210236     1.202593     1.194950     1.187307     1.179664
      1.172021     1.164377     1.156734     1.149091     1.141448     1.133805     1.126162     1.118519     1.110876     1.103233
      1.095590     1.087946     1.080303     1.072660     1.065017     1.057374     1.049731     1.042088     1.034445     1.026802
      1.019158     1.011515     1.003872     0.996229     0.988586     0.980943     0.973300     0.965657     0.958014     0.950371
      0.942727     0.935084     0.927441     0.919798     0.912155     0.904512     0.896869     0.889226     0.881583     0.873940
      0.866296     0.858653     0.851010     0.843367     0.835724     0.828081     0.820438     0.812795     0.805152     0.797508
      0.789865     0.782222     0.774579     0.766936     0.759293     0.751650     0.744007     0.736364     0.728721     0.721077
      0.713434     0.705791     0.698148     0.690505     0.682862     0.675219     0.667576     0.659933     0.652290     0.644646
      0.637003     0.629360     0.621717     0.614074     0.606431     0.598788     0.591145     0.583502     0.575858     0.568215
      0.560572     0.552929     0.545286     0.537643     0.530000     0.522357     0.514714     0.507071     0.499427     0.491784
      0.484141     0.476498     0.468855     0.461212     0.453569     0.445925     0.438282     0.430639     0.422996     0.415353
      0.407710     0.400067     0.392424     0.384780     0.377137     0.369494     0.361851     0.354208     0.346565     0.338922
      0.331278     0.323635     0.315992     0.308349     0.300706     0.293063     0.285420     0.277777     0.270133     0.262490
      0.254847     0.247204     0.239561     0.231918     0.224275     0.216631     0.208988     0.201345
 NY phased data points follow
   1.01907E+02  1.03679E+02  1.00838E+02  9.90550E+01  1.00672E+02  9.99049E+01  9.86092E+01  9.64804E+01  9.25608E+01  9.29178E+01
   9.38612E+01  9.14524E+01  9.12894E+01  8.88217E+01  8.59068E+01  8.58102E+01  8.63605E+01  8.23921E+01  8.42318E+01  8.29710E+01
   8.25564E+01  8.28220E+01  8.21445E+01  7.87513E+01  7.90910E+01  7.74900E+01  7.61297E+01  7.57778E+01  7.71815E+01  7.47215E+01
   7.76791E+01  7.67351E+01  7.61093E+01  7.66971E+01  7.74852E+01  7.42267E+01  7.40826E+01  7.54431E+01  7.29370E+01  7.52587E+01
   7.42157E+01  7.37923E+01  7.28559E+01  7.33324E+01  7.38631E+01  7.37577E+01  7.10780E+01  7.36317E+01  7.01212E+01  7.17117E+01
   7.35439E+01  7.17634E+01  6.86985E+01  7.13768E+01  6.87506E+01  6.92187E+01  6.63945E+01  6.79891E+01  6.61184E+01  6.63906E+01
   6.33248E+01  6.48878E+01  6.26477E+01  6.35964E+01  6.21717E+01  6.41438E+01  6.14760E+01  6.25926E+01  5.81837E+01  5.83978E+01
   5.59228E+01  5.87027E+01  5.78354E+01  5.58505E+01  5.51134E+01  5.37737E+01  5.41334E+01  5.25630E+01  4.95567E+01  5.02818E+01
   5.01409E+01  4.91771E+01  4.77042E+01  4.85429E+01  4.67651E+01  4.58143E+01  4.49083E+01  4.39633E+01  4.32140E+01  4.58527E+01
   4.51962E+01  4.29012E+01  4.22457E+01  4.15418E+01  4.20683E+01  4.28018E+01  4.41824E+01  4.36432E+01  4.22849E+01  4.16356E+01
   4.12464E+01  4.19870E+01  4.23845E+01  4.07971E+01  4.36665E+01  4.22364E+01  4.15776E+01  4.18027E+01  4.12233E+01  4.20900E+01
   4.35381E+01  4.15767E+01  4.19903E+01  4.28199E+01  4.12050E+01  3.99498E+01  4.02371E+01  4.09044E+01  4.28394E+01  4.18691E+01
   4.19442E+01  4.29825E+01  4.44257E+01  4.08486E+01  4.30611E+01  4.22499E+01  4.01026E+01  3.97626E+01  4.23246E+01  4.10972E+01
   3.90843E+01  4.13176E+01  3.96485E+01  4.05176E+01  4.29639E+01  3.97692E+01  3.77444E+01  3.91899E+01  3.83048E+01  3.91501E+01
   3.82733E+01  3.78600E+01  3.76219E+01  3.99756E+01  3.51917E+01  3.52084E+01  3.53576E+01  3.65634E+01  3.38444E+01  3.32410E+01
   3.32647E+01  3.36733E+01  3.27653E+01  2.94610E+01  3.10689E+01  3.16612E+01  3.04826E+01  3.01797E+01  2.76631E+01  2.92862E+01
   3.21555E+01  2.88936E+01  2.83016E+01  2.58283E+01  3.01605E+01  2.83227E+01  2.99946E+01  2.94772E+01  2.97209E+01  3.12248E+01
   3.18366E+01  2.92006E+01  2.75584E+01  3.18665E+01  3.08670E+01  3.32359E+01  3.47498E+01  3.48352E+01  3.38431E+01  3.35270E+01
   3.39666E+01  3.50551E+01  3.32139E+01  3.35765E+01  3.65008E+01  3.50331E+01  3.58226E+01  3.71146E+01  3.33912E+01  3.42503E+01
   3.63443E+01  3.24374E+01  3.75880E+01  3.44171E+01  3.55945E+01  3.46224E+01  3.80597E+01  3.38857E+01  3.60352E+01  3.33057E+01
   3.54690E+01  3.51603E+01  3.53293E+01  3.65460E+01  3.62234E+01  3.65135E+01  3.59241E+01  3.81930E+01  4.05772E+01  3.71618E+01
   3.79052E+01  3.96090E+01  3.80274E+01  3.80510E+01  3.50421E+01  3.75771E+01  4.06737E+01  3.86612E+01  4.08376E+01  4.15520E+01
   4.02388E+01  4.09098E+01  4.08566E+01  3.88608E+01  4.17595E+01  4.10101E+01  4.00578E+01  4.15518E+01  4.40482E+01  4.24798E+01
   4.44957E+01  4.23937E+01  4.15680E+01  4.42210E+01  4.36996E+01  4.46450E+01  4.34954E+01  4.37304E+01  4.19770E+01  4.34673E+01
   4.22800E+01  4.40110E+01  4.43648E+01  4.26660E+01  3.96198E+01  4.27582E+01  4.13606E+01  4.15381E+01  4.00067E+01  4.12076E+01
   4.14159E+01  4.50562E+01  4.74038E+01  4.41948E+01  4.50473E+01  4.56085E+01  4.37684E+01  4.52810E+01  4.49389E+01  4.34968E+01
   4.54385E+01  4.39853E+01  4.34796E+01  4.48587E+01  4.49009E+01  4.29196E+01  4.52507E+01  4.46313E+01  4.58287E+01  4.41822E+01
   4.46624E+01  4.48596E+01  4.53894E+01  4.45426E+01  4.75988E+01  4.32377E+01  4.33146E+01  4.21877E+01  4.33304E+01  4.34384E+01
   4.26414E+01  4.32401E+01  4.18644E+01  4.27707E+01  4.20794E+01  4.34260E+01  4.41642E+01  4.24855E+01  4.07230E+01  4.25117E+01
   4.28545E+01  3.81817E+01  4.23330E+01  3.99853E+01  4.09940E+01  4.01351E+01  4.04844E+01  4.05226E+01  4.11907E+01  4.05528E+01
   3.89854E+01  4.09606E+01  4.04417E+01  4.22085E+01  3.95773E+01  4.11541E+01  3.84817E+01  3.89047E+01  3.72246E+01  3.66000E+01
   3.68227E+01  3.79535E+01  3.77917E+01  3.71353E+01  3.50418E+01  3.74010E+01  3.61525E+01  3.37290E+01  3.60004E+01  3.47703E+01
   3.54600E+01  3.33178E+01  3.39316E+01  3.38094E+01  3.51305E+01  3.47823E+01  3.41288E+01  3.16790E+01  3.23612E+01  3.09336E+01
   3.17317E+01  3.24325E+01  3.18875E+01  3.13003E+01  3.20332E+01  3.42632E+01  3.21611E+01  3.17480E+01  3.39048E+01  3.25930E+01
   3.07198E+01  2.85434E+01  2.92504E+01  2.94698E+01  3.04789E+01  3.21080E+01  3.15931E+01  2.91003E+01  3.29265E+01  3.09422E+01
   3.11828E+01  3.04714E+01  2.96740E+01  3.14177E+01  3.04648E+01  2.76763E+01  3.03954E+01  3.11054E+01  2.87869E+01  2.96859E+01
   3.05746E+01  2.80765E+01  2.85545E+01  2.90525E+01  2.84324E+01  2.99452E+01  2.98035E+01  3.16226E+01  3.07233E+01  2.98338E+01
   3.06071E+01  2.76867E+01  2.84791E+01  2.83528E+01  2.97419E+01  2.92821E+01  3.05940E+01  2.50634E+01  2.78498E+01  2.60826E+01
   2.78438E+01  2.81291E+01  2.47037E+01  2.59548E+01  2.64471E+01  2.79995E+01  2.71724E+01  2.80674E+01  2.47249E+01  2.67993E+01
   2.64684E+01  2.88910E+01  2.71660E+01  2.84651E+01  2.92176E+01  2.88192E+01  2.67764E+01  2.79013E+01  2.48115E+01  2.57970E+01
   2.46163E+01  2.57457E+01  2.71369E+01  2.56262E+01  2.64732E+01  2.55367E+01  2.43431E+01  2.83132E+01  2.51961E+01  2.61564E+01
   2.49532E+01  2.49674E+01  2.57445E+01  2.45161E+01  2.48296E+01  2.43715E+01  2.39203E+01  2.38106E+01  2.20139E+01  2.70787E+01
   2.17447E+01  2.45045E+01  2.41894E+01  2.29539E+01  2.38584E+01  2.03875E+01  2.04607E+01  2.28114E+01  2.34217E+01  2.08329E+01
   2.11125E+01  2.07501E+01  2.11588E+01  2.13321E+01  2.21871E+01  2.13315E+01  2.07676E+01  2.04083E+01  1.97103E+01  2.27276E+01
   1.98445E+01  2.04137E+01  2.02038E+01  2.05167E+01  1.87039E+01  2.12874E+01  2.18509E+01  2.03048E+01  1.99420E+01  2.11751E+01
   1.73169E+01  1.87444E+01  2.11789E+01  1.84424E+01  1.77119E+01  1.99562E+01  2.13573E+01  1.93129E+01  2.06358E+01  2.06207E+01
   1.95155E+01  1.77127E+01  1.77965E+01  1.99373E+01  1.72659E+01  1.92822E+01  1.83682E+01  1.77434E+01  1.58206E+01  1.64995E+01
   1.85386E+01  2.06479E+01  1.96182E+01  1.82602E+01  1.82441E+01  2.00150E+01  1.83068E+01  1.51419E+01  1.74863E+01  1.81221E+01
   1.51433E+01  1.74956E+01  1.62835E+01  1.52365E+01  1.68603E+01  1.32574E+01  1.53030E+01  1.73686E+01  1.38077E+01  1.38682E+01
   1.42703E+01  1.54130E+01  1.60806E+01  1.40171E+01  1.54171E+01  1.57726E+01  1.75987E+01  1.73715E+01
 NY points of the fit to the data follow
   1.00799E+02  1.00326E+02  9.99812E+01  9.91342E+01  9.86503E+01  9.74489E+01  9.68142E+01  9.54173E+01  9.46264E+01  9.29947E+01
   9.21690E+01  9.03770E+01  8.96081E+01  8.79377E+01  8.73454E+01  8.56335E+01  8.56369E+01  8.37064E+01  8.38897E+01  8.21027E+01
   8.25577E+01  8.08550E+01  8.14601E+01  7.97515E+01  8.03154E+01  7.85802E+01  7.88925E+01  7.70092E+01  7.70497E+01  7.52555E+01
   7.54276E+01  7.46126E+01  7.52094E+01  7.45863E+01  7.52493E+01  7.47557E+01  7.53845E+01  7.49725E+01  7.54468E+01  7.51970E+01
   7.54110E+01  7.51882E+01  7.51046E+01  7.49073E+01  7.44929E+01  7.43523E+01  7.37344E+01  7.38590E+01  7.28952E+01  7.27936E+01
   7.15608E+01  7.13635E+01  6.99848E+01  7.00799E+01  6.92363E+01  6.95583E+01  6.84163E+01  6.83872E+01  6.69269E+01  6.65894E+01
   6.49332E+01  6.51080E+01  6.34315E+01  6.36187E+01  6.18151E+01  6.19553E+01  5.99480E+01  5.98589E+01  5.77958E+01  5.77256E+01
   5.63326E+01  5.71010E+01  5.59632E+01  5.64787E+01  5.50556E+01  5.52895E+01  5.36414E+01  5.36312E+01  5.18231E+01  5.16159E+01
   4.98290E+01  4.93855E+01  4.79081E+01  4.76846E+01  4.66306E+01  4.66659E+01  4.57944E+01  4.56545E+01  4.48402E+01  4.44796E+01
   4.38254E+01  4.34289E+01  4.30048E+01  4.26598E+01  4.24445E+01  4.23335E+01  4.23206E+01  4.21995E+01  4.22532E+01  4.19977E+01
   4.21032E+01  4.17545E+01  4.19650E+01  4.16446E+01  4.19624E+01  4.16339E+01  4.20477E+01  4.17187E+01  4.22626E+01  4.20098E+01
   4.23624E+01  4.19120E+01  4.20604E+01  4.17146E+01  4.18487E+01  4.17045E+01  4.18566E+01  4.19984E+01  4.21522E+01  4.24026E+01
   4.24869E+01  4.24030E+01  4.22595E+01  4.19284E+01  4.18711E+01  4.20100E+01  4.20917E+01  4.21663E+01  4.22181E+01  4.22030E+01
   4.21727E+01  4.19865E+01  4.18256E+01  4.13748E+01  4.10860E+01  4.04390E+01  4.00771E+01  3.93518E+01  3.89228E+01  3.80435E+01
   3.75493E+01  3.65710E+01  3.60249E+01  3.49926E+01  3.43979E+01  3.32541E+01  3.26689E+01  3.16195E+01  3.13688E+01  3.13430E+01
   3.13398E+01  3.13613E+01  3.13695E+01  3.14086E+01  3.14196E+01  3.14761E+01  3.14891E+01  3.15614E+01  3.15772E+01  3.16603E+01
   3.16812E+01  3.17768E+01  3.18032E+01  3.19050E+01  3.19253E+01  3.20352E+01  3.20695E+01  3.21979E+01  3.22538E+01  3.23881E+01
   3.24553E+01  3.25937E+01  3.26756E+01  3.28192E+01  3.29135E+01  3.30531E+01  3.31299E+01  3.32573E+01  3.32980E+01  3.33843E+01
   3.34008E+01  3.34411E+01  3.34276E+01  3.34736E+01  3.35144E+01  3.35818E+01  3.36752E+01  3.38236E+01  3.39995E+01  3.42144E+01
   3.44847E+01  3.46548E+01  3.48425E+01  3.50166E+01  3.52462E+01  3.53617E+01  3.55280E+01  3.55653E+01  3.55745E+01  3.54460E+01
   3.54683E+01  3.53737E+01  3.56185E+01  3.56534E+01  3.61192E+01  3.64034E+01  3.70203E+01  3.72592E+01  3.77432E+01  3.76639E+01
   3.78972E+01  3.75824E+01  3.78720E+01  3.75652E+01  3.81381E+01  3.80819E+01  3.88790E+01  3.88895E+01  3.95359E+01  3.93397E+01
   3.98026E+01  3.93857E+01  3.98394E+01  3.96292E+01  4.03875E+01  4.04012E+01  4.13304E+01  4.17282E+01  4.27194E+01  4.30530E+01
   4.37266E+01  4.32571E+01  4.29358E+01  4.21871E+01  4.21880E+01  4.15043E+01  4.18807E+01  4.18281E+01  4.23181E+01  4.23274E+01
   4.28446E+01  4.28445E+01  4.32355E+01  4.27560E+01  4.28767E+01  4.24585E+01  4.27772E+01  4.23085E+01  4.29285E+01  4.24845E+01
   4.33206E+01  4.29527E+01  4.38568E+01  4.34609E+01  4.44515E+01  4.40216E+01  4.50095E+01  4.43230E+01  4.48624E+01  4.40910E+01
   4.48157E+01  4.42016E+01  4.51255E+01  4.49472E+01  4.57292E+01  4.53645E+01  4.60176E+01  4.54563E+01  4.57809E+01  4.51263E+01
   4.52471E+01  4.44271E+01  4.43094E+01  4.36641E+01  4.35840E+01  4.31577E+01  4.30694E+01  4.27851E+01  4.25462E+01  4.21629E+01
   4.18544E+01  4.15306E+01  4.15312E+01  4.13827E+01  4.13920E+01  4.13807E+01  4.13350E+01  4.13459E+01  4.13150E+01  4.13300E+01
   4.12776E+01  4.12647E+01  4.11669E+01  4.10957E+01  4.09843E+01  4.09071E+01  4.07824E+01  4.06706E+01  4.05191E+01  4.03655E+01
   4.01777E+01  3.99660E+01  3.97302E+01  3.94792E+01  3.92107E+01  3.89337E+01  3.86467E+01  3.83592E+01  3.80697E+01  3.77827E+01
   3.74997E+01  3.72258E+01  3.69593E+01  3.67025E+01  3.64562E+01  3.62201E+01  3.59939E+01  3.57773E+01  3.55695E+01  3.53698E+01
   3.51772E+01  3.49911E+01  3.48102E+01  3.46341E+01  3.44625E+01  3.42943E+01  3.41289E+01  3.39661E+01  3.38054E+01  3.36466E+01
   3.34895E+01  3.33338E+01  3.31795E+01  3.30266E+01  3.28749E+01  3.27246E+01  3.25757E+01  3.24283E+01  3.22823E+01  3.21380E+01
   3.19955E+01  3.18548E+01  3.17161E+01  3.15796E+01  3.14452E+01  3.13132E+01  3.11837E+01  3.10565E+01  3.09319E+01  3.08098E+01
   3.06901E+01  3.05728E+01  3.04576E+01  3.03444E+01  3.02329E+01  3.01229E+01  3.00139E+01  2.99057E+01  2.97976E+01  2.96894E+01
   2.95806E+01  2.94708E+01  2.93597E+01  2.92472E+01  2.91330E+01  2.90173E+01  2.89000E+01  2.87814E+01  2.86619E+01  2.85417E+01
   2.84216E+01  2.83020E+01  2.81837E+01  2.80674E+01  2.79539E+01  2.78439E+01  2.77384E+01  2.76380E+01  2.75435E+01  2.74557E+01
   2.73754E+01  2.73030E+01  2.72391E+01  2.71843E+01  2.71388E+01  2.71027E+01  2.70761E+01  2.70586E+01  2.70497E+01  2.70487E+01
   2.70543E+01  2.70651E+01  2.70793E+01  2.70947E+01  2.71091E+01  2.71197E+01  2.71237E+01  2.71185E+01  2.71012E+01  2.70694E+01
   2.70207E+01  2.69535E+01  2.68664E+01  2.67586E+01  2.66302E+01  2.64816E+01  2.63141E+01  2.61293E+01  2.59295E+01  2.57171E+01
   2.54949E+01  2.52659E+01  2.50328E+01  2.47984E+01  2.45652E+01  2.43353E+01  2.41107E+01  2.38929E+01  2.36828E+01  2.34813E+01
   2.32888E+01  2.31053E+01  2.29307E+01  2.27647E+01  2.26067E+01  2.24563E+01  2.23127E+01  2.21754E+01  2.20435E+01  2.19166E+01
   2.17940E+01  2.16752E+01  2.15597E+01  2.14470E+01  2.13368E+01  2.12286E+01  2.11223E+01  2.10175E+01  2.09141E+01  2.08118E+01
   2.07106E+01  2.06101E+01  2.05104E+01  2.04113E+01  2.03127E+01  2.02146E+01  2.01169E+01  2.00195E+01  1.99225E+01  1.98256E+01
   1.97290E+01  1.96326E+01  1.95364E+01  1.94402E+01  1.93442E+01  1.92483E+01  1.91524E+01  1.90566E+01  1.89608E+01  1.88651E+01
   1.87694E+01  1.86737E+01  1.85780E+01  1.84823E+01  1.83866E+01  1.82909E+01  1.81952E+01  1.80995E+01  1.80037E+01  1.79079E+01
   1.78121E+01  1.77162E+01  1.76204E+01  1.75245E+01  1.74285E+01  1.73325E+01  1.72366E+01  1.71405E+01  1.70445E+01  1.69484E+01
   1.68523E+01  1.67562E+01  1.66601E+01  1.65640E+01  1.64679E+01  1.63719E+01  1.62758E+01  1.61799E+01  1.60839E+01  1.59881E+01
   1.58924E+01  1.57968E+01  1.57014E+01  1.56062E+01  1.55112E+01  1.54166E+01  1.53224E+01  1.52287E+01
 NY background values follow
     8.165E+01    8.111E+01    8.057E+01    8.003E+01    7.949E+01    7.895E+01    7.841E+01    7.787E+01    7.734E+01    7.680E+01
     7.627E+01    7.573E+01    7.520E+01    7.467E+01    7.413E+01    7.360E+01    7.308E+01    7.255E+01    7.202E+01    7.150E+01
     7.098E+01    7.045E+01    6.993E+01    6.942E+01    6.890E+01    6.838E+01    6.787E+01    6.736E+01    6.685E+01    6.635E+01
     6.584E+01    6.534E+01    6.484E+01    6.434E+01    6.384E+01    6.335E+01    6.286E+01    6.237E+01    6.189E+01    6.140E+01
     6.092E+01    6.045E+01    5.997E+01    5.950E+01    5.903E+01    5.856E+01    5.810E+01    5.764E+01    5.718E+01    5.673E+01
     5.628E+01    5.583E+01    5.539E+01    5.495E+01    5.452E+01    5.408E+01    5.365E+01    5.323E+01    5.281E+01    5.239E+01
     5.198E+01    5.157E+01    5.116E+01    5.076E+01    5.036E+01    4.997E+01    4.958E+01    4.920E+01    4.882E+01    4.844E+01
     4.807E+01    4.770E+01    4.734E+01    4.698E+01    4.663E+01    4.628E+01    4.594E+01    4.560E+01    4.527E+01    4.494E+01
     4.461E+01    4.429E+01    4.398E+01    4.367E+01    4.336E+01    4.306E+01    4.276E+01    4.247E+01    4.218E+01    4.190E+01
     4.162E+01    4.135E+01    4.108E+01    4.082E+01    4.056E+01    4.030E+01    4.005E+01    3.981E+01    3.957E+01    3.933E+01
     3.910E+01    3.888E+01    3.866E+01    3.844E+01    3.823E+01    3.802E+01    3.782E+01    3.762E+01    3.743E+01    3.724E+01
     3.706E+01    3.688E+01    3.671E+01    3.654E+01    3.638E+01    3.622E+01    3.607E+01    3.592E+01    3.577E+01    3.563E+01
     3.550E+01    3.537E+01    3.525E+01    3.513E+01    3.501E+01    3.490E+01    3.480E+01    3.470E+01    3.460E+01    3.451E+01
     3.442E+01    3.434E+01    3.427E+01    3.420E+01    3.413E+01    3.407E+01    3.401E+01    3.396E+01    3.392E+01    3.387E+01
     3.384E+01    3.381E+01    3.378E+01    3.376E+01    3.374E+01    3.373E+01    3.372E+01    3.372E+01    3.372E+01    3.373E+01
     3.374E+01    3.375E+01    3.377E+01    3.379E+01    3.382E+01    3.385E+01    3.388E+01    3.392E+01    3.396E+01    3.401E+01
     3.405E+01    3.411E+01    3.416E+01    3.422E+01    3.428E+01    3.434E+01    3.440E+01    3.447E+01    3.454E+01    3.462E+01
     3.469E+01    3.477E+01    3.485E+01    3.493E+01    3.502E+01    3.510E+01    3.519E+01    3.528E+01    3.537E+01    3.546E+01
     3.555E+01    3.565E+01    3.574E+01    3.584E+01    3.594E+01    3.604E+01    3.614E+01    3.624E+01    3.634E+01    3.644E+01
     3.654E+01    3.664E+01    3.675E+01    3.685E+01    3.695E+01    3.705E+01    3.716E+01    3.726E+01    3.736E+01    3.746E+01
     3.756E+01    3.766E+01    3.776E+01    3.786E+01    3.796E+01    3.805E+01    3.815E+01    3.824E+01    3.833E+01    3.842E+01
     3.851E+01    3.860E+01    3.869E+01    3.877E+01    3.885E+01    3.894E+01    3.901E+01    3.909E+01    3.916E+01    3.924E+01
     3.931E+01    3.938E+01    3.944E+01    3.951E+01    3.957E+01    3.963E+01    3.969E+01    3.974E+01    3.980E+01    3.985E+01
     3.990E+01    3.995E+01    3.999E+01    4.004E+01    4.008E+01    4.012E+01    4.015E+01    4.019E+01    4.022E+01    4.025E+01
     4.028E+01    4.030E+01    4.033E+01    4.035E+01    4.037E+01    4.038E+01    4.040E+01    4.041E+01    4.042E+01    4.042E+01
     4.043E+01    4.043E+01    4.043E+01    4.043E+01    4.042E+01    4.042E+01    4.041E+01    4.039E+01    4.038E+01    4.036E+01
     4.034E+01    4.032E+01    4.029E+01    4.027E+01    4.024E+01    4.020E+01    4.017E+01    4.013E+01    4.009E+01    4.005E+01
     4.000E+01    3.995E+01    3.990E+01    3.985E+01    3.979E+01    3.973E+01    3.967E+01    3.961E+01    3.954E+01    3.947E+01
     3.940E+01    3.932E+01    3.924E+01    3.916E+01    3.908E+01    3.899E+01    3.890E+01    3.881E+01    3.871E+01    3.862E+01
     3.852E+01    3.841E+01    3.831E+01    3.820E+01    3.809E+01    3.798E+01    3.787E+01    3.775E+01    3.763E+01    3.751E+01
     3.739E+01    3.727E+01    3.714E+01    3.701E+01    3.688E+01    3.675E+01    3.662E+01    3.649E+01    3.635E+01    3.621E+01
     3.608E+01    3.594E+01    3.580E+01    3.565E+01    3.551E+01    3.537E+01    3.522E+01    3.508E+01    3.493E+01    3.478E+01
     3.463E+01    3.449E+01    3.434E+01    3.419E+01    3.403E+01    3.388E+01    3.373E+01    3.358E+01    3.343E+01    3.328E+01
     3.312E+01    3.297E+01    3.282E+01    3.267E+01    3.251E+01    3.236E+01    3.221E+01    3.206E+01    3.190E+01    3.175E+01
     3.160E+01    3.145E+01    3.130E+01    3.115E+01    3.100E+01    3.086E+01    3.071E+01    3.056E+01    3.042E+01    3.027E+01
     3.013E+01    2.999E+01    2.985E+01    2.971E+01    2.957E+01    2.943E+01    2.930E+01    2.916E+01    2.903E+01    2.890E+01
     2.877E+01    2.864E+01    2.851E+01    2.838E+01    2.826E+01    2.813E+01    2.801E+01    2.789E+01    2.777E+01    2.765E+01
     2.753E+01    2.741E+01    2.730E+01    2.718E+01    2.707E+01    2.695E+01    2.684E+01    2.673E+01    2.662E+01    2.651E+01
     2.640E+01    2.629E+01    2.618E+01    2.608E+01    2.597E+01    2.587E+01    2.576E+01    2.566E+01    2.556E+01    2.546E+01
     2.535E+01    2.525E+01    2.515E+01    2.505E+01    2.496E+01    2.486E+01    2.476E+01    2.466E+01    2.457E+01    2.447E+01
     2.437E+01    2.428E+01    2.419E+01    2.409E+01    2.400E+01    2.390E+01    2.381E+01    2.372E+01    2.362E+01    2.353E+01
     2.344E+01    2.335E+01    2.326E+01    2.316E+01    2.307E+01    2.298E+01    2.289E+01    2.280E+01    2.271E+01    2.262E+01
     2.253E+01    2.244E+01    2.235E+01    2.226E+01    2.216E+01    2.207E+01    2.198E+01    2.189E+01    2.180E+01    2.171E+01
     2.162E+01    2.153E+01    2.143E+01    2.134E+01    2.125E+01    2.116E+01    2.107E+01    2.098E+01    2.088E+01    2.079E+01
     2.070E+01    2.061E+01    2.051E+01    2.042E+01    2.033E+01    2.023E+01    2.014E+01    2.005E+01    1.995E+01    1.986E+01
     1.977E+01    1.967E+01    1.958E+01    1.949E+01    1.939E+01    1.930E+01    1.920E+01    1.911E+01    1.901E+01    1.892E+01
     1.882E+01    1.873E+01    1.863E+01    1.854E+01    1.844E+01    1.835E+01    1.825E+01    1.816E+01    1.806E+01    1.797E+01
     1.787E+01    1.777E+01    1.768E+01    1.758E+01    1.748E+01    1.739E+01    1.729E+01    1.719E+01    1.710E+01    1.700E+01
     1.690E+01    1.680E+01    1.671E+01    1.661E+01    1.651E+01    1.641E+01    1.632E+01    1.622E+01    1.612E+01    1.602E+01
     1.592E+01    1.582E+01    1.572E+01    1.562E+01    1.552E+01    1.543E+01    1.533E+01    1.523E+01
 Asp      Conc. = 1.76E+02
