 LCModel (Version 6.3-1L) Copyright: S.W. Provencher.          Ref.: Magn. Reson. Med. 30:672-679 (1993).                
 Slice#3 Row#10 Col#4  K_02_press_1_raw_act
 36 lines in following concentration table = NCONC+1
    Conc.  %SD /Cr+PCr  Metabolite                                         
  670.533  38%   0.294 Ala                                                 
    0.000 999%   0.000 Asp                                                 
  729.797  37%   0.320 Cr                                                  
 1.55E+03  18%   0.680 PCr                                                 
  134.986 182% 5.9E-02 GABA                                                
   86.902 263% 3.8E-02 Glc                                                 
 2.69E+03  23%   1.178 Gln                                                 
 2.48E+03  29%   1.089 Glu                                                 
  818.344   4%   0.359 GPC                                                 
    0.000 999%   0.000 PCh                                                 
  839.082  16%   0.368 GSH                                                 
 3.68E+03  12%   1.613 Ins                                                 
   10.252 999% 4.5E-03 Lac                                                 
 3.13E+03   2%   1.372 NAA                                                 
    0.000 999%   0.000 NAAG                                                
  416.374  10%   0.182+Scyllo                                              
  724.820  40%   0.318 Tau                                                 
   12.454 999% 5.5E-03 -CrCH2                                              
  818.344   4%   0.359 GPC+PCh                                             
 3.13E+03   2%   1.372 NAA+NAAG                                            
 2.28E+03   3%   1.000 Cr+PCr                                              
 5.17E+03  24%   2.267 Glu+Gln                                             
    0.000 999%   0.000 Lip13a                                              
    0.000 999%   0.000 Lip13b                                              
    0.000 999%   0.000 Lip09                                               
  652.764  21%   0.286 MM09                                                
    0.000 999%   0.000 Lip20                                               
  952.232  25%   0.417 MM20                                                
  178.765  34% 7.8E-02 MM12                                                
 1.04E+03  16%   0.456 MM14                                                
  593.510  20%   0.260 MM17                                                
    0.000 999%   0.000 Lip13a+Lip13b                                       
 1.22E+03  16%   0.534 MM14+Lip13a+Lip13b+MM12                             
  652.764  21%   0.286 MM09+Lip09                                          
  952.232  25%   0.417 MM20+Lip20                                          
   6 lines in following misc. output table
  FWHM = 0.107 ppm    S/N =  12                                            
  Data shift = 0.046 ppm                                                   
  Ph: -56 deg     -28.9 deg/ppm                                            
  alphaB,S = 8.2E-01,   2.0E+02                                            
   14 spline knots.   Ns = 6(2)                                            
  ( 5) 2 infls.   ( 1) 1 extrs.                                            
  498 points on ppm-axis = NY
      4.000000     3.992357     3.984714     3.977070     3.969427     3.961784     3.954141     3.946497     3.938854     3.931211
      3.923568     3.915925     3.908281     3.900638     3.892995     3.885352     3.877708     3.870065     3.862422     3.854779
      3.847136     3.839492     3.831849     3.824206     3.816563     3.808919     3.801276     3.793633     3.785990     3.778347
      3.770703     3.763060     3.755417     3.747774     3.740130     3.732487     3.724844     3.717201     3.709558     3.701914
      3.694271     3.686628     3.678985     3.671341     3.663698     3.656055     3.648412     3.640769     3.633125     3.625482
      3.617839     3.610196     3.602552     3.594909     3.587266     3.579623     3.571980     3.564336     3.556693     3.549050
      3.541407     3.533763     3.526120     3.518477     3.510834     3.503191     3.495547     3.487904     3.480261     3.472618
      3.464974     3.457331     3.449688     3.442045     3.434402     3.426758     3.419115     3.411472     3.403829     3.396185
      3.388542     3.380899     3.373256     3.365613     3.357969     3.350326     3.342683     3.335040     3.327396     3.319753
      3.312110     3.304467     3.296824     3.289180     3.281537     3.273894     3.266251     3.258607     3.250964     3.243321
      3.235678     3.228034     3.220391     3.212748     3.205105     3.197462     3.189818     3.182175     3.174532     3.166889
      3.159245     3.151602     3.143959     3.136316     3.128673     3.121029     3.113386     3.105743     3.098100     3.090456
      3.082813     3.075170     3.067527     3.059884     3.052240     3.044597     3.036954     3.029311     3.021667     3.014024
      3.006381     2.998738     2.991095     2.983451     2.975808     2.968165     2.960522     2.952878     2.945235     2.937592
      2.929949     2.922306     2.914662     2.907019     2.899376     2.891733     2.884089     2.876446     2.868803     2.861160
      2.853517     2.845873     2.838230     2.830587     2.822944     2.815300     2.807657     2.800014     2.792371     2.784728
      2.777084     2.769441     2.761798     2.754155     2.746511     2.738868     2.731225     2.723582     2.715939     2.708295
      2.700652     2.693009     2.685366     2.677722     2.670079     2.662436     2.654793     2.647150     2.639506     2.631863
      2.624220     2.616577     2.608933     2.601290     2.593647     2.586004     2.578361     2.570717     2.563074     2.555431
      2.547788     2.540144     2.532501     2.524858     2.517215     2.509572     2.501928     2.494285     2.486642     2.478999
      2.471355     2.463712     2.456069     2.448426     2.440783     2.433139     2.425496     2.417853     2.410210     2.402566
      2.394923     2.387280     2.379637     2.371994     2.364350     2.356707     2.349064     2.341421     2.333777     2.326134
      2.318491     2.310848     2.303205     2.295561     2.287918     2.280275     2.272632     2.264988     2.257345     2.249702
      2.242059     2.234416     2.226772     2.219129     2.211486     2.203843     2.196199     2.188556     2.180913     2.173270
      2.165627     2.157983     2.150340     2.142697     2.135054     2.127410     2.119767     2.112124     2.104481     2.096838
      2.089194     2.081551     2.073908     2.066265     2.058621     2.050978     2.043335     2.035692     2.028049     2.020405
      2.012762     2.005119     1.997476     1.989833     1.982190     1.974546     1.966903     1.959260     1.951617     1.943974
      1.936331     1.928688     1.921045     1.913402     1.905759     1.898115     1.890472     1.882829     1.875186     1.867543
      1.859900     1.852257     1.844614     1.836971     1.829327     1.821684     1.814041     1.806398     1.798755     1.791112
      1.783469     1.775826     1.768183     1.760540     1.752896     1.745253     1.737610     1.729967     1.722324     1.714681
      1.707038     1.699395     1.691752     1.684108     1.676465     1.668822     1.661179     1.653536     1.645893     1.638250
      1.630607     1.622964     1.615321     1.607677     1.600034     1.592391     1.584748     1.577105     1.569462     1.561819
      1.554176     1.546533     1.538890     1.531246     1.523603     1.515960     1.508317     1.500674     1.493031     1.485388
      1.477745     1.470102     1.462458     1.454815     1.447172     1.439529     1.431886     1.424243     1.416600     1.408957
      1.401314     1.393671     1.386027     1.378384     1.370741     1.363098     1.355455     1.347812     1.340169     1.332526
      1.324883     1.317240     1.309596     1.301953     1.294310     1.286667     1.279024     1.271381     1.263738     1.256095
      1.248452     1.240808     1.233165     1.225522     1.217879     1.210236     1.202593     1.194950     1.187307     1.179664
      1.172021     1.164377     1.156734     1.149091     1.141448     1.133805     1.126162     1.118519     1.110876     1.103233
      1.095590     1.087946     1.080303     1.072660     1.065017     1.057374     1.049731     1.042088     1.034445     1.026802
      1.019158     1.011515     1.003872     0.996229     0.988586     0.980943     0.973300     0.965657     0.958014     0.950371
      0.942727     0.935084     0.927441     0.919798     0.912155     0.904512     0.896869     0.889226     0.881583     0.873940
      0.866296     0.858653     0.851010     0.843367     0.835724     0.828081     0.820438     0.812795     0.805152     0.797508
      0.789865     0.782222     0.774579     0.766936     0.759293     0.751650     0.744007     0.736364     0.728721     0.721077
      0.713434     0.705791     0.698148     0.690505     0.682862     0.675219     0.667576     0.659933     0.652290     0.644646
      0.637003     0.629360     0.621717     0.614074     0.606431     0.598788     0.591145     0.583502     0.575858     0.568215
      0.560572     0.552929     0.545286     0.537643     0.530000     0.522357     0.514714     0.507071     0.499427     0.491784
      0.484141     0.476498     0.468855     0.461212     0.453569     0.445925     0.438282     0.430639     0.422996     0.415353
      0.407710     0.400067     0.392424     0.384780     0.377137     0.369494     0.361851     0.354208     0.346565     0.338922
      0.331278     0.323635     0.315992     0.308349     0.300706     0.293063     0.285420     0.277777     0.270133     0.262490
      0.254847     0.247204     0.239561     0.231918     0.224275     0.216631     0.208988     0.201345
 NY phased data points follow
  -9.27379E+01 -9.17929E+01 -8.76979E+01 -8.56350E+01 -8.25892E+01 -7.57820E+01 -7.54877E+01 -6.70760E+01 -6.75791E+01 -6.59572E+01
  -6.48276E+01 -6.88717E+01 -6.96636E+01 -7.11976E+01 -7.64706E+01 -7.51602E+01 -7.64899E+01 -7.95510E+01 -8.19730E+01 -8.34835E+01
  -8.14752E+01 -8.20482E+01 -7.93439E+01 -8.32458E+01 -8.01027E+01 -7.90264E+01 -7.75616E+01 -7.42413E+01 -7.56593E+01 -7.43042E+01
  -7.25410E+01 -6.79254E+01 -6.69253E+01 -7.01692E+01 -6.80448E+01 -6.81322E+01 -6.76733E+01 -6.50503E+01 -6.25165E+01 -6.57106E+01
  -6.50998E+01 -6.50359E+01 -6.52270E+01 -6.10626E+01 -5.90774E+01 -6.27756E+01 -5.92807E+01 -5.58577E+01 -5.76004E+01 -5.99474E+01
  -5.78153E+01 -5.84001E+01 -5.84524E+01 -5.87069E+01 -6.21653E+01 -5.65308E+01 -5.89486E+01 -5.89179E+01 -6.06155E+01 -6.14103E+01
  -6.05877E+01 -6.31989E+01 -5.64754E+01 -6.04719E+01 -6.14890E+01 -5.80612E+01 -5.78008E+01 -5.74809E+01 -5.67338E+01 -5.50952E+01
  -5.86013E+01 -5.39432E+01 -5.47931E+01 -5.47336E+01 -5.24684E+01 -5.15094E+01 -4.85002E+01 -4.80455E+01 -4.74914E+01 -4.66547E+01
  -4.99395E+01 -4.68973E+01 -4.37888E+01 -4.27622E+01 -4.31219E+01 -4.43624E+01 -4.19078E+01 -4.10994E+01 -3.98546E+01 -3.61917E+01
  -3.73915E+01 -3.50073E+01 -3.44938E+01 -3.18096E+01 -3.33554E+01 -2.72860E+01 -1.98031E+01 -1.75957E+01 -9.46093E+00 -9.28594E+00
  -9.60458E+00 -2.95151E+00 -2.15147E+00 -6.69519E+00 -1.06189E+01 -1.51632E+01 -1.27431E+01 -1.66749E+01 -1.98144E+01 -2.02107E+01
  -2.18113E+01 -2.63500E+01 -2.61142E+01 -3.03664E+01 -2.84133E+01 -2.84311E+01 -2.89068E+01 -2.70921E+01 -2.72269E+01 -2.02170E+01
  -1.91940E+01 -1.28282E+01 -6.11925E+00 -2.04477E+00  1.63284E+00  6.80691E+00  4.62140E+00  3.42838E+00  2.04387E+00  5.76930E+00
  -3.21078E+00 -1.46114E+00 -4.48436E+00 -1.11365E+01 -1.41252E+01 -1.39136E+01 -1.90377E+01 -2.29592E+01 -2.58496E+01 -2.87956E+01
  -3.05333E+01 -2.99695E+01 -2.99307E+01 -3.07212E+01 -2.36030E+01 -2.84468E+01 -2.89891E+01 -2.93843E+01 -2.75753E+01 -2.58303E+01
  -2.55410E+01 -2.84376E+01 -2.29808E+01 -2.42853E+01 -2.23066E+01 -2.41904E+01 -2.58512E+01 -2.44750E+01 -2.10611E+01 -2.58037E+01
  -2.23079E+01 -2.36662E+01 -2.56260E+01 -2.09812E+01 -2.51965E+01 -2.57711E+01 -2.76717E+01 -2.69212E+01 -2.95642E+01 -2.59134E+01
  -2.73870E+01 -2.82589E+01 -3.07631E+01 -3.13518E+01 -3.05095E+01 -2.85495E+01 -2.65429E+01 -2.89673E+01 -2.64941E+01 -3.26019E+01
  -2.84519E+01 -2.51461E+01 -2.59164E+01 -2.65133E+01 -2.26980E+01 -2.57058E+01 -2.03742E+01 -1.68401E+01 -1.58692E+01 -1.59454E+01
  -1.64506E+01 -1.12173E+01 -8.72520E+00 -1.16606E+01 -1.24182E+01 -1.17420E+01 -1.14026E+01 -1.03764E+01 -9.96551E+00 -7.75855E+00
  -8.46472E+00 -7.78297E+00 -7.60387E+00 -1.08902E+01 -1.29317E+01 -9.80554E+00 -1.25025E+01 -1.00138E+01 -1.06262E+01 -1.03534E+01
  -8.35008E+00 -7.01426E+00 -6.60367E+00 -4.35053E+00 -1.42335E+00 -4.16702E+00 -3.87309E+00 -6.90514E+00 -3.62729E+00 -3.09151E+00
  -7.70712E+00 -1.20367E+00 -4.92698E+00 -2.12240E+00 -2.10156E+00 -2.88516E+00 -2.49060E+00  4.25870E-01 -1.23150E+00  4.37865E-01
   3.35483E+00 -4.93336E-01  4.01191E+00  4.14074E+00  1.79425E+00  1.45375E+00  2.68547E+00  4.09793E-01  1.94407E-01  1.85408E+00
   2.70937E+00  5.78972E-01 -2.07665E+00  2.25823E+00  2.67586E+00  4.44080E+00  4.60360E+00  8.73144E+00  9.44243E+00  1.16233E+01
   1.58497E+01  2.17474E+01  2.47683E+01  2.77227E+01  3.65646E+01  4.60829E+01  5.37979E+01  6.05344E+01  6.29559E+01  6.39901E+01
   6.78408E+01  5.97952E+01  5.64691E+01  5.66117E+01  5.04311E+01  4.38935E+01  3.91782E+01  3.65876E+01  2.82670E+01  2.51275E+01
   1.99871E+01  1.15418E+01  1.29045E+01  7.93712E+00  8.68455E+00  1.32380E+01  1.19892E+01  7.06106E+00  9.50149E+00  9.25236E+00
   7.39700E+00  8.51835E+00  7.73430E+00  1.01158E+01  7.15756E+00  7.61087E+00  7.40473E+00  8.75468E+00  8.12014E+00  9.20579E+00
   9.00976E+00  8.93463E+00  7.66586E+00  6.45022E+00  1.12555E+01  1.25054E+01  9.25949E+00  8.25531E+00  9.01315E+00  1.38051E+01
   1.05617E+01  1.44173E+01  1.19265E+01  1.61554E+01  1.56700E+01  1.59294E+01  1.69344E+01  1.39443E+01  1.41614E+01  1.55379E+01
   1.68092E+01  1.81134E+01  1.71180E+01  1.51884E+01  2.12478E+01  1.72036E+01  1.76853E+01  1.80774E+01  1.60607E+01  2.00397E+01
   1.69663E+01  1.83734E+01  1.91790E+01  1.71205E+01  1.90450E+01  1.69591E+01  1.61305E+01  1.90374E+01  1.62049E+01  1.67253E+01
   1.59838E+01  1.71887E+01  1.48372E+01  1.19537E+01  1.02889E+01  1.13817E+01  1.18361E+01  1.23286E+01  1.31108E+01  1.33248E+01
   1.14480E+01  1.44582E+01  1.19876E+01  1.18550E+01  1.37520E+01  1.09516E+01  1.52697E+01  8.22662E+00  9.11408E+00  6.41711E+00
   7.83136E+00  6.99084E+00  8.20867E+00  7.87781E+00  7.50078E+00  8.48536E+00  9.29814E+00  6.81124E+00  4.54382E+00  6.59464E+00
   9.64301E+00  7.38322E+00  8.32531E+00  7.90796E+00  5.56351E+00  7.40469E+00  1.13788E+01  8.39434E+00  8.01200E+00  5.79319E+00
   9.67472E+00  6.45328E+00  6.33993E+00  1.00889E+01  5.58583E+00  9.35044E+00  5.32685E+00  3.27276E+00  5.97433E+00  5.64376E+00
   7.84168E+00  5.18807E+00  9.61416E+00  6.11261E+00  3.19776E+00  4.57452E+00  9.38632E+00  7.75385E+00  7.23957E+00  8.27751E+00
   8.37745E+00  1.02854E+01  1.00828E+01  7.33844E+00  9.16618E+00  9.08001E+00  7.54189E+00  8.49767E+00  9.16586E+00  1.04093E+01
   9.31226E+00  1.24678E+01  6.75470E+00  9.84084E+00  1.17910E+01  1.01256E+01  1.31445E+01  1.44601E+01  1.22189E+01  9.57983E+00
   7.83571E+00  1.16059E+01  1.17534E+01  1.19777E+01  1.29350E+01  1.01808E+01  7.91587E+00  9.87765E+00  1.30449E+01  1.17875E+01
   1.02760E+01  8.89278E+00  1.03881E+01  7.36805E+00  8.87877E+00  8.37819E+00  8.01545E+00  9.32502E+00  7.97763E+00  7.08689E+00
   6.74655E+00  1.10845E+01  8.61330E+00  7.94222E+00  9.26044E+00  1.07222E+01  7.11283E+00  1.11369E+01  4.26848E+00  8.35892E+00
   9.58842E+00  8.23636E+00  9.14955E+00  9.52000E+00  9.93133E+00  1.12381E+01  1.18837E+01  9.57193E+00  7.36383E+00  9.33263E+00
   1.18972E+01  9.26793E+00  1.13823E+01  8.84486E+00  1.00110E+01  1.02822E+01  1.09432E+01  8.83404E+00  1.11512E+01  9.06218E+00
   9.33245E+00  1.29350E+01  1.15776E+01  1.20444E+01  1.35451E+01  9.54122E+00  1.04471E+01  1.04621E+01  1.04146E+01  9.45050E+00
   8.67812E+00  1.11932E+01  1.13951E+01  1.10674E+01  1.01692E+01  1.02341E+01  1.01810E+01  1.05305E+01  8.43399E+00  1.23323E+01
   1.23796E+01  1.26707E+01  9.96820E+00  9.85785E+00  1.12679E+01  9.26655E+00  7.51660E+00  1.13135E+01  1.10935E+01  1.29444E+01
   8.59494E+00  6.72265E+00  1.19766E+01  7.97410E+00  1.00784E+01  1.10695E+01  1.29261E+01  1.11033E+01
 NY points of the fit to the data follow
  -9.14019E+01 -8.86575E+01 -8.71070E+01 -8.30018E+01 -8.10942E+01 -7.62430E+01 -7.49389E+01 -7.08138E+01 -7.07542E+01 -6.80520E+01
  -6.93297E+01 -6.82279E+01 -7.01969E+01 -7.02339E+01 -7.26429E+01 -7.33487E+01 -7.60682E+01 -7.70361E+01 -7.90476E+01 -7.95528E+01
  -8.11120E+01 -8.10520E+01 -8.20415E+01 -8.10209E+01 -8.09950E+01 -7.84217E+01 -7.73485E+01 -7.43580E+01 -7.31980E+01 -7.06987E+01
  -7.00091E+01 -6.86165E+01 -6.86676E+01 -6.83839E+01 -6.85193E+01 -6.82873E+01 -6.77576E+01 -6.74552E+01 -6.67310E+01 -6.62929E+01
  -6.54584E+01 -6.45690E+01 -6.35032E+01 -6.22772E+01 -6.12860E+01 -6.02788E+01 -5.96460E+01 -5.89444E+01 -5.89694E+01 -5.88204E+01
  -5.92895E+01 -5.95104E+01 -6.00888E+01 -6.02776E+01 -6.05348E+01 -6.05585E+01 -6.06181E+01 -6.06253E+01 -6.06547E+01 -6.07230E+01
  -6.05621E+01 -6.04759E+01 -6.00760E+01 -5.93910E+01 -5.86736E+01 -5.77830E+01 -5.70764E+01 -5.62898E+01 -5.55925E+01 -5.50329E+01
  -5.42678E+01 -5.39690E+01 -5.31928E+01 -5.30998E+01 -5.21675E+01 -5.13688E+01 -5.05949E+01 -4.96390E+01 -4.90810E+01 -4.77829E+01
  -4.73416E+01 -4.52590E+01 -4.52508E+01 -4.27245E+01 -4.33872E+01 -4.11778E+01 -4.23831E+01 -4.07458E+01 -4.20520E+01 -4.04024E+01
  -3.90402E+01 -3.70753E+01 -3.47157E+01 -3.27201E+01 -2.93481E+01 -2.70139E+01 -2.15714E+01 -1.90513E+01 -1.27635E+01 -1.09760E+01
  -6.37929E+00 -6.12135E+00 -4.34367E+00 -5.58745E+00 -6.71454E+00 -9.24977E+00 -1.18336E+01 -1.48492E+01 -1.80058E+01 -2.10741E+01
  -2.45216E+01 -2.73736E+01 -3.06597E+01 -3.22374E+01 -3.28314E+01 -3.21052E+01 -3.11158E+01 -2.85341E+01 -2.54828E+01 -2.10916E+01
  -1.68062E+01 -1.08386E+01 -6.61463E+00 -6.01968E-01  1.21618E+00  5.66079E+00  4.31122E+00  6.58202E+00  2.77918E+00  3.06125E+00
  -1.64014E+00 -2.76031E+00 -7.55756E+00 -9.57091E+00 -1.40049E+01 -1.65211E+01 -2.01001E+01 -2.26582E+01 -2.48165E+01 -2.69575E+01
  -2.75440E+01 -2.88577E+01 -2.79627E+01 -2.85586E+01 -2.77052E+01 -2.81014E+01 -2.73777E+01 -2.75901E+01 -2.70397E+01 -2.72370E+01
  -2.68247E+01 -2.70313E+01 -2.67284E+01 -2.68337E+01 -2.66751E+01 -2.67698E+01 -2.65937E+01 -2.66596E+01 -2.63801E+01 -2.63423E+01
  -2.60879E+01 -2.59354E+01 -2.58255E+01 -2.56539E+01 -2.57929E+01 -2.56030E+01 -2.57908E+01 -2.56227E+01 -2.58310E+01 -2.57833E+01
  -2.59468E+01 -2.59082E+01 -2.59066E+01 -2.59253E+01 -2.57442E+01 -2.59554E+01 -2.54162E+01 -2.57074E+01 -2.47355E+01 -2.49341E+01
  -2.36613E+01 -2.38186E+01 -2.24082E+01 -2.24731E+01 -2.09431E+01 -2.07755E+01 -1.94115E+01 -1.89868E+01 -1.78139E+01 -1.70879E+01
  -1.63710E+01 -1.54028E+01 -1.50595E+01 -1.36813E+01 -1.34820E+01 -1.17315E+01 -1.16196E+01 -1.01800E+01 -1.00685E+01 -8.76470E+00
  -8.87291E+00 -8.35512E+00 -8.91497E+00 -9.17333E+00 -9.70075E+00 -1.01340E+01 -1.04901E+01 -1.04393E+01 -1.01325E+01 -9.62184E+00
  -8.69044E+00 -8.15439E+00 -6.75751E+00 -6.47926E+00 -5.39971E+00 -5.47390E+00 -4.95202E+00 -5.13402E+00 -4.91098E+00 -4.89306E+00
  -4.54858E+00 -4.01878E+00 -3.64640E+00 -3.12282E+00 -2.89256E+00 -2.30831E+00 -2.22105E+00 -1.41332E+00 -1.30153E+00 -5.21081E-01
  -3.85852E-01  5.12523E-01  9.55452E-01  1.97088E+00  2.38445E+00  3.16116E+00  2.99739E+00  3.27504E+00  2.42918E+00  2.32077E+00
   1.45944E+00  1.52034E+00  1.15038E+00  1.55407E+00  1.81723E+00  2.59238E+00  3.26481E+00  5.21793E+00  9.50964E+00  1.25738E+01
   1.77210E+01  2.12232E+01  2.74484E+01  3.18326E+01  4.04419E+01  4.51357E+01  5.40314E+01  5.73266E+01  6.27468E+01  6.34433E+01
   6.40534E+01  6.22561E+01  5.86391E+01  5.53313E+01  4.97426E+01  4.59414E+01  3.97708E+01  3.59911E+01  2.97138E+01  2.62422E+01
   2.03151E+01  1.75141E+01  1.28370E+01  1.10730E+01  8.34183E+00  7.79345E+00  7.55480E+00  7.55687E+00  7.51716E+00  7.53242E+00
   7.58625E+00  7.59121E+00  7.66996E+00  7.69132E+00  7.77690E+00  7.80849E+00  7.89744E+00  7.95792E+00  8.06887E+00  8.18981E+00
   8.35752E+00  8.55131E+00  8.77821E+00  9.04526E+00  9.33292E+00  9.66783E+00  1.00172E+01  1.04114E+01  1.08207E+01  1.12656E+01
   1.17173E+01  1.21898E+01  1.26560E+01  1.31215E+01  1.35652E+01  1.39890E+01  1.43795E+01  1.47364E+01  1.50562E+01  1.53422E+01
   1.55989E+01  1.58373E+01  1.60729E+01  1.63341E+01  1.66820E+01  1.71440E+01  1.73009E+01  1.77041E+01  1.77113E+01  1.81020E+01
   1.79381E+01  1.82783E+01  1.76541E+01  1.80172E+01  1.70779E+01  1.71139E+01  1.59417E+01  1.56816E+01  1.45497E+01  1.43379E+01
   1.36722E+01  1.36730E+01  1.35470E+01  1.35382E+01  1.37163E+01  1.34848E+01  1.37424E+01  1.32308E+01  1.34470E+01  1.28324E+01
   1.30005E+01  1.24133E+01  1.25053E+01  1.19563E+01  1.18050E+01  1.11499E+01  1.08341E+01  1.02027E+01  9.81613E+00  9.31893E+00
   8.97026E+00  8.73674E+00  8.55926E+00  8.43093E+00  8.32719E+00  8.25138E+00  8.18847E+00  8.14042E+00  8.10024E+00  8.06783E+00
   8.03946E+00  8.01475E+00  7.99068E+00  7.96716E+00  7.94086E+00  7.91202E+00  7.88223E+00  7.84929E+00  7.81684E+00  7.78257E+00
   7.74993E+00  7.71907E+00  7.68971E+00  7.66295E+00  7.63905E+00  7.61937E+00  7.60432E+00  7.59534E+00  7.59287E+00  7.59834E+00
   7.61222E+00  7.63596E+00  7.67007E+00  7.71601E+00  7.77428E+00  7.84633E+00  7.93261E+00  8.03450E+00  8.15229E+00  8.28708E+00
   8.43874E+00  8.60782E+00  8.79350E+00  8.99548E+00  9.21191E+00  9.44129E+00  9.68047E+00  9.92660E+00  1.01752E+01  1.04223E+01
   1.06624E+01  1.08905E+01  1.11009E+01  1.12887E+01  1.14486E+01  1.15766E+01  1.16690E+01  1.17237E+01  1.17390E+01  1.17154E+01
   1.16534E+01  1.15562E+01  1.14265E+01  1.12694E+01  1.10894E+01  1.08924E+01  1.06837E+01  1.04692E+01  1.02537E+01  1.00426E+01
   9.83928E+00  9.64787E+00  9.47045E+00  9.30947E+00  9.16558E+00  9.03987E+00  8.93181E+00  8.84148E+00  8.76756E+00  8.70949E+00
   8.66554E+00  8.63489E+00  8.61573E+00  8.60724E+00  8.60767E+00  8.61634E+00  8.63169E+00  8.65326E+00  8.67970E+00  8.71075E+00
   8.74524E+00  8.78310E+00  8.82330E+00  8.86593E+00  8.91011E+00  8.95600E+00  9.00280E+00  9.05076E+00  9.09916E+00  9.14830E+00
   9.19750E+00  9.24711E+00  9.29646E+00  9.34595E+00  9.39501E+00  9.44414E+00  9.49276E+00  9.54138E+00  9.58943E+00  9.63745E+00
   9.68487E+00  9.73226E+00  9.77904E+00  9.82576E+00  9.87187E+00  9.91791E+00  9.96337E+00  1.00088E+01  1.00536E+01  1.00984E+01
   1.01426E+01  1.01868E+01  1.02306E+01  1.02743E+01  1.03175E+01  1.03608E+01  1.04036E+01  1.04465E+01  1.04890E+01  1.05316E+01
   1.05739E+01  1.06164E+01  1.06585E+01  1.07009E+01  1.07431E+01  1.07855E+01  1.08278E+01  1.08705E+01  1.09130E+01  1.09561E+01
   1.09992E+01  1.10429E+01  1.10867E+01  1.11313E+01  1.11761E+01  1.12219E+01  1.12683E+01  1.13158E+01
 NY background values follow
    -1.091E+02   -1.084E+02   -1.078E+02   -1.072E+02   -1.066E+02   -1.059E+02   -1.053E+02   -1.047E+02   -1.041E+02   -1.034E+02
    -1.028E+02   -1.022E+02   -1.015E+02   -1.009E+02   -1.003E+02   -9.966E+01   -9.903E+01   -9.840E+01   -9.778E+01   -9.715E+01
    -9.652E+01   -9.589E+01   -9.527E+01   -9.464E+01   -9.402E+01   -9.339E+01   -9.277E+01   -9.214E+01   -9.152E+01   -9.090E+01
    -9.028E+01   -8.965E+01   -8.903E+01   -8.841E+01   -8.780E+01   -8.718E+01   -8.656E+01   -8.594E+01   -8.533E+01   -8.471E+01
    -8.410E+01   -8.349E+01   -8.288E+01   -8.227E+01   -8.166E+01   -8.105E+01   -8.045E+01   -7.984E+01   -7.924E+01   -7.864E+01
    -7.803E+01   -7.744E+01   -7.684E+01   -7.624E+01   -7.565E+01   -7.505E+01   -7.446E+01   -7.387E+01   -7.328E+01   -7.270E+01
    -7.211E+01   -7.153E+01   -7.094E+01   -7.036E+01   -6.979E+01   -6.921E+01   -6.864E+01   -6.806E+01   -6.749E+01   -6.692E+01
    -6.636E+01   -6.579E+01   -6.523E+01   -6.467E+01   -6.411E+01   -6.355E+01   -6.300E+01   -6.245E+01   -6.190E+01   -6.135E+01
    -6.080E+01   -6.026E+01   -5.972E+01   -5.918E+01   -5.864E+01   -5.811E+01   -5.758E+01   -5.705E+01   -5.652E+01   -5.600E+01
    -5.548E+01   -5.496E+01   -5.444E+01   -5.393E+01   -5.342E+01   -5.291E+01   -5.241E+01   -5.190E+01   -5.140E+01   -5.090E+01
    -5.041E+01   -4.992E+01   -4.943E+01   -4.894E+01   -4.845E+01   -4.797E+01   -4.749E+01   -4.701E+01   -4.654E+01   -4.607E+01
    -4.560E+01   -4.513E+01   -4.467E+01   -4.421E+01   -4.375E+01   -4.329E+01   -4.284E+01   -4.238E+01   -4.194E+01   -4.149E+01
    -4.105E+01   -4.060E+01   -4.017E+01   -3.973E+01   -3.930E+01   -3.887E+01   -3.844E+01   -3.801E+01   -3.759E+01   -3.717E+01
    -3.675E+01   -3.634E+01   -3.592E+01   -3.551E+01   -3.511E+01   -3.470E+01   -3.430E+01   -3.390E+01   -3.350E+01   -3.311E+01
    -3.271E+01   -3.232E+01   -3.194E+01   -3.155E+01   -3.117E+01   -3.079E+01   -3.041E+01   -3.003E+01   -2.966E+01   -2.928E+01
    -2.891E+01   -2.855E+01   -2.818E+01   -2.781E+01   -2.745E+01   -2.709E+01   -2.673E+01   -2.637E+01   -2.602E+01   -2.566E+01
    -2.531E+01   -2.496E+01   -2.461E+01   -2.426E+01   -2.391E+01   -2.357E+01   -2.322E+01   -2.288E+01   -2.254E+01   -2.220E+01
    -2.186E+01   -2.152E+01   -2.118E+01   -2.084E+01   -2.051E+01   -2.017E+01   -1.984E+01   -1.951E+01   -1.917E+01   -1.884E+01
    -1.851E+01   -1.818E+01   -1.785E+01   -1.752E+01   -1.720E+01   -1.687E+01   -1.654E+01   -1.622E+01   -1.589E+01   -1.557E+01
    -1.524E+01   -1.492E+01   -1.460E+01   -1.428E+01   -1.396E+01   -1.365E+01   -1.333E+01   -1.301E+01   -1.270E+01   -1.239E+01
    -1.208E+01   -1.177E+01   -1.146E+01   -1.115E+01   -1.085E+01   -1.054E+01   -1.024E+01   -9.942E+00   -9.643E+00   -9.346E+00
    -9.051E+00   -8.758E+00   -8.466E+00   -8.177E+00   -7.889E+00   -7.604E+00   -7.320E+00   -7.038E+00   -6.759E+00   -6.482E+00
    -6.207E+00   -5.934E+00   -5.663E+00   -5.395E+00   -5.129E+00   -4.865E+00   -4.604E+00   -4.345E+00   -4.089E+00   -3.835E+00
    -3.583E+00   -3.335E+00   -3.088E+00   -2.844E+00   -2.603E+00   -2.364E+00   -2.128E+00   -1.894E+00   -1.663E+00   -1.434E+00
    -1.208E+00   -9.841E-01   -7.630E-01   -5.445E-01   -3.285E-01   -1.150E-01    9.583E-02    3.041E-01    5.098E-01    7.129E-01
     9.134E-01    1.111E+00    1.307E+00    1.499E+00    1.689E+00    1.877E+00    2.062E+00    2.244E+00    2.423E+00    2.600E+00
     2.774E+00    2.946E+00    3.115E+00    3.281E+00    3.444E+00    3.605E+00    3.763E+00    3.919E+00    4.072E+00    4.222E+00
     4.369E+00    4.514E+00    4.655E+00    4.795E+00    4.931E+00    5.065E+00    5.196E+00    5.324E+00    5.449E+00    5.572E+00
     5.692E+00    5.809E+00    5.923E+00    6.035E+00    6.144E+00    6.250E+00    6.353E+00    6.453E+00    6.551E+00    6.645E+00
     6.737E+00    6.826E+00    6.913E+00    6.996E+00    7.077E+00    7.154E+00    7.229E+00    7.301E+00    7.370E+00    7.436E+00
     7.500E+00    7.560E+00    7.618E+00    7.673E+00    7.725E+00    7.773E+00    7.820E+00    7.863E+00    7.903E+00    7.940E+00
     7.974E+00    8.006E+00    8.034E+00    8.060E+00    8.082E+00    8.102E+00    8.119E+00    8.132E+00    8.143E+00    8.151E+00
     8.156E+00    8.159E+00    8.159E+00    8.157E+00    8.152E+00    8.145E+00    8.136E+00    8.125E+00    8.112E+00    8.097E+00
     8.080E+00    8.061E+00    8.041E+00    8.019E+00    7.996E+00    7.971E+00    7.946E+00    7.919E+00    7.891E+00    7.862E+00
     7.832E+00    7.801E+00    7.769E+00    7.737E+00    7.705E+00    7.671E+00    7.638E+00    7.604E+00    7.570E+00    7.536E+00
     7.503E+00    7.469E+00    7.435E+00    7.402E+00    7.369E+00    7.336E+00    7.304E+00    7.273E+00    7.242E+00    7.212E+00
     7.183E+00    7.156E+00    7.129E+00    7.103E+00    7.079E+00    7.055E+00    7.033E+00    7.012E+00    6.992E+00    6.974E+00
     6.957E+00    6.940E+00    6.926E+00    6.912E+00    6.900E+00    6.889E+00    6.879E+00    6.871E+00    6.864E+00    6.858E+00
     6.854E+00    6.851E+00    6.849E+00    6.849E+00    6.850E+00    6.852E+00    6.856E+00    6.862E+00    6.869E+00    6.877E+00
     6.887E+00    6.898E+00    6.911E+00    6.925E+00    6.941E+00    6.958E+00    6.977E+00    6.998E+00    7.020E+00    7.043E+00
     7.068E+00    7.095E+00    7.124E+00    7.154E+00    7.185E+00    7.219E+00    7.254E+00    7.290E+00    7.328E+00    7.368E+00
     7.410E+00    7.453E+00    7.497E+00    7.543E+00    7.590E+00    7.639E+00    7.688E+00    7.739E+00    7.791E+00    7.844E+00
     7.898E+00    7.953E+00    8.009E+00    8.065E+00    8.122E+00    8.181E+00    8.239E+00    8.299E+00    8.359E+00    8.419E+00
     8.480E+00    8.541E+00    8.603E+00    8.665E+00    8.727E+00    8.789E+00    8.851E+00    8.914E+00    8.976E+00    9.039E+00
     9.101E+00    9.163E+00    9.225E+00    9.286E+00    9.348E+00    9.409E+00    9.469E+00    9.529E+00    9.588E+00    9.647E+00
     9.705E+00    9.763E+00    9.819E+00    9.875E+00    9.930E+00    9.985E+00    1.004E+01    1.009E+01    1.014E+01    1.019E+01
     1.025E+01    1.030E+01    1.034E+01    1.039E+01    1.044E+01    1.049E+01    1.054E+01    1.058E+01    1.063E+01    1.067E+01
     1.072E+01    1.076E+01    1.081E+01    1.085E+01    1.089E+01    1.094E+01    1.098E+01    1.102E+01    1.106E+01    1.110E+01
     1.114E+01    1.118E+01    1.122E+01    1.126E+01    1.130E+01    1.134E+01    1.138E+01    1.142E+01    1.146E+01    1.150E+01
     1.154E+01    1.157E+01    1.161E+01    1.165E+01    1.169E+01    1.173E+01    1.176E+01    1.180E+01
 Ala      Conc. = 6.71E+02
