 LCModel (Version 6.3-1L) Copyright: S.W. Provencher.          Ref.: Magn. Reson. Med. 30:672-679 (1993).                
 Slice#2 Row#9 Col#5  K_02_press_1_raw_act
 36 lines in following concentration table = NCONC+1
    Conc.  %SD /Cr+PCr  Metabolite                                         
    0.000 999%   0.000 Ala                                                 
    0.000 999%   0.000 Asp                                                 
  826.909  25%   0.422 Cr                                                  
 1.13E+03  20%   0.578 PCr                                                 
    0.000 999%   0.000 GABA                                                
    0.000 999%   0.000 Glc                                                 
  430.546  51%   0.220 Gln                                                 
 1.92E+03  13%   0.980 Glu                                                 
  908.165   3%   0.464 GPC                                                 
    0.000 999%   0.000 PCh                                                 
  749.214  11%   0.382 GSH                                                 
 1.80E+03  17%   0.917 Ins                                                 
  175.064  65% 8.9E-02 Lac                                                 
 3.35E+03   4%   1.709 NAA                                                 
 1.19E+03  11%   0.606 NAAG                                                
  112.254  30% 5.7E-02 Scyllo                                              
    0.000 999%   0.000 Tau                                                 
   46.878 281% 2.4E-02 -CrCH2                                              
  908.165   3%   0.464 GPC+PCh                                             
 4.53E+03   2%   2.314 NAA+NAAG                                            
 1.96E+03   4%   1.000 Cr+PCr                                              
 2.35E+03  14%   1.200 Glu+Gln                                             
 1.99E+03  37%   1.017 Lip13a                                              
    0.000 999%   0.000 Lip13b                                              
  565.458  54%   0.289 Lip09                                               
 1.16E+03  30%   0.591 MM09                                                
  346.607  57%   0.177 Lip20                                               
 1.67E+03  33%   0.852 MM20                                                
  348.394  65%   0.178 MM12                                                
  532.285  82%   0.272 MM14                                                
  511.108  63%   0.261 MM17                                                
 1.99E+03  37%   1.017 Lip13a+Lip13b                                       
 2.87E+03  27%   1.466 MM14+Lip13a+Lip13b+MM12                             
 1.72E+03  18%   0.880 MM09+Lip09                                          
 2.02E+03  27%   1.028 MM20+Lip20                                          
   6 lines in following misc. output table
  FWHM = 0.046 ppm    S/N =  18                                            
  Data shift = 0.015 ppm                                                   
  Ph: -36 deg     -17.0 deg/ppm                                            
  alphaB,S = 7.2E-01,   8.6E+01                                            
   14 spline knots.   Ns = 6(1)                                            
  ( 3) 3 infls.   ( 3) 1 extrs.                                            
  498 points on ppm-axis = NY
      4.000000     3.992357     3.984714     3.977070     3.969427     3.961784     3.954141     3.946497     3.938854     3.931211
      3.923568     3.915925     3.908281     3.900638     3.892995     3.885352     3.877708     3.870065     3.862422     3.854779
      3.847136     3.839492     3.831849     3.824206     3.816563     3.808919     3.801276     3.793633     3.785990     3.778347
      3.770703     3.763060     3.755417     3.747774     3.740130     3.732487     3.724844     3.717201     3.709558     3.701914
      3.694271     3.686628     3.678985     3.671341     3.663698     3.656055     3.648412     3.640769     3.633125     3.625482
      3.617839     3.610196     3.602552     3.594909     3.587266     3.579623     3.571980     3.564336     3.556693     3.549050
      3.541407     3.533763     3.526120     3.518477     3.510834     3.503191     3.495547     3.487904     3.480261     3.472618
      3.464974     3.457331     3.449688     3.442045     3.434402     3.426758     3.419115     3.411472     3.403829     3.396185
      3.388542     3.380899     3.373256     3.365613     3.357969     3.350326     3.342683     3.335040     3.327396     3.319753
      3.312110     3.304467     3.296824     3.289180     3.281537     3.273894     3.266251     3.258607     3.250964     3.243321
      3.235678     3.228034     3.220391     3.212748     3.205105     3.197462     3.189818     3.182175     3.174532     3.166889
      3.159245     3.151602     3.143959     3.136316     3.128673     3.121029     3.113386     3.105743     3.098100     3.090456
      3.082813     3.075170     3.067527     3.059884     3.052240     3.044597     3.036954     3.029311     3.021667     3.014024
      3.006381     2.998738     2.991095     2.983451     2.975808     2.968165     2.960522     2.952878     2.945235     2.937592
      2.929949     2.922306     2.914662     2.907019     2.899376     2.891733     2.884089     2.876446     2.868803     2.861160
      2.853517     2.845873     2.838230     2.830587     2.822944     2.815300     2.807657     2.800014     2.792371     2.784728
      2.777084     2.769441     2.761798     2.754155     2.746511     2.738868     2.731225     2.723582     2.715939     2.708295
      2.700652     2.693009     2.685366     2.677722     2.670079     2.662436     2.654793     2.647150     2.639506     2.631863
      2.624220     2.616577     2.608933     2.601290     2.593647     2.586004     2.578361     2.570717     2.563074     2.555431
      2.547788     2.540144     2.532501     2.524858     2.517215     2.509572     2.501928     2.494285     2.486642     2.478999
      2.471355     2.463712     2.456069     2.448426     2.440783     2.433139     2.425496     2.417853     2.410210     2.402566
      2.394923     2.387280     2.379637     2.371994     2.364350     2.356707     2.349064     2.341421     2.333777     2.326134
      2.318491     2.310848     2.303205     2.295561     2.287918     2.280275     2.272632     2.264988     2.257345     2.249702
      2.242059     2.234416     2.226772     2.219129     2.211486     2.203843     2.196199     2.188556     2.180913     2.173270
      2.165627     2.157983     2.150340     2.142697     2.135054     2.127410     2.119767     2.112124     2.104481     2.096838
      2.089194     2.081551     2.073908     2.066265     2.058621     2.050978     2.043335     2.035692     2.028049     2.020405
      2.012762     2.005119     1.997476     1.989833     1.982190     1.974546     1.966903     1.959260     1.951617     1.943974
      1.936331     1.928688     1.921045     1.913402     1.905759     1.898115     1.890472     1.882829     1.875186     1.867543
      1.859900     1.852257     1.844614     1.836971     1.829327     1.821684     1.814041     1.806398     1.798755     1.791112
      1.783469     1.775826     1.768183     1.760540     1.752896     1.745253     1.737610     1.729967     1.722324     1.714681
      1.707038     1.699395     1.691752     1.684108     1.676465     1.668822     1.661179     1.653536     1.645893     1.638250
      1.630607     1.622964     1.615321     1.607677     1.600034     1.592391     1.584748     1.577105     1.569462     1.561819
      1.554176     1.546533     1.538890     1.531246     1.523603     1.515960     1.508317     1.500674     1.493031     1.485388
      1.477745     1.470102     1.462458     1.454815     1.447172     1.439529     1.431886     1.424243     1.416600     1.408957
      1.401314     1.393671     1.386027     1.378384     1.370741     1.363098     1.355455     1.347812     1.340169     1.332526
      1.324883     1.317240     1.309596     1.301953     1.294310     1.286667     1.279024     1.271381     1.263738     1.256095
      1.248452     1.240808     1.233165     1.225522     1.217879     1.210236     1.202593     1.194950     1.187307     1.179664
      1.172021     1.164377     1.156734     1.149091     1.141448     1.133805     1.126162     1.118519     1.110876     1.103233
      1.095590     1.087946     1.080303     1.072660     1.065017     1.057374     1.049731     1.042088     1.034445     1.026802
      1.019158     1.011515     1.003872     0.996229     0.988586     0.980943     0.973300     0.965657     0.958014     0.950371
      0.942727     0.935084     0.927441     0.919798     0.912155     0.904512     0.896869     0.889226     0.881583     0.873940
      0.866296     0.858653     0.851010     0.843367     0.835724     0.828081     0.820438     0.812795     0.805152     0.797508
      0.789865     0.782222     0.774579     0.766936     0.759293     0.751650     0.744007     0.736364     0.728721     0.721077
      0.713434     0.705791     0.698148     0.690505     0.682862     0.675219     0.667576     0.659933     0.652290     0.644646
      0.637003     0.629360     0.621717     0.614074     0.606431     0.598788     0.591145     0.583502     0.575858     0.568215
      0.560572     0.552929     0.545286     0.537643     0.530000     0.522357     0.514714     0.507071     0.499427     0.491784
      0.484141     0.476498     0.468855     0.461212     0.453569     0.445925     0.438282     0.430639     0.422996     0.415353
      0.407710     0.400067     0.392424     0.384780     0.377137     0.369494     0.361851     0.354208     0.346565     0.338922
      0.331278     0.323635     0.315992     0.308349     0.300706     0.293063     0.285420     0.277777     0.270133     0.262490
      0.254847     0.247204     0.239561     0.231918     0.224275     0.216631     0.208988     0.201345
 NY phased data points follow
  -9.80353E+01 -9.28167E+01 -9.20399E+01 -9.01194E+01 -8.22993E+01 -7.16166E+01 -6.82284E+01 -5.66629E+01 -4.97453E+01 -3.80428E+01
  -3.14654E+01 -2.97690E+01 -3.18408E+01 -4.07549E+01 -5.56795E+01 -6.05422E+01 -6.54976E+01 -7.22243E+01 -6.97378E+01 -7.42923E+01
  -7.07975E+01 -6.70643E+01 -6.60667E+01 -6.36675E+01 -6.29995E+01 -6.03712E+01 -6.01856E+01 -5.55625E+01 -5.21203E+01 -4.78261E+01
  -4.39324E+01 -4.23190E+01 -4.29919E+01 -4.57862E+01 -4.54911E+01 -4.39591E+01 -4.54184E+01 -5.20535E+01 -4.03961E+01 -4.02068E+01
  -4.38684E+01 -4.17489E+01 -3.64962E+01 -3.92902E+01 -3.59867E+01 -3.81285E+01 -2.61328E+01 -2.72675E+01 -2.03016E+01 -2.86300E+01
  -2.96985E+01 -3.48839E+01 -3.57705E+01 -3.97945E+01 -3.85744E+01 -3.69970E+01 -3.55636E+01 -3.26510E+01 -3.39897E+01 -3.60797E+01
  -3.43673E+01 -3.50295E+01 -3.93503E+01 -4.25463E+01 -4.02933E+01 -3.90556E+01 -3.68006E+01 -3.84955E+01 -3.26440E+01 -3.90185E+01
  -3.42656E+01 -3.31263E+01 -3.39355E+01 -2.82258E+01 -2.74372E+01 -2.57554E+01 -2.49918E+01 -2.65255E+01 -2.77864E+01 -2.61910E+01
  -2.65882E+01 -2.83092E+01 -1.99220E+01 -2.47066E+01 -2.78150E+01 -2.28322E+01 -2.15506E+01 -2.01822E+01 -1.81870E+01 -1.86535E+01
  -2.00869E+01 -1.72791E+01 -7.12391E+00 -9.27523E+00 -1.29073E+01 -8.26612E+00 -5.95400E+00 -3.18356E+00 -2.50051E-01  9.06897E+00
   3.27643E+01  5.77474E+01  7.85813E+01  7.24211E+01  7.29073E+01  5.42987E+01  4.07307E+01  2.47208E+01  8.69538E+00  4.00014E+00
  -8.36006E+00 -1.08873E+00 -9.55963E+00 -1.05195E+01 -9.80930E+00 -6.70803E+00 -5.58243E+00 -5.25918E+00 -1.92572E+00 -7.01236E+00
   7.20155E-01  1.19302E+00  3.70667E+00  6.21259E+00  1.75970E+01  4.36854E+01  6.64267E+01  7.01970E+01  6.84496E+01  5.32245E+01
   4.61724E+01  2.69269E+01  2.16219E+01  9.42255E+00  2.56967E+00  1.40383E-01 -2.56760E+00 -6.40138E+00 -6.49062E+00 -2.29574E+00
  -1.83631E+00 -2.21544E+00  5.02929E-01  1.48573E+00 -1.83211E+00  1.23619E+00  4.08597E+00 -2.27733E+00 -2.66792E+00 -7.61674E-01
   5.00627E+00  2.44826E+00 -2.46133E+00  1.45707E+00  3.05415E+00  3.29103E-01  8.50851E-01  8.71138E-01  4.38198E+00  4.19648E+00
   5.78258E+00  2.22326E+00 -1.63543E+00 -4.51589E+00  2.85110E+00  4.83149E+00  4.47016E+00  2.07255E+00 -6.15041E+00 -8.87942E+00
  -9.37747E+00 -9.55742E+00 -7.65361E+00 -1.55080E+01 -2.02650E+01 -2.18801E+01 -1.87412E+01 -1.54902E+01 -1.17352E+01 -1.29253E+01
  -9.72707E+00 -1.00344E+01 -1.16763E+01 -1.06074E+01 -1.13301E+01 -4.87539E+00 -1.68276E+00 -5.46632E+00  1.74199E+00  7.58750E+00
   1.57678E+01  1.51270E+01  1.65239E+01  1.32684E+01  1.57239E+01  1.70317E+01  8.32570E+00  7.64084E+00  4.63186E+00  1.23107E+00
   2.59611E+00  1.02174E+01  1.37716E+01  1.60144E+01  1.22103E+01  1.92574E+01  1.24715E+01  1.13523E+01  1.02887E+01  7.53148E+00
   3.25938E+00  4.87451E+00  8.04092E+00  1.29556E+01  2.10284E+01  2.34474E+01  3.06269E+01  2.78433E+01  2.30824E+01  2.77638E+01
   1.85242E+01  4.12634E+00  1.33064E+01  6.13737E+00  1.54149E+01  1.22211E+01  1.55752E+01  2.16981E+01  2.97991E+01  2.97279E+01
   2.61186E+01  2.42338E+01  2.34294E+01  2.49687E+01  2.06551E+01  3.00293E+01  2.34451E+01  2.63101E+01  2.56109E+01  2.37561E+01
   2.47059E+01  9.49986E+00  1.41881E+01  1.43174E+01  1.50892E+01  2.33855E+01  2.54833E+01  3.22416E+01  3.37552E+01  3.57388E+01
   3.05547E+01  3.44409E+01  3.98566E+01  5.57476E+01  7.53478E+01  9.62091E+01  9.60576E+01  9.15239E+01  1.16376E+02  1.53698E+02
   1.76051E+02  1.80233E+02  1.48548E+02  1.21865E+02  9.23797E+01  7.21780E+01  4.96245E+01  3.71486E+01  3.24840E+01  2.77416E+01
   2.82870E+01  2.80605E+01  2.63888E+01  3.37170E+01  2.72858E+01  2.76150E+01  3.01783E+01  2.79885E+01  3.02582E+01  2.79607E+01
   2.68454E+01  3.07346E+01  3.00916E+01  2.82350E+01  2.90129E+01  2.64630E+01  2.24920E+01  2.88024E+01  2.38024E+01  2.77263E+01
   2.99703E+01  2.71418E+01  2.64092E+01  2.94107E+01  2.80765E+01  2.80673E+01  2.75512E+01  2.59817E+01  2.37915E+01  2.00491E+01
   2.12966E+01  2.75359E+01  2.60696E+01  3.11347E+01  2.88489E+01  2.75970E+01  3.14501E+01  3.21587E+01  2.76910E+01  3.37919E+01
   3.33613E+01  3.24604E+01  3.06360E+01  3.50620E+01  3.38989E+01  2.80240E+01  2.90917E+01  3.06818E+01  2.76529E+01  3.19125E+01
   3.24764E+01  2.98492E+01  2.95276E+01  2.38278E+01  3.25054E+01  3.36745E+01  2.77041E+01  2.98842E+01  3.21700E+01  2.79567E+01
   3.19469E+01  3.79039E+01  3.70186E+01  3.40678E+01  3.20862E+01  3.24486E+01  3.07357E+01  3.12690E+01  3.19954E+01  2.63667E+01
   3.32835E+01  3.08628E+01  2.83059E+01  3.44093E+01  3.83867E+01  4.25584E+01  4.09507E+01  4.19875E+01  4.03678E+01  3.62701E+01
   3.52440E+01  3.21981E+01  3.52366E+01  3.61106E+01  3.53427E+01  3.72175E+01  3.80596E+01  3.65802E+01  3.76886E+01  3.38374E+01
   3.41847E+01  3.37211E+01  3.55671E+01  4.06699E+01  3.81449E+01  3.41882E+01  4.37203E+01  3.53864E+01  3.49662E+01  3.76168E+01
   3.26486E+01  3.27186E+01  3.44884E+01  3.28033E+01  3.30201E+01  3.28301E+01  3.43364E+01  3.57248E+01  2.84521E+01  3.07797E+01
   2.95240E+01  3.18726E+01  3.15330E+01  3.02286E+01  2.36494E+01  2.77555E+01  3.10980E+01  2.96390E+01  3.00671E+01  3.44895E+01
   2.99418E+01  3.51974E+01  3.48796E+01  3.30989E+01  3.59530E+01  3.89086E+01  3.63797E+01  3.84711E+01  4.00060E+01  3.50137E+01
   3.93711E+01  3.78266E+01  3.76035E+01  3.77540E+01  3.90907E+01  4.39460E+01  4.11509E+01  3.93822E+01  3.72529E+01  4.08753E+01
   4.09412E+01  3.90383E+01  3.68593E+01  3.33371E+01  4.22187E+01  3.76973E+01  3.86067E+01  3.86310E+01  3.69516E+01  3.20334E+01
   3.22409E+01  3.91477E+01  3.36784E+01  2.90123E+01  3.40798E+01  2.95963E+01  2.54632E+01  2.67390E+01  2.71886E+01  3.39541E+01
   2.59179E+01  3.06043E+01  2.67513E+01  3.15963E+01  2.40974E+01  2.77543E+01  2.88254E+01  2.42907E+01  2.81275E+01  2.70807E+01
   2.57299E+01  2.86422E+01  2.60150E+01  3.00689E+01  2.49862E+01  2.38443E+01  3.23454E+01  3.02255E+01  2.84990E+01  3.12084E+01
   2.81822E+01  2.68608E+01  2.75033E+01  2.23973E+01  3.28921E+01  3.02251E+01  2.61300E+01  2.56795E+01  2.71910E+01  2.42834E+01
   2.96489E+01  2.55324E+01  2.48394E+01  2.74354E+01  2.25267E+01  2.79030E+01  2.29756E+01  2.78529E+01  2.89464E+01  2.39904E+01
   2.62958E+01  2.95298E+01  2.65244E+01  2.59872E+01  3.10545E+01  3.03213E+01  2.88278E+01  2.76490E+01  2.92757E+01  2.73613E+01
   2.84518E+01  2.75851E+01  2.80684E+01  2.42682E+01  2.92143E+01  2.59009E+01  2.70789E+01  2.90098E+01  2.73285E+01  2.51342E+01
   2.52882E+01  2.51176E+01  2.71743E+01  2.54474E+01  2.62191E+01  2.46590E+01  2.40671E+01  2.82746E+01
 NY points of the fit to the data follow
  -8.95018E+01 -8.87948E+01 -8.73070E+01 -8.42307E+01 -8.05241E+01 -7.59156E+01 -6.92262E+01 -5.94743E+01 -4.74308E+01 -3.64795E+01
  -3.05312E+01 -3.10526E+01 -3.65224E+01 -4.40372E+01 -5.13024E+01 -5.73923E+01 -6.20323E+01 -6.50296E+01 -6.66921E+01 -6.71373E+01
  -6.69223E+01 -6.66200E+01 -6.65688E+01 -6.61865E+01 -6.46140E+01 -6.32738E+01 -6.19212E+01 -5.84671E+01 -5.25180E+01 -4.60494E+01
  -4.14682E+01 -3.93775E+01 -3.92047E+01 -4.04056E+01 -4.25331E+01 -4.50986E+01 -4.78179E+01 -5.02578E+01 -5.19286E+01 -5.24190E+01
  -5.12407E+01 -4.88503E+01 -4.64135E+01 -4.39934E+01 -4.05491E+01 -3.57712E+01 -3.11396E+01 -2.86385E+01 -2.89471E+01 -3.12562E+01
  -3.42926E+01 -3.72034E+01 -3.94875E+01 -4.07385E+01 -4.10082E+01 -4.04547E+01 -3.92284E+01 -3.74221E+01 -3.52556E+01 -3.33066E+01
  -3.21915E+01 -3.21159E+01 -3.28682E+01 -3.39017E+01 -3.47074E+01 -3.48589E+01 -3.43008E+01 -3.32819E+01 -3.19621E+01 -3.03871E+01
  -2.87655E+01 -2.74485E+01 -2.66654E+01 -2.63734E+01 -2.63274E+01 -2.62935E+01 -2.61770E+01 -2.59595E+01 -2.56566E+01 -2.52468E+01
  -2.47632E+01 -2.40247E+01 -2.33575E+01 -2.28926E+01 -2.20757E+01 -2.07318E+01 -1.94296E+01 -1.87828E+01 -1.88763E+01 -1.92658E+01
  -1.93676E+01 -1.90741E+01 -1.84387E+01 -1.75060E+01 -1.63259E+01 -1.45275E+01 -1.02640E+01 -4.44922E+00  1.29760E-01  9.79463E+00
   3.05632E+01  5.72281E+01  7.71825E+01  8.18527E+01  7.22557E+01  5.54717E+01  3.77193E+01  2.17631E+01  8.45539E+00 -1.47991E+00
  -7.02606E+00 -8.87155E+00 -9.35110E+00 -9.41605E+00 -9.31873E+00 -9.11298E+00 -8.83554E+00 -8.53129E+00 -8.16750E+00 -7.51995E+00
  -5.39408E+00 -1.18029E-01  4.06364E+00  8.98421E+00  2.18850E+01  4.29212E+01  6.28207E+01  7.20326E+01  6.81585E+01  5.59961E+01
   4.20716E+01  2.97686E+01  1.93113E+01  1.02728E+01  3.16044E+00 -1.12236E+00 -3.57191E+00 -4.78517E+00 -4.65065E+00 -3.34169E+00
  -1.45304E+00  3.18739E-01  1.48227E+00  1.88268E+00  1.70396E+00  1.23967E+00  7.14505E-01  2.44984E-01 -1.73561E-01 -4.65721E-01
  -6.71138E-01 -9.82233E-01 -1.39764E+00 -1.75451E+00 -1.83623E+00 -1.64167E+00 -1.07404E+00 -3.96110E-01 -3.33978E-01 -1.11501E+00
  -2.51977E+00 -3.66838E+00 -3.63415E+00 -2.61759E+00 -1.62465E+00 -1.36821E+00 -2.00891E+00 -3.11980E+00 -4.12736E+00 -4.78982E+00
  -5.05405E+00 -5.06353E+00 -4.97277E+00 -5.44312E+00 -6.62233E+00 -7.79118E+00 -7.87960E+00 -6.67425E+00 -5.35470E+00 -5.03423E+00
  -5.40915E+00 -5.54781E+00 -4.76688E+00 -3.40585E+00 -2.53527E+00 -2.19339E+00 -1.32801E+00  7.50412E-01  4.05297E+00  7.83293E+00
   1.09933E+01  1.28018E+01  1.29127E+01  1.20066E+01  1.06453E+01  8.99451E+00  7.50074E+00  6.85688E+00  7.45603E+00  8.82294E+00
   1.05416E+01  1.25432E+01  1.46837E+01  1.66679E+01  1.76512E+01  1.72524E+01  1.55369E+01  1.26924E+01  9.62845E+00  7.30623E+00
   6.06876E+00  5.86257E+00  6.68228E+00  9.51360E+00  1.45626E+01  2.00441E+01  2.33970E+01  2.35018E+01  2.11797E+01  1.75446E+01
   1.27205E+01  7.46076E+00  3.91759E+00  3.77811E+00  6.86321E+00  1.15171E+01  1.60994E+01  1.99503E+01  2.25755E+01  2.35291E+01
   2.30181E+01  2.21817E+01  2.20785E+01  2.27977E+01  2.40872E+01  2.55944E+01  2.68686E+01  2.72330E+01  2.63863E+01  2.45613E+01
   2.22215E+01  1.99718E+01  1.87958E+01  1.94103E+01  2.15467E+01  2.43280E+01  2.69266E+01  2.88977E+01  3.03701E+01  3.26257E+01
   3.49593E+01  3.64364E+01  4.13321E+01  5.30834E+01  7.23617E+01  9.06988E+01  9.58268E+01  1.00873E+02  1.21977E+02  1.53672E+02
   1.75478E+02  1.73982E+02  1.52334E+02  1.23472E+02  9.63770E+01  7.30909E+01  5.37090E+01  3.90047E+01  3.10706E+01  2.89162E+01
   2.81095E+01  2.76928E+01  2.76289E+01  2.77536E+01  2.77710E+01  2.75667E+01  2.72441E+01  2.69517E+01  2.66901E+01  2.64762E+01
   2.63617E+01  2.63849E+01  2.65187E+01  2.66654E+01  2.67265E+01  2.67275E+01  2.66913E+01  2.66033E+01  2.65047E+01  2.64855E+01
   2.66101E+01  2.68589E+01  2.71365E+01  2.73915E+01  2.76193E+01  2.77944E+01  2.79003E+01  2.79612E+01  2.80298E+01  2.81567E+01
   2.83486E+01  2.85798E+01  2.88259E+01  2.90703E+01  2.92998E+01  2.95029E+01  2.96698E+01  2.98020E+01  2.99090E+01  2.99949E+01
   3.00610E+01  3.01072E+01  3.01347E+01  3.01471E+01  3.01498E+01  3.01471E+01  3.01420E+01  3.01375E+01  3.01378E+01  3.01478E+01
   3.01713E+01  3.02101E+01  3.02643E+01  3.03350E+01  3.04236E+01  3.05318E+01  3.06595E+01  3.08052E+01  3.09669E+01  3.11441E+01
   3.13369E+01  3.15455E+01  3.17690E+01  3.20059E+01  3.22559E+01  3.25203E+01  3.28019E+01  3.31034E+01  3.34286E+01  3.37851E+01
   3.41938E+01  3.46973E+01  3.51936E+01  3.56202E+01  3.62293E+01  3.69945E+01  3.74848E+01  3.73276E+01  3.65836E+01  3.57497E+01
   3.51156E+01  3.46266E+01  3.44562E+01  3.49042E+01  3.59670E+01  3.72625E+01  3.82882E+01  3.87870E+01  3.88539E+01  3.86525E+01
   3.82839E+01  3.77987E+01  3.72523E+01  3.67404E+01  3.62928E+01  3.58691E+01  3.54523E+01  3.50382E+01  3.46280E+01  3.42251E+01
   3.38336E+01  3.34572E+01  3.30991E+01  3.27625E+01  3.24509E+01  3.21679E+01  3.19161E+01  3.16975E+01  3.15135E+01  3.13662E+01
   3.12578E+01  3.11908E+01  3.11670E+01  3.11878E+01  3.12550E+01  3.13709E+01  3.15380E+01  3.17585E+01  3.20335E+01  3.23633E+01
   3.27478E+01  3.31862E+01  3.36766E+01  3.42146E+01  3.47936E+01  3.54051E+01  3.60392E+01  3.66840E+01  3.73260E+01  3.79496E+01
   3.85382E+01  3.90752E+01  3.95450E+01  3.99334E+01  4.02277E+01  4.04173E+01  4.04949E+01  4.04570E+01  4.03045E+01  4.00415E+01
   3.96753E+01  3.92159E+01  3.86759E+01  3.80704E+01  3.74155E+01  3.67271E+01  3.60205E+01  3.53099E+01  3.46081E+01  3.39267E+01
   3.32752E+01  3.26604E+01  3.20867E+01  3.15569E+01  3.10725E+01  3.06337E+01  3.02394E+01  2.98870E+01  2.95735E+01  2.92955E+01
   2.90502E+01  2.88345E+01  2.86450E+01  2.84785E+01  2.83316E+01  2.82021E+01  2.80879E+01  2.79874E+01  2.78984E+01  2.78190E+01
   2.77479E+01  2.76841E+01  2.76271E+01  2.75760E+01  2.75298E+01  2.74875E+01  2.74488E+01  2.74134E+01  2.73813E+01  2.73520E+01
   2.73247E+01  2.72990E+01  2.72751E+01  2.72530E+01  2.72326E+01  2.72135E+01  2.71952E+01  2.71777E+01  2.71612E+01  2.71458E+01
   2.71312E+01  2.71172E+01  2.71035E+01  2.70901E+01  2.70774E+01  2.70653E+01  2.70537E+01  2.70422E+01  2.70306E+01  2.70193E+01
   2.70084E+01  2.69979E+01  2.69875E+01  2.69769E+01  2.69663E+01  2.69558E+01  2.69457E+01  2.69358E+01  2.69256E+01  2.69152E+01
   2.69047E+01  2.68944E+01  2.68843E+01  2.68741E+01  2.68635E+01  2.68527E+01  2.68419E+01  2.68313E+01  2.68208E+01  2.68099E+01
   2.67987E+01  2.67873E+01  2.67760E+01  2.67648E+01  2.67536E+01  2.67419E+01  2.67300E+01  2.67180E+01
 NY background values follow
    -9.418E+01   -9.321E+01   -9.224E+01   -9.126E+01   -9.029E+01   -8.932E+01   -8.835E+01   -8.738E+01   -8.641E+01   -8.544E+01
    -8.448E+01   -8.351E+01   -8.255E+01   -8.159E+01   -8.063E+01   -7.967E+01   -7.871E+01   -7.776E+01   -7.681E+01   -7.586E+01
    -7.492E+01   -7.397E+01   -7.303E+01   -7.210E+01   -7.117E+01   -7.024E+01   -6.931E+01   -6.839E+01   -6.748E+01   -6.656E+01
    -6.566E+01   -6.475E+01   -6.385E+01   -6.296E+01   -6.207E+01   -6.119E+01   -6.031E+01   -5.943E+01   -5.857E+01   -5.770E+01
    -5.685E+01   -5.600E+01   -5.516E+01   -5.432E+01   -5.349E+01   -5.266E+01   -5.185E+01   -5.104E+01   -5.023E+01   -4.944E+01
    -4.865E+01   -4.786E+01   -4.709E+01   -4.632E+01   -4.555E+01   -4.480E+01   -4.405E+01   -4.331E+01   -4.257E+01   -4.184E+01
    -4.112E+01   -4.040E+01   -3.970E+01   -3.899E+01   -3.830E+01   -3.761E+01   -3.693E+01   -3.625E+01   -3.558E+01   -3.492E+01
    -3.426E+01   -3.362E+01   -3.297E+01   -3.234E+01   -3.171E+01   -3.108E+01   -3.047E+01   -2.986E+01   -2.926E+01   -2.866E+01
    -2.807E+01   -2.748E+01   -2.691E+01   -2.634E+01   -2.577E+01   -2.521E+01   -2.466E+01   -2.412E+01   -2.358E+01   -2.305E+01
    -2.252E+01   -2.200E+01   -2.149E+01   -2.098E+01   -2.048E+01   -1.999E+01   -1.950E+01   -1.902E+01   -1.854E+01   -1.808E+01
    -1.762E+01   -1.716E+01   -1.671E+01   -1.627E+01   -1.583E+01   -1.540E+01   -1.498E+01   -1.456E+01   -1.415E+01   -1.375E+01
    -1.335E+01   -1.296E+01   -1.258E+01   -1.220E+01   -1.183E+01   -1.147E+01   -1.111E+01   -1.076E+01   -1.041E+01   -1.007E+01
    -9.743E+00   -9.418E+00   -9.100E+00   -8.788E+00   -8.483E+00   -8.185E+00   -7.893E+00   -7.607E+00   -7.329E+00   -7.057E+00
    -6.792E+00   -6.533E+00   -6.281E+00   -6.036E+00   -5.797E+00   -5.565E+00   -5.340E+00   -5.121E+00   -4.909E+00   -4.702E+00
    -4.501E+00   -4.306E+00   -4.116E+00   -3.931E+00   -3.750E+00   -3.574E+00   -3.402E+00   -3.234E+00   -3.069E+00   -2.907E+00
    -2.748E+00   -2.592E+00   -2.439E+00   -2.287E+00   -2.137E+00   -1.989E+00   -1.842E+00   -1.696E+00   -1.551E+00   -1.406E+00
    -1.261E+00   -1.116E+00   -9.711E-01   -8.252E-01   -6.783E-01   -5.302E-01   -3.805E-01   -2.290E-01   -7.540E-02    8.054E-02
     2.391E-01    4.006E-01    5.654E-01    7.336E-01    9.055E-01    1.082E+00    1.262E+00    1.447E+00    1.637E+00    1.832E+00
     2.032E+00    2.238E+00    2.450E+00    2.668E+00    2.891E+00    3.119E+00    3.352E+00    3.590E+00    3.832E+00    4.079E+00
     4.329E+00    4.584E+00    4.842E+00    5.104E+00    5.368E+00    5.636E+00    5.906E+00    6.179E+00    6.454E+00    6.730E+00
     7.009E+00    7.290E+00    7.571E+00    7.854E+00    8.137E+00    8.422E+00    8.706E+00    8.991E+00    9.276E+00    9.561E+00
     9.845E+00    1.013E+01    1.041E+01    1.069E+01    1.097E+01    1.125E+01    1.153E+01    1.180E+01    1.207E+01    1.234E+01
     1.261E+01    1.287E+01    1.313E+01    1.339E+01    1.365E+01    1.390E+01    1.414E+01    1.438E+01    1.462E+01    1.485E+01
     1.508E+01    1.531E+01    1.553E+01    1.574E+01    1.596E+01    1.617E+01    1.637E+01    1.657E+01    1.677E+01    1.697E+01
     1.716E+01    1.735E+01    1.753E+01    1.771E+01    1.789E+01    1.806E+01    1.824E+01    1.840E+01    1.857E+01    1.873E+01
     1.889E+01    1.905E+01    1.920E+01    1.935E+01    1.950E+01    1.965E+01    1.979E+01    1.993E+01    2.007E+01    2.021E+01
     2.034E+01    2.047E+01    2.060E+01    2.073E+01    2.086E+01    2.098E+01    2.110E+01    2.122E+01    2.134E+01    2.146E+01
     2.157E+01    2.169E+01    2.180E+01    2.191E+01    2.202E+01    2.212E+01    2.223E+01    2.233E+01    2.244E+01    2.254E+01
     2.264E+01    2.273E+01    2.283E+01    2.293E+01    2.302E+01    2.311E+01    2.320E+01    2.329E+01    2.338E+01    2.346E+01
     2.355E+01    2.363E+01    2.371E+01    2.379E+01    2.387E+01    2.394E+01    2.402E+01    2.409E+01    2.416E+01    2.423E+01
     2.430E+01    2.437E+01    2.444E+01    2.450E+01    2.456E+01    2.462E+01    2.468E+01    2.474E+01    2.480E+01    2.485E+01
     2.490E+01    2.495E+01    2.500E+01    2.505E+01    2.510E+01    2.514E+01    2.519E+01    2.523E+01    2.527E+01    2.531E+01
     2.534E+01    2.538E+01    2.541E+01    2.545E+01    2.548E+01    2.551E+01    2.554E+01    2.557E+01    2.559E+01    2.562E+01
     2.564E+01    2.566E+01    2.569E+01    2.571E+01    2.573E+01    2.575E+01    2.576E+01    2.578E+01    2.580E+01    2.581E+01
     2.583E+01    2.584E+01    2.585E+01    2.586E+01    2.588E+01    2.589E+01    2.590E+01    2.591E+01    2.592E+01    2.592E+01
     2.593E+01    2.594E+01    2.595E+01    2.595E+01    2.596E+01    2.597E+01    2.597E+01    2.598E+01    2.598E+01    2.599E+01
     2.599E+01    2.600E+01    2.601E+01    2.601E+01    2.602E+01    2.602E+01    2.603E+01    2.603E+01    2.603E+01    2.604E+01
     2.604E+01    2.605E+01    2.605E+01    2.606E+01    2.606E+01    2.607E+01    2.607E+01    2.608E+01    2.608E+01    2.609E+01
     2.609E+01    2.610E+01    2.610E+01    2.611E+01    2.611E+01    2.612E+01    2.612E+01    2.613E+01    2.614E+01    2.614E+01
     2.615E+01    2.615E+01    2.616E+01    2.616E+01    2.617E+01    2.618E+01    2.618E+01    2.619E+01    2.619E+01    2.620E+01
     2.621E+01    2.621E+01    2.622E+01    2.623E+01    2.623E+01    2.624E+01    2.625E+01    2.626E+01    2.626E+01    2.627E+01
     2.628E+01    2.629E+01    2.630E+01    2.630E+01    2.631E+01    2.632E+01    2.633E+01    2.634E+01    2.635E+01    2.635E+01
     2.636E+01    2.637E+01    2.638E+01    2.639E+01    2.640E+01    2.641E+01    2.642E+01    2.642E+01    2.643E+01    2.644E+01
     2.645E+01    2.646E+01    2.647E+01    2.647E+01    2.648E+01    2.649E+01    2.650E+01    2.651E+01    2.651E+01    2.652E+01
     2.653E+01    2.654E+01    2.654E+01    2.655E+01    2.656E+01    2.656E+01    2.657E+01    2.658E+01    2.658E+01    2.659E+01
     2.659E+01    2.660E+01    2.661E+01    2.661E+01    2.661E+01    2.662E+01    2.662E+01    2.663E+01    2.663E+01    2.663E+01
     2.664E+01    2.664E+01    2.664E+01    2.664E+01    2.665E+01    2.665E+01    2.665E+01    2.665E+01    2.665E+01    2.665E+01
     2.665E+01    2.665E+01    2.665E+01    2.665E+01    2.665E+01    2.665E+01    2.664E+01    2.664E+01    2.664E+01    2.664E+01
     2.663E+01    2.663E+01    2.663E+01    2.662E+01    2.662E+01    2.662E+01    2.661E+01    2.661E+01    2.660E+01    2.659E+01
     2.659E+01    2.658E+01    2.657E+01    2.657E+01    2.656E+01    2.655E+01    2.654E+01    2.654E+01
 Cr       Conc. = 8.27E+02
