 LCModel (Version 6.3-1L) Copyright: S.W. Provencher.          Ref.: Magn. Reson. Med. 30:672-679 (1993).                
 Slice#3 Row#1 Col#13  K_02_press_1_raw_act
 36 lines in following concentration table = NCONC+1
    Conc.  %SD /Cr+PCr  Metabolite                                         
    0.000 999%   0.000 Ala                                                 
    7.501 231% 5.1E-02 Asp                                                 
  146.942  17%   1.000 Cr                                                  
    0.000 999%   0.000 PCr                                                 
    7.115 147% 4.8E-02 GABA                                                
    8.579 122% 5.8E-02 Glc                                                 
    0.000 999%   0.000 Gln                                                 
    0.000 999%   0.000 Glu                                                 
   16.622 258%   0.113 GPC                                                 
   13.450 313% 9.2E-02 PCh                                                 
   86.251  45%   0.587 GSH                                                 
  511.117  21%   3.478 Ins                                                 
  724.999  34%   4.934 Lac                                                 
   18.032 138%   0.123 NAA                                                 
    0.000 999%   0.000 NAAG                                                
    3.959  86% 2.7E-02 Scyllo                                              
   16.269 105%   0.111 Tau                                                 
    0.000 999%   0.000 -CrCH2                                              
   30.072  34%   0.205 GPC+PCh                                             
   18.032 138%   0.123 NAA+NAAG                                            
  146.942  17%   1.000 Cr+PCr                                              
    0.000 999%   0.000 Glu+Gln                                             
 1.24E+03  15%   8.468 Lip13a                                              
    0.000 999%   0.000 Lip13b                                              
  354.735  14%   2.414 Lip09                                               
 1.83E-02 999% 1.2E-04 MM09                                                
  186.054  19%   1.266 Lip20                                               
    0.000 999%   0.000 MM20                                                
 2.92E-03 999% 2.0E-05 MM12                                                
 9.92E-02 999% 6.7E-04 MM14                                                
    0.000 999%   0.000 MM17                                                
 1.24E+03  15%   8.468 Lip13a+Lip13b                                       
 1.24E+03  15%   8.468 MM14+Lip13a+Lip13b+MM12                             
  354.754  14%   2.414 MM09+Lip09                                          
  186.054  19%   1.266 MM20+Lip20                                          
   6 lines in following misc. output table
  FWHM = 0.153 ppm    S/N =   3                                            
  Data shift = 0.168 ppm                                                   
  Ph: 118 deg       9.1 deg/ppm                                            
  alphaB,S = 6.5E+00,   2.0E+02                                            
    7 spline knots.   Ns = 9(2)                                            
  (12) 2 infls.   (10) 1 extrs.                                            
  498 points on ppm-axis = NY
      4.000000     3.992357     3.984714     3.977070     3.969427     3.961784     3.954141     3.946497     3.938854     3.931211
      3.923568     3.915925     3.908281     3.900638     3.892995     3.885352     3.877708     3.870065     3.862422     3.854779
      3.847136     3.839492     3.831849     3.824206     3.816563     3.808919     3.801276     3.793633     3.785990     3.778347
      3.770703     3.763060     3.755417     3.747774     3.740130     3.732487     3.724844     3.717201     3.709558     3.701914
      3.694271     3.686628     3.678985     3.671341     3.663698     3.656055     3.648412     3.640769     3.633125     3.625482
      3.617839     3.610196     3.602552     3.594909     3.587266     3.579623     3.571980     3.564336     3.556693     3.549050
      3.541407     3.533763     3.526120     3.518477     3.510834     3.503191     3.495547     3.487904     3.480261     3.472618
      3.464974     3.457331     3.449688     3.442045     3.434402     3.426758     3.419115     3.411472     3.403829     3.396185
      3.388542     3.380899     3.373256     3.365613     3.357969     3.350326     3.342683     3.335040     3.327396     3.319753
      3.312110     3.304467     3.296824     3.289180     3.281537     3.273894     3.266251     3.258607     3.250964     3.243321
      3.235678     3.228034     3.220391     3.212748     3.205105     3.197462     3.189818     3.182175     3.174532     3.166889
      3.159245     3.151602     3.143959     3.136316     3.128673     3.121029     3.113386     3.105743     3.098100     3.090456
      3.082813     3.075170     3.067527     3.059884     3.052240     3.044597     3.036954     3.029311     3.021667     3.014024
      3.006381     2.998738     2.991095     2.983451     2.975808     2.968165     2.960522     2.952878     2.945235     2.937592
      2.929949     2.922306     2.914662     2.907019     2.899376     2.891733     2.884089     2.876446     2.868803     2.861160
      2.853517     2.845873     2.838230     2.830587     2.822944     2.815300     2.807657     2.800014     2.792371     2.784728
      2.777084     2.769441     2.761798     2.754155     2.746511     2.738868     2.731225     2.723582     2.715939     2.708295
      2.700652     2.693009     2.685366     2.677722     2.670079     2.662436     2.654793     2.647150     2.639506     2.631863
      2.624220     2.616577     2.608933     2.601290     2.593647     2.586004     2.578361     2.570717     2.563074     2.555431
      2.547788     2.540144     2.532501     2.524858     2.517215     2.509572     2.501928     2.494285     2.486642     2.478999
      2.471355     2.463712     2.456069     2.448426     2.440783     2.433139     2.425496     2.417853     2.410210     2.402566
      2.394923     2.387280     2.379637     2.371994     2.364350     2.356707     2.349064     2.341421     2.333777     2.326134
      2.318491     2.310848     2.303205     2.295561     2.287918     2.280275     2.272632     2.264988     2.257345     2.249702
      2.242059     2.234416     2.226772     2.219129     2.211486     2.203843     2.196199     2.188556     2.180913     2.173270
      2.165627     2.157983     2.150340     2.142697     2.135054     2.127410     2.119767     2.112124     2.104481     2.096838
      2.089194     2.081551     2.073908     2.066265     2.058621     2.050978     2.043335     2.035692     2.028049     2.020405
      2.012762     2.005119     1.997476     1.989833     1.982190     1.974546     1.966903     1.959260     1.951617     1.943974
      1.936331     1.928688     1.921045     1.913402     1.905759     1.898115     1.890472     1.882829     1.875186     1.867543
      1.859900     1.852257     1.844614     1.836971     1.829327     1.821684     1.814041     1.806398     1.798755     1.791112
      1.783469     1.775826     1.768183     1.760540     1.752896     1.745253     1.737610     1.729967     1.722324     1.714681
      1.707038     1.699395     1.691752     1.684108     1.676465     1.668822     1.661179     1.653536     1.645893     1.638250
      1.630607     1.622964     1.615321     1.607677     1.600034     1.592391     1.584748     1.577105     1.569462     1.561819
      1.554176     1.546533     1.538890     1.531246     1.523603     1.515960     1.508317     1.500674     1.493031     1.485388
      1.477745     1.470102     1.462458     1.454815     1.447172     1.439529     1.431886     1.424243     1.416600     1.408957
      1.401314     1.393671     1.386027     1.378384     1.370741     1.363098     1.355455     1.347812     1.340169     1.332526
      1.324883     1.317240     1.309596     1.301953     1.294310     1.286667     1.279024     1.271381     1.263738     1.256095
      1.248452     1.240808     1.233165     1.225522     1.217879     1.210236     1.202593     1.194950     1.187307     1.179664
      1.172021     1.164377     1.156734     1.149091     1.141448     1.133805     1.126162     1.118519     1.110876     1.103233
      1.095590     1.087946     1.080303     1.072660     1.065017     1.057374     1.049731     1.042088     1.034445     1.026802
      1.019158     1.011515     1.003872     0.996229     0.988586     0.980943     0.973300     0.965657     0.958014     0.950371
      0.942727     0.935084     0.927441     0.919798     0.912155     0.904512     0.896869     0.889226     0.881583     0.873940
      0.866296     0.858653     0.851010     0.843367     0.835724     0.828081     0.820438     0.812795     0.805152     0.797508
      0.789865     0.782222     0.774579     0.766936     0.759293     0.751650     0.744007     0.736364     0.728721     0.721077
      0.713434     0.705791     0.698148     0.690505     0.682862     0.675219     0.667576     0.659933     0.652290     0.644646
      0.637003     0.629360     0.621717     0.614074     0.606431     0.598788     0.591145     0.583502     0.575858     0.568215
      0.560572     0.552929     0.545286     0.537643     0.530000     0.522357     0.514714     0.507071     0.499427     0.491784
      0.484141     0.476498     0.468855     0.461212     0.453569     0.445925     0.438282     0.430639     0.422996     0.415353
      0.407710     0.400067     0.392424     0.384780     0.377137     0.369494     0.361851     0.354208     0.346565     0.338922
      0.331278     0.323635     0.315992     0.308349     0.300706     0.293063     0.285420     0.277777     0.270133     0.262490
      0.254847     0.247204     0.239561     0.231918     0.224275     0.216631     0.208988     0.201345
 NY phased data points follow
   2.72102E+00  2.83898E+00  3.46224E+00  3.52468E+00  3.38069E+00  4.01733E+00  2.46059E+00  2.43247E+00  2.85417E+00  2.75415E+00
   3.61924E+00  3.10177E+00  3.18483E+00  3.24203E+00  3.65017E+00  1.83179E+00  2.81997E+00  1.71769E+00  1.97670E+00  3.26701E+00
   2.35918E+00  2.43753E+00  3.93416E+00  2.81928E+00  3.07304E+00  3.55195E+00  2.89626E+00  2.84258E+00  1.45259E+00  3.61948E+00
   1.88104E+00  3.09907E+00  1.69607E+00  1.99213E+00  6.48108E-01  1.44591E+00  2.68823E+00  1.53877E+00  1.30766E+00  3.48158E+00
   2.68850E+00  2.40243E+00  2.52552E+00  3.13907E+00  2.61550E+00  3.07774E+00  3.18613E+00  2.34681E+00  2.17392E+00  2.70455E+00
   2.26046E+00  2.06570E+00  2.60547E+00  2.50646E+00  2.01497E+00  2.97522E+00  3.20449E+00  1.75955E+00  1.76041E+00  3.16900E+00
   2.19710E+00  1.46581E-01  2.60760E+00  1.56777E+00  8.29092E-01  2.61600E+00  1.99039E+00  1.24235E+00  1.18014E+00  3.59799E+00
   2.94085E+00  2.76361E+00  1.82629E+00  2.58156E+00  3.16757E+00  4.45773E-01  1.70085E+00  2.50767E+00  2.10578E+00  1.80000E+00
   2.05177E+00  7.14806E-01  1.51097E+00  5.54363E-01  8.69857E-01  1.88559E+00 -1.24281E-01  1.40544E+00  9.18844E-01  1.70423E+00
   2.14731E+00  1.20518E+00  2.00309E+00  2.46707E+00  1.98782E+00  7.42330E-01  2.13284E+00  1.66703E+00  2.23548E+00  8.31598E-01
   1.70422E+00  1.38040E+00  6.81994E-01  2.42213E+00  6.99287E-01  1.73373E+00  1.39687E+00  9.58411E-02  1.24955E+00  3.21565E-01
   1.29900E+00  9.81176E-01  2.55312E+00  1.10540E+00  1.10903E+00  4.29379E-01  1.13512E+00  1.22092E+00  2.07934E+00  2.85825E+00
   1.68737E+00  1.56481E+00  3.21255E+00  3.22747E+00  2.73179E+00  1.34814E+00  2.87365E+00  2.76043E+00  1.46844E+00  1.19510E+00
   2.42292E+00  1.75699E+00  2.06326E+00  2.41179E+00  1.46141E+00  1.54785E+00  1.04552E-01  1.67975E+00  1.14520E+00  2.69295E+00
   2.36839E+00  1.52712E+00  1.12701E+00  8.57881E-01  2.60760E+00  1.49874E+00  1.53741E+00  1.38753E+00  1.16746E+00  7.51509E-01
   1.12761E+00 -6.84343E-02  2.24754E+00  8.35188E-01  2.95474E+00  1.80617E+00  2.01684E+00  2.12303E+00  7.78782E-01  2.83600E+00
   5.11574E-01  4.41306E-01  6.72709E-01  1.82944E-01  1.03230E+00  8.44539E-01 -2.44509E-01  1.00844E+00  7.57301E-01  6.34625E-02
   1.42160E+00  1.27068E+00  2.22593E+00  5.73949E-02  7.01449E-02  1.32121E+00  6.37289E-01  4.29067E-01  1.12615E+00  1.01850E+00
   9.82975E-01  4.58913E-01  8.32111E-01  1.07767E+00  1.01982E-01  6.14488E-01  1.08297E+00  3.46950E-01  1.16862E-01  1.33352E+00
   1.09478E+00 -1.53488E-01  5.42342E-01  1.29075E+00  5.04924E-01  4.40840E-01 -5.45637E-01 -3.13133E-01 -5.79447E-01  8.20104E-02
   9.14062E-01  4.21348E-01  1.07297E+00 -3.86367E-02  1.77416E-01 -7.70626E-01 -5.76726E-01 -3.20726E-02  9.94748E-01  7.48129E-01
   1.22124E+00  9.56955E-01 -8.37904E-01  3.61352E-01  1.20972E-02  1.40048E+00  3.94929E-01  1.31798E+00  1.57378E+00  8.25065E-01
   8.22774E-02  6.55916E-01  4.75096E-01  1.49218E+00  1.26469E-01  5.83455E-01  1.58244E+00  5.06795E-01 -5.62212E-01  9.59028E-01
  -2.34817E-01  3.99027E-01 -9.02328E-01 -1.80930E+00 -1.28457E+00 -7.87085E-01 -4.43245E-01 -7.86884E-01 -2.59436E-01 -3.97697E-01
  -1.07330E-02 -8.91770E-01  7.65600E-01  2.43136E-01 -1.44051E-03  1.31828E+00  6.16380E-01  1.20255E+00  6.76063E-01  6.16468E-01
   2.71541E+00  1.72050E+00  1.17102E-01  1.10486E+00  9.50696E-01  1.27942E+00  1.60014E+00  1.33175E+00  1.88019E+00  7.10879E-01
   6.30834E-01  1.64301E+00  1.19022E+00  1.84512E+00  1.02660E+00  1.60643E+00  7.02348E-03  9.48027E-01 -4.33637E-01  1.24576E+00
  -4.47800E-01  1.06352E-01  2.38482E-01  1.24821E+00 -8.43057E-01 -1.39301E+00  1.89871E-01  7.77712E-01  3.50690E-01 -1.09372E+00
  -6.38087E-02 -3.57911E-01 -5.50690E-01 -1.23123E+00  2.92234E-01 -4.18214E-01 -2.58580E-01 -3.75004E-01  1.64685E-01  3.39747E-01
   9.44160E-02 -3.80283E-01 -9.58289E-01 -6.60576E-01 -5.62266E-01  3.96177E-01 -2.35597E+00 -6.44134E-01 -1.76839E+00 -3.10074E-02
  -5.37563E-02 -2.23555E+00 -1.24776E+00 -1.82321E+00 -1.44557E+00 -1.20860E+00 -1.01533E+00 -7.29355E-02 -1.51791E-02 -9.60792E-01
  -6.21100E-01 -1.53203E+00  1.10336E-01  6.85702E-01 -9.15828E-03  6.72686E-01  1.92043E+00  2.73689E+00  2.50928E+00  3.13569E+00
   2.41939E+00  3.10159E+00  3.14584E+00  3.60462E+00  4.93717E+00  4.68830E+00  3.49148E+00  5.24114E+00  3.35675E+00  4.72333E+00
   4.86588E+00  6.16267E+00  5.63911E+00  5.34776E+00  6.29638E+00  5.90755E+00  6.78926E+00  5.83869E+00  6.48407E+00  6.06806E+00
   6.45831E+00  6.04094E+00  6.69882E+00  6.43819E+00  5.56869E+00  6.38146E+00  4.90992E+00  4.51798E+00  4.98631E+00  5.26793E+00
   4.17010E+00  4.73948E+00  3.05746E+00  5.05672E+00  4.08296E+00  3.85722E+00  4.39382E+00  2.40201E+00  2.87195E+00  3.90344E+00
   3.31910E+00  4.73967E+00  2.42354E+00  3.65245E+00  2.95655E+00  4.08675E+00  2.11166E+00  2.59289E+00  3.33053E+00  2.91529E+00
   1.93222E+00  2.74314E+00  4.21219E+00  3.19828E+00  2.31585E+00  2.92732E+00  3.22258E+00  3.50547E+00  2.63658E+00  3.44768E+00
   3.06163E+00  2.94096E+00  1.91367E+00  3.02436E+00  3.11335E+00  3.17655E+00  2.51827E+00  4.67979E+00  2.06740E+00  3.05576E+00
   3.06799E+00  1.90760E+00  3.05362E+00  2.95195E+00  2.75238E+00  1.84230E+00  2.37266E+00  2.51819E+00  1.64647E+00  2.68260E+00
   3.03497E+00  1.58314E+00  2.88605E+00  1.79529E+00  3.08285E+00  2.13797E+00  2.42816E+00  2.11456E+00  1.63843E+00  3.42171E+00
   2.15636E+00  9.58022E-01  2.04987E+00  1.54602E+00  1.01317E+00  1.43860E+00  1.67966E+00  4.77244E-01  2.75513E-01  7.24628E-01
   2.10356E+00  4.62014E-01  2.72428E+00  1.03485E+00  3.54577E-01  7.99010E-01  2.16687E+00  1.45046E+00  1.34510E+00  9.86552E-01
   1.78091E+00  1.49704E+00  2.48006E+00  1.50239E+00  1.10432E-01  2.35429E+00  8.54090E-01  1.03346E+00  1.82893E+00  9.45950E-01
   1.24593E+00  1.91154E+00  2.01278E-01  1.23981E+00  1.50648E+00  1.79836E+00  1.17692E+00  6.50932E-01 -3.62131E-01  2.43152E+00
   1.85457E+00  1.80633E+00  1.29476E+00  2.00874E+00 -1.28900E-02  5.94553E-01  3.22009E-01  8.46495E-01  1.38385E+00  2.04183E-01
   3.38470E-01  9.51106E-01  1.51729E+00  8.29520E-01  9.88253E-02  8.93874E-01 -6.18547E-02  7.87124E-01  6.27210E-01 -7.78174E-02
   1.07336E+00  7.73902E-01  1.04761E+00  7.95546E-01  2.13233E+00  1.19611E+00  3.53932E-01  1.25881E+00  1.70346E+00  1.05852E+00
   1.02510E-01  1.04543E+00  2.51642E-01  8.04443E-01  3.71979E-01  1.36002E+00  8.09820E-01  1.05144E+00  1.30696E+00  2.27264E-01
   1.44028E+00 -5.90599E-01  4.91147E-01  3.70020E-01  2.33369E-01 -2.35703E-01  1.17248E-01  9.08344E-01
 NY points of the fit to the data follow
   2.89922E+00  2.99568E+00  2.96736E+00  3.00286E+00  3.04584E+00  3.02814E+00  3.09079E+00  2.98779E+00  3.06119E+00  2.87134E+00
   2.94206E+00  2.69109E+00  2.79175E+00  2.57106E+00  2.69199E+00  2.51878E+00  2.64175E+00  2.49589E+00  2.61719E+00  2.49728E+00
   2.59531E+00  2.50814E+00  2.57356E+00  2.52249E+00  2.54931E+00  2.52626E+00  2.50832E+00  2.50286E+00  2.44234E+00  2.46686E+00
   2.40044E+00  2.46733E+00  2.40909E+00  2.51757E+00  2.48009E+00  2.57857E+00  2.54814E+00  2.63097E+00  2.60758E+00  2.67089E+00
   2.65086E+00  2.69429E+00  2.68925E+00  2.71011E+00  2.71289E+00  2.69631E+00  2.68732E+00  2.62322E+00  2.59610E+00  2.50338E+00
   2.49353E+00  2.39965E+00  2.43565E+00  2.34469E+00  2.39850E+00  2.29430E+00  2.35408E+00  2.23381E+00  2.29796E+00  2.17258E+00
   2.25108E+00  2.12366E+00  2.20062E+00  2.07337E+00  2.15024E+00  2.02311E+00  2.09206E+00  1.97102E+00  2.04205E+00  1.94039E+00
   2.01880E+00  1.91184E+00  1.95638E+00  1.82792E+00  1.84843E+00  1.70596E+00  1.71193E+00  1.56029E+00  1.55613E+00  1.40670E+00
   1.39005E+00  1.25463E+00  1.23805E+00  1.12334E+00  1.11850E+00  1.05798E+00  1.05879E+00  1.05053E+00  1.05056E+00  1.08606E+00
   1.08197E+00  1.15503E+00  1.14495E+00  1.24435E+00  1.23175E+00  1.34671E+00  1.32509E+00  1.44017E+00  1.40997E+00  1.50829E+00
   1.46477E+00  1.53226E+00  1.47195E+00  1.50152E+00  1.43095E+00  1.43785E+00  1.36872E+00  1.36701E+00  1.31652E+00  1.35666E+00
   1.34521E+00  1.40240E+00  1.43429E+00  1.48795E+00  1.56715E+00  1.62680E+00  1.76293E+00  1.81553E+00  1.99567E+00  2.01710E+00
   2.21491E+00  2.17695E+00  2.38224E+00  2.28184E+00  2.49399E+00  2.34652E+00  2.54130E+00  2.31632E+00  2.47956E+00  2.21128E+00
   2.35110E+00  2.06695E+00  2.18999E+00  1.90188E+00  2.00926E+00  1.72409E+00  1.81519E+00  1.54072E+00  1.61530E+00  1.37204E+00
   1.43180E+00  1.21964E+00  1.26081E+00  1.07798E+00  1.10087E+00  9.42416E-01  9.50720E-01  8.36056E-01  8.45902E-01  8.08015E-01
   8.30499E-01  8.02462E-01  8.16085E-01  7.95455E-01  8.02791E-01  7.89550E-01  7.92313E-01  7.77630E-01  7.66782E-01  7.48982E-01
   7.26583E-01  7.08179E-01  6.82591E-01  6.64073E-01  6.39258E-01  6.18344E-01  5.92756E-01  5.67703E-01  5.40572E-01  5.12301E-01
   4.84251E-01  4.55650E-01  4.30641E-01  4.05750E-01  3.86882E-01  3.67127E-01  3.52757E-01  3.37384E-01  3.25405E-01  3.12981E-01
   2.98140E-01  2.91566E-01  2.76237E-01  2.77104E-01  2.62057E-01  2.69274E-01  2.53030E-01  2.64371E-01  2.45493E-01  2.59233E-01
   2.38321E-01  2.54294E-01  2.34029E-01  2.53334E-01  2.37578E-01  2.60200E-01  2.50448E-01  2.73565E-01  2.68566E-01  2.88805E-01
   2.85912E-01  3.02085E-01  3.00841E-01  3.13989E-01  3.16126E-01  3.27407E-01  3.33833E-01  3.42834E-01  3.51529E-01  3.58814E-01
   3.69868E-01  3.78728E-01  3.95516E-01  4.07253E-01  4.26134E-01  4.40325E-01  4.59069E-01  4.74980E-01  4.92687E-01  5.11491E-01
   5.28355E-01  5.49707E-01  5.66036E-01  5.84520E-01  5.95728E-01  6.08547E-01  6.13722E-01  6.20143E-01  6.23450E-01  6.23386E-01
   6.26212E-01  6.19112E-01  6.21411E-01  6.06399E-01  6.07407E-01  5.86130E-01  5.87995E-01  5.65569E-01  5.73103E-01  5.57273E-01
   5.76062E-01  5.72031E-01  6.09112E-01  6.20130E-01  6.68779E-01  6.93199E-01  7.45633E-01  7.81107E-01  8.33982E-01  8.79280E-01
   9.29602E-01  9.78740E-01  1.01760E+00  1.06214E+00  1.08000E+00  1.11620E+00  1.11144E+00  1.13706E+00  1.11149E+00  1.12543E+00
   1.08169E+00  1.07799E+00  1.01658E+00  9.98114E-01  9.26496E-01  8.98749E-01  8.23678E-01  7.93063E-01  7.23819E-01  6.94183E-01
   6.32552E-01  6.05443E-01  5.54590E-01  5.31635E-01  4.90806E-01  4.72022E-01  4.40596E-01  4.26281E-01  4.03144E-01  3.92937E-01
   3.79538E-01  3.74882E-01  3.74446E-01  3.76621E-01  3.80244E-01  3.85866E-01  3.92500E-01  4.00917E-01  4.10107E-01  4.20937E-01
   4.32429E-01  4.45410E-01  4.58998E-01  4.74246E-01  4.90131E-01  5.07795E-01  5.26280E-01  5.46653E-01  5.68130E-01  5.91614E-01
   6.16348E-01  6.43265E-01  6.71764E-01  7.02610E-01  7.35465E-01  7.70993E-01  8.09029E-01  8.50223E-01  8.94549E-01  9.42570E-01
   9.94443E-01  1.05072E+00  1.11170E+00  1.17792E+00  1.24986E+00  1.32810E+00  1.41326E+00  1.50601E+00  1.60709E+00  1.71730E+00
   1.83756E+00  1.96890E+00  2.11255E+00  2.26997E+00  2.44313E+00  2.63490E+00  2.85008E+00  3.09824E+00  3.40481E+00  3.79778E+00
   4.09869E+00  4.52676E+00  4.75297E+00  5.13617E+00  5.25716E+00  5.54943E+00  5.53089E+00  5.86277E+00  5.72748E+00  6.09977E+00
   5.83229E+00  6.19159E+00  5.77996E+00  6.12118E+00  5.59530E+00  5.93852E+00  5.34965E+00  5.71639E+00  5.13948E+00  5.57339E+00
   5.03168E+00  5.49990E+00  4.98129E+00  5.40811E+00  4.89622E+00  5.19499E+00  4.68766E+00  4.87470E+00  4.41250E+00  4.54890E+00
   4.13905E+00  4.22326E+00  3.86682E+00  3.88531E+00  3.57785E+00  3.51807E+00  3.28964E+00  3.24424E+00  3.11973E+00  3.13826E+00
   3.00125E+00  2.93523E+00  2.79986E+00  2.64911E+00  2.51182E+00  2.31722E+00  2.20275E+00  2.13350E+00  2.09095E+00  2.06776E+00
   2.05998E+00  2.06511E+00  2.08128E+00  2.10698E+00  2.14084E+00  2.18152E+00  2.22767E+00  2.27788E+00  2.33070E+00  2.38461E+00
   2.43803E+00  2.48939E+00  2.53710E+00  2.57963E+00  2.61553E+00  2.64354E+00  2.66254E+00  2.67166E+00  2.67026E+00  2.65801E+00
   2.63484E+00  2.60097E+00  2.55693E+00  2.50343E+00  2.44144E+00  2.37207E+00  2.29658E+00  2.21627E+00  2.13247E+00  2.04650E+00
   1.95959E+00  1.87289E+00  1.78742E+00  1.70408E+00  1.62359E+00  1.54653E+00  1.47334E+00  1.40432E+00  1.33964E+00  1.27938E+00
   1.22352E+00  1.17194E+00  1.12450E+00  1.08102E+00  1.04125E+00  1.00498E+00  9.71931E-01  9.41870E-01  9.14555E-01  8.89752E-01
   8.67245E-01  8.46826E-01  8.28305E-01  8.11507E-01  7.96277E-01  7.82472E-01  7.69962E-01  7.58627E-01  7.48362E-01  7.39071E-01
   7.30674E-01  7.23092E-01  7.16257E-01  7.10104E-01  7.04579E-01  6.99632E-01  6.95220E-01  6.91301E-01  6.87837E-01  6.84793E-01
   6.82138E-01  6.79849E-01  6.77898E-01  6.76263E-01  6.74920E-01  6.73850E-01  6.73036E-01  6.72464E-01  6.72117E-01  6.71982E-01
   6.72043E-01  6.72290E-01  6.72712E-01  6.73302E-01  6.74047E-01  6.74938E-01  6.75966E-01  6.77125E-01  6.78409E-01  6.79811E-01
   6.81324E-01  6.82940E-01  6.84656E-01  6.86466E-01  6.88367E-01  6.90353E-01  6.92419E-01  6.94561E-01  6.96776E-01  6.99061E-01
   7.01414E-01  7.03829E-01  7.06305E-01  7.08836E-01  7.11424E-01  7.14065E-01  7.16757E-01  7.19499E-01  7.22287E-01  7.25120E-01
   7.27999E-01  7.30924E-01  7.33893E-01  7.36906E-01  7.39965E-01  7.43071E-01  7.46230E-01  7.49446E-01
 NY background values follow
     1.012E+00    1.008E+00    1.003E+00    9.979E-01    9.930E-01    9.882E-01    9.834E-01    9.786E-01    9.737E-01    9.689E-01
     9.641E-01    9.593E-01    9.545E-01    9.497E-01    9.449E-01    9.401E-01    9.353E-01    9.305E-01    9.257E-01    9.209E-01
     9.161E-01    9.113E-01    9.065E-01    9.017E-01    8.969E-01    8.922E-01    8.874E-01    8.826E-01    8.778E-01    8.731E-01
     8.683E-01    8.635E-01    8.587E-01    8.540E-01    8.492E-01    8.444E-01    8.397E-01    8.349E-01    8.302E-01    8.254E-01
     8.206E-01    8.159E-01    8.111E-01    8.064E-01    8.016E-01    7.969E-01    7.921E-01    7.874E-01    7.827E-01    7.779E-01
     7.732E-01    7.684E-01    7.637E-01    7.590E-01    7.542E-01    7.495E-01    7.448E-01    7.401E-01    7.353E-01    7.306E-01
     7.259E-01    7.212E-01    7.164E-01    7.117E-01    7.070E-01    7.023E-01    6.976E-01    6.929E-01    6.882E-01    6.834E-01
     6.787E-01    6.740E-01    6.693E-01    6.646E-01    6.599E-01    6.552E-01    6.505E-01    6.458E-01    6.411E-01    6.364E-01
     6.317E-01    6.270E-01    6.223E-01    6.176E-01    6.129E-01    6.083E-01    6.036E-01    5.989E-01    5.942E-01    5.895E-01
     5.848E-01    5.801E-01    5.755E-01    5.708E-01    5.661E-01    5.614E-01    5.568E-01    5.521E-01    5.474E-01    5.427E-01
     5.381E-01    5.334E-01    5.287E-01    5.240E-01    5.194E-01    5.147E-01    5.100E-01    5.054E-01    5.007E-01    4.960E-01
     4.914E-01    4.867E-01    4.821E-01    4.774E-01    4.727E-01    4.681E-01    4.634E-01    4.588E-01    4.541E-01    4.495E-01
     4.448E-01    4.401E-01    4.355E-01    4.308E-01    4.262E-01    4.215E-01    4.169E-01    4.122E-01    4.076E-01    4.029E-01
     3.983E-01    3.937E-01    3.890E-01    3.844E-01    3.798E-01    3.752E-01    3.705E-01    3.659E-01    3.613E-01    3.567E-01
     3.521E-01    3.475E-01    3.430E-01    3.384E-01    3.338E-01    3.293E-01    3.247E-01    3.202E-01    3.157E-01    3.112E-01
     3.067E-01    3.022E-01    2.977E-01    2.932E-01    2.888E-01    2.843E-01    2.799E-01    2.755E-01    2.711E-01    2.667E-01
     2.623E-01    2.580E-01    2.536E-01    2.493E-01    2.450E-01    2.407E-01    2.364E-01    2.322E-01    2.279E-01    2.237E-01
     2.195E-01    2.153E-01    2.112E-01    2.070E-01    2.029E-01    1.988E-01    1.948E-01    1.907E-01    1.867E-01    1.827E-01
     1.787E-01    1.747E-01    1.708E-01    1.669E-01    1.630E-01    1.591E-01    1.553E-01    1.515E-01    1.477E-01    1.439E-01
     1.402E-01    1.365E-01    1.328E-01    1.292E-01    1.255E-01    1.219E-01    1.184E-01    1.149E-01    1.114E-01    1.079E-01
     1.045E-01    1.010E-01    9.767E-02    9.433E-02    9.103E-02    8.775E-02    8.451E-02    8.131E-02    7.814E-02    7.500E-02
     7.190E-02    6.883E-02    6.581E-02    6.282E-02    5.986E-02    5.694E-02    5.406E-02    5.122E-02    4.842E-02    4.566E-02
     4.294E-02    4.025E-02    3.761E-02    3.501E-02    3.245E-02    2.993E-02    2.745E-02    2.501E-02    2.262E-02    2.027E-02
     1.797E-02    1.571E-02    1.349E-02    1.132E-02    9.193E-03    7.112E-03    5.078E-03    3.090E-03    1.148E-03   -7.453E-04
    -2.591E-03   -4.389E-03   -6.138E-03   -7.839E-03   -9.490E-03   -1.109E-02   -1.264E-02   -1.414E-02   -1.559E-02   -1.699E-02
    -1.833E-02   -1.963E-02   -2.087E-02   -2.207E-02   -2.321E-02   -2.430E-02   -2.534E-02   -2.633E-02   -2.727E-02   -2.817E-02
    -2.901E-02   -2.980E-02   -3.055E-02   -3.124E-02   -3.189E-02   -3.249E-02   -3.304E-02   -3.354E-02   -3.399E-02   -3.440E-02
    -3.476E-02   -3.507E-02   -3.534E-02   -3.555E-02   -3.573E-02   -3.585E-02   -3.593E-02   -3.597E-02   -3.596E-02   -3.590E-02
    -3.580E-02   -3.565E-02   -3.546E-02   -3.522E-02   -3.494E-02   -3.461E-02   -3.424E-02   -3.383E-02   -3.338E-02   -3.288E-02
    -3.233E-02   -3.175E-02   -3.112E-02   -3.045E-02   -2.973E-02   -2.898E-02   -2.818E-02   -2.734E-02   -2.646E-02   -2.554E-02
    -2.458E-02   -2.358E-02   -2.253E-02   -2.145E-02   -2.032E-02   -1.916E-02   -1.795E-02   -1.671E-02   -1.543E-02   -1.411E-02
    -1.274E-02   -1.134E-02   -9.906E-03   -8.430E-03   -6.916E-03   -5.363E-03   -3.773E-03   -2.146E-03   -4.811E-04    1.221E-03
     2.959E-03    4.734E-03    6.545E-03    8.393E-03    1.028E-02    1.220E-02    1.415E-02    1.614E-02    1.817E-02    2.023E-02
     2.232E-02    2.445E-02    2.661E-02    2.881E-02    3.104E-02    3.331E-02    3.561E-02    3.794E-02    4.030E-02    4.270E-02
     4.513E-02    4.759E-02    5.009E-02    5.261E-02    5.517E-02    5.776E-02    6.038E-02    6.304E-02    6.572E-02    6.843E-02
     7.118E-02    7.395E-02    7.676E-02    7.959E-02    8.245E-02    8.535E-02    8.827E-02    9.122E-02    9.420E-02    9.721E-02
     1.002E-01    1.033E-01    1.064E-01    1.095E-01    1.127E-01    1.159E-01    1.191E-01    1.223E-01    1.255E-01    1.288E-01
     1.321E-01    1.355E-01    1.388E-01    1.422E-01    1.456E-01    1.491E-01    1.525E-01    1.560E-01    1.595E-01    1.631E-01
     1.666E-01    1.702E-01    1.738E-01    1.774E-01    1.811E-01    1.848E-01    1.885E-01    1.922E-01    1.959E-01    1.997E-01
     2.035E-01    2.073E-01    2.111E-01    2.149E-01    2.188E-01    2.227E-01    2.265E-01    2.305E-01    2.344E-01    2.384E-01
     2.423E-01    2.463E-01    2.503E-01    2.543E-01    2.584E-01    2.624E-01    2.665E-01    2.706E-01    2.747E-01    2.788E-01
     2.830E-01    2.871E-01    2.913E-01    2.955E-01    2.997E-01    3.039E-01    3.081E-01    3.123E-01    3.166E-01    3.208E-01
     3.251E-01    3.294E-01    3.337E-01    3.380E-01    3.423E-01    3.466E-01    3.509E-01    3.553E-01    3.596E-01    3.640E-01
     3.684E-01    3.728E-01    3.772E-01    3.816E-01    3.860E-01    3.904E-01    3.948E-01    3.993E-01    4.037E-01    4.081E-01
     4.126E-01    4.171E-01    4.215E-01    4.260E-01    4.305E-01    4.350E-01    4.394E-01    4.439E-01    4.484E-01    4.529E-01
     4.574E-01    4.619E-01    4.664E-01    4.709E-01    4.755E-01    4.800E-01    4.845E-01    4.890E-01    4.935E-01    4.980E-01
     5.026E-01    5.071E-01    5.116E-01    5.161E-01    5.207E-01    5.252E-01    5.297E-01    5.342E-01    5.387E-01    5.432E-01
     5.478E-01    5.523E-01    5.568E-01    5.613E-01    5.658E-01    5.703E-01    5.748E-01    5.793E-01    5.837E-01    5.882E-01
     5.927E-01    5.972E-01    6.016E-01    6.061E-01    6.105E-01    6.150E-01    6.194E-01    6.239E-01    6.283E-01    6.327E-01
     6.371E-01    6.415E-01    6.459E-01    6.503E-01    6.547E-01    6.590E-01    6.634E-01    6.677E-01
 Asp      Conc. = 7.50E+00
