 LCModel (Version 6.3-1L) Copyright: S.W. Provencher.          Ref.: Magn. Reson. Med. 30:672-679 (1993).                
 Slice#2 Row#7 Col#12  K_02_press_1_raw_act
 36 lines in following concentration table = NCONC+1
    Conc.  %SD /Cr+PCr  Metabolite                                         
  106.872  92%   0.177 Ala                                                 
    0.000 999%   0.000 Asp                                                 
    0.846 999% 1.4E-03 Cr                                                  
  602.094  34%   0.999 PCr                                                 
    7.303 999% 1.2E-02 GABA                                                
  163.162  75%   0.271 Glc                                                 
  413.779  48%   0.686 Gln                                                 
 1.58E+03  16%   2.622 Glu                                                 
  139.768  13%   0.232 GPC                                                 
    0.000 999%   0.000 PCh                                                 
   75.222  82%   0.125 GSH                                                 
  204.878 101%   0.340 Ins                                                 
  105.161 104%   0.174 Lac                                                 
 2.78E+03   7%   4.603 NAA                                                 
  326.217  59%   0.541 NAAG                                                
   40.950  54% 6.8E-02 Scyllo                                              
  445.684  38%   0.739 Tau                                                 
  454.749  20%   0.754 -CrCH2                                              
  139.768  13%   0.232 GPC+PCh                                             
 3.10E+03   3%   5.144 NAA+NAAG                                            
  602.940   8%   1.000 Cr+PCr                                              
 1.99E+03  17%   3.308 Glu+Gln                                             
 3.84E+03  18%   6.366 Lip13a                                              
    0.000 999%   0.000 Lip13b                                              
 1.02E+03  18%   1.696 Lip09                                               
  751.723  30%   1.247 MM09                                                
  576.496  18%   0.956 Lip20                                               
 2.50E+03  14%   4.152+MM20                                                
  227.508  55%   0.377 MM12                                                
 1.94E+03  23%   3.225 MM14                                                
  780.309  29%   1.294 MM17                                                
 3.84E+03  18%   6.366 Lip13a+Lip13b                                       
 6.01E+03   8%   9.968 MM14+Lip13a+Lip13b+MM12                             
 1.77E+03  11%   2.943 MM09+Lip09                                          
 3.08E+03  11%   5.108 MM20+Lip20                                          
   6 lines in following misc. output table
  FWHM = 0.046 ppm    S/N =  17                                            
  Data shift =-0.008 ppm                                                   
  Ph: -76 deg     -31.1 deg/ppm                                            
  alphaB,S = 6.1E-01,   1.0E+02                                            
   14 spline knots.   Ns = 7(1)                                            
  (14) 2 infls.   ( 7) 1 extrs.                                            
  498 points on ppm-axis = NY
      4.000000     3.992357     3.984714     3.977070     3.969427     3.961784     3.954141     3.946497     3.938854     3.931211
      3.923568     3.915925     3.908281     3.900638     3.892995     3.885352     3.877708     3.870065     3.862422     3.854779
      3.847136     3.839492     3.831849     3.824206     3.816563     3.808919     3.801276     3.793633     3.785990     3.778347
      3.770703     3.763060     3.755417     3.747774     3.740130     3.732487     3.724844     3.717201     3.709558     3.701914
      3.694271     3.686628     3.678985     3.671341     3.663698     3.656055     3.648412     3.640769     3.633125     3.625482
      3.617839     3.610196     3.602552     3.594909     3.587266     3.579623     3.571980     3.564336     3.556693     3.549050
      3.541407     3.533763     3.526120     3.518477     3.510834     3.503191     3.495547     3.487904     3.480261     3.472618
      3.464974     3.457331     3.449688     3.442045     3.434402     3.426758     3.419115     3.411472     3.403829     3.396185
      3.388542     3.380899     3.373256     3.365613     3.357969     3.350326     3.342683     3.335040     3.327396     3.319753
      3.312110     3.304467     3.296824     3.289180     3.281537     3.273894     3.266251     3.258607     3.250964     3.243321
      3.235678     3.228034     3.220391     3.212748     3.205105     3.197462     3.189818     3.182175     3.174532     3.166889
      3.159245     3.151602     3.143959     3.136316     3.128673     3.121029     3.113386     3.105743     3.098100     3.090456
      3.082813     3.075170     3.067527     3.059884     3.052240     3.044597     3.036954     3.029311     3.021667     3.014024
      3.006381     2.998738     2.991095     2.983451     2.975808     2.968165     2.960522     2.952878     2.945235     2.937592
      2.929949     2.922306     2.914662     2.907019     2.899376     2.891733     2.884089     2.876446     2.868803     2.861160
      2.853517     2.845873     2.838230     2.830587     2.822944     2.815300     2.807657     2.800014     2.792371     2.784728
      2.777084     2.769441     2.761798     2.754155     2.746511     2.738868     2.731225     2.723582     2.715939     2.708295
      2.700652     2.693009     2.685366     2.677722     2.670079     2.662436     2.654793     2.647150     2.639506     2.631863
      2.624220     2.616577     2.608933     2.601290     2.593647     2.586004     2.578361     2.570717     2.563074     2.555431
      2.547788     2.540144     2.532501     2.524858     2.517215     2.509572     2.501928     2.494285     2.486642     2.478999
      2.471355     2.463712     2.456069     2.448426     2.440783     2.433139     2.425496     2.417853     2.410210     2.402566
      2.394923     2.387280     2.379637     2.371994     2.364350     2.356707     2.349064     2.341421     2.333777     2.326134
      2.318491     2.310848     2.303205     2.295561     2.287918     2.280275     2.272632     2.264988     2.257345     2.249702
      2.242059     2.234416     2.226772     2.219129     2.211486     2.203843     2.196199     2.188556     2.180913     2.173270
      2.165627     2.157983     2.150340     2.142697     2.135054     2.127410     2.119767     2.112124     2.104481     2.096838
      2.089194     2.081551     2.073908     2.066265     2.058621     2.050978     2.043335     2.035692     2.028049     2.020405
      2.012762     2.005119     1.997476     1.989833     1.982190     1.974546     1.966903     1.959260     1.951617     1.943974
      1.936331     1.928688     1.921045     1.913402     1.905759     1.898115     1.890472     1.882829     1.875186     1.867543
      1.859900     1.852257     1.844614     1.836971     1.829327     1.821684     1.814041     1.806398     1.798755     1.791112
      1.783469     1.775826     1.768183     1.760540     1.752896     1.745253     1.737610     1.729967     1.722324     1.714681
      1.707038     1.699395     1.691752     1.684108     1.676465     1.668822     1.661179     1.653536     1.645893     1.638250
      1.630607     1.622964     1.615321     1.607677     1.600034     1.592391     1.584748     1.577105     1.569462     1.561819
      1.554176     1.546533     1.538890     1.531246     1.523603     1.515960     1.508317     1.500674     1.493031     1.485388
      1.477745     1.470102     1.462458     1.454815     1.447172     1.439529     1.431886     1.424243     1.416600     1.408957
      1.401314     1.393671     1.386027     1.378384     1.370741     1.363098     1.355455     1.347812     1.340169     1.332526
      1.324883     1.317240     1.309596     1.301953     1.294310     1.286667     1.279024     1.271381     1.263738     1.256095
      1.248452     1.240808     1.233165     1.225522     1.217879     1.210236     1.202593     1.194950     1.187307     1.179664
      1.172021     1.164377     1.156734     1.149091     1.141448     1.133805     1.126162     1.118519     1.110876     1.103233
      1.095590     1.087946     1.080303     1.072660     1.065017     1.057374     1.049731     1.042088     1.034445     1.026802
      1.019158     1.011515     1.003872     0.996229     0.988586     0.980943     0.973300     0.965657     0.958014     0.950371
      0.942727     0.935084     0.927441     0.919798     0.912155     0.904512     0.896869     0.889226     0.881583     0.873940
      0.866296     0.858653     0.851010     0.843367     0.835724     0.828081     0.820438     0.812795     0.805152     0.797508
      0.789865     0.782222     0.774579     0.766936     0.759293     0.751650     0.744007     0.736364     0.728721     0.721077
      0.713434     0.705791     0.698148     0.690505     0.682862     0.675219     0.667576     0.659933     0.652290     0.644646
      0.637003     0.629360     0.621717     0.614074     0.606431     0.598788     0.591145     0.583502     0.575858     0.568215
      0.560572     0.552929     0.545286     0.537643     0.530000     0.522357     0.514714     0.507071     0.499427     0.491784
      0.484141     0.476498     0.468855     0.461212     0.453569     0.445925     0.438282     0.430639     0.422996     0.415353
      0.407710     0.400067     0.392424     0.384780     0.377137     0.369494     0.361851     0.354208     0.346565     0.338922
      0.331278     0.323635     0.315992     0.308349     0.300706     0.293063     0.285420     0.277777     0.270133     0.262490
      0.254847     0.247204     0.239561     0.231918     0.224275     0.216631     0.208988     0.201345
 NY phased data points follow
   6.87937E+00  4.56380E+00  5.83847E+00  3.91189E+00  9.44159E+00  4.23001E+00  6.76044E+00  5.42723E+00  7.95368E+00  9.38920E+00
   5.70198E+00  7.81896E+00  8.62186E+00  6.72836E+00  6.07319E+00  7.24114E+00  7.53568E+00  4.38475E+00  1.42866E+00  8.21469E+00
   6.84298E+00  1.92956E+00  4.50817E+00  5.60075E+00  4.93445E+00  5.73287E+00  9.82767E+00  7.59973E+00  7.47400E+00  4.10212E+00
   5.67595E+00  7.59380E+00  3.36304E+00  5.15909E+00  7.26345E+00  4.06652E+00  3.02569E+00  6.81681E+00  1.20379E+01  4.69622E+00
   6.45099E+00  8.76839E+00  6.14613E+00  7.12388E+00  5.62723E+00  5.85626E+00  9.26750E+00  4.89874E+00  8.15703E+00  7.79639E+00
   5.21638E+00  6.09228E+00  8.12448E+00  4.80386E+00  5.68875E+00  6.72326E+00  4.91372E+00  4.52733E+00  6.47978E+00  5.10654E+00
   5.34361E+00  3.19351E+00  5.65872E+00  2.41078E+00  3.77884E+00  5.69157E+00  5.44254E+00  6.92440E+00  8.13876E+00  8.36780E+00
   2.66053E+00  2.70085E+00  5.32999E+00  4.93863E+00  6.01605E+00  5.70501E+00  5.76671E+00  6.87701E+00  5.76838E+00  7.22158E+00
   6.92445E+00  5.00720E+00  6.87614E+00  7.34458E+00  7.78434E+00  7.68834E+00  2.71624E+00  4.85599E+00  6.08326E+00  1.12690E+00
   6.19485E+00  5.38352E+00  8.45759E+00  8.35787E+00  7.53073E+00  4.73316E+00  6.58153E+00  7.44580E+00  8.75770E+00  6.23648E+00
   8.97632E+00  1.23172E+01  1.67480E+01  1.82922E+01  1.96641E+01  1.80244E+01  1.55115E+01  1.13616E+01  1.35143E+01  6.92458E+00
   3.46130E+00  6.61382E+00  5.44691E+00  8.62193E+00  4.18898E+00  7.93998E+00  6.58450E+00  3.07625E+00  6.25089E+00  5.53023E+00
   8.55196E+00  5.72176E+00  6.46134E+00  7.77323E+00  1.40566E+01  1.63382E+01  2.19345E+01  2.36844E+01  2.62330E+01  2.59942E+01
   2.27552E+01  1.82159E+01  1.60141E+01  9.83309E+00  1.16798E+01  8.20936E+00  7.15285E+00  3.79313E+00  5.48221E+00  3.04721E+00
   8.69198E+00  8.52800E+00  1.08892E+01  9.93484E+00  7.25841E+00  6.63211E+00  7.01281E+00  8.92517E+00  4.82794E+00  4.30861E+00
   5.25829E+00  5.57101E+00  6.25142E+00  3.12740E+00  4.09534E+00  5.46095E+00  5.45094E+00  3.95012E+00  5.65643E+00  6.89009E+00
   8.67977E+00  4.57999E+00  2.68863E+00  2.14359E+00  6.49691E-01  4.02432E+00  2.51628E+00  3.93751E+00 -2.53122E+00 -2.70938E+00
  -3.79670E+00 -3.08425E+00 -5.07488E+00 -7.34205E+00 -5.24103E+00 -4.82473E+00 -8.25732E+00 -7.08378E+00 -7.63433E+00 -5.33326E+00
  -4.92211E+00 -7.03322E-01 -9.22890E-01 -3.11214E+00 -6.34689E+00 -2.00990E+00 -5.14441E+00 -2.89071E+00 -2.17565E+00 -4.60735E+00
  -1.34059E+00 -4.94518E+00  3.21651E+00  1.54730E+00 -1.51618E+00 -2.35255E+00 -1.36901E-01 -3.73103E+00 -5.02585E+00 -8.14013E+00
  -4.58521E+00 -6.06429E+00 -4.56244E+00  3.47431E-01  3.90279E+00  3.63477E+00  8.65175E+00  1.24919E+00  1.42086E+00  2.07940E+00
   1.13025E+00 -4.83759E-01  3.95431E+00  9.05279E+00  1.12519E+01  1.26196E+01  1.36850E+01  1.77070E+01  1.73499E+01  8.47835E+00
   7.55128E+00  2.86919E+00  8.59526E-01  4.68709E-01 -1.94029E-01  3.08478E-01  8.75078E+00  8.44879E+00  1.02026E+01  1.12220E+01
   1.44105E+01  1.09533E+01  1.01227E+01  1.49109E+01  1.11630E+01  1.32289E+01  1.19695E+01  1.07552E+01  1.10042E+01  1.22638E+01
   1.13461E+01  1.08872E+01  8.61287E+00  8.47089E+00  6.17002E+00  9.54445E+00  1.38380E+01  1.77365E+01  1.69732E+01  1.58587E+01
   1.77228E+01  2.14309E+01  2.21286E+01  2.68812E+01  3.26075E+01  3.71993E+01  4.77984E+01  6.01179E+01  7.49759E+01  9.35672E+01
   1.07117E+02  1.07205E+02  1.02702E+02  8.88010E+01  7.14038E+01  5.36717E+01  3.97805E+01  2.64886E+01  1.96354E+01  1.47334E+01
   1.29020E+01  1.09914E+01  7.31925E+00  1.01552E+01  6.59406E+00  5.26822E+00  9.85155E+00  3.70121E+00  7.60903E+00  5.41842E+00
   7.06335E+00  2.70468E+00  3.34686E+00  4.05066E+00  3.16702E+00  3.11241E+00  5.18165E+00  4.63929E+00  5.10858E+00  4.30525E+00
   7.18743E+00  3.70316E+00  7.10722E+00  4.76897E+00  6.54098E+00  6.13821E+00  6.02652E+00  4.14998E+00  8.94449E+00  6.73784E+00
   4.76838E+00  3.85151E+00  5.22503E+00  9.02816E+00  5.09703E+00  5.65566E+00  8.22734E+00  9.08126E+00  9.55891E+00  8.91624E+00
   8.28322E+00  1.24107E+01  8.67199E+00  1.30535E+01  1.00291E+01  9.11096E+00  1.07632E+01  1.03745E+01  9.26220E+00  1.06577E+01
   1.06350E+01  9.19137E+00  1.40001E+01  1.16030E+01  1.45390E+01  1.47771E+01  1.19369E+01  1.52185E+01  1.57327E+01  2.00249E+01
   1.68968E+01  2.15530E+01  2.09152E+01  2.31920E+01  2.47704E+01  2.48028E+01  2.54439E+01  2.68667E+01  3.26734E+01  3.19177E+01
   3.19634E+01  3.39384E+01  3.32154E+01  3.52429E+01  3.45924E+01  3.74468E+01  3.17334E+01  3.43751E+01  3.12973E+01  2.84979E+01
   2.89910E+01  2.44516E+01  2.56880E+01  2.59057E+01  2.27436E+01  2.29190E+01  1.79986E+01  1.58736E+01  1.59140E+01  1.16155E+01
   1.10443E+01  9.52735E+00  8.19776E+00  1.07620E+01  7.06634E+00  3.27399E+00  4.09923E+00  4.37137E+00  5.52154E+00  4.12140E+00
   4.37814E+00  2.27988E+00  3.68060E+00  3.37944E+00  4.70151E+00 -8.90917E-01  2.00161E+00  1.92863E+00 -4.01374E+00  4.49428E-02
   5.53043E-01 -2.02643E+00 -2.87638E+00 -1.64812E+00 -1.59674E+00 -3.13903E+00 -1.58050E+00 -3.66901E-01 -7.41741E-01  1.55449E+00
  -8.16520E-01  1.88716E+00  6.94941E-01  3.57494E+00  3.03239E+00  4.81276E+00  3.85255E+00  3.62391E+00  3.20607E+00  5.78549E+00
   5.34073E+00  4.23759E+00  7.14277E+00  6.48758E+00  8.55231E+00  7.95838E+00  6.92473E+00  6.24394E+00  8.03593E+00  7.24537E+00
   9.55407E+00  1.00584E+01  9.02615E+00  9.68071E+00  8.98970E+00  5.83634E+00  6.46452E+00  3.46982E+00  2.45374E+00  2.28866E+00
   3.24096E+00  2.51624E-01 -1.76368E+00  3.83039E+00  2.05820E+00  2.95188E+00  1.76604E+00  9.21132E-01 -2.83099E+00 -3.22684E+00
   1.55283E+00  8.44254E-01  8.61811E-01  1.82887E+00 -7.49802E-01  1.28889E+00 -1.09866E-01 -2.14692E+00 -1.61650E+00  1.20388E+00
  -8.11371E-01 -1.10686E+00  3.40915E+00  2.49604E+00  7.75943E-01 -5.63815E-01  1.54199E+00  6.68799E-01  1.50172E+00  5.49315E-01
   1.08414E+00 -1.94467E-01 -2.15218E+00  2.44931E+00 -1.07379E+00  2.50181E+00  5.47894E-01  4.13315E-01  3.01464E+00  2.84351E+00
   2.55191E+00  8.84482E-01  6.58284E-01  1.33764E+00  3.11874E+00 -6.06668E-02  1.50418E+00  5.88146E+00 -7.19731E-01  1.65077E+00
   1.12065E+00  2.25280E+00  7.66448E-01  1.73632E+00  1.79741E+00  6.62779E-01  2.56239E+00 -5.82039E-01  3.46985E+00 -7.26217E-01
  -6.73934E-01  2.12032E+00  3.04854E+00  2.78369E+00  4.33653E+00  3.21757E+00  1.84783E+00  4.24139E-01  2.46619E+00  3.33727E+00
   2.89984E+00  3.10514E+00  3.17733E+00  9.04047E-01  2.64562E+00  3.03728E+00  1.40144E+00 -5.96377E-01
 NY points of the fit to the data follow
   4.48629E+00  4.31628E+00  4.28452E+00  4.34518E+00  4.57614E+00  5.08116E+00  5.86316E+00  6.78575E+00  7.61844E+00  8.15654E+00
   8.32216E+00  8.14081E+00  7.72394E+00  7.23387E+00  6.77130E+00  6.35727E+00  5.95654E+00  5.63524E+00  5.51156E+00  5.49112E+00
   5.58778E+00  5.77820E+00  6.00629E+00  6.27396E+00  6.48759E+00  6.52217E+00  6.31922E+00  5.90477E+00  5.47847E+00  5.27915E+00
   5.53602E+00  6.35660E+00  7.58773E+00  8.83973E+00  9.70877E+00  9.85480E+00  9.28217E+00  8.18359E+00  6.86030E+00  5.78122E+00
   5.17852E+00  5.03937E+00  5.23779E+00  5.62823E+00  6.12675E+00  6.61826E+00  7.03559E+00  7.35948E+00  7.53022E+00  7.48510E+00
   7.28413E+00  6.97085E+00  6.61460E+00  6.25575E+00  5.92232E+00  5.64084E+00  5.41947E+00  5.27493E+00  5.22018E+00  5.23920E+00
   5.29695E+00  5.34045E+00  5.36551E+00  5.37768E+00  5.38405E+00  5.41421E+00  5.45614E+00  5.44432E+00  5.37754E+00  5.29787E+00
   5.21027E+00  5.18417E+00  5.31663E+00  5.64663E+00  6.12076E+00  6.58734E+00  6.85318E+00  6.75741E+00  6.33069E+00  5.75032E+00
   5.20521E+00  4.85960E+00  4.82175E+00  5.05426E+00  5.48401E+00  6.03195E+00  6.47660E+00  6.64644E+00  6.53831E+00  6.20592E+00
   5.70055E+00  5.09964E+00  4.46395E+00  3.75515E+00  3.03915E+00  2.66890E+00  2.91465E+00  3.62322E+00  4.95198E+00  7.07550E+00
   9.93701E+00  1.31608E+01  1.59850E+01  1.76939E+01  1.80205E+01  1.70773E+01  1.52655E+01  1.31519E+01  1.12165E+01  9.53273E+00
   7.98978E+00  6.75309E+00  6.06213E+00  5.59387E+00  5.20467E+00  4.87464E+00  4.56299E+00  4.28288E+00  4.04273E+00  3.98815E+00
   4.35755E+00  4.98849E+00  6.22858E+00  8.61423E+00  1.23322E+01  1.69209E+01  2.12706E+01  2.42032E+01  2.51120E+01  2.40299E+01
   2.15211E+01  1.84273E+01  1.54451E+01  1.28083E+01  1.04512E+01  8.51772E+00  7.44415E+00  6.85254E+00  6.48171E+00  6.26389E+00
   6.14705E+00  6.07650E+00  6.01452E+00  5.93930E+00  5.83363E+00  5.70072E+00  5.55547E+00  5.40309E+00  5.25200E+00  5.11034E+00
   4.97338E+00  4.84004E+00  4.71028E+00  4.58754E+00  4.46462E+00  4.35758E+00  4.27754E+00  4.14552E+00  3.88021E+00  3.41873E+00
   2.82103E+00  2.31905E+00  2.09424E+00  2.15149E+00  2.33900E+00  2.42798E+00  2.23995E+00  1.75376E+00  1.08419E+00  3.75606E-01
  -3.11713E-01 -9.47619E-01 -1.58304E+00 -2.27966E+00 -2.96571E+00 -3.50668E+00 -3.78120E+00 -3.76528E+00 -3.59117E+00 -3.42688E+00
  -3.36450E+00 -3.35450E+00 -3.28642E+00 -3.14947E+00 -2.95084E+00 -2.69811E+00 -2.34479E+00 -1.69344E+00 -6.74296E-01  5.83375E-01
   1.84339E+00  2.83135E+00  3.46610E+00  3.82324E+00  4.01146E+00  4.09513E+00  4.06195E+00  3.97628E+00  3.96950E+00  4.10364E+00
   4.45614E+00  5.04974E+00  5.82482E+00  6.52290E+00  6.87690E+00  6.62419E+00  5.64367E+00  4.03378E+00  2.12400E+00  3.71650E-01
  -7.87253E-01 -1.18576E+00 -5.41706E-01  1.31063E+00  4.05783E+00  6.93809E+00  9.06943E+00  9.82467E+00  9.00732E+00  6.65753E+00
   3.37707E+00  1.21240E-01 -2.26215E+00 -3.17988E+00 -2.46407E+00 -3.77649E-01  2.59399E+00  5.55035E+00  7.89356E+00  9.43514E+00
   1.02938E+01  1.06020E+01  1.04642E+01  1.01766E+01  1.00858E+01  1.02867E+01  1.06976E+01  1.12075E+01  1.16592E+01  1.18918E+01
   1.18127E+01  1.15241E+01  1.13085E+01  1.14072E+01  1.18869E+01  1.26802E+01  1.36827E+01  1.47051E+01  1.56395E+01  1.66123E+01
   1.76512E+01  1.90444E+01  2.13067E+01  2.54045E+01  3.17026E+01  3.89702E+01  4.81810E+01  6.07634E+01  7.65190E+01  9.26261E+01
   1.04376E+02  1.07914E+02  1.02270E+02  8.90076E+01  7.15987E+01  5.42371E+01  3.94125E+01  2.74479E+01  1.78209E+01  1.12407E+01
   8.58514E+00  7.54112E+00  6.97731E+00  6.66264E+00  6.48772E+00  6.32190E+00  6.12600E+00  5.88821E+00  5.60887E+00  5.31731E+00
   5.05163E+00  4.82777E+00  4.64812E+00  4.52248E+00  4.45089E+00  4.41206E+00  4.38295E+00  4.36192E+00  4.36164E+00  4.39432E+00
   4.46230E+00  4.56869E+00  4.71438E+00  4.89272E+00  5.09095E+00  5.30092E+00  5.51940E+00  5.74736E+00  5.98720E+00  6.24025E+00
   6.50621E+00  6.78485E+00  7.06935E+00  7.34918E+00  7.61451E+00  7.85806E+00  8.07572E+00  8.26473E+00  8.42324E+00  8.55429E+00
   8.66263E+00  8.75355E+00  8.83479E+00  8.91592E+00  9.00796E+00  9.12308E+00  9.27500E+00  9.47832E+00  9.74918E+00  1.01060E+01
   1.05701E+01  1.11344E+01  1.18007E+01  1.25905E+01  1.34734E+01  1.43764E+01  1.52162E+01  1.59499E+01  1.66299E+01  1.73507E+01
   1.81798E+01  1.92093E+01  2.05058E+01  2.20676E+01  2.38183E+01  2.56312E+01  2.73854E+01  2.89497E+01  3.02336E+01  3.12580E+01
   3.20833E+01  3.27349E+01  3.32287E+01  3.35626E+01  3.37125E+01  3.36283E+01  3.31951E+01  3.23702E+01  3.12268E+01  2.98523E+01
   2.83580E+01  2.68739E+01  2.54843E+01  2.41922E+01  2.29271E+01  2.15983E+01  2.01550E+01  1.85352E+01  1.67383E+01  1.48545E+01
   1.29840E+01  1.11966E+01  9.52248E+00  7.98015E+00  6.62759E+00  5.46442E+00  4.46251E+00  3.60731E+00  2.88749E+00  2.29151E+00
   1.80754E+00  1.42345E+00  1.12760E+00  9.08857E-01  7.57206E-01  6.63504E-01  6.19893E-01  6.19519E-01  6.56875E-01  7.27403E-01
   8.27656E-01  9.54802E-01  1.10682E+00  1.28213E+00  1.47980E+00  1.69913E+00  1.93981E+00  2.20142E+00  2.48373E+00  2.78627E+00
   3.10860E+00  3.44982E+00  3.80871E+00  4.18328E+00  4.57105E+00  4.96866E+00  5.37213E+00  5.77645E+00  6.17588E+00  6.56371E+00
   6.93274E+00  7.27519E+00  7.58324E+00  7.84896E+00  8.06490E+00  8.22421E+00  8.32130E+00  8.35190E+00  8.31351E+00  8.20531E+00
   8.02852E+00  7.78617E+00  7.48330E+00  7.12649E+00  6.72375E+00  6.28390E+00  5.81649E+00  5.33115E+00  4.83749E+00  4.34446E+00
   3.86028E+00  3.39197E+00  2.94548E+00  2.52542E+00  2.13528E+00  1.77723E+00  1.45244E+00  1.16099E+00  9.02301E-01  6.75095E-01
   4.77775E-01  3.08280E-01  1.64449E-01  4.39169E-02 -5.55179E-02 -1.36070E-01 -1.99718E-01 -2.48447E-01 -2.83982E-01 -3.07983E-01
  -3.21792E-01 -3.26685E-01 -3.23702E-01 -3.13897E-01 -2.98101E-01 -2.77129E-01 -2.51554E-01 -2.21977E-01 -1.88843E-01 -1.52678E-01
  -1.13835E-01 -7.26969E-02 -2.94750E-02  1.55384E-02  6.21587E-02  1.10109E-01  1.59259E-01  2.09427E-01  2.60557E-01  3.12486E-01
   3.65133E-01  4.18329E-01  4.72048E-01  5.26195E-01  5.80776E-01  6.35676E-01  6.90858E-01  7.46214E-01  8.01767E-01  8.57464E-01
   9.13330E-01  9.69270E-01  1.02528E+00  1.08129E+00  1.13736E+00  1.19345E+00  1.24957E+00  1.30566E+00  1.36172E+00  1.41771E+00
   1.47371E+00  1.52968E+00  1.58564E+00  1.64153E+00  1.69740E+00  1.75322E+00  1.80907E+00  1.86493E+00  1.92083E+00  1.97671E+00
   2.03265E+00  2.08867E+00  2.14485E+00  2.20117E+00  2.25769E+00  2.31441E+00  2.37145E+00  2.42886E+00
 NY background values follow
     7.915E+00    7.898E+00    7.881E+00    7.863E+00    7.846E+00    7.828E+00    7.811E+00    7.793E+00    7.775E+00    7.757E+00
     7.738E+00    7.720E+00    7.701E+00    7.682E+00    7.663E+00    7.644E+00    7.625E+00    7.606E+00    7.587E+00    7.567E+00
     7.547E+00    7.528E+00    7.508E+00    7.488E+00    7.467E+00    7.447E+00    7.427E+00    7.406E+00    7.386E+00    7.365E+00
     7.344E+00    7.323E+00    7.302E+00    7.280E+00    7.259E+00    7.238E+00    7.216E+00    7.194E+00    7.172E+00    7.150E+00
     7.128E+00    7.106E+00    7.084E+00    7.062E+00    7.039E+00    7.017E+00    6.994E+00    6.971E+00    6.948E+00    6.925E+00
     6.902E+00    6.879E+00    6.856E+00    6.832E+00    6.808E+00    6.785E+00    6.761E+00    6.736E+00    6.712E+00    6.688E+00
     6.663E+00    6.638E+00    6.613E+00    6.588E+00    6.563E+00    6.537E+00    6.511E+00    6.485E+00    6.459E+00    6.432E+00
     6.406E+00    6.379E+00    6.351E+00    6.324E+00    6.296E+00    6.268E+00    6.240E+00    6.211E+00    6.182E+00    6.153E+00
     6.123E+00    6.094E+00    6.064E+00    6.033E+00    6.002E+00    5.971E+00    5.940E+00    5.908E+00    5.876E+00    5.843E+00
     5.811E+00    5.777E+00    5.744E+00    5.710E+00    5.676E+00    5.641E+00    5.606E+00    5.570E+00    5.535E+00    5.499E+00
     5.462E+00    5.425E+00    5.388E+00    5.351E+00    5.313E+00    5.275E+00    5.237E+00    5.198E+00    5.159E+00    5.120E+00
     5.081E+00    5.041E+00    5.001E+00    4.961E+00    4.920E+00    4.879E+00    4.838E+00    4.797E+00    4.755E+00    4.713E+00
     4.671E+00    4.629E+00    4.587E+00    4.544E+00    4.501E+00    4.458E+00    4.414E+00    4.371E+00    4.327E+00    4.283E+00
     4.239E+00    4.195E+00    4.150E+00    4.106E+00    4.061E+00    4.016E+00    3.971E+00    3.926E+00    3.880E+00    3.835E+00
     3.789E+00    3.744E+00    3.698E+00    3.653E+00    3.608E+00    3.562E+00    3.517E+00    3.472E+00    3.427E+00    3.382E+00
     3.338E+00    3.294E+00    3.250E+00    3.206E+00    3.163E+00    3.120E+00    3.077E+00    3.035E+00    2.993E+00    2.952E+00
     2.911E+00    2.871E+00    2.832E+00    2.793E+00    2.754E+00    2.716E+00    2.679E+00    2.643E+00    2.607E+00    2.572E+00
     2.538E+00    2.504E+00    2.472E+00    2.440E+00    2.409E+00    2.380E+00    2.351E+00    2.323E+00    2.296E+00    2.270E+00
     2.245E+00    2.222E+00    2.199E+00    2.177E+00    2.157E+00    2.138E+00    2.119E+00    2.102E+00    2.085E+00    2.070E+00
     2.055E+00    2.042E+00    2.029E+00    2.017E+00    2.006E+00    1.995E+00    1.985E+00    1.977E+00    1.968E+00    1.961E+00
     1.954E+00    1.948E+00    1.942E+00    1.937E+00    1.933E+00    1.929E+00    1.926E+00    1.923E+00    1.921E+00    1.919E+00
     1.917E+00    1.916E+00    1.915E+00    1.914E+00    1.914E+00    1.914E+00    1.915E+00    1.915E+00    1.916E+00    1.917E+00
     1.918E+00    1.919E+00    1.921E+00    1.922E+00    1.924E+00    1.925E+00    1.927E+00    1.928E+00    1.930E+00    1.931E+00
     1.932E+00    1.933E+00    1.935E+00    1.936E+00    1.937E+00    1.938E+00    1.939E+00    1.940E+00    1.940E+00    1.941E+00
     1.942E+00    1.942E+00    1.942E+00    1.942E+00    1.942E+00    1.942E+00    1.942E+00    1.941E+00    1.941E+00    1.940E+00
     1.939E+00    1.938E+00    1.937E+00    1.935E+00    1.934E+00    1.932E+00    1.930E+00    1.927E+00    1.925E+00    1.922E+00
     1.919E+00    1.916E+00    1.913E+00    1.909E+00    1.905E+00    1.901E+00    1.896E+00    1.891E+00    1.886E+00    1.881E+00
     1.875E+00    1.870E+00    1.863E+00    1.857E+00    1.850E+00    1.843E+00    1.836E+00    1.828E+00    1.820E+00    1.812E+00
     1.804E+00    1.795E+00    1.786E+00    1.777E+00    1.768E+00    1.758E+00    1.748E+00    1.738E+00    1.728E+00    1.718E+00
     1.707E+00    1.696E+00    1.686E+00    1.675E+00    1.663E+00    1.652E+00    1.640E+00    1.629E+00    1.617E+00    1.605E+00
     1.593E+00    1.581E+00    1.569E+00    1.556E+00    1.544E+00    1.531E+00    1.519E+00    1.506E+00    1.493E+00    1.480E+00
     1.467E+00    1.454E+00    1.441E+00    1.428E+00    1.415E+00    1.402E+00    1.389E+00    1.376E+00    1.363E+00    1.350E+00
     1.337E+00    1.324E+00    1.311E+00    1.298E+00    1.285E+00    1.273E+00    1.260E+00    1.248E+00    1.235E+00    1.223E+00
     1.211E+00    1.200E+00    1.188E+00    1.177E+00    1.165E+00    1.155E+00    1.144E+00    1.134E+00    1.124E+00    1.114E+00
     1.104E+00    1.095E+00    1.086E+00    1.078E+00    1.070E+00    1.062E+00    1.055E+00    1.048E+00    1.041E+00    1.035E+00
     1.030E+00    1.024E+00    1.020E+00    1.015E+00    1.012E+00    1.008E+00    1.006E+00    1.004E+00    1.002E+00    1.001E+00
     1.000E+00    1.000E+00    1.001E+00    1.002E+00    1.004E+00    1.007E+00    1.010E+00    1.013E+00    1.018E+00    1.023E+00
     1.028E+00    1.034E+00    1.041E+00    1.049E+00    1.057E+00    1.066E+00    1.075E+00    1.085E+00    1.096E+00    1.107E+00
     1.119E+00    1.132E+00    1.146E+00    1.160E+00    1.174E+00    1.190E+00    1.206E+00    1.223E+00    1.240E+00    1.259E+00
     1.278E+00    1.297E+00    1.318E+00    1.339E+00    1.360E+00    1.383E+00    1.406E+00    1.430E+00    1.454E+00    1.480E+00
     1.506E+00    1.533E+00    1.560E+00    1.588E+00    1.617E+00    1.647E+00    1.678E+00    1.709E+00    1.741E+00    1.773E+00
     1.807E+00    1.841E+00    1.875E+00    1.911E+00    1.947E+00    1.983E+00    2.020E+00    2.058E+00    2.096E+00    2.135E+00
     2.174E+00    2.213E+00    2.254E+00    2.294E+00    2.335E+00    2.376E+00    2.418E+00    2.460E+00    2.503E+00    2.545E+00
     2.589E+00    2.632E+00    2.675E+00    2.719E+00    2.763E+00    2.808E+00    2.852E+00    2.897E+00    2.942E+00    2.987E+00
     3.032E+00    3.077E+00    3.122E+00    3.167E+00    3.213E+00    3.258E+00    3.304E+00    3.349E+00    3.394E+00    3.440E+00
     3.485E+00    3.530E+00    3.575E+00    3.620E+00    3.665E+00    3.710E+00    3.755E+00    3.799E+00    3.843E+00    3.888E+00
     3.932E+00    3.976E+00    4.020E+00    4.063E+00    4.107E+00    4.150E+00    4.194E+00    4.237E+00    4.280E+00    4.322E+00
     4.365E+00    4.407E+00    4.449E+00    4.492E+00    4.533E+00    4.575E+00    4.616E+00    4.658E+00    4.699E+00    4.739E+00
     4.780E+00    4.820E+00    4.861E+00    4.901E+00    4.940E+00    4.980E+00    5.019E+00    5.058E+00    5.097E+00    5.135E+00
     5.174E+00    5.212E+00    5.250E+00    5.287E+00    5.324E+00    5.361E+00    5.398E+00    5.435E+00
 Ala      Conc. = 1.07E+02
