 LCModel (Version 6.3-1L) Copyright: S.W. Provencher.          Ref.: Magn. Reson. Med. 30:672-679 (1993).                
 Slice#3 Row#6 Col#8  K_02_press_1_raw_act
 36 lines in following concentration table = NCONC+1
    Conc.  %SD /Cr+PCr  Metabolite                                         
  270.356  49%   0.106 Ala                                                 
   59.355 511% 2.3E-02 Asp                                                 
 1.15E+03  22%   0.449 Cr                                                  
 1.41E+03  18%   0.551 PCr                                                 
    0.000 999%   0.000 GABA                                                
    0.000 999%   0.000 Glc                                                 
  695.765  38%   0.272 Gln                                                 
 2.13E+03  14%   0.833 Glu                                                 
  739.500   4%   0.289 GPC                                                 
    0.000 999%   0.000 PCh                                                 
  642.926  14%   0.251 GSH                                                 
 1.59E+03  19%   0.623 Ins                                                 
  480.883  30%   0.188 Lac                                                 
 2.77E+03   5%   1.081 NAA                                                 
  151.406  88% 5.9E-02 NAAG                                                
    0.000 999%   0.000 Scyllo                                              
    0.000 999%   0.000 Tau                                                 
    0.000 999%   0.000 -CrCH2                                              
  739.500   4%   0.289 GPC+PCh                                             
 2.92E+03   4%   1.140 NAA+NAAG                                            
 2.56E+03   3%   1.000 Cr+PCr                                              
 2.83E+03  14%   1.105 Glu+Gln                                             
 2.70E+03  25%   1.054 Lip13a                                              
    0.000 999%   0.000 Lip13b                                              
    0.000 999%   0.000 Lip09                                               
 1.80E+03  17%   0.702 MM09                                                
  397.903  62%   0.156 Lip20                                               
 3.28E+03  16%   1.284 MM20                                                
  560.404  33%   0.219 MM12                                                
 5.10E+03  12%   1.992+MM14                                                
 2.65E+03  16%   1.037+MM17                                                
 2.70E+03  25%   1.054 Lip13a+Lip13b                                       
 8.35E+03  10%   3.265 MM14+Lip13a+Lip13b+MM12                             
 1.80E+03  17%   0.702 MM09+Lip09                                          
 3.68E+03  15%   1.439 MM20+Lip20                                          
   6 lines in following misc. output table
  FWHM = 0.046 ppm    S/N =  12                                            
  Data shift = 0.015 ppm                                                   
  Ph:  -9 deg      -4.6 deg/ppm                                            
  alphaB,S = 7.0E-01,   9.2E+01                                            
   14 spline knots.   Ns = 6(1)                                            
  (11) 2 infls.   ( 5) 1 extrs.                                            
  498 points on ppm-axis = NY
      4.000000     3.992357     3.984714     3.977070     3.969427     3.961784     3.954141     3.946497     3.938854     3.931211
      3.923568     3.915925     3.908281     3.900638     3.892995     3.885352     3.877708     3.870065     3.862422     3.854779
      3.847136     3.839492     3.831849     3.824206     3.816563     3.808919     3.801276     3.793633     3.785990     3.778347
      3.770703     3.763060     3.755417     3.747774     3.740130     3.732487     3.724844     3.717201     3.709558     3.701914
      3.694271     3.686628     3.678985     3.671341     3.663698     3.656055     3.648412     3.640769     3.633125     3.625482
      3.617839     3.610196     3.602552     3.594909     3.587266     3.579623     3.571980     3.564336     3.556693     3.549050
      3.541407     3.533763     3.526120     3.518477     3.510834     3.503191     3.495547     3.487904     3.480261     3.472618
      3.464974     3.457331     3.449688     3.442045     3.434402     3.426758     3.419115     3.411472     3.403829     3.396185
      3.388542     3.380899     3.373256     3.365613     3.357969     3.350326     3.342683     3.335040     3.327396     3.319753
      3.312110     3.304467     3.296824     3.289180     3.281537     3.273894     3.266251     3.258607     3.250964     3.243321
      3.235678     3.228034     3.220391     3.212748     3.205105     3.197462     3.189818     3.182175     3.174532     3.166889
      3.159245     3.151602     3.143959     3.136316     3.128673     3.121029     3.113386     3.105743     3.098100     3.090456
      3.082813     3.075170     3.067527     3.059884     3.052240     3.044597     3.036954     3.029311     3.021667     3.014024
      3.006381     2.998738     2.991095     2.983451     2.975808     2.968165     2.960522     2.952878     2.945235     2.937592
      2.929949     2.922306     2.914662     2.907019     2.899376     2.891733     2.884089     2.876446     2.868803     2.861160
      2.853517     2.845873     2.838230     2.830587     2.822944     2.815300     2.807657     2.800014     2.792371     2.784728
      2.777084     2.769441     2.761798     2.754155     2.746511     2.738868     2.731225     2.723582     2.715939     2.708295
      2.700652     2.693009     2.685366     2.677722     2.670079     2.662436     2.654793     2.647150     2.639506     2.631863
      2.624220     2.616577     2.608933     2.601290     2.593647     2.586004     2.578361     2.570717     2.563074     2.555431
      2.547788     2.540144     2.532501     2.524858     2.517215     2.509572     2.501928     2.494285     2.486642     2.478999
      2.471355     2.463712     2.456069     2.448426     2.440783     2.433139     2.425496     2.417853     2.410210     2.402566
      2.394923     2.387280     2.379637     2.371994     2.364350     2.356707     2.349064     2.341421     2.333777     2.326134
      2.318491     2.310848     2.303205     2.295561     2.287918     2.280275     2.272632     2.264988     2.257345     2.249702
      2.242059     2.234416     2.226772     2.219129     2.211486     2.203843     2.196199     2.188556     2.180913     2.173270
      2.165627     2.157983     2.150340     2.142697     2.135054     2.127410     2.119767     2.112124     2.104481     2.096838
      2.089194     2.081551     2.073908     2.066265     2.058621     2.050978     2.043335     2.035692     2.028049     2.020405
      2.012762     2.005119     1.997476     1.989833     1.982190     1.974546     1.966903     1.959260     1.951617     1.943974
      1.936331     1.928688     1.921045     1.913402     1.905759     1.898115     1.890472     1.882829     1.875186     1.867543
      1.859900     1.852257     1.844614     1.836971     1.829327     1.821684     1.814041     1.806398     1.798755     1.791112
      1.783469     1.775826     1.768183     1.760540     1.752896     1.745253     1.737610     1.729967     1.722324     1.714681
      1.707038     1.699395     1.691752     1.684108     1.676465     1.668822     1.661179     1.653536     1.645893     1.638250
      1.630607     1.622964     1.615321     1.607677     1.600034     1.592391     1.584748     1.577105     1.569462     1.561819
      1.554176     1.546533     1.538890     1.531246     1.523603     1.515960     1.508317     1.500674     1.493031     1.485388
      1.477745     1.470102     1.462458     1.454815     1.447172     1.439529     1.431886     1.424243     1.416600     1.408957
      1.401314     1.393671     1.386027     1.378384     1.370741     1.363098     1.355455     1.347812     1.340169     1.332526
      1.324883     1.317240     1.309596     1.301953     1.294310     1.286667     1.279024     1.271381     1.263738     1.256095
      1.248452     1.240808     1.233165     1.225522     1.217879     1.210236     1.202593     1.194950     1.187307     1.179664
      1.172021     1.164377     1.156734     1.149091     1.141448     1.133805     1.126162     1.118519     1.110876     1.103233
      1.095590     1.087946     1.080303     1.072660     1.065017     1.057374     1.049731     1.042088     1.034445     1.026802
      1.019158     1.011515     1.003872     0.996229     0.988586     0.980943     0.973300     0.965657     0.958014     0.950371
      0.942727     0.935084     0.927441     0.919798     0.912155     0.904512     0.896869     0.889226     0.881583     0.873940
      0.866296     0.858653     0.851010     0.843367     0.835724     0.828081     0.820438     0.812795     0.805152     0.797508
      0.789865     0.782222     0.774579     0.766936     0.759293     0.751650     0.744007     0.736364     0.728721     0.721077
      0.713434     0.705791     0.698148     0.690505     0.682862     0.675219     0.667576     0.659933     0.652290     0.644646
      0.637003     0.629360     0.621717     0.614074     0.606431     0.598788     0.591145     0.583502     0.575858     0.568215
      0.560572     0.552929     0.545286     0.537643     0.530000     0.522357     0.514714     0.507071     0.499427     0.491784
      0.484141     0.476498     0.468855     0.461212     0.453569     0.445925     0.438282     0.430639     0.422996     0.415353
      0.407710     0.400067     0.392424     0.384780     0.377137     0.369494     0.361851     0.354208     0.346565     0.338922
      0.331278     0.323635     0.315992     0.308349     0.300706     0.293063     0.285420     0.277777     0.270133     0.262490
      0.254847     0.247204     0.239561     0.231918     0.224275     0.216631     0.208988     0.201345
 NY phased data points follow
   3.55642E+01  3.38250E+01  3.59042E+01  3.64479E+01  4.23477E+01  4.97173E+01  6.06763E+01  7.62042E+01  7.33651E+01  9.38196E+01
   1.01552E+02  9.09375E+01  9.82788E+01  7.83010E+01  7.39799E+01  6.85593E+01  4.35774E+01  3.88911E+01  3.95902E+01  3.81613E+01
   3.02138E+01  3.49052E+01  3.06425E+01  3.02584E+01  3.64763E+01  3.63839E+01  4.35970E+01  3.68170E+01  4.11582E+01  4.77265E+01
   4.65940E+01  4.62362E+01  4.97394E+01  4.47425E+01  4.24004E+01  3.66390E+01  3.43061E+01  3.16371E+01  3.04623E+01  3.37154E+01
   3.88488E+01  3.32744E+01  3.00588E+01  3.30990E+01  3.57903E+01  4.40471E+01  4.23398E+01  5.10449E+01  4.68150E+01  4.28042E+01
   3.71671E+01  2.91608E+01  2.93323E+01  3.23626E+01  3.16438E+01  2.54704E+01  2.93726E+01  3.09476E+01  3.16148E+01  3.32831E+01
   2.55705E+01  2.96858E+01  1.83854E+01  1.35763E+01  1.39524E+01  1.01932E+01  1.42700E+01  1.11199E+01  1.61928E+01  1.34045E+01
   1.41769E+01  1.51228E+01  1.46343E+01  1.53286E+01  1.36844E+01  1.30514E+01  1.52320E+01  1.53313E+01  1.00261E+01  1.04422E+01
   1.66299E+01  8.81730E+00  1.30904E+01  1.15935E+01  8.73976E+00  1.18620E+01  1.20664E+01  6.65013E+00  1.32985E+01  1.48828E+01
   1.64050E+01  1.46306E+01  1.58740E+01  1.47628E+01  1.73629E+01  2.11315E+01  1.59149E+01  1.80502E+01  2.55025E+01  3.34962E+01
   5.57208E+01  7.21974E+01  9.09825E+01  9.42203E+01  8.09281E+01  6.71297E+01  5.41495E+01  4.09563E+01  3.34806E+01  1.99113E+01
   1.79855E+01  1.62353E+01  1.33197E+01  1.10874E+01  1.90281E+01  1.29347E+01  1.19590E+01  1.60524E+01  1.03708E+01  1.65646E+01
   1.69571E+01  1.68981E+01  2.29122E+01  3.29543E+01  5.23786E+01  7.69304E+01  9.87726E+01  1.07957E+02  1.03685E+02  8.53082E+01
   6.62856E+01  4.55614E+01  3.80867E+01  2.97724E+01  2.59032E+01  2.05324E+01  2.42302E+01  1.63532E+01  1.90077E+01  1.39390E+01
   2.20505E+01  5.90156E+00  9.68949E+00  1.59347E+01  9.98376E+00  8.48923E+00  8.26555E+00  5.03471E+00  1.86874E+01  1.26438E+01
   1.18865E+01  1.07013E+01  9.50529E+00  8.00909E+00  1.21947E+01  6.08958E+00  8.14173E+00  7.77994E+00  1.27796E+01  2.64011E+00
   1.48233E+00  3.52036E+00  3.76644E+00  3.45938E+00  6.94081E+00  4.72229E+00  9.35862E+00  8.92396E+00  8.12700E+00  6.50361E+00
   8.56674E+00  1.78549E+00 -3.52170E+00 -3.37764E+00 -6.11457E+00 -6.98592E+00 -7.89872E+00 -2.00719E+00 -8.12611E+00 -6.39342E+00
  -7.86795E+00 -1.17944E+01 -3.83740E+00 -6.78477E+00 -4.11892E+00 -7.83800E-01 -1.77254E+00 -1.11435E+00  6.64035E+00  5.01186E+00
   9.94380E+00  1.56391E+01  1.91780E+01  1.91809E+01  1.58140E+01  1.27249E+01  1.43741E+01  8.57867E+00  1.32514E+01  1.40067E+00
   7.24498E+00  1.13976E+01  1.50487E+01  1.67192E+01  1.27895E+01  1.09231E+01  7.91104E+00  5.33251E+00  1.29919E-01  3.01802E+00
   5.21450E+00  1.18852E+00  8.29925E+00  1.30989E+01  2.03217E+01  3.06750E+01  2.42725E+01  2.73129E+01  1.76512E+01  1.66098E+01
   1.66962E+00 -2.39488E+00  1.31663E+00  6.86316E+00  1.64885E+01  1.98351E+01  2.00777E+01  1.91652E+01  1.97006E+01  2.33438E+01
   1.37938E+01  1.49830E+01  1.59581E+01  1.70458E+01  1.54691E+01  1.96429E+01  2.00617E+01  2.13072E+01  1.67853E+01  1.56340E+01
   1.38525E+01  1.30031E+01  1.70054E+01  1.34179E+01  2.64372E+01  2.20852E+01  2.95072E+01  2.77293E+01  2.04540E+01  2.94360E+01
   2.69661E+01  2.73407E+01  3.53689E+01  4.03830E+01  4.37337E+01  4.51544E+01  5.27092E+01  6.94333E+01  1.03313E+02  1.29678E+02
   1.42981E+02  1.21851E+02  1.04754E+02  7.49640E+01  5.57635E+01  4.80956E+01  3.20235E+01  3.15851E+01  2.17867E+01  2.39792E+01
   2.29713E+01  2.57285E+01  1.95546E+01  2.50173E+01  2.17141E+01  1.80081E+01  2.10213E+01  2.14041E+01  1.94481E+01  1.90531E+01
   1.83533E+01  2.04115E+01  1.47829E+01  2.20107E+01  1.80527E+01  2.61751E+01  1.84980E+01  2.06204E+01  1.61412E+01  2.23344E+01
   1.82484E+01  2.04617E+01  2.11580E+01  2.02557E+01  2.16603E+01  2.73203E+01  2.57069E+01  2.66813E+01  2.69093E+01  3.10741E+01
   3.13719E+01  3.22204E+01  2.91974E+01  3.38738E+01  3.48879E+01  3.03173E+01  3.24896E+01  3.38102E+01  3.46123E+01  4.45283E+01
   3.91340E+01  4.10320E+01  4.28304E+01  3.96586E+01  4.12914E+01  5.04182E+01  4.82059E+01  4.39414E+01  4.07466E+01  4.61008E+01
   5.17792E+01  4.19546E+01  4.75893E+01  5.61770E+01  5.25602E+01  4.16803E+01  5.03992E+01  5.35118E+01  4.76118E+01  4.76097E+01
   4.71542E+01  4.32503E+01  4.05941E+01  4.79969E+01  3.35397E+01  3.71319E+01  4.03441E+01  4.14026E+01  3.72345E+01  3.70455E+01
   4.10328E+01  4.26338E+01  4.43881E+01  3.80850E+01  4.07013E+01  3.88765E+01  2.97715E+01  2.82250E+01  2.77730E+01  1.98551E+01
   1.58029E+01  2.31127E+01  2.25843E+01  2.83539E+01  2.26949E+01  2.63169E+01  2.63217E+01  2.51922E+01  2.48439E+01  1.91469E+01
   2.01718E+01  2.14699E+01  2.22522E+01  1.98514E+01  1.58337E+01  1.94970E+01  2.28535E+01  1.94475E+01  1.93353E+01  2.04361E+01
   2.27154E+01  1.43888E+01  1.88089E+01  2.42009E+01  1.85948E+01  1.96685E+01  1.24169E+01  1.40062E+01  1.29039E+01  1.54960E+01
   1.76290E+01  2.33869E+01  1.73234E+01  9.58735E+00  7.99442E+00  1.42761E+01  1.60881E+01  9.54111E+00  1.57849E+01  1.29266E+01
   1.78145E+01  1.51440E+01  7.96979E+00  1.50878E+01  1.65726E+01  1.36341E+01  1.93064E+01  1.78911E+01  8.99988E+00  1.95968E+01
   1.32083E+01  1.42981E+01  1.35397E+01  1.54061E+01  9.02865E+00  1.68491E+01  1.45232E+01  1.67665E+01  1.72602E+01  1.54153E+01
   1.19509E+01  1.70073E+01  5.84490E+00  1.50125E+01  9.79251E+00  8.69939E+00  1.00249E+01  2.98371E+00  1.19518E+01  5.38853E+00
   6.00182E+00  1.07396E+01  7.82848E+00  1.12251E+01  6.47168E+00  4.09505E+00  3.10991E+00  2.99694E+00  2.05242E+00  5.88655E+00
   4.97014E+00  1.87638E+00  3.61974E+00 -2.25441E+00  4.06064E+00  6.76016E+00  4.29741E+00  4.83695E+00  2.72178E+00  4.20216E+00
   3.90031E+00 -7.03163E-01  7.24997E+00  8.22079E+00  2.33262E+00  4.36177E+00  8.52344E+00 -2.53409E+00 -9.37026E-01  1.62659E+00
   2.05703E+00  3.88748E+00  7.28375E+00  4.31949E+00  4.09234E+00 -3.20158E+00  8.37292E+00  3.26226E+00  4.99993E+00 -2.12785E+00
   1.01028E+01 -2.07518E+00  2.07681E+00  6.56580E+00  1.08004E+00  3.80345E+00  7.47324E-01  4.70321E+00  8.01244E+00  1.61728E+00
   3.28094E+00 -3.31235E+00  6.59668E+00  6.13785E-01  2.95497E-01  5.69374E-01 -2.52705E+00  3.15831E+00  4.20729E+00  1.02750E+00
   7.09290E+00  4.77885E+00  6.44807E+00  2.00364E+00  3.08119E+00  7.91739E-01  7.49298E+00  5.70335E-01  2.88683E+00 -5.04018E+00
   1.61035E+00 -2.22242E+00  1.94300E+00  4.44837E+00  2.86448E+00 -1.37453E-02  1.18824E+00 -7.01693E-01
 NY points of the fit to the data follow
   3.57146E+01  3.52701E+01  3.53561E+01  3.65773E+01  3.95424E+01  4.48664E+01  5.38988E+01  6.59764E+01  7.88582E+01  8.94636E+01
   9.47879E+01  9.35184E+01  8.65555E+01  7.65565E+01  6.63978E+01  5.75681E+01  5.03907E+01  4.51280E+01  4.14352E+01  3.86998E+01
   3.73000E+01  3.65090E+01  3.57085E+01  3.48778E+01  3.42091E+01  3.36791E+01  3.40570E+01  3.63272E+01  4.03849E+01  4.48918E+01
   4.81851E+01  4.93722E+01  4.83060E+01  4.54590E+01  4.17207E+01  3.77123E+01  3.38746E+01  3.09318E+01  2.94732E+01  2.90291E+01
   2.92434E+01  3.00232E+01  3.13081E+01  3.31986E+01  3.58723E+01  3.90060E+01  4.13862E+01  4.17855E+01  3.99929E+01  3.66388E+01
   3.28644E+01  2.96641E+01  2.73393E+01  2.57300E+01  2.47270E+01  2.44509E+01  2.48984E+01  2.57750E+01  2.67298E+01  2.72954E+01
   2.70668E+01  2.59663E+01  2.42714E+01  2.25265E+01  2.12058E+01  2.05016E+01  2.03528E+01  2.05939E+01  2.10609E+01  2.16137E+01
   2.20904E+01  2.22799E+01  2.20748E+01  2.15250E+01  2.07950E+01  2.00799E+01  1.94776E+01  1.89962E+01  1.85607E+01  1.81490E+01
   1.77635E+01  1.73098E+01  1.66971E+01  1.58030E+01  1.45451E+01  1.29970E+01  1.14602E+01  1.03531E+01  9.96257E+00  1.02925E+01
   1.11515E+01  1.22272E+01  1.32619E+01  1.41133E+01  1.46614E+01  1.48893E+01  1.54678E+01  1.84153E+01  2.47347E+01  3.63655E+01
   5.45983E+01  7.53781E+01  9.06056E+01  9.38002E+01  8.47950E+01  6.89585E+01  5.26040E+01  3.96233E+01  3.04327E+01  2.32963E+01
   1.74106E+01  1.44007E+01  1.34497E+01  1.30243E+01  1.27739E+01  1.26084E+01  1.24914E+01  1.24148E+01  1.24321E+01  1.26924E+01
   1.36746E+01  1.70983E+01  2.43831E+01  3.66377E+01  5.60393E+01  8.03277E+01  1.01329E+02  1.10341E+02  1.04441E+02  8.81216E+01
   6.89954E+01  5.26026E+01  4.03209E+01  3.03629E+01  2.11260E+01  1.43215E+01  1.13018E+01  1.03969E+01  1.08040E+01  1.18893E+01
   1.29755E+01  1.36598E+01  1.38271E+01  1.35125E+01  1.29277E+01  1.22822E+01  1.16533E+01  1.10725E+01  1.05200E+01  9.99330E+00
   9.53380E+00  9.11350E+00  8.75461E+00  8.51459E+00  8.41519E+00  8.36099E+00  8.24975E+00  7.93205E+00  7.26362E+00  6.39684E+00
   5.68411E+00  5.52562E+00  6.02349E+00  6.76372E+00  7.16970E+00  6.92160E+00  6.14804E+00  5.26402E+00  4.58408E+00  4.09307E+00
   3.65110E+00  3.12390E+00  2.46864E+00  1.71962E+00  1.02865E+00  6.83609E-01  9.07316E-01  1.49999E+00  1.94436E+00  1.95156E+00
   1.69768E+00  1.49206E+00  1.52092E+00  1.67943E+00  1.76088E+00  2.00536E+00  3.03632E+00  5.08687E+00  7.79870E+00  1.03449E+01
   1.19729E+01  1.24049E+01  1.17601E+01  1.05181E+01  9.11557E+00  7.80091E+00  6.92737E+00  6.87439E+00  7.78752E+00  9.51618E+00
   1.17524E+01  1.40661E+01  1.59877E+01  1.70351E+01  1.66897E+01  1.49259E+01  1.19190E+01  8.21933E+00  4.86375E+00  2.87848E+00
   2.97207E+00  5.13495E+00  9.17128E+00  1.44736E+01  1.95429E+01  2.24958E+01  2.21874E+01  1.87944E+01  1.33381E+01  7.30196E+00
   2.14156E+00 -7.99349E-01 -6.26235E-01  2.52078E+00  7.60625E+00  1.27596E+01  1.66233E+01  1.88506E+01  1.96328E+01  1.94204E+01
   1.86545E+01  1.79833E+01  1.79966E+01  1.87703E+01  1.99997E+01  2.13564E+01  2.23523E+01  2.25055E+01  2.17977E+01  2.04128E+01
   1.87659E+01  1.75801E+01  1.75307E+01  1.87273E+01  2.06663E+01  2.27648E+01  2.44819E+01  2.54644E+01  2.57795E+01  2.59562E+01
   2.66065E+01  2.78962E+01  3.00008E+01  3.31291E+01  3.84685E+01  4.69527E+01  5.93217E+01  7.89128E+01  1.04242E+02  1.26281E+02
   1.34772E+02  1.26046E+02  1.05195E+02  8.12130E+01  6.10253E+01  4.67396E+01  3.63409E+01  2.75074E+01  2.15197E+01  1.94988E+01
   1.87008E+01  1.83446E+01  1.83272E+01  1.84526E+01  1.85048E+01  1.84260E+01  1.82163E+01  1.79236E+01  1.76113E+01  1.73304E+01
   1.71078E+01  1.69774E+01  1.69550E+01  1.70157E+01  1.71252E+01  1.72671E+01  1.74510E+01  1.76955E+01  1.80115E+01  1.84059E+01
   1.88938E+01  1.94812E+01  2.01631E+01  2.09296E+01  2.17752E+01  2.26962E+01  2.36876E+01  2.47456E+01  2.58644E+01  2.70332E+01
   2.82383E+01  2.94606E+01  3.06785E+01  3.18700E+01  3.30163E+01  3.41033E+01  3.51214E+01  3.60650E+01  3.69345E+01  3.77337E+01
   3.84696E+01  3.91539E+01  3.98012E+01  4.04277E+01  4.10501E+01  4.16833E+01  4.23395E+01  4.30280E+01  4.37556E+01  4.45280E+01
   4.53551E+01  4.62669E+01  4.72713E+01  4.82748E+01  4.92293E+01  4.98922E+01  4.98397E+01  4.88307E+01  4.70333E+01  4.49474E+01
   4.31244E+01  4.17754E+01  4.09923E+01  4.08550E+01  4.12569E+01  4.18707E+01  4.22204E+01  4.18582E+01  4.08397E+01  3.95174E+01
   3.82956E+01  3.74164E+01  3.67462E+01  3.62318E+01  3.56709E+01  3.43330E+01  3.16741E+01  2.79161E+01  2.39932E+01  2.09436E+01
   1.92056E+01  1.90163E+01  2.03649E+01  2.27502E+01  2.53656E+01  2.73886E+01  2.81497E+01  2.77930E+01  2.68677E+01  2.58369E+01
   2.48543E+01  2.38167E+01  2.27409E+01  2.18732E+01  2.11493E+01  2.04879E+01  1.98613E+01  1.92598E+01  1.86808E+01  1.81252E+01
   1.75951E+01  1.70931E+01  1.66219E+01  1.61849E+01  1.57855E+01  1.54269E+01  1.51115E+01  1.48411E+01  1.46172E+01  1.44414E+01
   1.43151E+01  1.42389E+01  1.42126E+01  1.42355E+01  1.43062E+01  1.44234E+01  1.45846E+01  1.47864E+01  1.50239E+01  1.52916E+01
   1.55829E+01  1.58907E+01  1.62067E+01  1.65214E+01  1.68245E+01  1.71057E+01  1.73549E+01  1.75622E+01  1.77185E+01  1.78150E+01
   1.78446E+01  1.78023E+01  1.76850E+01  1.74919E+01  1.72238E+01  1.68837E+01  1.64766E+01  1.60093E+01  1.54905E+01  1.49293E+01
   1.43355E+01  1.37188E+01  1.30891E+01  1.24559E+01  1.18281E+01  1.12132E+01  1.06173E+01  1.00454E+01  9.50156E+00  8.98875E+00
   8.50875E+00  8.06204E+00  7.64824E+00  7.26646E+00  6.91557E+00  6.59407E+00  6.29998E+00  6.03096E+00  5.78465E+00  5.55901E+00
   5.35224E+00  5.16255E+00  4.98802E+00  4.82676E+00  4.67719E+00  4.53813E+00  4.40864E+00  4.28770E+00  4.17417E+00  4.06705E+00
   3.96564E+00  3.86954E+00  3.77838E+00  3.69159E+00  3.60851E+00  3.52866E+00  3.45182E+00  3.37796E+00  3.30687E+00  3.23817E+00
   3.17143E+00  3.10648E+00  3.04336E+00  2.98212E+00  2.92258E+00  2.86442E+00  2.80738E+00  2.75146E+00  2.69678E+00  2.64338E+00
   2.59103E+00  2.53948E+00  2.48860E+00  2.43853E+00  2.38940E+00  2.34117E+00  2.29358E+00  2.24644E+00  2.19977E+00  2.15375E+00
   2.10847E+00  2.06380E+00  2.01951E+00  1.97549E+00  1.93188E+00  1.88884E+00  1.84639E+00  1.80433E+00  1.76246E+00  1.72079E+00
   1.67951E+00  1.63876E+00  1.59845E+00  1.55838E+00  1.51842E+00  1.47869E+00  1.43940E+00  1.40059E+00  1.36213E+00  1.32381E+00
   1.28565E+00  1.24783E+00  1.21053E+00  1.17372E+00  1.13724E+00  1.10097E+00  1.06504E+00  1.02970E+00
 NY background values follow
     3.383E+01    3.358E+01    3.333E+01    3.308E+01    3.283E+01    3.258E+01    3.233E+01    3.208E+01    3.183E+01    3.158E+01
     3.134E+01    3.109E+01    3.084E+01    3.059E+01    3.034E+01    3.009E+01    2.984E+01    2.959E+01    2.934E+01    2.909E+01
     2.884E+01    2.859E+01    2.835E+01    2.810E+01    2.785E+01    2.760E+01    2.736E+01    2.711E+01    2.686E+01    2.662E+01
     2.637E+01    2.613E+01    2.588E+01    2.564E+01    2.540E+01    2.515E+01    2.491E+01    2.467E+01    2.443E+01    2.419E+01
     2.395E+01    2.371E+01    2.347E+01    2.323E+01    2.300E+01    2.276E+01    2.253E+01    2.229E+01    2.206E+01    2.183E+01
     2.160E+01    2.137E+01    2.114E+01    2.091E+01    2.068E+01    2.045E+01    2.023E+01    2.000E+01    1.978E+01    1.956E+01
     1.934E+01    1.912E+01    1.890E+01    1.868E+01    1.847E+01    1.825E+01    1.804E+01    1.783E+01    1.762E+01    1.741E+01
     1.721E+01    1.700E+01    1.680E+01    1.659E+01    1.639E+01    1.620E+01    1.600E+01    1.580E+01    1.561E+01    1.542E+01
     1.523E+01    1.504E+01    1.485E+01    1.467E+01    1.449E+01    1.430E+01    1.413E+01    1.395E+01    1.377E+01    1.360E+01
     1.343E+01    1.326E+01    1.310E+01    1.293E+01    1.277E+01    1.261E+01    1.245E+01    1.230E+01    1.214E+01    1.199E+01
     1.184E+01    1.169E+01    1.155E+01    1.140E+01    1.126E+01    1.112E+01    1.099E+01    1.085E+01    1.072E+01    1.059E+01
     1.046E+01    1.033E+01    1.020E+01    1.008E+01    9.960E+00    9.841E+00    9.723E+00    9.608E+00    9.494E+00    9.383E+00
     9.273E+00    9.165E+00    9.059E+00    8.955E+00    8.853E+00    8.753E+00    8.655E+00    8.558E+00    8.464E+00    8.371E+00
     8.280E+00    8.191E+00    8.104E+00    8.019E+00    7.936E+00    7.854E+00    7.774E+00    7.696E+00    7.620E+00    7.546E+00
     7.473E+00    7.402E+00    7.333E+00    7.266E+00    7.201E+00    7.138E+00    7.077E+00    7.017E+00    6.959E+00    6.903E+00
     6.849E+00    6.797E+00    6.747E+00    6.699E+00    6.652E+00    6.608E+00    6.565E+00    6.524E+00    6.486E+00    6.449E+00
     6.414E+00    6.381E+00    6.350E+00    6.320E+00    6.293E+00    6.268E+00    6.244E+00    6.223E+00    6.204E+00    6.186E+00
     6.171E+00    6.157E+00    6.146E+00    6.136E+00    6.129E+00    6.123E+00    6.119E+00    6.118E+00    6.118E+00    6.121E+00
     6.125E+00    6.132E+00    6.140E+00    6.151E+00    6.163E+00    6.177E+00    6.193E+00    6.211E+00    6.231E+00    6.253E+00
     6.276E+00    6.301E+00    6.327E+00    6.356E+00    6.385E+00    6.417E+00    6.449E+00    6.484E+00    6.519E+00    6.556E+00
     6.595E+00    6.634E+00    6.675E+00    6.717E+00    6.761E+00    6.805E+00    6.851E+00    6.897E+00    6.945E+00    6.994E+00
     7.044E+00    7.094E+00    7.146E+00    7.198E+00    7.251E+00    7.305E+00    7.360E+00    7.416E+00    7.472E+00    7.528E+00
     7.586E+00    7.644E+00    7.702E+00    7.761E+00    7.820E+00    7.880E+00    7.940E+00    8.001E+00    8.061E+00    8.122E+00
     8.184E+00    8.245E+00    8.307E+00    8.369E+00    8.431E+00    8.493E+00    8.555E+00    8.617E+00    8.679E+00    8.741E+00
     8.803E+00    8.865E+00    8.926E+00    8.988E+00    9.049E+00    9.110E+00    9.171E+00    9.232E+00    9.292E+00    9.352E+00
     9.411E+00    9.470E+00    9.528E+00    9.587E+00    9.644E+00    9.701E+00    9.757E+00    9.813E+00    9.868E+00    9.923E+00
     9.977E+00    1.003E+01    1.008E+01    1.013E+01    1.018E+01    1.023E+01    1.028E+01    1.033E+01    1.038E+01    1.042E+01
     1.047E+01    1.051E+01    1.055E+01    1.060E+01    1.064E+01    1.068E+01    1.071E+01    1.075E+01    1.079E+01    1.082E+01
     1.086E+01    1.089E+01    1.092E+01    1.095E+01    1.098E+01    1.101E+01    1.103E+01    1.106E+01    1.108E+01    1.111E+01
     1.113E+01    1.115E+01    1.117E+01    1.118E+01    1.120E+01    1.122E+01    1.123E+01    1.124E+01    1.125E+01    1.126E+01
     1.127E+01    1.128E+01    1.128E+01    1.129E+01    1.129E+01    1.129E+01    1.129E+01    1.129E+01    1.129E+01    1.129E+01
     1.128E+01    1.127E+01    1.126E+01    1.126E+01    1.124E+01    1.123E+01    1.122E+01    1.120E+01    1.118E+01    1.116E+01
     1.114E+01    1.112E+01    1.110E+01    1.108E+01    1.105E+01    1.102E+01    1.099E+01    1.096E+01    1.093E+01    1.090E+01
     1.087E+01    1.083E+01    1.080E+01    1.076E+01    1.072E+01    1.068E+01    1.064E+01    1.060E+01    1.056E+01    1.051E+01
     1.047E+01    1.042E+01    1.038E+01    1.033E+01    1.028E+01    1.023E+01    1.018E+01    1.013E+01    1.008E+01    1.002E+01
     9.971E+00    9.917E+00    9.862E+00    9.806E+00    9.749E+00    9.692E+00    9.634E+00    9.575E+00    9.515E+00    9.456E+00
     9.395E+00    9.334E+00    9.272E+00    9.210E+00    9.147E+00    9.084E+00    9.020E+00    8.956E+00    8.892E+00    8.827E+00
     8.762E+00    8.696E+00    8.630E+00    8.564E+00    8.498E+00    8.431E+00    8.364E+00    8.297E+00    8.230E+00    8.162E+00
     8.095E+00    8.027E+00    7.959E+00    7.892E+00    7.824E+00    7.756E+00    7.688E+00    7.620E+00    7.553E+00    7.485E+00
     7.417E+00    7.350E+00    7.283E+00    7.216E+00    7.149E+00    7.082E+00    7.016E+00    6.950E+00    6.884E+00    6.818E+00
     6.753E+00    6.688E+00    6.624E+00    6.560E+00    6.496E+00    6.433E+00    6.371E+00    6.309E+00    6.247E+00    6.186E+00
     6.125E+00    6.065E+00    6.006E+00    5.946E+00    5.888E+00    5.830E+00    5.772E+00    5.715E+00    5.658E+00    5.602E+00
     5.546E+00    5.490E+00    5.435E+00    5.381E+00    5.326E+00    5.273E+00    5.219E+00    5.166E+00    5.114E+00    5.061E+00
     5.010E+00    4.958E+00    4.907E+00    4.856E+00    4.806E+00    4.756E+00    4.706E+00    4.657E+00    4.608E+00    4.559E+00
     4.511E+00    4.463E+00    4.415E+00    4.368E+00    4.321E+00    4.274E+00    4.227E+00    4.181E+00    4.135E+00    4.089E+00
     4.043E+00    3.998E+00    3.953E+00    3.908E+00    3.864E+00    3.819E+00    3.775E+00    3.731E+00    3.687E+00    3.644E+00
     3.601E+00    3.557E+00    3.514E+00    3.472E+00    3.429E+00    3.386E+00    3.344E+00    3.302E+00    3.260E+00    3.218E+00
     3.176E+00    3.134E+00    3.092E+00    3.051E+00    3.009E+00    2.968E+00    2.927E+00    2.886E+00    2.844E+00    2.803E+00
     2.762E+00    2.721E+00    2.680E+00    2.639E+00    2.599E+00    2.558E+00    2.517E+00    2.476E+00    2.435E+00    2.394E+00
     2.353E+00    2.312E+00    2.271E+00    2.230E+00    2.189E+00    2.148E+00    2.107E+00    2.066E+00
 Ala      Conc. = 2.70E+02
