 LCModel (Version 6.3-1L) Copyright: S.W. Provencher.          Ref.: Magn. Reson. Med. 30:672-679 (1993).                
 Slice#2 Row#4 Col#11  K_02_press_1_raw_act
 36 lines in following concentration table = NCONC+1
    Conc.  %SD /Cr+PCr  Metabolite                                         
  654.497  41%   0.389 Ala                                                 
    0.000 999%   0.000 Asp                                                 
 1.68E+03   6%   1.000 Cr                                                  
    0.000 999%   0.000 PCr                                                 
    0.000 999%   0.000 GABA                                                
    0.000 999%   0.000 Glc                                                 
    0.000 999%   0.000 Gln                                                 
  833.238  79%   0.496 Glu                                                 
  530.785   7%   0.316 GPC                                                 
    0.000 999%   0.000 PCh                                                 
  631.014  23%   0.375 GSH                                                 
 2.75E+03  20%   1.637 Ins                                                 
    0.000 999%   0.000 Lac                                                 
 1.62E+03  14%   0.964 NAA                                                 
  557.327  46%   0.331 NAAG                                                
    9.283 491% 5.5E-03 Scyllo                                              
    0.000 999%   0.000 Tau                                                 
 1.26E+03  16%   0.748 -CrCH2                                              
  530.785   7%   0.316 GPC+PCh                                             
 2.18E+03   7%   1.296 NAA+NAAG                                            
 1.68E+03   6%   1.000 Cr+PCr                                              
  833.238  79%   0.496 Glu+Gln                                             
 3.38E+03  23%   2.010 Lip13a                                              
  975.880  23%   0.580 Lip13b                                              
    0.000 999%   0.000 Lip09                                               
 4.15E+03  11%   2.470 MM09                                                
 3.19E+03  17%   1.900+Lip20                                               
 8.86E+03   9%   5.270 MM20                                                
 1.37E+03  24%   0.812 MM12                                                
    0.000 999%   0.000 MM14                                                
 2.54E+03  17%   1.509 MM17                                                
 4.35E+03  16%   2.590 Lip13a+Lip13b                                       
 5.72E+03  10%   3.402 MM14+Lip13a+Lip13b+MM12                             
 4.15E+03  11%   2.470 MM09+Lip09                                          
 1.21E+04   6%   7.170 MM20+Lip20                                          
   6 lines in following misc. output table
  FWHM = 0.084 ppm    S/N =  10                                            
  Data shift = 0.023 ppm                                                   
  Ph:  92 deg      37.6 deg/ppm                                            
  alphaB,S = 3.5E-01,   3.7E+02                                            
   14 spline knots.   Ns =10(1)                                            
  (14) 2 infls.   ( 5) 1 extrs.                                            
  498 points on ppm-axis = NY
      4.000000     3.992357     3.984714     3.977070     3.969427     3.961784     3.954141     3.946497     3.938854     3.931211
      3.923568     3.915925     3.908281     3.900638     3.892995     3.885352     3.877708     3.870065     3.862422     3.854779
      3.847136     3.839492     3.831849     3.824206     3.816563     3.808919     3.801276     3.793633     3.785990     3.778347
      3.770703     3.763060     3.755417     3.747774     3.740130     3.732487     3.724844     3.717201     3.709558     3.701914
      3.694271     3.686628     3.678985     3.671341     3.663698     3.656055     3.648412     3.640769     3.633125     3.625482
      3.617839     3.610196     3.602552     3.594909     3.587266     3.579623     3.571980     3.564336     3.556693     3.549050
      3.541407     3.533763     3.526120     3.518477     3.510834     3.503191     3.495547     3.487904     3.480261     3.472618
      3.464974     3.457331     3.449688     3.442045     3.434402     3.426758     3.419115     3.411472     3.403829     3.396185
      3.388542     3.380899     3.373256     3.365613     3.357969     3.350326     3.342683     3.335040     3.327396     3.319753
      3.312110     3.304467     3.296824     3.289180     3.281537     3.273894     3.266251     3.258607     3.250964     3.243321
      3.235678     3.228034     3.220391     3.212748     3.205105     3.197462     3.189818     3.182175     3.174532     3.166889
      3.159245     3.151602     3.143959     3.136316     3.128673     3.121029     3.113386     3.105743     3.098100     3.090456
      3.082813     3.075170     3.067527     3.059884     3.052240     3.044597     3.036954     3.029311     3.021667     3.014024
      3.006381     2.998738     2.991095     2.983451     2.975808     2.968165     2.960522     2.952878     2.945235     2.937592
      2.929949     2.922306     2.914662     2.907019     2.899376     2.891733     2.884089     2.876446     2.868803     2.861160
      2.853517     2.845873     2.838230     2.830587     2.822944     2.815300     2.807657     2.800014     2.792371     2.784728
      2.777084     2.769441     2.761798     2.754155     2.746511     2.738868     2.731225     2.723582     2.715939     2.708295
      2.700652     2.693009     2.685366     2.677722     2.670079     2.662436     2.654793     2.647150     2.639506     2.631863
      2.624220     2.616577     2.608933     2.601290     2.593647     2.586004     2.578361     2.570717     2.563074     2.555431
      2.547788     2.540144     2.532501     2.524858     2.517215     2.509572     2.501928     2.494285     2.486642     2.478999
      2.471355     2.463712     2.456069     2.448426     2.440783     2.433139     2.425496     2.417853     2.410210     2.402566
      2.394923     2.387280     2.379637     2.371994     2.364350     2.356707     2.349064     2.341421     2.333777     2.326134
      2.318491     2.310848     2.303205     2.295561     2.287918     2.280275     2.272632     2.264988     2.257345     2.249702
      2.242059     2.234416     2.226772     2.219129     2.211486     2.203843     2.196199     2.188556     2.180913     2.173270
      2.165627     2.157983     2.150340     2.142697     2.135054     2.127410     2.119767     2.112124     2.104481     2.096838
      2.089194     2.081551     2.073908     2.066265     2.058621     2.050978     2.043335     2.035692     2.028049     2.020405
      2.012762     2.005119     1.997476     1.989833     1.982190     1.974546     1.966903     1.959260     1.951617     1.943974
      1.936331     1.928688     1.921045     1.913402     1.905759     1.898115     1.890472     1.882829     1.875186     1.867543
      1.859900     1.852257     1.844614     1.836971     1.829327     1.821684     1.814041     1.806398     1.798755     1.791112
      1.783469     1.775826     1.768183     1.760540     1.752896     1.745253     1.737610     1.729967     1.722324     1.714681
      1.707038     1.699395     1.691752     1.684108     1.676465     1.668822     1.661179     1.653536     1.645893     1.638250
      1.630607     1.622964     1.615321     1.607677     1.600034     1.592391     1.584748     1.577105     1.569462     1.561819
      1.554176     1.546533     1.538890     1.531246     1.523603     1.515960     1.508317     1.500674     1.493031     1.485388
      1.477745     1.470102     1.462458     1.454815     1.447172     1.439529     1.431886     1.424243     1.416600     1.408957
      1.401314     1.393671     1.386027     1.378384     1.370741     1.363098     1.355455     1.347812     1.340169     1.332526
      1.324883     1.317240     1.309596     1.301953     1.294310     1.286667     1.279024     1.271381     1.263738     1.256095
      1.248452     1.240808     1.233165     1.225522     1.217879     1.210236     1.202593     1.194950     1.187307     1.179664
      1.172021     1.164377     1.156734     1.149091     1.141448     1.133805     1.126162     1.118519     1.110876     1.103233
      1.095590     1.087946     1.080303     1.072660     1.065017     1.057374     1.049731     1.042088     1.034445     1.026802
      1.019158     1.011515     1.003872     0.996229     0.988586     0.980943     0.973300     0.965657     0.958014     0.950371
      0.942727     0.935084     0.927441     0.919798     0.912155     0.904512     0.896869     0.889226     0.881583     0.873940
      0.866296     0.858653     0.851010     0.843367     0.835724     0.828081     0.820438     0.812795     0.805152     0.797508
      0.789865     0.782222     0.774579     0.766936     0.759293     0.751650     0.744007     0.736364     0.728721     0.721077
      0.713434     0.705791     0.698148     0.690505     0.682862     0.675219     0.667576     0.659933     0.652290     0.644646
      0.637003     0.629360     0.621717     0.614074     0.606431     0.598788     0.591145     0.583502     0.575858     0.568215
      0.560572     0.552929     0.545286     0.537643     0.530000     0.522357     0.514714     0.507071     0.499427     0.491784
      0.484141     0.476498     0.468855     0.461212     0.453569     0.445925     0.438282     0.430639     0.422996     0.415353
      0.407710     0.400067     0.392424     0.384780     0.377137     0.369494     0.361851     0.354208     0.346565     0.338922
      0.331278     0.323635     0.315992     0.308349     0.300706     0.293063     0.285420     0.277777     0.270133     0.262490
      0.254847     0.247204     0.239561     0.231918     0.224275     0.216631     0.208988     0.201345
 NY phased data points follow
  -7.44687E+00 -4.35097E+00 -9.14605E+00 -9.14674E+00 -6.31702E+00 -4.98022E+00 -6.88324E+00 -4.85173E+00 -3.94583E+00 -3.72525E+00
   2.09800E+00  9.60894E+00  1.07800E+01  1.41700E+01  1.37600E+01  1.60736E+01  1.49041E+01  9.19745E+00  9.64685E+00  1.07348E+01
   6.42186E+00  9.57935E+00  9.33020E+00  8.18240E+00  6.73214E+00  5.43768E+00  1.16187E+01  9.22719E+00  6.40644E+00  8.75306E+00
   8.62859E+00  8.51896E+00  1.08528E+01  5.79398E+00  8.56194E+00  1.07967E+01  9.14853E+00  1.19779E+01  9.75433E+00  1.05612E+01
   8.29435E+00  1.18925E+01  9.32440E+00  1.28223E+01  1.22043E+01  1.19195E+01  1.20605E+01  1.64729E+01  1.38420E+01  1.90848E+01
   1.90054E+01  2.04288E+01  1.69074E+01  1.77663E+01  1.81019E+01  2.34892E+01  1.47485E+01  1.79000E+01  1.69476E+01  1.69634E+01
   1.72554E+01  9.21781E+00  1.01658E+01  1.21107E+01  1.69839E+01  9.43566E+00  8.20564E+00  6.76862E+00  8.64353E+00  7.05746E+00
   2.21544E+00  1.98554E+00  3.27984E+00  5.88215E+00  2.04442E+00  4.82647E+00  2.85344E+00  4.09898E+00  3.49179E+00 -3.56015E+00
   1.32183E+00  1.85072E-01  5.59543E+00  4.90155E+00  3.05557E+00 -1.38761E-02  6.06377E+00  4.54155E-01  2.76567E+00 -1.44181E+00
   6.24201E+00  2.56637E+00  6.40460E+00  3.35646E+00  9.42221E+00  6.02996E+00  7.33104E+00  1.20544E+01  1.14623E+01  1.28194E+01
   1.70565E+01  2.24820E+01  3.41742E+01  3.41634E+01  3.66212E+01  3.76487E+01  4.10148E+01  3.75277E+01  3.13182E+01  2.89278E+01
   2.59300E+01  2.13240E+01  2.15140E+01  1.66496E+01  1.01688E+01  1.27018E+01  1.67584E+01  9.73127E+00  1.19489E+01  1.33728E+01
   1.59389E+01  1.50759E+01  2.07189E+01  2.81395E+01  2.96673E+01  3.55053E+01  4.21758E+01  4.20214E+01  5.00137E+01  4.56737E+01
   4.67351E+01  4.39222E+01  4.17446E+01  3.62567E+01  3.93275E+01  2.93790E+01  3.01533E+01  2.18152E+01  1.96154E+01  2.11888E+01
   2.01756E+01  1.91947E+01  1.92664E+01  2.01688E+01  1.94279E+01  1.49588E+01  1.60227E+01  1.22372E+01  1.03129E+01  1.13324E+01
   1.40990E+01  1.33962E+01  1.25783E+01  1.22120E+01  1.32214E+01  6.69087E+00  4.92700E+00  9.62796E+00  1.22274E+01  7.49137E+00
   6.96060E+00  6.02610E+00  6.31499E+00  7.51405E+00  3.55101E+00  2.22930E+00  2.34629E+00  3.12272E+00  2.06404E+00  6.58229E-01
  -1.13902E+00 -6.79335E+00 -4.11891E+00 -7.66580E+00 -5.57709E+00 -9.48300E+00 -1.14225E+01 -1.00591E+01 -7.56668E+00 -1.29318E+01
  -7.95469E+00 -6.62616E+00 -1.01647E+01 -9.67204E+00 -8.32791E+00 -6.70243E+00 -8.77359E+00 -3.17490E+00 -8.17358E+00 -3.73584E+00
   1.31930E+00 -3.98541E-01 -4.91885E+00 -4.32095E+00 -5.19408E+00 -2.67615E-01 -3.90317E+00 -3.70686E+00  2.64777E-01 -2.68923E+00
  -3.09980E+00 -1.05901E+00  3.21745E-01 -2.84895E+00  1.65489E+00 -4.18426E+00  6.93863E-01  4.79549E+00  2.29457E+00  5.96589E+00
   3.99818E+00  1.14528E+01  7.60266E+00  9.16505E+00  1.19668E+01  9.89926E+00  7.34260E+00  9.37339E+00  1.42854E+01  1.27277E+01
   5.71662E+00  7.30769E+00  1.06181E+01  7.47511E+00  1.01333E+01  1.00808E+01  1.21180E+01  1.25137E+01  1.49263E+01  1.62567E+01
   1.32932E+01  1.17031E+01  1.50727E+01  1.63931E+01  1.51943E+01  1.58232E+01  1.46291E+01  1.63241E+01  1.70734E+01  1.30591E+01
   1.67065E+01  2.11747E+01  1.88141E+01  1.79208E+01  2.41151E+01  2.45032E+01  2.24893E+01  2.97823E+01  3.53340E+01  3.34759E+01
   3.78178E+01  3.76315E+01  4.01905E+01  4.94826E+01  5.76462E+01  6.21271E+01  6.83764E+01  6.97091E+01  7.05983E+01  6.82817E+01
   6.86051E+01  6.80672E+01  6.16587E+01  4.89894E+01  4.24080E+01  2.94570E+01  2.17536E+01  1.54202E+01  1.09770E+01  4.73170E+00
   6.05611E+00  2.77135E+00 -3.66430E+00 -3.77932E+00 -1.28008E+00 -6.89600E+00 -4.74444E+00 -6.09892E+00 -6.86902E+00 -4.33560E+00
  -5.36133E+00 -3.53370E+00 -5.26062E+00 -1.10740E+00 -5.63515E+00 -8.10174E+00 -5.88127E+00 -6.21321E+00 -5.26981E+00 -6.98224E+00
  -5.19821E+00 -8.62906E+00 -5.22463E+00 -2.83498E+00 -5.14556E+00 -5.15095E+00 -4.26208E+00 -4.95509E+00 -5.74773E+00 -3.90788E+00
  -3.68007E+00 -5.11416E+00 -5.96674E+00 -2.90351E+00 -1.03158E+01 -8.25763E+00 -7.04576E+00 -8.58805E+00 -7.66413E+00 -6.03282E+00
  -1.20701E+01 -9.87032E+00 -1.15285E+01 -1.36407E+01 -1.73665E+01 -1.76770E+01 -1.66017E+01 -1.91827E+01 -2.10696E+01 -2.67693E+01
  -2.11552E+01 -2.39208E+01 -2.35027E+01 -2.80228E+01 -2.82876E+01 -3.33443E+01 -3.35771E+01 -3.19838E+01 -3.03583E+01 -3.10167E+01
  -3.11711E+01 -3.39956E+01 -3.18698E+01 -3.05483E+01 -2.96752E+01 -3.00392E+01 -2.07472E+01 -2.62739E+01 -2.25345E+01 -2.28474E+01
  -1.60744E+01 -1.12385E+01 -7.76226E+00 -1.02527E+01 -6.96482E+00 -3.51564E+00 -1.31669E+00  2.79972E+00  2.15440E+00  3.41584E+00
   7.04913E+00  1.29614E+01  7.60170E+00  1.34364E+01  1.05976E+01  1.48701E+01  1.27024E+01  1.19712E+01  1.34274E+01  1.34822E+01
   1.50574E+01  1.58724E+01  1.38493E+01  1.43572E+01  1.39902E+01  1.09573E+01  8.02120E+00  1.11009E+01  5.77703E+00  6.72723E+00
   7.06766E+00  9.13524E+00  5.63670E+00  2.82375E+00  5.99483E-03  3.03300E+00  3.59058E+00  2.46487E+00  1.50424E+00  2.26009E+00
  -5.09358E-01 -7.78889E-02  1.87383E+00  2.63401E+00  1.33771E+00  1.31029E+00  3.41787E+00 -3.23782E-01  3.44702E+00  1.91866E+00
   6.94121E+00  4.29504E+00  5.28355E+00  3.14085E+00  1.94549E+00  6.96157E+00  1.52594E+00  6.29076E+00  2.85445E+00  4.04129E+00
   1.66474E+00  1.77729E+00  3.60961E+00  4.90633E+00  2.92896E+00  2.36177E+00  2.54242E+00  6.81540E-01 -4.13013E-01 -1.34974E-01
  -1.02988E+00 -6.88165E+00 -4.18745E+00 -2.14875E+00 -9.53332E-01 -7.76046E+00 -5.81294E+00 -8.86236E-01 -4.77969E+00 -8.73699E+00
  -7.29832E+00 -6.59686E+00 -3.65607E+00 -4.10395E+00 -3.81692E+00 -6.00801E+00 -3.99742E+00 -4.56838E+00 -3.08992E+00 -3.62422E+00
  -3.00789E+00 -3.40944E+00 -6.23939E+00 -2.50794E+00 -1.36811E+00 -2.33619E+00 -4.43017E+00 -3.71079E+00 -2.50552E+00 -5.81312E+00
  -3.44942E+00 -4.84793E+00 -2.72164E+00 -1.14304E+00 -2.38980E+00 -3.20267E+00 -2.29002E+00 -4.15840E+00 -2.13889E+00 -1.07614E+00
  -1.50584E+00 -1.19865E-01 -5.09321E+00 -1.91015E+00 -3.41862E+00 -8.23259E-01 -5.19868E+00 -1.02879E+00 -3.54919E-02 -1.57633E+00
  -1.70007E+00 -2.64902E+00 -3.38742E+00 -4.52004E+00  1.24041E+00  2.14431E-01 -4.24850E-01  7.13472E-01  1.02923E+00 -4.49984E+00
  -2.01965E+00 -4.41391E+00  2.49531E-01  8.05184E-01 -1.98607E+00 -1.03248E+00 -3.59796E+00 -7.73928E+00 -1.84767E+00  2.21499E-01
   2.05959E+00 -2.61101E+00 -3.30817E+00 -7.39691E-02 -4.74035E-01 -1.67042E+00 -1.80145E+00 -2.65924E+00 -8.27352E-01 -3.76932E-01
  -1.99742E+00 -2.39738E+00 -3.77087E+00 -2.24089E-01 -3.11359E+00 -3.58875E+00 -3.93188E+00  4.44496E-01
 NY points of the fit to the data follow
   3.93111E-01 -2.04746E+00 -4.32157E+00 -6.03414E+00 -7.04338E+00 -7.35785E+00 -7.02374E+00 -5.90730E+00 -3.88540E+00 -9.98465E-01
   2.55326E+00  6.39792E+00  1.00369E+01  1.29588E+01  1.47946E+01  1.54916E+01  1.52777E+01  1.45389E+01  1.35528E+01  1.24511E+01
   1.11814E+01  9.61680E+00  8.08379E+00  6.91983E+00  6.51522E+00  7.04046E+00  8.01712E+00  9.16209E+00  1.03445E+01  1.14076E+01
   1.22098E+01  1.26530E+01  1.26776E+01  1.23041E+01  1.16488E+01  1.08340E+01  9.96999E+00  9.24995E+00  8.83396E+00  8.74358E+00
   8.93647E+00  9.50830E+00  1.05926E+01  1.19484E+01  1.33393E+01  1.46193E+01  1.55938E+01  1.60688E+01  1.59419E+01  1.52883E+01
   1.42600E+01  1.30330E+01  1.18561E+01  1.09022E+01  1.01838E+01  9.62669E+00  9.18345E+00  8.84363E+00  8.64056E+00  8.68824E+00
   8.93131E+00  9.10222E+00  9.05358E+00  8.84547E+00  8.60759E+00  8.42039E+00  8.33317E+00  8.35672E+00  8.47179E+00  8.61900E+00
   8.75362E+00  8.89751E+00  9.04350E+00  9.15087E+00  9.18045E+00  9.09292E+00  8.88428E+00  8.53884E+00  8.04848E+00  7.43154E+00
   6.70916E+00  5.90800E+00  5.04774E+00  4.18168E+00  3.37942E+00  2.65987E+00  2.07187E+00  1.66303E+00  1.46427E+00  1.48938E+00
   1.72635E+00  2.12836E+00  2.62623E+00  3.18037E+00  3.97490E+00  5.50836E+00  7.83842E+00  1.07922E+01  1.42300E+01  1.80404E+01
   2.21418E+01  2.64053E+01  3.05453E+01  3.41296E+01  3.67356E+01  3.80210E+01  3.77806E+01  3.60537E+01  3.32112E+01  2.97659E+01
   2.61563E+01  2.26409E+01  1.93106E+01  1.61607E+01  1.32204E+01  1.06833E+01  9.03646E+00  8.73167E+00  9.47288E+00  1.13068E+01
   1.40999E+01  1.76365E+01  2.17698E+01  2.63937E+01  3.13714E+01  3.64265E+01  4.11174E+01  4.49377E+01  4.74435E+01  4.83097E+01
   4.73937E+01  4.48444E+01  4.11293E+01  3.68356E+01  3.24347E+01  2.81920E+01  2.42236E+01  2.05799E+01  1.73472E+01  1.47619E+01
   1.32909E+01  1.29751E+01  1.30180E+01  1.30859E+01  1.31258E+01  1.31507E+01  1.31544E+01  1.30810E+01  1.29124E+01  1.26580E+01
   1.23187E+01  1.19124E+01  1.14740E+01  1.10352E+01  1.06190E+01  1.02085E+01  9.77418E+00  9.29263E+00  8.75364E+00  8.15649E+00
   7.50741E+00  6.82228E+00  6.11725E+00  5.40048E+00  4.66717E+00  3.89308E+00  3.04804E+00  2.15439E+00  1.27672E+00  4.58119E-01
  -2.90424E-01 -9.88290E-01 -1.66716E+00 -2.34001E+00 -2.96498E+00 -3.51772E+00 -3.98595E+00 -4.37782E+00 -4.70922E+00 -4.97011E+00
  -5.14351E+00 -5.20723E+00 -5.13352E+00 -4.89894E+00 -4.50261E+00 -3.97112E+00 -3.34721E+00 -2.70477E+00 -2.12708E+00 -1.61651E+00
  -1.19309E+00 -9.15860E-01 -8.29408E-01 -9.22683E-01 -1.11702E+00 -1.33428E+00 -1.49838E+00 -1.58765E+00 -1.60396E+00 -1.54639E+00
  -1.40795E+00 -1.22049E+00 -1.02812E+00 -8.69554E-01 -7.51659E-01 -6.75658E-01 -6.03255E-01 -4.88039E-01 -3.13175E-01 -8.39054E-02
   2.10404E-01  6.36317E-01  1.18437E+00  1.78728E+00  2.40320E+00  3.02580E+00  3.61702E+00  4.13054E+00  4.56433E+00  4.95498E+00
   5.37247E+00  5.86672E+00  6.44261E+00  7.10776E+00  7.83834E+00  8.59991E+00  9.38830E+00  1.01978E+01  1.10397E+01  1.18578E+01
   1.26010E+01  1.32769E+01  1.38987E+01  1.44515E+01  1.49069E+01  1.52801E+01  1.56433E+01  1.60521E+01  1.65374E+01  1.71574E+01
   1.79780E+01  1.90513E+01  2.03865E+01  2.19281E+01  2.36156E+01  2.54417E+01  2.75001E+01  2.97933E+01  3.22263E+01  3.48943E+01
   3.82839E+01  4.24463E+01  4.70954E+01  5.19515E+01  5.67418E+01  6.11907E+01  6.50370E+01  6.79407E+01  6.94811E+01  6.93283E+01
   6.73303E+01  6.34567E+01  5.78492E+01  5.09264E+01  4.33117E+01  3.56022E+01  2.82016E+01  2.13791E+01  1.53311E+01  9.92145E+00
   5.07642E+00  1.17556E+00 -1.26895E+00 -2.85703E+00 -4.15459E+00 -5.27390E+00 -6.24300E+00 -7.07768E+00 -7.78350E+00 -8.34990E+00
  -8.77583E+00 -9.06365E+00 -9.21421E+00 -9.22844E+00 -9.10891E+00 -8.85870E+00 -8.48206E+00 -7.99040E+00 -7.40451E+00 -6.75236E+00
  -6.05878E+00 -5.35065E+00 -4.66130E+00 -4.02706E+00 -3.48103E+00 -3.05279E+00 -2.76836E+00 -2.65129E+00 -2.71523E+00 -2.96724E+00
  -3.40725E+00 -4.02816E+00 -4.81638E+00 -5.75167E+00 -6.80528E+00 -7.94764E+00 -9.14856E+00 -1.03771E+01 -1.16031E+01 -1.27989E+01
  -1.39406E+01 -1.50089E+01 -1.59849E+01 -1.68517E+01 -1.75939E+01 -1.81908E+01 -1.86007E+01 -1.87842E+01 -1.88268E+01 -1.88260E+01
  -1.88404E+01 -1.89172E+01 -1.91105E+01 -1.94933E+01 -2.01382E+01 -2.09950E+01 -2.19795E+01 -2.30333E+01 -2.40764E+01 -2.49835E+01
  -2.56009E+01 -2.57988E+01 -2.55314E+01 -2.48512E+01 -2.38622E+01 -2.26805E+01 -2.14086E+01 -2.01060E+01 -1.87593E+01 -1.73466E+01
  -1.59456E+01 -1.44793E+01 -1.28236E+01 -1.09133E+01 -8.74029E+00 -6.33525E+00 -3.71098E+00 -8.09653E-01  2.22992E+00  5.16798E+00
   7.81805E+00  1.00486E+01  1.17900E+01  1.30369E+01  1.38400E+01  1.42876E+01  1.44824E+01  1.45186E+01  1.44654E+01  1.43587E+01
   1.42027E+01  1.39777E+01  1.36519E+01  1.31928E+01  1.25768E+01  1.17944E+01  1.08522E+01  9.77171E+00  8.58609E+00  7.33619E+00
   6.06628E+00  4.82035E+00  3.63923E+00  2.55841E+00  1.60677E+00  8.05859E-01  1.69851E-01 -2.94225E-01 -5.85768E-01 -7.09870E-01
  -6.76419E-01 -4.99274E-01 -1.95386E-01  2.15939E-01  7.13811E-01  1.27637E+00  1.88134E+00  2.50655E+00  3.13040E+00  3.73233E+00
   4.29332E+00  4.79622E+00  5.22614E+00  5.57070E+00  5.82036E+00  5.96854E+00  6.01175E+00  5.94949E+00  5.78416E+00  5.52078E+00
   5.16674E+00  4.73137E+00  4.22557E+00  3.66122E+00  3.05085E+00  2.40704E+00  1.74214E+00  1.06784E+00  3.94939E-01 -2.66936E-01
  -9.09465E-01 -1.52571E+00 -2.11009E+00 -2.65838E+00 -3.16761E+00 -3.63594E+00 -4.06258E+00 -4.44756E+00 -4.79160E+00 -5.09597E+00
  -5.36236E+00 -5.59278E+00 -5.78943E+00 -5.95459E+00 -6.09058E+00 -6.19968E+00 -6.28411E+00 -6.34601E+00 -6.38741E+00 -6.41018E+00
  -6.41605E+00 -6.40663E+00 -6.38340E+00 -6.34773E+00 -6.30086E+00 -6.24390E+00 -6.17786E+00 -6.10366E+00 -6.02218E+00 -5.93417E+00
  -5.84034E+00 -5.74130E+00 -5.63765E+00 -5.52990E+00 -5.41856E+00 -5.30408E+00 -5.18686E+00 -5.06727E+00 -4.94564E+00 -4.82231E+00
  -4.69760E+00 -4.57177E+00 -4.44507E+00 -4.31771E+00 -4.18982E+00 -4.06152E+00 -3.93292E+00 -3.80410E+00 -3.67511E+00 -3.54602E+00
  -3.41691E+00 -3.28781E+00 -3.15878E+00 -3.02985E+00 -2.90103E+00 -2.77234E+00 -2.64383E+00 -2.51549E+00 -2.38736E+00 -2.25940E+00
  -2.13164E+00 -2.00405E+00 -1.87666E+00 -1.74945E+00 -1.62242E+00 -1.49552E+00 -1.36876E+00 -1.24211E+00 -1.11558E+00 -9.89129E-01
  -8.62737E-01 -7.36359E-01 -6.09988E-01 -4.83595E-01 -3.57164E-01 -2.30646E-01 -1.04010E-01  2.27897E-02  1.49767E-01  2.76961E-01
   4.04399E-01  5.32142E-01  6.60224E-01  7.88697E-01  9.17578E-01  1.04692E+00  1.17677E+00  1.30719E+00
 NY background values follow
    -6.018E+00   -5.889E+00   -5.761E+00   -5.631E+00   -5.502E+00   -5.373E+00   -5.243E+00   -5.113E+00   -4.983E+00   -4.854E+00
    -4.724E+00   -4.595E+00   -4.465E+00   -4.336E+00   -4.207E+00   -4.078E+00   -3.950E+00   -3.822E+00   -3.695E+00   -3.568E+00
    -3.441E+00   -3.315E+00   -3.190E+00   -3.065E+00   -2.942E+00   -2.818E+00   -2.696E+00   -2.575E+00   -2.454E+00   -2.334E+00
    -2.216E+00   -2.098E+00   -1.982E+00   -1.866E+00   -1.752E+00   -1.639E+00   -1.527E+00   -1.417E+00   -1.308E+00   -1.200E+00
    -1.094E+00   -9.895E-01   -8.863E-01   -7.848E-01   -6.849E-01   -5.867E-01   -4.903E-01   -3.955E-01   -3.025E-01   -2.113E-01
    -1.217E-01   -3.390E-02    5.221E-02    1.366E-01    2.193E-01    3.003E-01    3.796E-01    4.572E-01    5.331E-01    6.073E-01
     6.798E-01    7.507E-01    8.199E-01    8.874E-01    9.533E-01    1.018E+00    1.080E+00    1.141E+00    1.200E+00    1.258E+00
     1.314E+00    1.368E+00    1.421E+00    1.472E+00    1.522E+00    1.570E+00    1.616E+00    1.661E+00    1.704E+00    1.745E+00
     1.785E+00    1.823E+00    1.860E+00    1.895E+00    1.929E+00    1.961E+00    1.991E+00    2.020E+00    2.048E+00    2.073E+00
     2.098E+00    2.120E+00    2.142E+00    2.161E+00    2.179E+00    2.196E+00    2.210E+00    2.223E+00    2.235E+00    2.245E+00
     2.252E+00    2.259E+00    2.263E+00    2.266E+00    2.266E+00    2.265E+00    2.262E+00    2.258E+00    2.251E+00    2.242E+00
     2.231E+00    2.219E+00    2.204E+00    2.188E+00    2.169E+00    2.148E+00    2.125E+00    2.100E+00    2.073E+00    2.044E+00
     2.012E+00    1.978E+00    1.942E+00    1.904E+00    1.863E+00    1.821E+00    1.775E+00    1.728E+00    1.678E+00    1.626E+00
     1.571E+00    1.514E+00    1.454E+00    1.392E+00    1.328E+00    1.261E+00    1.191E+00    1.119E+00    1.044E+00    9.667E-01
     8.871E-01    8.052E-01    7.209E-01    6.344E-01    5.456E-01    4.547E-01    3.617E-01    2.665E-01    1.694E-01    7.021E-02
    -3.088E-02   -1.339E-01   -2.387E-01   -3.453E-01   -4.537E-01   -5.638E-01   -6.755E-01   -7.889E-01   -9.038E-01   -1.020E+00
    -1.138E+00   -1.257E+00   -1.378E+00   -1.500E+00   -1.624E+00   -1.748E+00   -1.874E+00   -2.001E+00   -2.129E+00   -2.258E+00
    -2.388E+00   -2.519E+00   -2.651E+00   -2.784E+00   -2.917E+00   -3.052E+00   -3.187E+00   -3.322E+00   -3.459E+00   -3.596E+00
    -3.733E+00   -3.871E+00   -4.010E+00   -4.149E+00   -4.288E+00   -4.428E+00   -4.569E+00   -4.710E+00   -4.852E+00   -4.994E+00
    -5.137E+00   -5.281E+00   -5.426E+00   -5.571E+00   -5.717E+00   -5.864E+00   -6.012E+00   -6.160E+00   -6.310E+00   -6.460E+00
    -6.612E+00   -6.764E+00   -6.917E+00   -7.072E+00   -7.227E+00   -7.383E+00   -7.541E+00   -7.700E+00   -7.859E+00   -8.020E+00
    -8.183E+00   -8.346E+00   -8.511E+00   -8.677E+00   -8.844E+00   -9.012E+00   -9.182E+00   -9.354E+00   -9.527E+00   -9.701E+00
    -9.876E+00   -1.005E+01   -1.023E+01   -1.041E+01   -1.059E+01   -1.078E+01   -1.096E+01   -1.115E+01   -1.134E+01   -1.153E+01
    -1.172E+01   -1.191E+01   -1.211E+01   -1.230E+01   -1.250E+01   -1.269E+01   -1.289E+01   -1.309E+01   -1.329E+01   -1.349E+01
    -1.370E+01   -1.390E+01   -1.410E+01   -1.431E+01   -1.451E+01   -1.471E+01   -1.492E+01   -1.512E+01   -1.533E+01   -1.554E+01
    -1.574E+01   -1.595E+01   -1.615E+01   -1.636E+01   -1.657E+01   -1.677E+01   -1.698E+01   -1.718E+01   -1.738E+01   -1.759E+01
    -1.779E+01   -1.799E+01   -1.820E+01   -1.840E+01   -1.860E+01   -1.880E+01   -1.899E+01   -1.919E+01   -1.939E+01   -1.958E+01
    -1.977E+01   -1.997E+01   -2.016E+01   -2.035E+01   -2.053E+01   -2.072E+01   -2.091E+01   -2.109E+01   -2.127E+01   -2.145E+01
    -2.162E+01   -2.180E+01   -2.197E+01   -2.214E+01   -2.231E+01   -2.248E+01   -2.264E+01   -2.280E+01   -2.296E+01   -2.312E+01
    -2.327E+01   -2.342E+01   -2.357E+01   -2.371E+01   -2.385E+01   -2.399E+01   -2.413E+01   -2.426E+01   -2.439E+01   -2.451E+01
    -2.463E+01   -2.475E+01   -2.487E+01   -2.498E+01   -2.509E+01   -2.519E+01   -2.529E+01   -2.538E+01   -2.547E+01   -2.556E+01
    -2.565E+01   -2.572E+01   -2.580E+01   -2.587E+01   -2.593E+01   -2.600E+01   -2.605E+01   -2.610E+01   -2.615E+01   -2.619E+01
    -2.623E+01   -2.626E+01   -2.629E+01   -2.632E+01   -2.634E+01   -2.635E+01   -2.636E+01   -2.637E+01   -2.637E+01   -2.636E+01
    -2.636E+01   -2.635E+01   -2.633E+01   -2.631E+01   -2.628E+01   -2.626E+01   -2.622E+01   -2.619E+01   -2.614E+01   -2.610E+01
    -2.605E+01   -2.600E+01   -2.594E+01   -2.588E+01   -2.581E+01   -2.574E+01   -2.567E+01   -2.559E+01   -2.551E+01   -2.542E+01
    -2.533E+01   -2.524E+01   -2.515E+01   -2.505E+01   -2.494E+01   -2.483E+01   -2.472E+01   -2.461E+01   -2.449E+01   -2.437E+01
    -2.424E+01   -2.411E+01   -2.398E+01   -2.384E+01   -2.370E+01   -2.356E+01   -2.342E+01   -2.327E+01   -2.311E+01   -2.296E+01
    -2.280E+01   -2.264E+01   -2.248E+01   -2.231E+01   -2.214E+01   -2.197E+01   -2.180E+01   -2.162E+01   -2.144E+01   -2.126E+01
    -2.107E+01   -2.089E+01   -2.070E+01   -2.051E+01   -2.032E+01   -2.012E+01   -1.993E+01   -1.973E+01   -1.953E+01   -1.933E+01
    -1.913E+01   -1.893E+01   -1.872E+01   -1.851E+01   -1.831E+01   -1.810E+01   -1.789E+01   -1.768E+01   -1.746E+01   -1.725E+01
    -1.704E+01   -1.682E+01   -1.661E+01   -1.639E+01   -1.617E+01   -1.596E+01   -1.574E+01   -1.552E+01   -1.530E+01   -1.508E+01
    -1.486E+01   -1.465E+01   -1.443E+01   -1.421E+01   -1.399E+01   -1.377E+01   -1.355E+01   -1.333E+01   -1.311E+01   -1.289E+01
    -1.268E+01   -1.246E+01   -1.224E+01   -1.202E+01   -1.181E+01   -1.159E+01   -1.138E+01   -1.116E+01   -1.095E+01   -1.074E+01
    -1.052E+01   -1.031E+01   -1.010E+01   -9.893E+00   -9.684E+00   -9.477E+00   -9.271E+00   -9.066E+00   -8.863E+00   -8.660E+00
    -8.459E+00   -8.260E+00   -8.062E+00   -7.865E+00   -7.670E+00   -7.477E+00   -7.285E+00   -7.095E+00   -6.906E+00   -6.720E+00
    -6.535E+00   -6.352E+00   -6.171E+00   -5.993E+00   -5.816E+00   -5.641E+00   -5.468E+00   -5.296E+00   -5.127E+00   -4.959E+00
    -4.793E+00   -4.628E+00   -4.465E+00   -4.304E+00   -4.143E+00   -3.985E+00   -3.827E+00   -3.671E+00   -3.516E+00   -3.363E+00
    -3.210E+00   -3.059E+00   -2.909E+00   -2.759E+00   -2.611E+00   -2.463E+00   -2.317E+00   -2.171E+00   -2.026E+00   -1.881E+00
    -1.738E+00   -1.594E+00   -1.452E+00   -1.310E+00   -1.168E+00   -1.027E+00   -8.856E-01   -7.450E-01   -6.045E-01   -4.643E-01
    -3.242E-01   -1.842E-01   -4.429E-02    9.566E-02    2.357E-01    3.758E-01    5.161E-01    6.565E-01
 Ala      Conc. = 6.54E+02
