 LCModel (Version 6.3-1L) Copyright: S.W. Provencher.          Ref.: Magn. Reson. Med. 30:672-679 (1993).                
 Slice#2 Row#11 Col#7  K_02_press_1_raw_act
 36 lines in following concentration table = NCONC+1
    Conc.  %SD /Cr+PCr  Metabolite                                         
    0.000 999%   0.000 Ala                                                 
    0.000 999%   0.000 Asp                                                 
 1.73E+03  14%   0.703 Cr                                                  
  729.589  32%   0.297 PCr                                                 
    0.000 999%   0.000 GABA                                                
    0.000 999%   0.000 Glc                                                 
  946.478  28%   0.385 Gln                                                 
 2.09E+03  14%   0.851 Glu                                                 
  543.376   4%   0.221 GPC                                                 
    0.000 999%   0.000 PCh                                                 
  591.050  14%   0.240 GSH                                                 
 1.34E+03  20%   0.545 Ins                                                 
  226.720  61% 9.2E-02 Lac                                                 
 3.16E+03   5%   1.287 NAA                                                 
  180.314  87% 7.3E-02 NAAG                                                
    0.000 999%   0.000 Scyllo                                              
    0.000 999%   0.000 Tau                                                 
    0.000 999%   0.000 -CrCH2                                              
  543.376   4%   0.221 GPC+PCh                                             
 3.34E+03   3%   1.361 NAA+NAAG                                            
 2.46E+03   3%   1.000 Cr+PCr                                              
 3.04E+03  14%   1.237 Glu+Gln                                             
 2.56E+03  30%   1.041 Lip13a                                              
    0.000 999%   0.000 Lip13b                                              
  265.234 121%   0.108 Lip09                                               
 2.13E+03  18%   0.865 MM09                                                
  523.539  41%   0.213 Lip20                                               
 4.78E+03  11%   1.947 MM20                                                
  727.700  35%   0.296 MM12                                                
 3.20E+03  18%   1.303 MM14                                                
 1.47E+03  23%   0.600 MM17                                                
 2.56E+03  30%   1.041 Lip13a+Lip13b                                       
 6.49E+03   9%   2.640 MM14+Lip13a+Lip13b+MM12                             
 2.39E+03  11%   0.973 MM09+Lip09                                          
 5.31E+03   9%   2.160 MM20+Lip20                                          
   6 lines in following misc. output table
  FWHM = 0.046 ppm    S/N =  16                                            
  Data shift = 0.015 ppm                                                   
  Ph:   9 deg       7.0 deg/ppm                                            
  alphaB,S = 1.7E+00,   5.7E+01                                            
   14 spline knots.   Ns = 7(1)                                            
  (11) 5 infls.   ( 7) 1 extrs.                                            
  498 points on ppm-axis = NY
      4.000000     3.992357     3.984714     3.977070     3.969427     3.961784     3.954141     3.946497     3.938854     3.931211
      3.923568     3.915925     3.908281     3.900638     3.892995     3.885352     3.877708     3.870065     3.862422     3.854779
      3.847136     3.839492     3.831849     3.824206     3.816563     3.808919     3.801276     3.793633     3.785990     3.778347
      3.770703     3.763060     3.755417     3.747774     3.740130     3.732487     3.724844     3.717201     3.709558     3.701914
      3.694271     3.686628     3.678985     3.671341     3.663698     3.656055     3.648412     3.640769     3.633125     3.625482
      3.617839     3.610196     3.602552     3.594909     3.587266     3.579623     3.571980     3.564336     3.556693     3.549050
      3.541407     3.533763     3.526120     3.518477     3.510834     3.503191     3.495547     3.487904     3.480261     3.472618
      3.464974     3.457331     3.449688     3.442045     3.434402     3.426758     3.419115     3.411472     3.403829     3.396185
      3.388542     3.380899     3.373256     3.365613     3.357969     3.350326     3.342683     3.335040     3.327396     3.319753
      3.312110     3.304467     3.296824     3.289180     3.281537     3.273894     3.266251     3.258607     3.250964     3.243321
      3.235678     3.228034     3.220391     3.212748     3.205105     3.197462     3.189818     3.182175     3.174532     3.166889
      3.159245     3.151602     3.143959     3.136316     3.128673     3.121029     3.113386     3.105743     3.098100     3.090456
      3.082813     3.075170     3.067527     3.059884     3.052240     3.044597     3.036954     3.029311     3.021667     3.014024
      3.006381     2.998738     2.991095     2.983451     2.975808     2.968165     2.960522     2.952878     2.945235     2.937592
      2.929949     2.922306     2.914662     2.907019     2.899376     2.891733     2.884089     2.876446     2.868803     2.861160
      2.853517     2.845873     2.838230     2.830587     2.822944     2.815300     2.807657     2.800014     2.792371     2.784728
      2.777084     2.769441     2.761798     2.754155     2.746511     2.738868     2.731225     2.723582     2.715939     2.708295
      2.700652     2.693009     2.685366     2.677722     2.670079     2.662436     2.654793     2.647150     2.639506     2.631863
      2.624220     2.616577     2.608933     2.601290     2.593647     2.586004     2.578361     2.570717     2.563074     2.555431
      2.547788     2.540144     2.532501     2.524858     2.517215     2.509572     2.501928     2.494285     2.486642     2.478999
      2.471355     2.463712     2.456069     2.448426     2.440783     2.433139     2.425496     2.417853     2.410210     2.402566
      2.394923     2.387280     2.379637     2.371994     2.364350     2.356707     2.349064     2.341421     2.333777     2.326134
      2.318491     2.310848     2.303205     2.295561     2.287918     2.280275     2.272632     2.264988     2.257345     2.249702
      2.242059     2.234416     2.226772     2.219129     2.211486     2.203843     2.196199     2.188556     2.180913     2.173270
      2.165627     2.157983     2.150340     2.142697     2.135054     2.127410     2.119767     2.112124     2.104481     2.096838
      2.089194     2.081551     2.073908     2.066265     2.058621     2.050978     2.043335     2.035692     2.028049     2.020405
      2.012762     2.005119     1.997476     1.989833     1.982190     1.974546     1.966903     1.959260     1.951617     1.943974
      1.936331     1.928688     1.921045     1.913402     1.905759     1.898115     1.890472     1.882829     1.875186     1.867543
      1.859900     1.852257     1.844614     1.836971     1.829327     1.821684     1.814041     1.806398     1.798755     1.791112
      1.783469     1.775826     1.768183     1.760540     1.752896     1.745253     1.737610     1.729967     1.722324     1.714681
      1.707038     1.699395     1.691752     1.684108     1.676465     1.668822     1.661179     1.653536     1.645893     1.638250
      1.630607     1.622964     1.615321     1.607677     1.600034     1.592391     1.584748     1.577105     1.569462     1.561819
      1.554176     1.546533     1.538890     1.531246     1.523603     1.515960     1.508317     1.500674     1.493031     1.485388
      1.477745     1.470102     1.462458     1.454815     1.447172     1.439529     1.431886     1.424243     1.416600     1.408957
      1.401314     1.393671     1.386027     1.378384     1.370741     1.363098     1.355455     1.347812     1.340169     1.332526
      1.324883     1.317240     1.309596     1.301953     1.294310     1.286667     1.279024     1.271381     1.263738     1.256095
      1.248452     1.240808     1.233165     1.225522     1.217879     1.210236     1.202593     1.194950     1.187307     1.179664
      1.172021     1.164377     1.156734     1.149091     1.141448     1.133805     1.126162     1.118519     1.110876     1.103233
      1.095590     1.087946     1.080303     1.072660     1.065017     1.057374     1.049731     1.042088     1.034445     1.026802
      1.019158     1.011515     1.003872     0.996229     0.988586     0.980943     0.973300     0.965657     0.958014     0.950371
      0.942727     0.935084     0.927441     0.919798     0.912155     0.904512     0.896869     0.889226     0.881583     0.873940
      0.866296     0.858653     0.851010     0.843367     0.835724     0.828081     0.820438     0.812795     0.805152     0.797508
      0.789865     0.782222     0.774579     0.766936     0.759293     0.751650     0.744007     0.736364     0.728721     0.721077
      0.713434     0.705791     0.698148     0.690505     0.682862     0.675219     0.667576     0.659933     0.652290     0.644646
      0.637003     0.629360     0.621717     0.614074     0.606431     0.598788     0.591145     0.583502     0.575858     0.568215
      0.560572     0.552929     0.545286     0.537643     0.530000     0.522357     0.514714     0.507071     0.499427     0.491784
      0.484141     0.476498     0.468855     0.461212     0.453569     0.445925     0.438282     0.430639     0.422996     0.415353
      0.407710     0.400067     0.392424     0.384780     0.377137     0.369494     0.361851     0.354208     0.346565     0.338922
      0.331278     0.323635     0.315992     0.308349     0.300706     0.293063     0.285420     0.277777     0.270133     0.262490
      0.254847     0.247204     0.239561     0.231918     0.224275     0.216631     0.208988     0.201345
 NY phased data points follow
   2.11343E+01  1.41205E+01  1.87970E+01  2.69185E+01  2.49411E+01  2.77124E+01  3.44520E+01  4.49763E+01  5.04350E+01  6.11592E+01
   6.70766E+01  7.32942E+01  7.13002E+01  6.15518E+01  5.69656E+01  4.56432E+01  3.83415E+01  3.73778E+01  2.63446E+01  2.48714E+01
   2.08010E+01  1.59821E+01  1.18172E+01  1.85875E+01  1.75722E+01  1.80878E+01  1.74263E+01  2.09230E+01  2.16659E+01  2.71819E+01
   2.23786E+01  3.23051E+01  3.04355E+01  2.53405E+01  2.56652E+01  2.26263E+01  1.75718E+01  1.56797E+01  1.67109E+01  1.81519E+01
   1.80598E+01  1.78317E+01  1.69062E+01  1.31914E+01  1.82654E+01  2.31951E+01  2.40568E+01  3.20333E+01  2.51453E+01  1.81774E+01
   1.91522E+01  1.98574E+01  1.14603E+01  1.27413E+01  1.05046E+01  1.29196E+01  1.06053E+01  1.67643E+01  1.55349E+01  1.32139E+01
   9.48590E+00  9.71015E+00  2.40877E+00  1.17885E+00  4.90540E+00  2.68234E+00  5.36985E-01  1.12552E-01 -1.25380E+00  2.91490E+00
   2.19977E+00 -2.19803E+00 -1.73868E+00  2.82832E+00 -2.80547E+00  7.30033E-01 -1.74616E+00  6.64561E-01 -2.63518E+00  2.85403E-01
   5.15238E-01 -2.82693E+00 -3.31024E+00 -6.40773E+00 -1.53186E+00 -2.33500E+00 -8.77528E-01 -3.79324E+00 -2.24244E+00 -2.00179E+00
  -2.59846E-02 -9.04920E-01  1.02221E+00  2.74317E+00  4.41970E+00  9.38862E-01  1.72785E+00  7.02608E-01  5.38264E+00  1.69523E+01
   2.24159E+01  3.40359E+01  4.07133E+01  5.29555E+01  4.41092E+01  3.84341E+01  2.49687E+01  2.35035E+01  1.99212E+01  1.39895E+01
   9.00636E+00  5.25371E+00  7.17720E+00  1.11546E+00  5.48860E+00  2.56032E-01 -1.75370E+00  2.65170E+00  1.47086E+00  2.92792E+00
   3.13219E+00  8.15805E+00  1.13178E+01  2.17974E+01  3.52238E+01  5.43288E+01  6.90495E+01  7.56895E+01  7.15703E+01  6.19903E+01
   5.40072E+01  4.54723E+01  3.02983E+01  1.87206E+01  1.36058E+01  1.07887E+01  1.22599E-01 -8.30645E-01  2.09626E+00  1.50238E-01
   2.99152E+00 -3.15057E+00 -3.55928E+00  2.11735E+00 -5.98688E+00  2.91460E-01 -1.93653E+00 -1.38649E+00 -3.36678E+00 -1.12035E+00
  -6.87042E+00 -8.06634E+00 -5.19047E+00 -7.82804E+00 -4.94118E+00 -1.04564E+01 -4.86890E+00 -2.49515E+00 -9.06896E+00 -3.65197E+00
  -8.02864E+00 -7.08726E+00 -8.43830E+00 -1.00012E+01 -3.42558E+00 -1.13561E+01 -1.03885E+01 -1.24649E+01 -8.09395E+00 -1.41735E+01
  -1.76237E+01 -1.19579E+01 -1.59875E+01 -1.78569E+01 -2.86584E+01 -2.44649E+01 -2.72898E+01 -2.52350E+01 -2.34610E+01 -2.16699E+01
  -2.21855E+01 -1.88472E+01 -2.23177E+01 -2.19833E+01 -2.48466E+01 -2.37344E+01 -1.87485E+01 -1.84544E+01 -2.17060E+01 -1.22726E+01
  -1.35035E+01 -1.30045E+01 -5.57668E+00 -3.99798E+00 -6.77342E+00 -1.27627E+01 -6.24453E+00 -1.10411E+01 -1.61206E+01 -8.74363E+00
  -8.22180E+00 -6.06562E+00 -6.98322E+00 -7.52588E+00 -9.19257E+00 -6.24300E+00 -1.17898E+01 -1.52577E+01 -1.10968E+01 -1.41709E+01
  -1.47714E+01 -1.68887E+01 -7.87306E+00 -5.39461E+00 -1.87467E+00 -2.34437E-01  6.75667E+00 -2.33810E+00 -6.38972E+00 -1.04630E+01
  -1.27510E+01 -1.88241E+01 -1.37262E+01 -8.62893E+00 -1.01691E+01 -1.95795E+00  2.00268E+00  1.83950E+00  2.27168E+00 -4.49653E-01
   4.06642E+00  1.19102E+00 -7.47446E-01 -2.57608E+00 -6.70908E+00  4.97046E-01 -3.07022E+00 -3.57807E-01 -6.01500E+00 -7.76683E+00
  -9.13295E+00 -1.12545E+00 -2.65193E+00 -9.70648E-01 -2.64766E+00 -1.81944E+00  4.01750E+00  3.13901E+00  1.12067E+01  7.61700E+00
   1.52251E+01  1.68672E+01  1.90901E+01  2.79735E+01  2.74101E+01  3.10716E+01  4.41124E+01  6.17366E+01  9.29619E+01  1.12417E+02
   1.19963E+02  1.02914E+02  8.06286E+01  6.50252E+01  4.87029E+01  3.71621E+01  2.69795E+01  1.15542E+01  9.95609E+00  2.17016E+00
   4.28901E+00 -8.85149E+00 -2.26040E+00 -3.18030E+00 -9.41383E+00 -1.60631E+00 -4.08851E+00  3.12753E-01 -5.26586E+00 -7.33685E+00
  -9.33689E+00 -4.15373E+00 -2.60531E+00 -5.00844E+00 -1.04323E+01 -1.36595E+01 -9.14623E+00 -1.03057E+01 -1.27058E+01 -3.72636E+00
  -4.77420E+00 -6.52531E+00 -6.52592E+00 -7.87916E+00 -1.22585E+01 -6.46564E+00 -5.84240E+00 -5.81719E+00 -3.48867E+00 -8.26583E+00
  -5.51094E+00 -7.42556E+00 -4.39975E+00 -9.94965E+00 -2.70738E+00 -4.78016E+00 -1.52767E+00 -5.57861E+00 -8.93231E-01 -3.00928E+00
   1.46295E-02 -4.50082E-01 -2.32469E+00  7.75387E-01 -1.99348E+00 -2.29093E+00 -6.83848E+00 -1.49779E+00 -7.14901E+00 -5.68759E+00
  -1.10088E+00 -1.41301E+00 -2.65112E+00 -1.73238E+00 -1.90638E+00 -1.34845E-01  4.55982E-01  2.36366E+00  4.72880E+00  6.26221E+00
   5.21090E+00  4.95148E+00  5.24086E+00  1.09511E+01  5.21793E+00  8.42084E+00  9.23551E+00  8.42033E+00  1.00177E+01  5.35022E+00
   8.12908E+00  6.08511E+00  3.96945E+00  7.18724E+00  6.55359E+00  7.96941E+00  1.29361E+01  4.76254E+00  9.83539E+00  7.45394E-01
   2.75839E+00  2.33404E+00  1.33476E-01  4.72244E+00  1.64466E+00  3.77154E+00  5.21594E+00  3.09225E+00  2.38726E+00  4.31420E+00
   3.99529E+00  6.59067E+00 -3.94638E+00 -1.63892E+00  1.72072E+00 -3.26602E-01 -4.11729E+00 -4.05022E+00 -2.75537E+00  1.02055E+00
  -4.24267E-01  2.09716E+00  6.74875E-01 -2.35255E+00 -1.77744E+00 -4.64719E+00 -7.96707E+00 -2.07637E+00 -6.70991E+00 -5.43020E+00
  -1.34190E+01 -8.37003E+00 -9.29719E+00 -8.06675E+00 -7.85923E+00 -4.17012E+00 -9.84219E+00 -6.06898E+00 -1.54359E+00 -8.18797E+00
  -1.99405E+00 -2.45829E+00 -1.61307E+00 -6.45461E+00 -1.73533E+00  9.51787E-01  2.79407E+00  1.46376E+00 -1.86347E-01  4.35266E+00
  -2.81225E+00 -9.92264E-01 -7.86097E+00 -4.32952E+00  2.39711E+00  9.40674E+00  1.27158E+00  5.52084E+00 -2.06571E-01 -1.69497E-02
   7.82025E-01  3.99009E+00  4.09300E+00 -8.08251E+00 -6.90672E+00  5.56961E-01 -3.71965E+00 -6.67141E+00 -3.99425E+00 -4.33275E+00
  -8.05905E+00 -9.22538E+00 -8.07490E+00 -9.59815E+00 -7.82723E+00 -1.14355E+01 -1.29230E+01 -1.33280E+01 -1.09088E+01 -1.38115E+01
  -1.82222E+01 -1.15515E+01 -1.01698E+01 -9.30196E+00 -1.24893E+01 -9.88774E+00 -3.73255E+00 -1.26388E+01 -1.21726E+01 -1.33379E+01
  -1.30746E+01 -9.94781E+00 -1.61366E+01 -9.86466E+00 -9.99398E+00 -1.20610E+01 -1.48973E+01 -1.43265E+01 -1.71874E+01 -1.19371E+01
  -1.10439E+01 -1.21600E+01 -1.13578E+01 -1.86667E+01 -1.23510E+01 -1.82852E+01 -1.03542E+01 -1.37640E+01 -8.64963E+00 -1.53243E+01
  -1.29453E+01 -1.29053E+01 -1.16143E+01 -1.39830E+01 -1.27442E+01 -1.70225E+01 -1.22702E+01 -8.22341E+00 -1.02685E+01 -1.20349E+01
  -1.19299E+01 -8.40318E+00 -1.53837E+01 -9.51377E+00 -7.69983E+00 -8.39331E+00 -1.20291E+01 -1.08316E+01 -8.95774E+00 -1.08905E+01
  -1.21946E+01 -1.29624E+01 -1.39329E+01 -7.32914E+00 -1.13011E+01 -9.33798E+00 -9.62621E+00 -1.16730E+01 -1.37054E+01 -1.44489E+01
  -8.57018E+00 -1.37189E+01 -8.86411E+00 -1.38768E+01 -9.34259E+00 -8.96167E+00 -1.13452E+01 -1.60148E+01
 NY points of the fit to the data follow
   1.92712E+01  1.88633E+01  1.95173E+01  2.06461E+01  2.27082E+01  2.73401E+01  3.28981E+01  3.99083E+01  4.89522E+01  5.85317E+01
   6.59199E+01  6.87764E+01  6.60795E+01  5.92727E+01  5.15673E+01  4.48500E+01  3.89995E+01  3.33340E+01  2.86085E+01  2.49860E+01
   2.16141E+01  1.96382E+01  1.86833E+01  1.82822E+01  1.76391E+01  1.66864E+01  1.65571E+01  1.84237E+01  2.23110E+01  2.70036E+01
   3.05791E+01  3.16338E+01  3.03428E+01  2.76094E+01  2.39018E+01  2.00646E+01  1.71168E+01  1.52493E+01  1.39537E+01  1.34586E+01
   1.38038E+01  1.43310E+01  1.49067E+01  1.61239E+01  1.81456E+01  2.03610E+01  2.18829E+01  2.17980E+01  1.99935E+01  1.75783E+01
   1.53500E+01  1.34509E+01  1.19135E+01  1.07731E+01  9.93854E+00  9.32414E+00  9.15756E+00  9.56057E+00  1.01555E+01  1.04482E+01
   1.01971E+01  9.38122E+00  8.28755E+00  7.19219E+00  6.37609E+00  5.96409E+00  5.79734E+00  5.74805E+00  5.84146E+00  6.05439E+00
   6.28040E+00  6.38459E+00  6.22462E+00  5.83879E+00  5.37386E+00  4.90556E+00  4.46785E+00  4.03916E+00  3.65113E+00  3.21657E+00
   2.70230E+00  2.19993E+00  1.66265E+00  9.79734E-01  4.18872E-02 -1.09356E+00 -2.17502E+00 -2.90567E+00 -3.15615E+00 -2.94691E+00
  -2.51094E+00 -1.98531E+00 -1.41334E+00 -8.75972E-01 -4.41273E-01  1.54356E-01  2.31777E+00  5.22453E+00  7.49411E+00  1.25156E+01
   2.21621E+01  3.46820E+01  4.55186E+01  4.99390E+01  4.64367E+01  3.84778E+01  3.05013E+01  2.37752E+01  1.76530E+01  1.20650E+01
   7.47070E+00  3.23280E+00 -3.85023E-02 -1.15831E+00 -1.52703E+00 -1.67107E+00 -1.70627E+00 -1.64235E+00 -1.37612E+00 -3.77593E-01
   3.25668E+00  8.67807E+00  1.33530E+01  2.15628E+01  3.63637E+01  5.55386E+01  7.25325E+01  8.01996E+01  7.58127E+01  6.41143E+01
   5.20543E+01  4.18816E+01  3.24653E+01  2.32647E+01  1.47866E+01  6.80755E+00  4.20410E-01 -2.09971E+00 -2.60202E+00 -2.32947E+00
  -1.84420E+00 -1.54991E+00 -1.61288E+00 -1.89220E+00 -2.27043E+00 -2.71992E+00 -3.19741E+00 -3.72981E+00 -4.33567E+00 -4.91299E+00
  -5.50403E+00 -6.01856E+00 -6.44658E+00 -6.83700E+00 -7.26239E+00 -7.50476E+00 -7.66972E+00 -8.03656E+00 -8.68453E+00 -9.66401E+00
  -1.04584E+01 -1.05538E+01 -1.00570E+01 -9.58101E+00 -9.64758E+00 -1.03321E+01 -1.13055E+01 -1.21922E+01 -1.28986E+01 -1.35204E+01
  -1.41162E+01 -1.46377E+01 -1.53990E+01 -1.64393E+01 -1.73418E+01 -1.76162E+01 -1.72486E+01 -1.67068E+01 -1.65883E+01 -1.69920E+01
  -1.74675E+01 -1.74060E+01 -1.70197E+01 -1.68391E+01 -1.68222E+01 -1.65983E+01 -1.57567E+01 -1.40679E+01 -1.18572E+01 -9.78291E+00
  -8.41485E+00 -8.06206E+00 -8.30840E+00 -8.87380E+00 -9.64204E+00 -1.04905E+01 -1.12871E+01 -1.15520E+01 -1.09763E+01 -9.57501E+00
  -7.78276E+00 -5.89728E+00 -4.50561E+00 -4.13759E+00 -4.67654E+00 -6.53120E+00 -9.53884E+00 -1.28028E+01 -1.53513E+01 -1.64022E+01
  -1.61394E+01 -1.42509E+01 -1.09406E+01 -6.83741E+00 -3.25734E+00 -1.69335E+00 -2.58622E+00 -5.04721E+00 -8.39097E+00 -1.24508E+01
  -1.60413E+01 -1.78201E+01 -1.71600E+01 -1.44858E+01 -1.12832E+01 -8.16914E+00 -5.51931E+00 -3.53294E+00 -2.51394E+00 -2.36006E+00
  -2.36539E+00 -2.36471E+00 -2.41986E+00 -2.21470E+00 -1.43248E+00 -3.90165E-01  7.35426E-01  1.67534E+00  1.82565E+00  1.16564E+00
   1.75610E-01 -6.21808E-01 -8.78561E-01 -2.60957E-01  1.11708E+00  2.60802E+00  3.89014E+00  4.94577E+00  5.96313E+00  7.10166E+00
   8.43358E+00  1.02526E+01  1.35452E+01  2.13913E+01  2.95150E+01  3.54744E+01  4.67463E+01  6.67874E+01  9.13684E+01  1.10755E+02
   1.15386E+02  1.03715E+02  8.45917E+01  6.68627E+01  5.19099E+01  3.83098E+01  2.62532E+01  1.63748E+01  6.78202E+00 -4.67527E-02
  -2.34526E+00 -3.34841E+00 -3.95237E+00 -4.36378E+00 -4.80017E+00 -5.31823E+00 -5.84905E+00 -6.37478E+00 -6.89471E+00 -7.37842E+00
  -7.79147E+00 -8.13253E+00 -8.40264E+00 -8.60670E+00 -8.75862E+00 -8.85793E+00 -8.90997E+00 -8.91504E+00 -8.85998E+00 -8.74535E+00
  -8.57612E+00 -8.35338E+00 -8.08413E+00 -7.77494E+00 -7.43767E+00 -7.08031E+00 -6.70749E+00 -6.32744E+00 -5.94385E+00 -5.56011E+00
  -5.18734E+00 -4.83535E+00 -4.51371E+00 -4.23018E+00 -3.99022E+00 -3.79700E+00 -3.65045E+00 -3.54727E+00 -3.48387E+00 -3.45212E+00
  -3.44271E+00 -3.44611E+00 -3.44999E+00 -3.44139E+00 -3.40740E+00 -3.33596E+00 -3.21688E+00 -3.04149E+00 -2.80240E+00 -2.49411E+00
  -2.11400E+00 -1.66286E+00 -1.14459E+00 -5.65447E-01  6.64113E-02  7.40820E-01  1.44529E+00  2.16546E+00  2.88612E+00  3.59248E+00
   4.27062E+00  4.90757E+00  5.49138E+00  6.01202E+00  6.46256E+00  6.84003E+00  7.14563E+00  7.38524E+00  7.57189E+00  7.73597E+00
   7.93273E+00  8.04200E+00  8.02346E+00  8.12399E+00  8.27682E+00  8.18805E+00  7.56291E+00  6.34188E+00  4.93271E+00  3.69128E+00
   2.71444E+00  2.11465E+00  2.00490E+00  2.43429E+00  3.20905E+00  3.87524E+00  4.16963E+00  4.15236E+00  3.90104E+00  3.52802E+00
   3.03975E+00  2.45617E+00  1.83221E+00  1.10854E+00  3.60339E-01 -3.03344E-01 -9.27665E-01 -1.53362E+00 -2.12535E+00 -2.70119E+00
  -3.25722E+00 -3.78879E+00 -4.29111E+00 -4.75925E+00 -5.18819E+00 -5.57304E+00 -5.90946E+00 -6.19380E+00 -6.42294E+00 -6.59390E+00
  -6.70382E+00 -6.75022E+00 -6.73126E+00 -6.64577E+00 -6.49302E+00 -6.27255E+00 -5.98451E+00 -5.63008E+00 -5.21181E+00 -4.73365E+00
  -4.20081E+00 -3.61990E+00 -2.99920E+00 -2.34905E+00 -1.68174E+00 -1.01107E+00 -3.51895E-01  2.80210E-01  8.69134E-01  1.39866E+00
   1.85322E+00  2.21886E+00  2.48392E+00  2.63941E+00  2.67914E+00  2.60008E+00  2.40266E+00  2.09101E+00  1.67265E+00  1.15786E+00
   5.59040E-01 -1.09853E-01 -8.33634E-01 -1.59646E+00 -2.38264E+00 -3.17741E+00 -3.96751E+00 -4.74131E+00 -5.48878E+00 -6.20169E+00
  -6.87378E+00 -7.50091E+00 -8.08080E+00 -8.61260E+00 -9.09650E+00 -9.53363E+00 -9.92600E+00 -1.02764E+01 -1.05882E+01 -1.08644E+01
  -1.11082E+01 -1.13225E+01 -1.15104E+01 -1.16750E+01 -1.18191E+01 -1.19448E+01 -1.20542E+01 -1.21490E+01 -1.22311E+01 -1.23021E+01
  -1.23633E+01 -1.24158E+01 -1.24603E+01 -1.24976E+01 -1.25288E+01 -1.25546E+01 -1.25756E+01 -1.25920E+01 -1.26041E+01 -1.26126E+01
  -1.26177E+01 -1.26200E+01 -1.26196E+01 -1.26166E+01 -1.26110E+01 -1.26032E+01 -1.25937E+01 -1.25825E+01 -1.25695E+01 -1.25548E+01
  -1.25386E+01 -1.25211E+01 -1.25025E+01 -1.24828E+01 -1.24619E+01 -1.24398E+01 -1.24167E+01 -1.23929E+01 -1.23684E+01 -1.23431E+01
  -1.23168E+01 -1.22898E+01 -1.22621E+01 -1.22339E+01 -1.22053E+01 -1.21760E+01 -1.21460E+01 -1.21154E+01 -1.20845E+01 -1.20533E+01
  -1.20216E+01 -1.19894E+01 -1.19567E+01 -1.19236E+01 -1.18903E+01 -1.18567E+01 -1.18227E+01 -1.17883E+01 -1.17534E+01 -1.17184E+01
  -1.16831E+01 -1.16476E+01 -1.16117E+01 -1.15753E+01 -1.15385E+01 -1.15016E+01 -1.14645E+01 -1.14270E+01
 NY background values follow
     1.638E+01    1.618E+01    1.597E+01    1.577E+01    1.556E+01    1.536E+01    1.515E+01    1.494E+01    1.474E+01    1.453E+01
     1.433E+01    1.412E+01    1.392E+01    1.371E+01    1.351E+01    1.330E+01    1.310E+01    1.289E+01    1.269E+01    1.248E+01
     1.228E+01    1.207E+01    1.187E+01    1.166E+01    1.146E+01    1.125E+01    1.105E+01    1.085E+01    1.064E+01    1.044E+01
     1.024E+01    1.003E+01    9.830E+00    9.627E+00    9.425E+00    9.223E+00    9.022E+00    8.820E+00    8.619E+00    8.419E+00
     8.219E+00    8.019E+00    7.819E+00    7.620E+00    7.421E+00    7.223E+00    7.025E+00    6.827E+00    6.630E+00    6.433E+00
     6.237E+00    6.041E+00    5.846E+00    5.651E+00    5.457E+00    5.263E+00    5.070E+00    4.877E+00    4.685E+00    4.494E+00
     4.303E+00    4.113E+00    3.923E+00    3.734E+00    3.546E+00    3.358E+00    3.171E+00    2.985E+00    2.799E+00    2.614E+00
     2.430E+00    2.247E+00    2.064E+00    1.883E+00    1.701E+00    1.521E+00    1.342E+00    1.163E+00    9.855E-01    8.087E-01
     6.327E-01    4.575E-01    2.833E-01    1.101E-01   -6.230E-02   -2.337E-01   -4.042E-01   -5.737E-01   -7.422E-01   -9.097E-01
    -1.076E+00   -1.242E+00   -1.406E+00   -1.569E+00   -1.732E+00   -1.893E+00   -2.054E+00   -2.213E+00   -2.371E+00   -2.529E+00
    -2.685E+00   -2.840E+00   -2.995E+00   -3.148E+00   -3.300E+00   -3.452E+00   -3.602E+00   -3.752E+00   -3.900E+00   -4.048E+00
    -4.195E+00   -4.340E+00   -4.485E+00   -4.629E+00   -4.772E+00   -4.914E+00   -5.055E+00   -5.195E+00   -5.334E+00   -5.472E+00
    -5.609E+00   -5.746E+00   -5.881E+00   -6.016E+00   -6.150E+00   -6.283E+00   -6.415E+00   -6.546E+00   -6.676E+00   -6.805E+00
    -6.934E+00   -7.061E+00   -7.188E+00   -7.314E+00   -7.439E+00   -7.563E+00   -7.686E+00   -7.809E+00   -7.930E+00   -8.051E+00
    -8.171E+00   -8.290E+00   -8.408E+00   -8.525E+00   -8.642E+00   -8.757E+00   -8.872E+00   -8.985E+00   -9.098E+00   -9.209E+00
    -9.320E+00   -9.429E+00   -9.538E+00   -9.645E+00   -9.752E+00   -9.858E+00   -9.962E+00   -1.007E+01   -1.017E+01   -1.027E+01
    -1.037E+01   -1.047E+01   -1.057E+01   -1.066E+01   -1.076E+01   -1.085E+01   -1.095E+01   -1.104E+01   -1.113E+01   -1.122E+01
    -1.131E+01   -1.140E+01   -1.148E+01   -1.157E+01   -1.165E+01   -1.174E+01   -1.182E+01   -1.190E+01   -1.198E+01   -1.206E+01
    -1.213E+01   -1.221E+01   -1.228E+01   -1.235E+01   -1.243E+01   -1.250E+01   -1.256E+01   -1.263E+01   -1.270E+01   -1.276E+01
    -1.283E+01   -1.289E+01   -1.295E+01   -1.301E+01   -1.307E+01   -1.313E+01   -1.319E+01   -1.325E+01   -1.330E+01   -1.336E+01
    -1.341E+01   -1.346E+01   -1.351E+01   -1.356E+01   -1.361E+01   -1.366E+01   -1.371E+01   -1.375E+01   -1.380E+01   -1.384E+01
    -1.389E+01   -1.393E+01   -1.397E+01   -1.402E+01   -1.406E+01   -1.410E+01   -1.414E+01   -1.417E+01   -1.421E+01   -1.425E+01
    -1.428E+01   -1.432E+01   -1.435E+01   -1.439E+01   -1.442E+01   -1.445E+01   -1.449E+01   -1.452E+01   -1.455E+01   -1.458E+01
    -1.461E+01   -1.464E+01   -1.467E+01   -1.470E+01   -1.472E+01   -1.475E+01   -1.478E+01   -1.480E+01   -1.483E+01   -1.485E+01
    -1.488E+01   -1.490E+01   -1.492E+01   -1.495E+01   -1.497E+01   -1.499E+01   -1.501E+01   -1.503E+01   -1.505E+01   -1.507E+01
    -1.509E+01   -1.511E+01   -1.513E+01   -1.515E+01   -1.517E+01   -1.518E+01   -1.520E+01   -1.522E+01   -1.523E+01   -1.525E+01
    -1.526E+01   -1.528E+01   -1.529E+01   -1.530E+01   -1.532E+01   -1.533E+01   -1.534E+01   -1.536E+01   -1.537E+01   -1.538E+01
    -1.539E+01   -1.540E+01   -1.541E+01   -1.542E+01   -1.543E+01   -1.544E+01   -1.545E+01   -1.546E+01   -1.547E+01   -1.548E+01
    -1.548E+01   -1.549E+01   -1.550E+01   -1.551E+01   -1.551E+01   -1.552E+01   -1.553E+01   -1.553E+01   -1.554E+01   -1.554E+01
    -1.555E+01   -1.555E+01   -1.556E+01   -1.556E+01   -1.556E+01   -1.557E+01   -1.557E+01   -1.557E+01   -1.558E+01   -1.558E+01
    -1.558E+01   -1.558E+01   -1.558E+01   -1.558E+01   -1.559E+01   -1.559E+01   -1.559E+01   -1.559E+01   -1.559E+01   -1.559E+01
    -1.559E+01   -1.559E+01   -1.559E+01   -1.558E+01   -1.558E+01   -1.558E+01   -1.558E+01   -1.558E+01   -1.557E+01   -1.557E+01
    -1.557E+01   -1.557E+01   -1.556E+01   -1.556E+01   -1.556E+01   -1.555E+01   -1.555E+01   -1.554E+01   -1.554E+01   -1.554E+01
    -1.553E+01   -1.553E+01   -1.552E+01   -1.551E+01   -1.551E+01   -1.550E+01   -1.550E+01   -1.549E+01   -1.548E+01   -1.548E+01
    -1.547E+01   -1.546E+01   -1.545E+01   -1.545E+01   -1.544E+01   -1.543E+01   -1.542E+01   -1.541E+01   -1.540E+01   -1.539E+01
    -1.538E+01   -1.537E+01   -1.536E+01   -1.535E+01   -1.534E+01   -1.533E+01   -1.532E+01   -1.531E+01   -1.530E+01   -1.529E+01
    -1.528E+01   -1.526E+01   -1.525E+01   -1.524E+01   -1.523E+01   -1.521E+01   -1.520E+01   -1.519E+01   -1.517E+01   -1.516E+01
    -1.514E+01   -1.513E+01   -1.511E+01   -1.510E+01   -1.508E+01   -1.507E+01   -1.505E+01   -1.504E+01   -1.502E+01   -1.500E+01
    -1.499E+01   -1.497E+01   -1.495E+01   -1.493E+01   -1.492E+01   -1.490E+01   -1.488E+01   -1.486E+01   -1.484E+01   -1.482E+01
    -1.480E+01   -1.478E+01   -1.476E+01   -1.474E+01   -1.472E+01   -1.470E+01   -1.468E+01   -1.465E+01   -1.463E+01   -1.461E+01
    -1.459E+01   -1.456E+01   -1.454E+01   -1.451E+01   -1.449E+01   -1.447E+01   -1.444E+01   -1.442E+01   -1.439E+01   -1.436E+01
    -1.434E+01   -1.431E+01   -1.428E+01   -1.426E+01   -1.423E+01   -1.420E+01   -1.417E+01   -1.414E+01   -1.411E+01   -1.409E+01
    -1.406E+01   -1.403E+01   -1.400E+01   -1.397E+01   -1.393E+01   -1.390E+01   -1.387E+01   -1.384E+01   -1.381E+01   -1.378E+01
    -1.374E+01   -1.371E+01   -1.368E+01   -1.365E+01   -1.361E+01   -1.358E+01   -1.355E+01   -1.351E+01   -1.348E+01   -1.344E+01
    -1.341E+01   -1.337E+01   -1.334E+01   -1.330E+01   -1.327E+01   -1.323E+01   -1.320E+01   -1.316E+01   -1.313E+01   -1.309E+01
    -1.305E+01   -1.302E+01   -1.298E+01   -1.294E+01   -1.291E+01   -1.287E+01   -1.283E+01   -1.279E+01   -1.276E+01   -1.272E+01
    -1.268E+01   -1.264E+01   -1.260E+01   -1.257E+01   -1.253E+01   -1.249E+01   -1.245E+01   -1.241E+01   -1.237E+01   -1.233E+01
    -1.229E+01   -1.226E+01   -1.222E+01   -1.218E+01   -1.214E+01   -1.210E+01   -1.206E+01   -1.202E+01   -1.198E+01   -1.194E+01
    -1.190E+01   -1.186E+01   -1.182E+01   -1.178E+01   -1.174E+01   -1.170E+01   -1.166E+01   -1.162E+01   -1.159E+01   -1.155E+01
    -1.151E+01   -1.147E+01   -1.143E+01   -1.139E+01   -1.135E+01   -1.131E+01   -1.127E+01   -1.123E+01
 Cr       Conc. = 1.73E+03
