 LCModel (Version 6.3-1L) Copyright: S.W. Provencher.          Ref.: Magn. Reson. Med. 30:672-679 (1993).                
 Slice#1 Row#10 Col#2  K_02_press_1_raw_act
 36 lines in following concentration table = NCONC+1
    Conc.  %SD /Cr+PCr  Metabolite                                         
    0.000 999%   0.000 Ala                                                 
    0.000 999%   0.000 Asp                                                 
    0.000 999%   0.000 Cr                                                  
  422.959   7%   1.000 PCr                                                 
   36.767 138% 8.7E-02 GABA                                                
   65.334  76%   0.154 Glc                                                 
    0.000 999%   0.000 Gln                                                 
  602.585  27%   1.425 Glu                                                 
    0.000 999%   0.000 GPC                                                 
  144.769   8%   0.342 PCh                                                 
  176.793  24%   0.418 GSH                                                 
  598.363  26%   1.415 Ins                                                 
   57.792 130%   0.137 Lac                                                 
  680.815   7%   1.610 NAA                                                 
   74.716  72%   0.177 NAAG                                                
   51.122  24%   0.121 Scyllo                                              
  161.625  49%   0.382 Tau                                                 
  389.258  15%   0.920 -CrCH2                                              
  144.769   8%   0.342 GPC+PCh                                             
  755.532   5%   1.786 NAA+NAAG                                            
  422.959   7%   1.000 Cr+PCr                                              
  602.585  27%   1.425 Glu+Gln                                             
   40.356 401% 9.5E-02 Lip13a                                              
    0.000 999%   0.000 Lip13b                                              
    5.963 973% 1.4E-02 Lip09                                               
   71.600 119%   0.169 MM09                                                
    8.666 419% 2.0E-02 Lip20                                               
  104.459 130%   0.247 MM20                                                
   23.270 135% 5.5E-02 MM12                                                
   26.040 355% 6.2E-02 MM14                                                
   42.886 135%   0.101 MM17                                                
   40.356 401% 9.5E-02 Lip13a+Lip13b                                       
   89.666 203%   0.212 MM14+Lip13a+Lip13b+MM12                             
   77.563 112%   0.183 MM09+Lip09                                          
  113.125 120%   0.267 MM20+Lip20                                          
   6 lines in following misc. output table
  FWHM = 0.061 ppm    S/N =   5                                            
  Data shift =-0.023 ppm                                                   
  Ph: -31 deg     -22.2 deg/ppm                                            
  alphaB,S = 8.6E-01,   1.0E+02                                            
   14 spline knots.   Ns = 7(1)                                            
  (11) 4 infls.   (10) 1 extrs.                                            
  498 points on ppm-axis = NY
      4.000000     3.992357     3.984714     3.977070     3.969427     3.961784     3.954141     3.946497     3.938854     3.931211
      3.923568     3.915925     3.908281     3.900638     3.892995     3.885352     3.877708     3.870065     3.862422     3.854779
      3.847136     3.839492     3.831849     3.824206     3.816563     3.808919     3.801276     3.793633     3.785990     3.778347
      3.770703     3.763060     3.755417     3.747774     3.740130     3.732487     3.724844     3.717201     3.709558     3.701914
      3.694271     3.686628     3.678985     3.671341     3.663698     3.656055     3.648412     3.640769     3.633125     3.625482
      3.617839     3.610196     3.602552     3.594909     3.587266     3.579623     3.571980     3.564336     3.556693     3.549050
      3.541407     3.533763     3.526120     3.518477     3.510834     3.503191     3.495547     3.487904     3.480261     3.472618
      3.464974     3.457331     3.449688     3.442045     3.434402     3.426758     3.419115     3.411472     3.403829     3.396185
      3.388542     3.380899     3.373256     3.365613     3.357969     3.350326     3.342683     3.335040     3.327396     3.319753
      3.312110     3.304467     3.296824     3.289180     3.281537     3.273894     3.266251     3.258607     3.250964     3.243321
      3.235678     3.228034     3.220391     3.212748     3.205105     3.197462     3.189818     3.182175     3.174532     3.166889
      3.159245     3.151602     3.143959     3.136316     3.128673     3.121029     3.113386     3.105743     3.098100     3.090456
      3.082813     3.075170     3.067527     3.059884     3.052240     3.044597     3.036954     3.029311     3.021667     3.014024
      3.006381     2.998738     2.991095     2.983451     2.975808     2.968165     2.960522     2.952878     2.945235     2.937592
      2.929949     2.922306     2.914662     2.907019     2.899376     2.891733     2.884089     2.876446     2.868803     2.861160
      2.853517     2.845873     2.838230     2.830587     2.822944     2.815300     2.807657     2.800014     2.792371     2.784728
      2.777084     2.769441     2.761798     2.754155     2.746511     2.738868     2.731225     2.723582     2.715939     2.708295
      2.700652     2.693009     2.685366     2.677722     2.670079     2.662436     2.654793     2.647150     2.639506     2.631863
      2.624220     2.616577     2.608933     2.601290     2.593647     2.586004     2.578361     2.570717     2.563074     2.555431
      2.547788     2.540144     2.532501     2.524858     2.517215     2.509572     2.501928     2.494285     2.486642     2.478999
      2.471355     2.463712     2.456069     2.448426     2.440783     2.433139     2.425496     2.417853     2.410210     2.402566
      2.394923     2.387280     2.379637     2.371994     2.364350     2.356707     2.349064     2.341421     2.333777     2.326134
      2.318491     2.310848     2.303205     2.295561     2.287918     2.280275     2.272632     2.264988     2.257345     2.249702
      2.242059     2.234416     2.226772     2.219129     2.211486     2.203843     2.196199     2.188556     2.180913     2.173270
      2.165627     2.157983     2.150340     2.142697     2.135054     2.127410     2.119767     2.112124     2.104481     2.096838
      2.089194     2.081551     2.073908     2.066265     2.058621     2.050978     2.043335     2.035692     2.028049     2.020405
      2.012762     2.005119     1.997476     1.989833     1.982190     1.974546     1.966903     1.959260     1.951617     1.943974
      1.936331     1.928688     1.921045     1.913402     1.905759     1.898115     1.890472     1.882829     1.875186     1.867543
      1.859900     1.852257     1.844614     1.836971     1.829327     1.821684     1.814041     1.806398     1.798755     1.791112
      1.783469     1.775826     1.768183     1.760540     1.752896     1.745253     1.737610     1.729967     1.722324     1.714681
      1.707038     1.699395     1.691752     1.684108     1.676465     1.668822     1.661179     1.653536     1.645893     1.638250
      1.630607     1.622964     1.615321     1.607677     1.600034     1.592391     1.584748     1.577105     1.569462     1.561819
      1.554176     1.546533     1.538890     1.531246     1.523603     1.515960     1.508317     1.500674     1.493031     1.485388
      1.477745     1.470102     1.462458     1.454815     1.447172     1.439529     1.431886     1.424243     1.416600     1.408957
      1.401314     1.393671     1.386027     1.378384     1.370741     1.363098     1.355455     1.347812     1.340169     1.332526
      1.324883     1.317240     1.309596     1.301953     1.294310     1.286667     1.279024     1.271381     1.263738     1.256095
      1.248452     1.240808     1.233165     1.225522     1.217879     1.210236     1.202593     1.194950     1.187307     1.179664
      1.172021     1.164377     1.156734     1.149091     1.141448     1.133805     1.126162     1.118519     1.110876     1.103233
      1.095590     1.087946     1.080303     1.072660     1.065017     1.057374     1.049731     1.042088     1.034445     1.026802
      1.019158     1.011515     1.003872     0.996229     0.988586     0.980943     0.973300     0.965657     0.958014     0.950371
      0.942727     0.935084     0.927441     0.919798     0.912155     0.904512     0.896869     0.889226     0.881583     0.873940
      0.866296     0.858653     0.851010     0.843367     0.835724     0.828081     0.820438     0.812795     0.805152     0.797508
      0.789865     0.782222     0.774579     0.766936     0.759293     0.751650     0.744007     0.736364     0.728721     0.721077
      0.713434     0.705791     0.698148     0.690505     0.682862     0.675219     0.667576     0.659933     0.652290     0.644646
      0.637003     0.629360     0.621717     0.614074     0.606431     0.598788     0.591145     0.583502     0.575858     0.568215
      0.560572     0.552929     0.545286     0.537643     0.530000     0.522357     0.514714     0.507071     0.499427     0.491784
      0.484141     0.476498     0.468855     0.461212     0.453569     0.445925     0.438282     0.430639     0.422996     0.415353
      0.407710     0.400067     0.392424     0.384780     0.377137     0.369494     0.361851     0.354208     0.346565     0.338922
      0.331278     0.323635     0.315992     0.308349     0.300706     0.293063     0.285420     0.277777     0.270133     0.262490
      0.254847     0.247204     0.239561     0.231918     0.224275     0.216631     0.208988     0.201345
 NY phased data points follow
  -5.76280E+01 -5.61904E+01 -5.87312E+01 -5.42444E+01 -5.15953E+01 -5.18817E+01 -5.44857E+01 -5.05843E+01 -4.81393E+01 -4.88956E+01
  -4.90525E+01 -4.96507E+01 -4.55415E+01 -4.82444E+01 -4.77921E+01 -4.90724E+01 -5.10603E+01 -4.89300E+01 -4.69298E+01 -4.75926E+01
  -4.85891E+01 -4.54469E+01 -4.94674E+01 -4.55185E+01 -4.33036E+01 -4.20171E+01 -4.15290E+01 -4.14409E+01 -3.65506E+01 -3.83197E+01
  -3.83260E+01 -3.86679E+01 -3.75397E+01 -3.45163E+01 -3.71082E+01 -3.64682E+01 -3.46677E+01 -3.49623E+01 -3.75456E+01 -3.62304E+01
  -3.63098E+01 -3.52382E+01 -3.56108E+01 -3.21962E+01 -3.40208E+01 -3.46366E+01 -3.09867E+01 -3.26379E+01 -3.12807E+01 -3.05262E+01
  -3.44328E+01 -3.07682E+01 -3.53691E+01 -2.96650E+01 -2.84467E+01 -3.00495E+01 -3.05543E+01 -3.20179E+01 -2.96135E+01 -2.84828E+01
  -2.93903E+01 -3.17279E+01 -3.00416E+01 -2.86917E+01 -2.89069E+01 -3.16219E+01 -2.76016E+01 -2.99979E+01 -2.72980E+01 -2.68027E+01
  -2.59441E+01 -2.57918E+01 -2.62444E+01 -2.45977E+01 -2.44245E+01 -2.40128E+01 -2.18878E+01 -2.35186E+01 -2.04687E+01 -2.54295E+01
  -2.29705E+01 -2.33548E+01 -2.41000E+01 -2.15393E+01 -2.16397E+01 -2.08611E+01 -1.70079E+01 -2.07179E+01 -2.02022E+01 -1.97502E+01
  -1.83167E+01 -1.97967E+01 -1.92752E+01 -1.96596E+01 -1.81998E+01 -1.77850E+01 -1.69670E+01 -1.19207E+01 -1.37593E+01 -1.17884E+01
  -9.53079E+00 -8.88896E+00 -7.37779E+00 -7.82706E+00 -7.60872E+00 -9.20123E+00 -9.81568E+00 -1.51913E+01 -1.59855E+01 -1.46307E+01
  -1.58541E+01 -1.98200E+01 -1.57222E+01 -1.45676E+01 -1.53243E+01 -1.41371E+01 -1.77646E+01 -1.66284E+01 -1.28599E+01 -1.40264E+01
  -1.39376E+01 -9.05002E+00 -8.05255E+00 -7.08853E+00 -3.55521E+00 -4.53911E-01 -1.08362E+00 -3.18318E+00 -2.99923E+00 -5.27827E+00
  -6.28010E+00 -6.94586E+00 -8.26424E+00 -8.67709E+00 -1.42996E+01 -1.48314E+01 -1.41548E+01 -1.14189E+01 -1.15061E+01 -1.19752E+01
  -1.16707E+01 -1.02282E+01 -1.30682E+01 -1.10671E+01 -1.15076E+01 -9.41732E+00 -1.15131E+01 -1.22936E+01 -8.78360E+00 -9.40270E+00
  -9.32865E+00 -6.45944E+00 -8.89341E+00 -9.18947E+00 -8.09009E+00 -1.05878E+01 -5.55486E+00 -6.38409E+00 -6.99954E+00 -8.34493E+00
  -7.37206E+00 -8.93522E+00 -9.71336E+00 -8.21897E+00 -8.52516E+00 -1.13149E+01 -7.38906E+00 -7.88749E+00 -1.02396E+01 -9.05887E+00
  -1.05973E+01 -1.13485E+01 -8.26197E+00 -1.24768E+01 -1.08959E+01 -1.15420E+01 -1.26496E+01 -1.07024E+01 -9.73394E+00 -1.00304E+01
  -8.10161E+00 -5.54517E+00 -9.64474E+00 -7.33446E+00 -6.65311E+00 -8.10570E+00 -4.21535E+00 -1.02819E+01 -7.14649E+00 -6.21569E+00
  -8.07348E+00 -5.79222E+00 -8.63315E+00 -6.36408E+00 -6.67396E+00 -6.93488E+00 -5.67964E+00 -9.14883E+00 -5.53129E+00 -5.05753E+00
  -5.13901E+00 -6.12984E+00 -1.15277E+00 -3.93326E+00 -3.27693E+00 -2.79610E+00 -2.55269E+00 -2.43643E+00 -1.70011E+00 -2.79558E+00
  -5.46460E+00 -1.95508E-01 -3.08496E+00 -6.92449E+00 -2.62351E+00 -7.90065E-01  2.54445E-01 -5.71686E+00 -1.41778E+00 -5.32138E+00
  -5.10995E+00 -6.45558E+00 -4.97173E+00 -4.96881E+00 -8.02744E+00 -3.48439E+00 -5.06116E+00  4.78206E-01  6.85656E-02  6.74634E-02
   2.10060E-01 -3.04546E+00 -3.32315E+00 -1.65944E+00 -2.36273E+00 -3.42441E+00 -1.40640E+00  1.83096E+00 -3.45318E+00 -2.43491E+00
   4.07530E-01 -1.38986E+00 -3.39118E+00 -1.25301E+00 -4.13389E+00  1.95993E+00 -2.68430E-01 -5.30010E-01  1.89286E+00  1.88067E+00
  -1.19103E+00  4.25359E+00  5.58702E+00  2.36616E+00  9.11013E+00  9.87212E+00  1.18615E+01  1.58294E+01  2.04554E+01  2.25623E+01
   2.33080E+01  1.84610E+01  1.54178E+01  1.25735E+01  1.41578E+01  7.76886E+00  3.69975E+00  9.82678E-01  8.88696E-02  2.36058E-01
   1.72504E+00  2.45143E-02 -6.85997E-01  2.42475E+00 -5.40169E-01  1.77278E+00  2.25248E+00  1.92894E+00  8.17237E-01  1.16722E+00
  -7.08829E-02 -9.95457E-04  2.79009E+00  1.04541E+00 -9.88954E-01  2.11506E+00  6.11618E-01  6.44384E-01  3.72624E+00  8.92464E-01
   1.77150E+00  4.97039E+00  4.18154E+00  1.89727E+00  2.60174E-01 -1.03193E+00  4.80730E+00  1.92094E+00  4.08610E+00  2.76025E+00
   3.67551E+00  3.58229E+00  1.05101E+00  4.07160E+00  2.96643E+00  3.01292E+00  2.84424E+00  2.57126E+00  2.08077E+00  3.00663E+00
  -3.71482E-01  3.21482E+00  6.62407E+00  3.22232E+00  1.21763E+00  4.58096E+00  4.64262E+00  2.28213E+00  2.02535E+00  3.58065E+00
   1.27801E+00  4.09983E+00  4.87328E-01  2.21932E+00  1.49141E+00  1.73265E+00  3.38737E+00  3.39940E+00  2.08216E+00  3.24522E+00
   3.16538E+00  3.54801E+00  6.44986E+00  2.03854E+00  4.07742E+00  6.99410E+00  5.26739E+00  4.28657E+00  5.30908E+00  5.18809E+00
   3.92742E+00  6.18396E+00  6.10371E+00  4.05877E+00  1.72967E+00  2.95904E+00  3.87501E+00  4.15431E+00  2.03287E+00  3.72309E+00
   7.37460E+00  4.86104E+00  1.23274E+00  3.51452E+00  6.29847E+00  4.35825E+00  4.38845E+00  6.29103E+00  4.50105E+00  6.27777E+00
   1.64311E+00  7.74502E+00  3.40954E+00  7.62608E+00  5.84995E+00  4.64028E+00  5.97909E+00  8.06721E+00  4.36608E+00  6.26365E+00
   5.62049E+00  3.79061E+00  2.93146E+00  7.49134E+00  4.85233E+00  6.08389E+00  6.49291E+00  5.83424E+00  7.73593E+00  6.80355E+00
   8.10738E+00  3.95964E+00  5.64972E+00  5.16405E+00  2.11941E+00  4.64249E+00  7.33798E+00  3.50721E+00  6.12372E+00  6.29761E+00
   8.82378E+00  4.83369E+00  2.59291E+00  5.49137E+00  7.56378E+00  4.73420E+00  8.30085E+00  7.45870E+00  4.73876E+00  8.52565E+00
   5.51964E+00  5.92759E+00  5.44636E+00  8.07631E+00  4.00377E+00  8.05315E+00  4.69767E+00  7.29777E+00  3.54833E+00  4.46510E+00
   7.78685E+00  3.51918E+00  4.89768E+00  7.36877E+00  5.23765E+00  7.18290E+00  4.93980E+00  4.12128E+00  3.09125E+00  5.81271E+00
   9.97558E+00  4.94470E+00  5.92349E+00  4.41629E+00  4.39992E+00  5.41200E+00  5.00285E+00  5.00457E+00  7.66906E+00  5.59679E+00
   3.29227E+00  2.88172E+00  2.87937E+00  6.69858E+00  8.89793E+00  4.68665E+00  6.04954E+00  4.25000E+00  4.66966E+00  7.66670E+00
   3.96084E+00  4.78291E+00  4.83427E+00  7.30688E+00  4.76430E+00  6.51120E+00  7.26501E+00  6.22530E+00  6.28634E+00  5.17470E+00
   5.39342E+00  5.29510E+00  6.20032E+00  5.55459E+00  8.13145E+00  4.80221E+00  8.50215E+00  6.46980E+00  7.73048E+00  4.73006E+00
   6.81240E+00  3.85102E+00  8.62540E+00  6.67321E+00  5.17246E+00  6.06218E+00  6.60863E+00  4.58443E+00  6.11558E+00  5.53532E+00
   7.50492E+00  7.79855E+00  4.58658E+00  3.66560E+00  4.09973E+00  6.25703E+00  5.05178E+00  6.22689E+00  7.50876E+00  5.74046E+00
   4.21200E+00  3.80801E+00  7.70025E+00  5.68948E+00  5.90164E+00  4.09737E+00  5.57081E+00  5.89866E+00  8.24917E+00  3.14699E+00
   8.89224E+00  4.43523E+00  4.81575E+00  4.76018E+00  9.52169E-01  5.41766E+00  5.25553E+00  3.42198E+00
 NY points of the fit to the data follow
  -5.31913E+01 -5.34534E+01 -5.34825E+01 -5.31039E+01 -5.26238E+01 -5.21741E+01 -5.15897E+01 -5.07500E+01 -4.98359E+01 -4.91059E+01
  -4.85947E+01 -4.81563E+01 -4.77258E+01 -4.74023E+01 -4.72373E+01 -4.71516E+01 -4.70464E+01 -4.67979E+01 -4.64014E+01 -4.59229E+01
  -4.53992E+01 -4.49150E+01 -4.44815E+01 -4.38883E+01 -4.30268E+01 -4.20991E+01 -4.11745E+01 -4.01590E+01 -3.90425E+01 -3.80373E+01
  -3.73182E+01 -3.68808E+01 -3.67092E+01 -3.67682E+01 -3.70140E+01 -3.74097E+01 -3.78628E+01 -3.82442E+01 -3.84229E+01 -3.82957E+01
  -3.77916E+01 -3.69483E+01 -3.59392E+01 -3.49190E+01 -3.39405E+01 -3.30581E+01 -3.24209E+01 -3.21541E+01 -3.21998E+01 -3.23813E+01
  -3.26064E+01 -3.28609E+01 -3.30574E+01 -3.30691E+01 -3.28170E+01 -3.23097E+01 -3.16470E+01 -3.09523E+01 -3.03326E+01 -2.98432E+01
  -2.94793E+01 -2.92222E+01 -2.90149E+01 -2.88308E+01 -2.86393E+01 -2.83867E+01 -2.80658E+01 -2.76871E+01 -2.72245E+01 -2.66630E+01
  -2.60861E+01 -2.55849E+01 -2.51802E+01 -2.48588E+01 -2.46130E+01 -2.44337E+01 -2.43096E+01 -2.42051E+01 -2.40685E+01 -2.38011E+01
  -2.33440E+01 -2.28503E+01 -2.24060E+01 -2.19597E+01 -2.14943E+01 -2.11071E+01 -2.09028E+01 -2.08670E+01 -2.08981E+01 -2.09132E+01
  -2.09273E+01 -2.09433E+01 -2.08780E+01 -2.06789E+01 -2.02779E+01 -1.93216E+01 -1.74711E+01 -1.53073E+01 -1.32597E+01 -1.12486E+01
  -9.25941E+00 -7.70013E+00 -7.06386E+00 -7.38836E+00 -8.30647E+00 -9.53589E+00 -1.10493E+01 -1.27967E+01 -1.44916E+01 -1.58078E+01
  -1.65535E+01 -1.67581E+01 -1.66857E+01 -1.65405E+01 -1.63753E+01 -1.61910E+01 -1.59846E+01 -1.57438E+01 -1.54057E+01 -1.46476E+01
  -1.29365E+01 -1.07356E+01 -8.58993E+00 -6.48703E+00 -4.36268E+00 -2.59990E+00 -1.72967E+00 -1.84758E+00 -2.64918E+00 -3.87068E+00
  -5.46441E+00 -7.39820E+00 -9.39252E+00 -1.10718E+01 -1.21924E+01 -1.26772E+01 -1.27452E+01 -1.26341E+01 -1.24319E+01 -1.21605E+01
  -1.18430E+01 -1.15129E+01 -1.12011E+01 -1.09396E+01 -1.07558E+01 -1.06508E+01 -1.06085E+01 -1.06011E+01 -1.05988E+01 -1.05780E+01
  -1.05230E+01 -1.04369E+01 -1.03306E+01 -1.02191E+01 -1.01356E+01 -1.00774E+01 -1.00171E+01 -9.94243E+00 -9.84472E+00 -9.74364E+00
  -9.64939E+00 -9.54177E+00 -9.42083E+00 -9.31829E+00 -9.25317E+00 -9.20930E+00 -9.16583E+00 -9.12349E+00 -9.10932E+00 -9.15467E+00
  -9.23248E+00 -9.26303E+00 -9.23099E+00 -9.16802E+00 -9.11076E+00 -9.04186E+00 -8.92592E+00 -8.77705E+00 -8.64306E+00 -8.54208E+00
  -8.45380E+00 -8.33349E+00 -8.16183E+00 -7.95686E+00 -7.71004E+00 -7.37249E+00 -6.91932E+00 -6.40120E+00 -5.89154E+00 -5.43712E+00
  -5.06038E+00 -4.82180E+00 -4.72637E+00 -4.71691E+00 -4.77166E+00 -4.88844E+00 -5.00680E+00 -5.01499E+00 -4.88230E+00 -4.64551E+00
  -4.35961E+00 -4.07167E+00 -3.79484E+00 -3.60271E+00 -3.55439E+00 -3.64759E+00 -3.86527E+00 -4.12345E+00 -4.30756E+00 -4.28239E+00
  -4.02343E+00 -3.65111E+00 -3.20777E+00 -2.72088E+00 -2.31905E+00 -2.23294E+00 -2.58488E+00 -3.20704E+00 -3.86187E+00 -4.49943E+00
  -5.09669E+00 -5.49501E+00 -5.50379E+00 -5.09733E+00 -4.43348E+00 -3.70357E+00 -2.99298E+00 -2.33557E+00 -1.80736E+00 -1.47153E+00
  -1.29257E+00 -1.16731E+00 -1.03436E+00 -9.08377E-01 -8.27615E-01 -7.89478E-01 -8.28707E-01 -9.73080E-01 -1.18597E+00 -1.38175E+00
  -1.51643E+00 -1.55172E+00 -1.44556E+00 -1.20225E+00 -8.77651E-01 -5.32122E-01 -1.91510E-01  1.27003E-01  4.28416E-01  8.04888E-01
   1.25860E+00  1.76079E+00  2.49933E+00  4.29853E+00  7.47026E+00  1.08741E+01  1.39216E+01  1.68308E+01  1.95201E+01  2.11673E+01
   2.10997E+01  1.95335E+01  1.71716E+01  1.44094E+01  1.12560E+01  7.85202E+00  4.70821E+00  2.32990E+00  9.68400E-01  4.70939E-01
   3.87991E-01  4.38185E-01  5.45585E-01  6.76114E-01  7.97306E-01  8.99004E-01  9.83341E-01  1.04782E+00  1.08800E+00  1.10940E+00
   1.12385E+00  1.14354E+00  1.17636E+00  1.22399E+00  1.28321E+00  1.35117E+00  1.42400E+00  1.49755E+00  1.56935E+00  1.63879E+00
   1.70643E+00  1.77302E+00  1.83790E+00  1.90177E+00  1.96570E+00  2.02956E+00  2.09226E+00  2.15389E+00  2.21504E+00  2.27629E+00
   2.33753E+00  2.39846E+00  2.45834E+00  2.51674E+00  2.57294E+00  2.62654E+00  2.67717E+00  2.72486E+00  2.76985E+00  2.81283E+00
   2.85423E+00  2.89464E+00  2.93438E+00  2.97387E+00  3.01329E+00  3.05301E+00  3.09314E+00  3.13402E+00  3.17574E+00  3.21855E+00
   3.26242E+00  3.30748E+00  3.35358E+00  3.40083E+00  3.44905E+00  3.49830E+00  3.54840E+00  3.59938E+00  3.65106E+00  3.70353E+00
   3.75670E+00  3.81073E+00  3.86567E+00  3.92185E+00  3.97958E+00  4.03966E+00  4.10311E+00  4.17203E+00  4.25030E+00  4.34772E+00
   4.47994E+00  4.61302E+00  4.69885E+00  4.74039E+00  4.74850E+00  4.70602E+00  4.58819E+00  4.41081E+00  4.26085E+00  4.18689E+00
   4.16791E+00  4.19221E+00  4.28492E+00  4.45897E+00  4.67919E+00  4.89282E+00  5.06472E+00  5.18664E+00  5.26102E+00  5.28427E+00
   5.26023E+00  5.20807E+00  5.15187E+00  5.11323E+00  5.09656E+00  5.09320E+00  5.09606E+00  5.10237E+00  5.11071E+00  5.12051E+00
   5.13134E+00  5.14312E+00  5.15569E+00  5.16916E+00  5.18346E+00  5.19878E+00  5.21511E+00  5.23265E+00  5.25142E+00  5.27162E+00
   5.29330E+00  5.31665E+00  5.34171E+00  5.36868E+00  5.39756E+00  5.42851E+00  5.46148E+00  5.49657E+00  5.53360E+00  5.57254E+00
   5.61311E+00  5.65509E+00  5.69801E+00  5.74149E+00  5.78485E+00  5.82755E+00  5.86880E+00  5.90795E+00  5.94416E+00  5.97682E+00
   6.00517E+00  6.02876E+00  6.04706E+00  6.05989E+00  6.06704E+00  6.06865E+00  6.06488E+00  6.05621E+00  6.04308E+00  6.02622E+00
   6.00624E+00  5.98399E+00  5.96014E+00  5.93552E+00  5.91070E+00  5.88639E+00  5.86299E+00  5.84099E+00  5.82061E+00  5.80214E+00
   5.78560E+00  5.77112E+00  5.75854E+00  5.74790E+00  5.73895E+00  5.73166E+00  5.72574E+00  5.72114E+00  5.71757E+00  5.71498E+00
   5.71311E+00  5.71194E+00  5.71123E+00  5.71097E+00  5.71097E+00  5.71125E+00  5.71164E+00  5.71217E+00  5.71271E+00  5.71330E+00
   5.71381E+00  5.71430E+00  5.71466E+00  5.71496E+00  5.71509E+00  5.71511E+00  5.71493E+00  5.71463E+00  5.71410E+00  5.71343E+00
   5.71252E+00  5.71145E+00  5.71014E+00  5.70866E+00  5.70692E+00  5.70503E+00  5.70288E+00  5.70058E+00  5.69802E+00  5.69531E+00
   5.69236E+00  5.68925E+00  5.68590E+00  5.68241E+00  5.67869E+00  5.67483E+00  5.67075E+00  5.66654E+00  5.66211E+00  5.65756E+00
   5.65280E+00  5.64793E+00  5.64287E+00  5.63770E+00  5.63234E+00  5.62689E+00  5.62127E+00  5.61556E+00  5.60968E+00  5.60373E+00
   5.59762E+00  5.59145E+00  5.58514E+00  5.57877E+00  5.57228E+00  5.56574E+00  5.55909E+00  5.55242E+00  5.54564E+00  5.53886E+00
   5.53199E+00  5.52512E+00  5.51820E+00  5.51130E+00  5.50437E+00  5.49749E+00  5.49059E+00  5.48378E+00
 NY background values follow
    -5.428E+01   -5.389E+01   -5.350E+01   -5.310E+01   -5.271E+01   -5.232E+01   -5.193E+01   -5.154E+01   -5.115E+01   -5.076E+01
    -5.037E+01   -4.997E+01   -4.958E+01   -4.919E+01   -4.880E+01   -4.841E+01   -4.802E+01   -4.763E+01   -4.725E+01   -4.686E+01
    -4.647E+01   -4.608E+01   -4.570E+01   -4.531E+01   -4.493E+01   -4.454E+01   -4.416E+01   -4.377E+01   -4.339E+01   -4.301E+01
    -4.263E+01   -4.225E+01   -4.187E+01   -4.150E+01   -4.112E+01   -4.074E+01   -4.037E+01   -4.000E+01   -3.963E+01   -3.926E+01
    -3.889E+01   -3.852E+01   -3.815E+01   -3.779E+01   -3.743E+01   -3.706E+01   -3.670E+01   -3.634E+01   -3.599E+01   -3.563E+01
    -3.528E+01   -3.493E+01   -3.458E+01   -3.423E+01   -3.388E+01   -3.353E+01   -3.319E+01   -3.285E+01   -3.251E+01   -3.217E+01
    -3.183E+01   -3.150E+01   -3.117E+01   -3.084E+01   -3.051E+01   -3.018E+01   -2.985E+01   -2.953E+01   -2.921E+01   -2.889E+01
    -2.857E+01   -2.826E+01   -2.795E+01   -2.764E+01   -2.733E+01   -2.702E+01   -2.671E+01   -2.641E+01   -2.611E+01   -2.581E+01
    -2.552E+01   -2.522E+01   -2.493E+01   -2.464E+01   -2.436E+01   -2.407E+01   -2.379E+01   -2.351E+01   -2.323E+01   -2.296E+01
    -2.269E+01   -2.242E+01   -2.215E+01   -2.188E+01   -2.162E+01   -2.136E+01   -2.110E+01   -2.084E+01   -2.059E+01   -2.034E+01
    -2.009E+01   -1.985E+01   -1.960E+01   -1.936E+01   -1.912E+01   -1.888E+01   -1.865E+01   -1.842E+01   -1.819E+01   -1.796E+01
    -1.774E+01   -1.751E+01   -1.729E+01   -1.708E+01   -1.686E+01   -1.665E+01   -1.644E+01   -1.623E+01   -1.602E+01   -1.582E+01
    -1.561E+01   -1.541E+01   -1.522E+01   -1.502E+01   -1.483E+01   -1.464E+01   -1.445E+01   -1.426E+01   -1.408E+01   -1.390E+01
    -1.372E+01   -1.354E+01   -1.337E+01   -1.319E+01   -1.302E+01   -1.285E+01   -1.269E+01   -1.252E+01   -1.236E+01   -1.220E+01
    -1.204E+01   -1.189E+01   -1.174E+01   -1.158E+01   -1.143E+01   -1.129E+01   -1.114E+01   -1.100E+01   -1.085E+01   -1.071E+01
    -1.057E+01   -1.044E+01   -1.030E+01   -1.017E+01   -1.004E+01   -9.904E+00   -9.775E+00   -9.648E+00   -9.522E+00   -9.397E+00
    -9.274E+00   -9.152E+00   -9.031E+00   -8.912E+00   -8.794E+00   -8.677E+00   -8.562E+00   -8.447E+00   -8.334E+00   -8.222E+00
    -8.111E+00   -8.001E+00   -7.892E+00   -7.784E+00   -7.677E+00   -7.571E+00   -7.465E+00   -7.361E+00   -7.257E+00   -7.154E+00
    -7.052E+00   -6.951E+00   -6.850E+00   -6.750E+00   -6.650E+00   -6.552E+00   -6.453E+00   -6.356E+00   -6.259E+00   -6.163E+00
    -6.067E+00   -5.972E+00   -5.878E+00   -5.784E+00   -5.690E+00   -5.597E+00   -5.505E+00   -5.413E+00   -5.322E+00   -5.232E+00
    -5.141E+00   -5.052E+00   -4.963E+00   -4.874E+00   -4.786E+00   -4.698E+00   -4.610E+00   -4.524E+00   -4.437E+00   -4.351E+00
    -4.265E+00   -4.180E+00   -4.095E+00   -4.011E+00   -3.927E+00   -3.843E+00   -3.760E+00   -3.677E+00   -3.594E+00   -3.511E+00
    -3.429E+00   -3.348E+00   -3.266E+00   -3.185E+00   -3.104E+00   -3.023E+00   -2.943E+00   -2.863E+00   -2.783E+00   -2.703E+00
    -2.624E+00   -2.545E+00   -2.466E+00   -2.387E+00   -2.309E+00   -2.231E+00   -2.153E+00   -2.076E+00   -1.999E+00   -1.922E+00
    -1.845E+00   -1.769E+00   -1.693E+00   -1.617E+00   -1.542E+00   -1.467E+00   -1.392E+00   -1.318E+00   -1.244E+00   -1.170E+00
    -1.097E+00   -1.024E+00   -9.513E-01   -8.790E-01   -8.070E-01   -7.354E-01   -6.642E-01   -5.933E-01   -5.228E-01   -4.527E-01
    -3.829E-01   -3.135E-01   -2.446E-01   -1.760E-01   -1.078E-01   -3.996E-02    2.744E-02    9.443E-02    1.610E-01    2.272E-01
     2.929E-01    3.583E-01    4.232E-01    4.876E-01    5.517E-01    6.153E-01    6.786E-01    7.414E-01    8.038E-01    8.657E-01
     9.273E-01    9.885E-01    1.049E+00    1.110E+00    1.170E+00    1.229E+00    1.288E+00    1.347E+00    1.405E+00    1.463E+00
     1.521E+00    1.578E+00    1.635E+00    1.692E+00    1.748E+00    1.803E+00    1.859E+00    1.914E+00    1.968E+00    2.022E+00
     2.076E+00    2.130E+00    2.183E+00    2.236E+00    2.288E+00    2.340E+00    2.392E+00    2.443E+00    2.494E+00    2.545E+00
     2.595E+00    2.645E+00    2.695E+00    2.744E+00    2.793E+00    2.841E+00    2.890E+00    2.938E+00    2.985E+00    3.032E+00
     3.079E+00    3.126E+00    3.172E+00    3.218E+00    3.264E+00    3.309E+00    3.354E+00    3.398E+00    3.442E+00    3.486E+00
     3.529E+00    3.572E+00    3.615E+00    3.657E+00    3.698E+00    3.740E+00    3.781E+00    3.821E+00    3.861E+00    3.901E+00
     3.940E+00    3.979E+00    4.018E+00    4.056E+00    4.093E+00    4.130E+00    4.167E+00    4.203E+00    4.239E+00    4.274E+00
     4.309E+00    4.343E+00    4.377E+00    4.411E+00    4.443E+00    4.476E+00    4.508E+00    4.539E+00    4.570E+00    4.601E+00
     4.631E+00    4.660E+00    4.689E+00    4.717E+00    4.745E+00    4.773E+00    4.800E+00    4.826E+00    4.852E+00    4.878E+00
     4.903E+00    4.927E+00    4.951E+00    4.975E+00    4.998E+00    5.021E+00    5.043E+00    5.065E+00    5.086E+00    5.107E+00
     5.128E+00    5.148E+00    5.168E+00    5.187E+00    5.206E+00    5.224E+00    5.242E+00    5.260E+00    5.278E+00    5.295E+00
     5.311E+00    5.328E+00    5.343E+00    5.359E+00    5.374E+00    5.389E+00    5.404E+00    5.418E+00    5.432E+00    5.445E+00
     5.459E+00    5.472E+00    5.484E+00    5.497E+00    5.509E+00    5.521E+00    5.532E+00    5.543E+00    5.554E+00    5.565E+00
     5.575E+00    5.585E+00    5.595E+00    5.605E+00    5.614E+00    5.623E+00    5.632E+00    5.641E+00    5.649E+00    5.657E+00
     5.665E+00    5.672E+00    5.679E+00    5.686E+00    5.693E+00    5.699E+00    5.705E+00    5.711E+00    5.717E+00    5.722E+00
     5.727E+00    5.732E+00    5.736E+00    5.740E+00    5.744E+00    5.748E+00    5.752E+00    5.755E+00    5.758E+00    5.760E+00
     5.763E+00    5.765E+00    5.767E+00    5.768E+00    5.770E+00    5.771E+00    5.771E+00    5.772E+00    5.772E+00    5.772E+00
     5.772E+00    5.771E+00    5.771E+00    5.770E+00    5.768E+00    5.767E+00    5.765E+00    5.763E+00    5.761E+00    5.758E+00
     5.755E+00    5.752E+00    5.749E+00    5.746E+00    5.742E+00    5.738E+00    5.734E+00    5.730E+00    5.726E+00    5.721E+00
     5.716E+00    5.711E+00    5.706E+00    5.701E+00    5.696E+00    5.690E+00    5.684E+00    5.678E+00    5.672E+00    5.666E+00
     5.660E+00    5.653E+00    5.647E+00    5.640E+00    5.633E+00    5.626E+00    5.619E+00    5.612E+00    5.604E+00    5.597E+00
     5.590E+00    5.582E+00    5.574E+00    5.567E+00    5.559E+00    5.551E+00    5.543E+00    5.535E+00
 PCr      Conc. = 4.23E+02
