 LCModel (Version 6.3-1L) Copyright: S.W. Provencher.          Ref.: Magn. Reson. Med. 30:672-679 (1993).                
 Slice#2 Row#9 Col#12  K_02_press_1_raw_act
 36 lines in following concentration table = NCONC+1
    Conc.  %SD /Cr+PCr  Metabolite                                         
  157.653  43%   0.322 Ala                                                 
    0.000 999%   0.000 Asp                                                 
    0.000 999%   0.000 Cr                                                  
  490.351   8%   1.000 PCr                                                 
   76.499 131%   0.156 GABA                                                
  139.995  73%   0.285 Glc                                                 
  359.973  38%   0.734 Gln                                                 
 1.32E+03  14%   2.696 Glu                                                 
  117.096  12%   0.239 GPC                                                 
    0.000 999%   0.000 PCh                                                 
  139.679  35%   0.285 GSH                                                 
  365.295  41%   0.745 Ins                                                 
   58.264 123%   0.119 Lac                                                 
 2.30E+03   7%   4.697 NAA                                                 
  553.879  26%   1.130 NAAG                                                
   20.593  85% 4.2E-02 Scyllo                                              
  185.727  69%   0.379 Tau                                                 
  328.414  19%   0.670 -CrCH2                                              
  117.096  12%   0.239 GPC+PCh                                             
 2.86E+03   2%   5.827 NAA+NAAG                                            
  490.351   8%   1.000 Cr+PCr                                              
 1.68E+03  14%   3.431 Glu+Gln                                             
 3.01E+03  21%   6.130 Lip13a                                              
    0.000 999%   0.000 Lip13b                                              
  608.213  37%   1.240 Lip09                                               
  890.020  28%   1.815 MM09                                                
  689.568  19%   1.406 Lip20                                               
 2.44E+03  12%   4.976 MM20                                                
  235.723  73%   0.481 MM12                                                
 2.06E+03  21%   4.206 MM14                                                
  755.969  27%   1.542 MM17                                                
 3.01E+03  21%   6.130 Lip13a+Lip13b                                       
 5.30E+03   7%  10.817 MM14+Lip13a+Lip13b+MM12                             
 1.50E+03  10%   3.055 MM09+Lip09                                          
 3.13E+03   9%   6.383 MM20+Lip20                                          
   6 lines in following misc. output table
  FWHM = 0.046 ppm    S/N =  20                                            
  Data shift =-0.008 ppm                                                   
  Ph:   8 deg      -2.3 deg/ppm                                            
  alphaB,S = 8.5E+01,   5.8E+01                                            
   14 spline knots.   Ns = 6(1)                                            
   2 inflections.     1 extrema                                            
  498 points on ppm-axis = NY
      4.000000     3.992357     3.984714     3.977070     3.969427     3.961784     3.954141     3.946497     3.938854     3.931211
      3.923568     3.915925     3.908281     3.900638     3.892995     3.885352     3.877708     3.870065     3.862422     3.854779
      3.847136     3.839492     3.831849     3.824206     3.816563     3.808919     3.801276     3.793633     3.785990     3.778347
      3.770703     3.763060     3.755417     3.747774     3.740130     3.732487     3.724844     3.717201     3.709558     3.701914
      3.694271     3.686628     3.678985     3.671341     3.663698     3.656055     3.648412     3.640769     3.633125     3.625482
      3.617839     3.610196     3.602552     3.594909     3.587266     3.579623     3.571980     3.564336     3.556693     3.549050
      3.541407     3.533763     3.526120     3.518477     3.510834     3.503191     3.495547     3.487904     3.480261     3.472618
      3.464974     3.457331     3.449688     3.442045     3.434402     3.426758     3.419115     3.411472     3.403829     3.396185
      3.388542     3.380899     3.373256     3.365613     3.357969     3.350326     3.342683     3.335040     3.327396     3.319753
      3.312110     3.304467     3.296824     3.289180     3.281537     3.273894     3.266251     3.258607     3.250964     3.243321
      3.235678     3.228034     3.220391     3.212748     3.205105     3.197462     3.189818     3.182175     3.174532     3.166889
      3.159245     3.151602     3.143959     3.136316     3.128673     3.121029     3.113386     3.105743     3.098100     3.090456
      3.082813     3.075170     3.067527     3.059884     3.052240     3.044597     3.036954     3.029311     3.021667     3.014024
      3.006381     2.998738     2.991095     2.983451     2.975808     2.968165     2.960522     2.952878     2.945235     2.937592
      2.929949     2.922306     2.914662     2.907019     2.899376     2.891733     2.884089     2.876446     2.868803     2.861160
      2.853517     2.845873     2.838230     2.830587     2.822944     2.815300     2.807657     2.800014     2.792371     2.784728
      2.777084     2.769441     2.761798     2.754155     2.746511     2.738868     2.731225     2.723582     2.715939     2.708295
      2.700652     2.693009     2.685366     2.677722     2.670079     2.662436     2.654793     2.647150     2.639506     2.631863
      2.624220     2.616577     2.608933     2.601290     2.593647     2.586004     2.578361     2.570717     2.563074     2.555431
      2.547788     2.540144     2.532501     2.524858     2.517215     2.509572     2.501928     2.494285     2.486642     2.478999
      2.471355     2.463712     2.456069     2.448426     2.440783     2.433139     2.425496     2.417853     2.410210     2.402566
      2.394923     2.387280     2.379637     2.371994     2.364350     2.356707     2.349064     2.341421     2.333777     2.326134
      2.318491     2.310848     2.303205     2.295561     2.287918     2.280275     2.272632     2.264988     2.257345     2.249702
      2.242059     2.234416     2.226772     2.219129     2.211486     2.203843     2.196199     2.188556     2.180913     2.173270
      2.165627     2.157983     2.150340     2.142697     2.135054     2.127410     2.119767     2.112124     2.104481     2.096838
      2.089194     2.081551     2.073908     2.066265     2.058621     2.050978     2.043335     2.035692     2.028049     2.020405
      2.012762     2.005119     1.997476     1.989833     1.982190     1.974546     1.966903     1.959260     1.951617     1.943974
      1.936331     1.928688     1.921045     1.913402     1.905759     1.898115     1.890472     1.882829     1.875186     1.867543
      1.859900     1.852257     1.844614     1.836971     1.829327     1.821684     1.814041     1.806398     1.798755     1.791112
      1.783469     1.775826     1.768183     1.760540     1.752896     1.745253     1.737610     1.729967     1.722324     1.714681
      1.707038     1.699395     1.691752     1.684108     1.676465     1.668822     1.661179     1.653536     1.645893     1.638250
      1.630607     1.622964     1.615321     1.607677     1.600034     1.592391     1.584748     1.577105     1.569462     1.561819
      1.554176     1.546533     1.538890     1.531246     1.523603     1.515960     1.508317     1.500674     1.493031     1.485388
      1.477745     1.470102     1.462458     1.454815     1.447172     1.439529     1.431886     1.424243     1.416600     1.408957
      1.401314     1.393671     1.386027     1.378384     1.370741     1.363098     1.355455     1.347812     1.340169     1.332526
      1.324883     1.317240     1.309596     1.301953     1.294310     1.286667     1.279024     1.271381     1.263738     1.256095
      1.248452     1.240808     1.233165     1.225522     1.217879     1.210236     1.202593     1.194950     1.187307     1.179664
      1.172021     1.164377     1.156734     1.149091     1.141448     1.133805     1.126162     1.118519     1.110876     1.103233
      1.095590     1.087946     1.080303     1.072660     1.065017     1.057374     1.049731     1.042088     1.034445     1.026802
      1.019158     1.011515     1.003872     0.996229     0.988586     0.980943     0.973300     0.965657     0.958014     0.950371
      0.942727     0.935084     0.927441     0.919798     0.912155     0.904512     0.896869     0.889226     0.881583     0.873940
      0.866296     0.858653     0.851010     0.843367     0.835724     0.828081     0.820438     0.812795     0.805152     0.797508
      0.789865     0.782222     0.774579     0.766936     0.759293     0.751650     0.744007     0.736364     0.728721     0.721077
      0.713434     0.705791     0.698148     0.690505     0.682862     0.675219     0.667576     0.659933     0.652290     0.644646
      0.637003     0.629360     0.621717     0.614074     0.606431     0.598788     0.591145     0.583502     0.575858     0.568215
      0.560572     0.552929     0.545286     0.537643     0.530000     0.522357     0.514714     0.507071     0.499427     0.491784
      0.484141     0.476498     0.468855     0.461212     0.453569     0.445925     0.438282     0.430639     0.422996     0.415353
      0.407710     0.400067     0.392424     0.384780     0.377137     0.369494     0.361851     0.354208     0.346565     0.338922
      0.331278     0.323635     0.315992     0.308349     0.300706     0.293063     0.285420     0.277777     0.270133     0.262490
      0.254847     0.247204     0.239561     0.231918     0.224275     0.216631     0.208988     0.201345
 NY phased data points follow
   8.02861E+00  7.11241E+00  7.26206E+00  8.53879E+00  4.06773E+00  6.41439E+00  5.34103E+00  9.53990E+00  6.73846E+00  5.82663E+00
   8.08294E+00  7.19918E+00  7.31946E+00  8.43522E+00  7.16965E+00  8.36387E+00  6.81087E+00  7.86553E+00  6.26191E+00  7.98272E+00
   7.73546E+00  5.88574E+00  7.61808E+00  8.54365E+00  7.30882E+00  8.82591E+00  9.15880E+00  8.72112E+00  8.96074E+00  7.21831E+00
   1.01578E+01  7.38626E+00  7.81133E+00  4.64743E+00  5.87156E+00  5.72230E+00  8.79765E+00  5.20261E+00  5.39039E+00  6.20974E+00
   7.61930E+00  3.63622E+00  6.60701E+00  5.52415E+00  8.05412E+00  5.03715E+00  6.99304E+00  6.81650E+00  8.66589E+00  6.87333E+00
   7.24989E+00  7.03005E+00  7.22629E+00  7.99170E+00  8.53123E+00  5.83230E+00  8.40034E+00  7.56313E+00  7.54572E+00  9.47740E+00
   1.34101E+01  3.61041E+00  7.87522E+00  3.98860E+00  7.09249E+00  5.72636E+00  6.96847E+00  5.94242E+00  3.96300E+00  5.25132E+00
   1.48458E+00  4.57452E+00  5.74886E+00  5.05836E+00  3.38737E+00  8.24498E+00  5.57324E+00  5.75196E+00  2.55884E+00  6.97430E+00
   5.19793E+00  3.86124E+00  3.78146E+00  6.13286E+00  4.06442E+00  6.29643E+00  5.07379E+00  4.55992E+00  4.67753E+00  3.72816E+00
   4.77710E+00  6.75342E+00  4.85802E+00  3.75236E+00  2.40367E+00  4.11760E+00  5.65868E+00  8.17751E+00  7.79775E+00  6.40035E+00
   5.16597E+00  9.49032E+00  1.15110E+01  1.20637E+01  1.89771E+01  1.91917E+01  1.51358E+01  1.30495E+01  1.01745E+01  8.59717E+00
   6.75553E+00  8.32194E+00  9.51958E+00  5.17291E+00  5.37687E+00  2.89558E+00  3.08311E+00  2.36014E+00  3.10694E+00  1.94403E+00
   6.00338E+00  2.58984E+00  6.47558E+00  6.05546E+00  5.68023E+00  1.07564E+01  1.44821E+01  2.36409E+01  2.65733E+01  2.71087E+01
   2.15733E+01  1.97398E+01  1.71854E+01  1.18524E+01  1.25222E+01  1.35830E+01  8.39161E+00  6.14301E+00  9.16939E+00  6.98259E+00
   1.08225E+01  7.28556E+00  8.28027E+00  7.33072E+00  7.43720E+00  7.69846E+00  6.88823E+00  6.96827E+00  4.57729E+00  7.21671E+00
   5.93111E+00  8.86130E+00  1.03870E+01  4.20475E+00  7.50894E+00  9.38918E+00  7.42614E+00  7.40448E+00  4.60273E+00  8.86262E+00
   9.37427E+00  8.18807E+00  7.12261E+00  3.64914E+00  4.51152E+00  6.28219E+00  3.10776E+00  3.10194E+00  4.34884E+00  1.82872E+00
   6.53019E-01 -3.19115E+00 -1.78554E+00 -3.41693E+00 -2.98206E+00 -2.78174E+00 -5.84522E+00 -6.90897E+00 -1.55799E+00 -4.91427E+00
  -1.86488E+00 -9.60568E-01 -1.17566E+00 -1.68450E+00 -4.79714E+00 -5.54030E-01 -5.63091E-01 -1.93970E+00 -1.46913E+00 -1.08519E+00
  -9.19517E-01  1.18597E+00  2.28822E+00 -6.11371E-03  1.50401E+00  3.77647E+00  4.93844E-01  9.14615E-01 -7.50028E-01 -5.16733E+00
  -7.85394E+00 -1.23362E+00  1.99937E+00  7.13552E+00  4.88265E+00  7.29630E+00  6.75368E+00  3.65628E+00  2.90906E+00  1.71041E+00
   6.75407E-01  3.13061E+00  3.30635E+00  8.14104E+00  1.38754E+01  1.71443E+01  2.13283E+01  2.14668E+01  1.56388E+01  1.03901E+01
   5.37890E+00  2.18134E+00  7.66062E-01  2.58539E+00  3.27620E+00  7.38973E+00  8.87052E+00  1.05142E+01  1.22682E+01  1.18009E+01
   1.04178E+01  1.14487E+01  1.17802E+01  1.34336E+01  1.06239E+01  1.26225E+01  1.33128E+01  1.65917E+01  1.24111E+01  1.08708E+01
   1.56502E+01  1.15663E+01  9.69586E+00  1.09194E+01  1.11996E+01  1.48078E+01  1.42717E+01  1.94734E+01  1.82853E+01  1.65944E+01
   1.90690E+01  2.22862E+01  2.46313E+01  3.06467E+01  3.58393E+01  4.33018E+01  5.44107E+01  6.71910E+01  8.55686E+01  1.04881E+02
   1.12302E+02  1.14534E+02  1.03920E+02  7.94788E+01  5.34455E+01  3.94313E+01  2.62159E+01  1.91191E+01  1.30327E+01  5.08492E+00
   9.55467E+00  8.73117E+00  5.04199E+00  9.93719E+00  8.21280E+00  7.04098E+00  7.12159E+00  7.49628E+00  5.59400E+00  4.87209E+00
   6.70835E+00  4.16596E+00  5.93886E+00  6.35101E+00  5.28933E+00  4.46178E+00  5.22863E+00  6.90125E+00  3.67077E+00  5.95438E+00
   6.19170E+00  8.54817E+00  5.46057E+00  6.34246E+00  8.81455E+00  4.13393E+00  3.20856E+00  3.63475E+00  8.34243E+00  3.44356E+00
   7.21530E+00  8.99880E+00  8.83250E+00  8.35279E+00  9.69236E+00  1.14129E+01  8.29901E+00  1.00567E+01  1.11395E+01  1.06981E+01
   1.31430E+01  1.27313E+01  1.24075E+01  9.64474E+00  1.02418E+01  1.10307E+01  1.02749E+01  9.49516E+00  1.16225E+01  1.01359E+01
   1.03947E+01  1.27028E+01  1.47640E+01  1.26102E+01  1.35219E+01  1.61185E+01  1.61792E+01  1.67407E+01  1.33053E+01  1.71967E+01
   1.83062E+01  1.74983E+01  1.52108E+01  1.83213E+01  1.53350E+01  1.81131E+01  1.94878E+01  2.05376E+01  2.02999E+01  2.19112E+01
   2.39387E+01  2.34356E+01  2.50967E+01  2.51966E+01  3.01081E+01  2.68967E+01  2.63551E+01  2.63412E+01  2.24594E+01  2.40025E+01
   2.18561E+01  2.10665E+01  1.64440E+01  2.12263E+01  1.80566E+01  1.52702E+01  1.35209E+01  1.44333E+01  1.69497E+01  1.36836E+01
   1.34291E+01  1.10885E+01  1.55249E+01  1.34329E+01  1.22188E+01  1.66583E+01  1.32880E+01  1.21133E+01  1.19856E+01  1.13196E+01
   9.97933E+00  1.20774E+01  1.09404E+01  1.05313E+01  1.18834E+01  9.06109E+00  8.75138E+00  6.25624E+00  8.77735E+00  5.88616E+00
   5.02761E+00  4.69442E+00  7.14523E+00  4.34774E+00  7.59726E+00  4.88932E+00  6.14884E+00  6.91042E+00  8.14681E+00  8.00010E+00
   7.59239E+00  1.06773E+01  9.06853E+00  8.86051E+00  8.64841E+00  8.56674E+00  1.26349E+01  1.45675E+01  1.26714E+01  1.25930E+01
   9.43580E+00  1.16414E+01  1.03486E+01  1.23610E+01  1.12658E+01  1.30581E+01  1.14609E+01  1.16245E+01  1.30924E+01  1.08592E+01
   1.09046E+01  8.68541E+00  9.52738E+00  1.07059E+01  7.96241E+00  7.02557E+00  6.92476E+00  3.99626E+00  5.44512E+00  5.11668E+00
   2.97054E+00  5.89884E+00  5.39937E+00 -8.36720E-01  4.29865E+00  5.54271E+00  3.92530E+00  4.39891E+00  1.49455E+00  2.75487E+00
   2.61871E+00  1.72349E+00  1.16971E+00  2.55000E+00  1.57045E+00  1.32216E+00  4.08159E+00 -1.20291E+00  7.43055E-02  3.78274E+00
   2.91857E+00  1.79701E+00  4.43854E-01 -7.75457E-02  8.89242E-01  1.93000E+00  2.32090E+00  2.57992E+00  1.39650E+00  2.06421E+00
   3.13278E+00  1.74530E+00  3.53808E+00  3.32816E+00  2.62164E+00 -3.23308E-01  2.19213E+00  2.78786E+00 -8.46698E-01  2.97845E+00
   2.03414E+00  1.70911E+00  1.75856E+00  5.06535E-01  1.02868E+00  9.15064E-02  4.41795E-02 -2.03505E+00  2.32816E+00  1.96113E+00
   8.61002E-01  3.36131E+00  1.20812E+00  3.14508E+00  2.36020E+00 -6.51190E-01  1.70632E+00  9.76427E-01 -2.19624E+00  1.12334E-01
  -3.93828E-01  2.79460E+00  2.10503E+00  8.57444E-01 -1.47040E-02  3.49693E+00  4.53962E-01  3.31348E+00  1.96420E+00  1.80641E+00
   2.77161E+00 -6.59275E-01  3.29581E+00 -8.63809E-01  3.56141E+00  1.17977E+00  2.05252E-01  9.04343E-01
 NY points of the fit to the data follow
   5.14253E+00  4.89774E+00  4.78616E+00  4.74221E+00  4.77304E+00  4.85731E+00  5.01679E+00  5.39988E+00  6.18430E+00  7.29291E+00
   8.40747E+00  9.21877E+00  9.46143E+00  8.94092E+00  7.94838E+00  7.03875E+00  6.48245E+00  5.96587E+00  5.60562E+00  5.59199E+00
   5.73864E+00  6.00932E+00  6.35108E+00  6.68563E+00  6.87884E+00  6.85191E+00  6.63632E+00  6.40579E+00  6.38503E+00  6.77366E+00
   7.71695E+00  9.07718E+00  1.03320E+01  1.09801E+01  1.08146E+01  9.86807E+00  8.17231E+00  6.30089E+00  4.96703E+00  4.38451E+00
   4.46957E+00  4.92483E+00  5.47959E+00  6.00110E+00  6.47194E+00  7.06526E+00  7.77069E+00  8.33846E+00  8.63529E+00  8.55634E+00
   8.00199E+00  7.14464E+00  6.32353E+00  5.72536E+00  5.31693E+00  5.06119E+00  4.99431E+00  5.11065E+00  5.33908E+00  5.61857E+00
   5.87661E+00  6.02949E+00  5.99637E+00  5.78557E+00  5.51045E+00  5.28836E+00  5.14949E+00  5.08627E+00  5.08069E+00  5.11668E+00
   5.21911E+00  5.40725E+00  5.69669E+00  6.08027E+00  6.46296E+00  6.69208E+00  6.66648E+00  6.40063E+00  5.93394E+00  5.41575E+00
   5.07287E+00  4.97305E+00  5.04168E+00  5.24781E+00  5.51673E+00  5.68145E+00  5.64197E+00  5.40362E+00  5.00851E+00  4.55374E+00
   4.19432E+00  4.00064E+00  3.89273E+00  3.77151E+00  3.69223E+00  3.74790E+00  3.95562E+00  4.28664E+00  4.73418E+00  5.48059E+00
   6.93673E+00  9.37952E+00  1.25369E+01  1.55420E+01  1.74275E+01  1.75468E+01  1.57982E+01  1.29702E+01  1.02948E+01  8.41742E+00
   7.02745E+00  5.90987E+00  5.42318E+00  5.27025E+00  5.20674E+00  5.16996E+00  5.15167E+00  5.12953E+00  5.09824E+00  5.07324E+00
   5.07967E+00  5.17648E+00  5.52776E+00  6.47715E+00  8.57142E+00  1.22148E+01  1.70411E+01  2.17624E+01  2.49352E+01  2.56316E+01
   2.35853E+01  1.96590E+01  1.55835E+01  1.24356E+01  9.92742E+00  7.72320E+00  6.45346E+00  5.97189E+00  5.94459E+00  6.19180E+00
   6.53877E+00  6.86301E+00  7.05652E+00  7.07255E+00  6.97805E+00  6.84416E+00  6.71303E+00  6.61884E+00  6.53971E+00  6.47594E+00
   6.39874E+00  6.27612E+00  6.11138E+00  5.95428E+00  5.87126E+00  5.89843E+00  6.00108E+00  6.02479E+00  5.75094E+00  5.11603E+00
   4.34004E+00  3.77820E+00  3.66614E+00  4.01040E+00  4.49172E+00  4.61392E+00  4.12346E+00  3.19255E+00  2.20150E+00  1.41286E+00
   9.43870E-01  5.99289E-01  1.66035E-01 -3.66491E-01 -1.02293E+00 -1.56793E+00 -1.71229E+00 -1.44150E+00 -9.91620E-01 -6.43390E-01
  -5.96890E-01 -7.83455E-01 -8.70301E-01 -6.61467E-01 -3.44693E-01 -1.64659E-02  5.25906E-01  1.48813E+00  2.93615E+00  4.59352E+00
   6.05049E+00  6.89081E+00  7.04987E+00  6.81504E+00  6.43456E+00  5.92269E+00  5.46826E+00  5.22014E+00  5.18232E+00  5.38659E+00
   5.98046E+00  7.00137E+00  8.20422E+00  9.17054E+00  9.54501E+00  9.11211E+00  7.64398E+00  5.35559E+00  2.84686E+00  7.34455E-01
  -5.80431E-01 -7.27586E-01  6.65351E-01  3.46499E+00  7.05177E+00  1.04929E+01  1.28040E+01  1.31882E+01  1.12687E+01  7.71021E+00
   3.73209E+00  4.55201E-01 -1.26456E+00 -1.12216E+00  9.92909E-01  4.47813E+00  8.06296E+00  1.06812E+01  1.20053E+01  1.24037E+01
   1.22296E+01  1.16957E+01  1.12109E+01  1.11746E+01  1.15814E+01  1.22455E+01  1.29089E+01  1.34162E+01  1.36637E+01  1.34624E+01
   1.28401E+01  1.21556E+01  1.18387E+01  1.21356E+01  1.30811E+01  1.45533E+01  1.61199E+01  1.73388E+01  1.80691E+01  1.85575E+01
   1.92292E+01  2.05945E+01  2.34643E+01  2.84113E+01  3.52563E+01  4.34875E+01  5.39078E+01  6.82305E+01  8.59263E+01  1.02755E+02
   1.13428E+02  1.13986E+02  1.01821E+02  7.94058E+01  5.61151E+01  3.91402E+01  2.77631E+01  1.83055E+01  1.25648E+01  1.05706E+01
   9.51268E+00  8.83184E+00  8.48363E+00  8.36362E+00  8.27451E+00  8.12912E+00  7.86138E+00  7.46200E+00  6.99145E+00  6.55568E+00
   6.20658E+00  5.94863E+00  5.78431E+00  5.71171E+00  5.69786E+00  5.68417E+00  5.64016E+00  5.58265E+00  5.54040E+00  5.52753E+00
   5.56679E+00  5.67729E+00  5.84939E+00  6.05548E+00  6.27190E+00  6.47823E+00  6.67418E+00  6.87835E+00  7.10320E+00  7.35489E+00
   7.64818E+00  7.98535E+00  8.35060E+00  8.71969E+00  9.07308E+00  9.40357E+00  9.70547E+00  9.96851E+00  1.01927E+01  1.03797E+01
   1.05297E+01  1.06458E+01  1.07320E+01  1.07949E+01  1.08432E+01  1.08884E+01  1.09432E+01  1.10217E+01  1.11381E+01  1.13074E+01
   1.15457E+01  1.18734E+01  1.23175E+01  1.29100E+01  1.36680E+01  1.45370E+01  1.53501E+01  1.58972E+01  1.60738E+01  1.59316E+01
   1.56311E+01  1.54447E+01  1.56711E+01  1.64417E+01  1.76765E+01  1.92333E+01  2.09746E+01  2.25779E+01  2.37348E+01  2.43243E+01
   2.44703E+01  2.44394E+01  2.43651E+01  2.42084E+01  2.40283E+01  2.38467E+01  2.35458E+01  2.30486E+01  2.23526E+01  2.15123E+01
   2.06287E+01  1.98414E+01  1.92525E+01  1.88600E+01  1.85935E+01  1.83957E+01  1.81854E+01  1.78382E+01  1.73086E+01  1.66443E+01
   1.59436E+01  1.52572E+01  1.45684E+01  1.38967E+01  1.32693E+01  1.26715E+01  1.20971E+01  1.15456E+01  1.10180E+01  1.05163E+01
   1.00424E+01  9.59872E+00  9.18731E+00  8.81009E+00  8.46845E+00  8.16400E+00  7.89793E+00  7.67165E+00  7.48599E+00  7.34189E+00
   7.23992E+00  7.18095E+00  7.16556E+00  7.19444E+00  7.26765E+00  7.38523E+00  7.54652E+00  7.75074E+00  7.99614E+00  8.28030E+00
   8.59943E+00  8.94886E+00  9.32254E+00  9.71352E+00  1.01134E+01  1.05128E+01  1.09013E+01  1.12682E+01  1.16022E+01  1.18930E+01
   1.21301E+01  1.23048E+01  1.24095E+01  1.24389E+01  1.23896E+01  1.22610E+01  1.20546E+01  1.17743E+01  1.14259E+01  1.10175E+01
   1.05582E+01  1.00584E+01  9.52846E+00  8.97926E+00  8.42090E+00  7.86310E+00  7.31429E+00  6.78189E+00  6.27160E+00  5.78805E+00
   5.33435E+00  4.91270E+00  4.52392E+00  4.16809E+00  3.84424E+00  3.55109E+00  3.28680E+00  3.04950E+00  2.83688E+00  2.64675E+00
   2.47672E+00  2.32478E+00  2.18890E+00  2.06740E+00  1.95846E+00  1.86063E+00  1.77240E+00  1.69275E+00  1.62058E+00  1.55514E+00
   1.49544E+00  1.44088E+00  1.39071E+00  1.34460E+00  1.30203E+00  1.26271E+00  1.22612E+00  1.19204E+00  1.16010E+00  1.13028E+00
   1.10226E+00  1.07597E+00  1.05107E+00  1.02752E+00  1.00514E+00  9.83993E-01  9.63867E-01  9.44733E-01  9.26345E-01  9.08769E-01
   8.91884E-01  8.75792E-01  8.60295E-01  8.45406E-01  8.30944E-01  8.17031E-01  8.03575E-01  7.90666E-01  7.78108E-01  7.65941E-01
   7.54035E-01  7.42544E-01  7.31378E-01  7.20616E-01  7.10066E-01  6.99801E-01  6.89727E-01  6.80005E-01  6.70523E-01  6.61342E-01
   6.52288E-01  6.43467E-01  6.34812E-01  6.26481E-01  6.18343E-01  6.10454E-01  6.02665E-01  5.95114E-01  5.87749E-01  5.80707E-01
   5.73843E-01  5.67219E-01  5.60722E-01  5.54522E-01  5.48569E-01  5.42986E-01  5.37627E-01  5.32583E-01
 NY background values follow
     4.902E+00    4.895E+00    4.888E+00    4.882E+00    4.875E+00    4.868E+00    4.862E+00    4.855E+00    4.848E+00    4.841E+00
     4.835E+00    4.828E+00    4.821E+00    4.814E+00    4.808E+00    4.801E+00    4.794E+00    4.787E+00    4.781E+00    4.774E+00
     4.767E+00    4.760E+00    4.753E+00    4.747E+00    4.740E+00    4.733E+00    4.726E+00    4.719E+00    4.712E+00    4.706E+00
     4.699E+00    4.692E+00    4.685E+00    4.678E+00    4.671E+00    4.664E+00    4.658E+00    4.651E+00    4.644E+00    4.637E+00
     4.630E+00    4.623E+00    4.616E+00    4.609E+00    4.602E+00    4.596E+00    4.589E+00    4.582E+00    4.575E+00    4.568E+00
     4.561E+00    4.554E+00    4.547E+00    4.540E+00    4.533E+00    4.526E+00    4.519E+00    4.512E+00    4.505E+00    4.498E+00
     4.491E+00    4.484E+00    4.477E+00    4.470E+00    4.463E+00    4.456E+00    4.449E+00    4.442E+00    4.435E+00    4.428E+00
     4.421E+00    4.414E+00    4.407E+00    4.400E+00    4.393E+00    4.386E+00    4.379E+00    4.372E+00    4.365E+00    4.357E+00
     4.350E+00    4.343E+00    4.336E+00    4.329E+00    4.322E+00    4.315E+00    4.308E+00    4.301E+00    4.294E+00    4.287E+00
     4.279E+00    4.272E+00    4.265E+00    4.258E+00    4.251E+00    4.244E+00    4.237E+00    4.229E+00    4.222E+00    4.215E+00
     4.208E+00    4.201E+00    4.194E+00    4.186E+00    4.179E+00    4.172E+00    4.165E+00    4.158E+00    4.151E+00    4.143E+00
     4.136E+00    4.129E+00    4.122E+00    4.114E+00    4.107E+00    4.100E+00    4.093E+00    4.086E+00    4.078E+00    4.071E+00
     4.064E+00    4.057E+00    4.049E+00    4.042E+00    4.035E+00    4.028E+00    4.020E+00    4.013E+00    4.006E+00    3.999E+00
     3.991E+00    3.984E+00    3.977E+00    3.969E+00    3.962E+00    3.955E+00    3.948E+00    3.940E+00    3.933E+00    3.926E+00
     3.918E+00    3.911E+00    3.904E+00    3.896E+00    3.889E+00    3.882E+00    3.874E+00    3.867E+00    3.860E+00    3.852E+00
     3.845E+00    3.838E+00    3.830E+00    3.823E+00    3.816E+00    3.808E+00    3.801E+00    3.794E+00    3.786E+00    3.779E+00
     3.771E+00    3.764E+00    3.757E+00    3.749E+00    3.742E+00    3.735E+00    3.727E+00    3.720E+00    3.712E+00    3.705E+00
     3.698E+00    3.690E+00    3.683E+00    3.675E+00    3.668E+00    3.661E+00    3.653E+00    3.646E+00    3.638E+00    3.631E+00
     3.623E+00    3.616E+00    3.609E+00    3.601E+00    3.594E+00    3.586E+00    3.579E+00    3.571E+00    3.564E+00    3.556E+00
     3.549E+00    3.542E+00    3.534E+00    3.527E+00    3.519E+00    3.512E+00    3.504E+00    3.497E+00    3.489E+00    3.482E+00
     3.474E+00    3.467E+00    3.459E+00    3.452E+00    3.444E+00    3.437E+00    3.429E+00    3.422E+00    3.414E+00    3.407E+00
     3.399E+00    3.392E+00    3.384E+00    3.377E+00    3.369E+00    3.362E+00    3.354E+00    3.347E+00    3.339E+00    3.332E+00
     3.324E+00    3.317E+00    3.309E+00    3.302E+00    3.294E+00    3.286E+00    3.279E+00    3.271E+00    3.264E+00    3.256E+00
     3.249E+00    3.241E+00    3.234E+00    3.226E+00    3.219E+00    3.211E+00    3.203E+00    3.196E+00    3.188E+00    3.181E+00
     3.173E+00    3.166E+00    3.158E+00    3.150E+00    3.143E+00    3.135E+00    3.128E+00    3.120E+00    3.113E+00    3.105E+00
     3.097E+00    3.090E+00    3.082E+00    3.075E+00    3.067E+00    3.060E+00    3.052E+00    3.044E+00    3.037E+00    3.029E+00
     3.022E+00    3.014E+00    3.006E+00    2.999E+00    2.991E+00    2.984E+00    2.976E+00    2.968E+00    2.961E+00    2.953E+00
     2.945E+00    2.938E+00    2.930E+00    2.923E+00    2.915E+00    2.907E+00    2.900E+00    2.892E+00    2.884E+00    2.877E+00
     2.869E+00    2.862E+00    2.854E+00    2.846E+00    2.839E+00    2.831E+00    2.823E+00    2.816E+00    2.808E+00    2.801E+00
     2.793E+00    2.785E+00    2.778E+00    2.770E+00    2.762E+00    2.755E+00    2.747E+00    2.739E+00    2.732E+00    2.724E+00
     2.716E+00    2.709E+00    2.701E+00    2.693E+00    2.686E+00    2.678E+00    2.671E+00    2.663E+00    2.655E+00    2.648E+00
     2.640E+00    2.632E+00    2.625E+00    2.617E+00    2.609E+00    2.602E+00    2.594E+00    2.586E+00    2.579E+00    2.571E+00
     2.563E+00    2.556E+00    2.548E+00    2.540E+00    2.533E+00    2.525E+00    2.517E+00    2.510E+00    2.502E+00    2.494E+00
     2.487E+00    2.479E+00    2.471E+00    2.464E+00    2.456E+00    2.448E+00    2.441E+00    2.433E+00    2.425E+00    2.418E+00
     2.410E+00    2.402E+00    2.394E+00    2.387E+00    2.379E+00    2.371E+00    2.364E+00    2.356E+00    2.348E+00    2.341E+00
     2.333E+00    2.325E+00    2.318E+00    2.310E+00    2.302E+00    2.295E+00    2.287E+00    2.279E+00    2.272E+00    2.264E+00
     2.256E+00    2.249E+00    2.241E+00    2.233E+00    2.226E+00    2.218E+00    2.210E+00    2.202E+00    2.195E+00    2.187E+00
     2.179E+00    2.172E+00    2.164E+00    2.156E+00    2.149E+00    2.141E+00    2.133E+00    2.126E+00    2.118E+00    2.110E+00
     2.103E+00    2.095E+00    2.087E+00    2.080E+00    2.072E+00    2.064E+00    2.057E+00    2.049E+00    2.041E+00    2.034E+00
     2.026E+00    2.018E+00    2.011E+00    2.003E+00    1.995E+00    1.987E+00    1.980E+00    1.972E+00    1.964E+00    1.957E+00
     1.949E+00    1.941E+00    1.934E+00    1.926E+00    1.918E+00    1.911E+00    1.903E+00    1.895E+00    1.888E+00    1.880E+00
     1.872E+00    1.865E+00    1.857E+00    1.849E+00    1.842E+00    1.834E+00    1.826E+00    1.819E+00    1.811E+00    1.803E+00
     1.796E+00    1.788E+00    1.780E+00    1.773E+00    1.765E+00    1.757E+00    1.750E+00    1.742E+00    1.734E+00    1.727E+00
     1.719E+00    1.712E+00    1.704E+00    1.696E+00    1.689E+00    1.681E+00    1.673E+00    1.666E+00    1.658E+00    1.650E+00
     1.643E+00    1.635E+00    1.627E+00    1.620E+00    1.612E+00    1.604E+00    1.597E+00    1.589E+00    1.582E+00    1.574E+00
     1.566E+00    1.559E+00    1.551E+00    1.543E+00    1.536E+00    1.528E+00    1.521E+00    1.513E+00    1.505E+00    1.498E+00
     1.490E+00    1.482E+00    1.475E+00    1.467E+00    1.460E+00    1.452E+00    1.444E+00    1.437E+00    1.429E+00    1.422E+00
     1.414E+00    1.406E+00    1.399E+00    1.391E+00    1.383E+00    1.376E+00    1.368E+00    1.361E+00    1.353E+00    1.346E+00
     1.338E+00    1.330E+00    1.323E+00    1.315E+00    1.308E+00    1.300E+00    1.292E+00    1.285E+00    1.277E+00    1.270E+00
     1.262E+00    1.255E+00    1.247E+00    1.239E+00    1.232E+00    1.224E+00    1.217E+00    1.209E+00
 Ala      Conc. = 1.58E+02
