 LCModel (Version 6.3-1L) Copyright: S.W. Provencher.          Ref.: Magn. Reson. Med. 30:672-679 (1993).                
 Slice#2 Row#2 Col#11  K_02_press_1_raw_act
 36 lines in following concentration table = NCONC+1
    Conc.  %SD /Cr+PCr  Metabolite                                         
 2.86E+04  10%   0.000 Ala                                                 
    0.000 999%   0.000 Asp                                                 
    0.000 999%   0.000 Cr                                                  
    0.000 999%   0.000 PCr                                                 
    2.266 999%   0.000 GABA                                                
    5.869 999%   0.000 Glc                                                 
    0.000 999%   0.000 Gln                                                 
 3.67E+03  33%   0.000 Glu                                                 
    0.000 999%   0.000 GPC                                                 
    0.000 999%   0.000 PCh                                                 
  311.388  53%   0.000 GSH                                                 
  198.227 208%   0.000 Ins                                                 
 1.17E+03  77%   0.000 Lac                                                 
    0.000 999%   0.000 NAA                                                 
    0.000 999%   0.000 NAAG                                                
    0.000 999%   0.000 Scyllo                                              
    0.000 999%   0.000 Tau                                                 
    0.000 999%   0.000 -CrCH2                                              
    0.000 999%   0.000 GPC+PCh                                             
    0.000 999%   0.000 NAA+NAAG                                            
    0.000 999%   0.000 Cr+PCr                                              
 3.67E+03  33%   0.000 Glu+Gln                                             
 2.17E+04  20%   0.000 Lip13a                                              
 2.66E+03  26%   0.000 Lip13b                                              
 7.30E+03  16%   0.000 Lip09                                               
 6.60E+03  11%   0.000 MM09                                                
 2.57E+03  22%   0.000 Lip20                                               
    0.000 999%   0.000 MM20                                                
 2.91E+04  10%   0.000 MM12                                                
 8.52E+04   6%   0.000 MM14                                                
 1.02E+05   4%   0.000 MM17                                                
 2.44E+04  16%   0.000 Lip13a+Lip13b                                       
 1.39E+05   4%   0.000 MM14+Lip13a+Lip13b+MM12                             
 1.39E+04  11%   0.000 MM09+Lip09                                          
 2.57E+03  22%   0.000 MM20+Lip20                                          
   6 lines in following misc. output table
  FWHM = 0.153 ppm    S/N =  70                                            
  Data shift = 0.313 ppm                                                   
  Ph: 150 deg     140.2 deg/ppm                                            
  alphaB,S = 8.5E-01,   2.1E+02                                            
    8 spline knots.   Ns = 9(2)                                            
  ( 6) 2 infls.   ( 3) 1 extrs.                                            
  498 points on ppm-axis = NY
      4.000000     3.992357     3.984714     3.977070     3.969427     3.961784     3.954141     3.946497     3.938854     3.931211
      3.923568     3.915925     3.908281     3.900638     3.892995     3.885352     3.877708     3.870065     3.862422     3.854779
      3.847136     3.839492     3.831849     3.824206     3.816563     3.808919     3.801276     3.793633     3.785990     3.778347
      3.770703     3.763060     3.755417     3.747774     3.740130     3.732487     3.724844     3.717201     3.709558     3.701914
      3.694271     3.686628     3.678985     3.671341     3.663698     3.656055     3.648412     3.640769     3.633125     3.625482
      3.617839     3.610196     3.602552     3.594909     3.587266     3.579623     3.571980     3.564336     3.556693     3.549050
      3.541407     3.533763     3.526120     3.518477     3.510834     3.503191     3.495547     3.487904     3.480261     3.472618
      3.464974     3.457331     3.449688     3.442045     3.434402     3.426758     3.419115     3.411472     3.403829     3.396185
      3.388542     3.380899     3.373256     3.365613     3.357969     3.350326     3.342683     3.335040     3.327396     3.319753
      3.312110     3.304467     3.296824     3.289180     3.281537     3.273894     3.266251     3.258607     3.250964     3.243321
      3.235678     3.228034     3.220391     3.212748     3.205105     3.197462     3.189818     3.182175     3.174532     3.166889
      3.159245     3.151602     3.143959     3.136316     3.128673     3.121029     3.113386     3.105743     3.098100     3.090456
      3.082813     3.075170     3.067527     3.059884     3.052240     3.044597     3.036954     3.029311     3.021667     3.014024
      3.006381     2.998738     2.991095     2.983451     2.975808     2.968165     2.960522     2.952878     2.945235     2.937592
      2.929949     2.922306     2.914662     2.907019     2.899376     2.891733     2.884089     2.876446     2.868803     2.861160
      2.853517     2.845873     2.838230     2.830587     2.822944     2.815300     2.807657     2.800014     2.792371     2.784728
      2.777084     2.769441     2.761798     2.754155     2.746511     2.738868     2.731225     2.723582     2.715939     2.708295
      2.700652     2.693009     2.685366     2.677722     2.670079     2.662436     2.654793     2.647150     2.639506     2.631863
      2.624220     2.616577     2.608933     2.601290     2.593647     2.586004     2.578361     2.570717     2.563074     2.555431
      2.547788     2.540144     2.532501     2.524858     2.517215     2.509572     2.501928     2.494285     2.486642     2.478999
      2.471355     2.463712     2.456069     2.448426     2.440783     2.433139     2.425496     2.417853     2.410210     2.402566
      2.394923     2.387280     2.379637     2.371994     2.364350     2.356707     2.349064     2.341421     2.333777     2.326134
      2.318491     2.310848     2.303205     2.295561     2.287918     2.280275     2.272632     2.264988     2.257345     2.249702
      2.242059     2.234416     2.226772     2.219129     2.211486     2.203843     2.196199     2.188556     2.180913     2.173270
      2.165627     2.157983     2.150340     2.142697     2.135054     2.127410     2.119767     2.112124     2.104481     2.096838
      2.089194     2.081551     2.073908     2.066265     2.058621     2.050978     2.043335     2.035692     2.028049     2.020405
      2.012762     2.005119     1.997476     1.989833     1.982190     1.974546     1.966903     1.959260     1.951617     1.943974
      1.936331     1.928688     1.921045     1.913402     1.905759     1.898115     1.890472     1.882829     1.875186     1.867543
      1.859900     1.852257     1.844614     1.836971     1.829327     1.821684     1.814041     1.806398     1.798755     1.791112
      1.783469     1.775826     1.768183     1.760540     1.752896     1.745253     1.737610     1.729967     1.722324     1.714681
      1.707038     1.699395     1.691752     1.684108     1.676465     1.668822     1.661179     1.653536     1.645893     1.638250
      1.630607     1.622964     1.615321     1.607677     1.600034     1.592391     1.584748     1.577105     1.569462     1.561819
      1.554176     1.546533     1.538890     1.531246     1.523603     1.515960     1.508317     1.500674     1.493031     1.485388
      1.477745     1.470102     1.462458     1.454815     1.447172     1.439529     1.431886     1.424243     1.416600     1.408957
      1.401314     1.393671     1.386027     1.378384     1.370741     1.363098     1.355455     1.347812     1.340169     1.332526
      1.324883     1.317240     1.309596     1.301953     1.294310     1.286667     1.279024     1.271381     1.263738     1.256095
      1.248452     1.240808     1.233165     1.225522     1.217879     1.210236     1.202593     1.194950     1.187307     1.179664
      1.172021     1.164377     1.156734     1.149091     1.141448     1.133805     1.126162     1.118519     1.110876     1.103233
      1.095590     1.087946     1.080303     1.072660     1.065017     1.057374     1.049731     1.042088     1.034445     1.026802
      1.019158     1.011515     1.003872     0.996229     0.988586     0.980943     0.973300     0.965657     0.958014     0.950371
      0.942727     0.935084     0.927441     0.919798     0.912155     0.904512     0.896869     0.889226     0.881583     0.873940
      0.866296     0.858653     0.851010     0.843367     0.835724     0.828081     0.820438     0.812795     0.805152     0.797508
      0.789865     0.782222     0.774579     0.766936     0.759293     0.751650     0.744007     0.736364     0.728721     0.721077
      0.713434     0.705791     0.698148     0.690505     0.682862     0.675219     0.667576     0.659933     0.652290     0.644646
      0.637003     0.629360     0.621717     0.614074     0.606431     0.598788     0.591145     0.583502     0.575858     0.568215
      0.560572     0.552929     0.545286     0.537643     0.530000     0.522357     0.514714     0.507071     0.499427     0.491784
      0.484141     0.476498     0.468855     0.461212     0.453569     0.445925     0.438282     0.430639     0.422996     0.415353
      0.407710     0.400067     0.392424     0.384780     0.377137     0.369494     0.361851     0.354208     0.346565     0.338922
      0.331278     0.323635     0.315992     0.308349     0.300706     0.293063     0.285420     0.277777     0.270133     0.262490
      0.254847     0.247204     0.239561     0.231918     0.224275     0.216631     0.208988     0.201345
 NY phased data points follow
  -8.67914E+00 -8.45436E+00 -3.43608E+00 -5.07821E+00 -4.73185E+00 -1.96977E+00 -5.74520E+00 -1.55047E+00 -2.40155E+00 -9.10712E-01
   4.70211E-02  2.86121E+00  9.25191E-01  1.73066E+00  3.73376E+00  3.62139E+00  5.27843E+00  8.70003E+00  2.01235E+00  5.66338E+00
   2.97079E+00  8.21554E+00  9.31558E+00  8.33937E+00  8.39778E+00  1.28097E+01  9.43334E+00  1.22944E+01  1.10576E+01  1.25564E+01
   1.22201E+01  1.13915E+01  1.19403E+01  1.65229E+01  1.26986E+01  1.52954E+01  1.51366E+01  1.75083E+01  1.72819E+01  1.91053E+01
   2.05953E+01  1.69742E+01  1.69947E+01  1.78635E+01  2.01266E+01  2.02081E+01  2.33872E+01  2.14105E+01  2.32700E+01  2.77512E+01
   2.94456E+01  2.86325E+01  3.01880E+01  2.45902E+01  2.74794E+01  3.35108E+01  2.78598E+01  3.00544E+01  2.98682E+01  3.66625E+01
   3.32121E+01  3.59361E+01  3.51724E+01  3.30991E+01  3.82044E+01  3.36969E+01  3.07046E+01  4.11978E+01  3.93461E+01  4.19552E+01
   4.07079E+01  4.31546E+01  4.27389E+01  4.20297E+01  3.98248E+01  4.24898E+01  4.25797E+01  4.60360E+01  4.07682E+01  4.30098E+01
   4.24420E+01  4.64767E+01  4.55644E+01  4.82692E+01  4.88744E+01  4.72191E+01  4.59225E+01  4.28204E+01  4.47059E+01  4.72539E+01
   4.68731E+01  4.87059E+01  4.61411E+01  4.83413E+01  4.67308E+01  4.81414E+01  4.96389E+01  4.77507E+01  4.86076E+01  4.86141E+01
   4.52788E+01  4.70378E+01  5.22699E+01  4.93949E+01  4.58371E+01  4.79253E+01  4.42753E+01  4.24395E+01  4.72243E+01  4.72698E+01
   4.59928E+01  4.63316E+01  4.85079E+01  4.25588E+01  4.91207E+01  4.51886E+01  4.58930E+01  4.59271E+01  4.58428E+01  4.50225E+01
   4.44589E+01  4.04490E+01  4.24707E+01  4.24478E+01  4.71936E+01  4.21265E+01  4.24071E+01  4.72926E+01  4.15113E+01  4.05827E+01
   4.28135E+01  4.49567E+01  4.42513E+01  4.37197E+01  4.17756E+01  4.16807E+01  4.53430E+01  4.12994E+01  4.51123E+01  4.64937E+01
   3.86944E+01  4.14921E+01  4.01055E+01  3.96065E+01  3.57847E+01  3.94209E+01  3.53842E+01  3.25898E+01  3.40506E+01  3.17522E+01
   3.27107E+01  3.06422E+01  3.43543E+01  2.57511E+01  2.96483E+01  2.89890E+01  2.11531E+01  2.03250E+01  2.33630E+01  2.04475E+01
   1.79626E+01  1.76515E+01  1.66207E+01  2.17473E+01  1.73858E+01  1.69200E+01  1.53768E+01  1.16547E+01  9.19790E+00  7.86796E+00
   7.03832E+00  3.71796E+00  1.90345E+00  6.91771E-01  1.52448E+00 -1.22206E+00 -6.27949E+00 -2.47757E+00 -9.94397E+00 -1.11206E+01
  -9.43591E+00 -1.04854E+01 -1.45681E+01 -1.74692E+01 -2.17220E+01 -2.08241E+01 -2.54241E+01 -2.37177E+01 -2.53779E+01 -2.89182E+01
  -3.30299E+01 -3.16610E+01 -3.81198E+01 -3.97621E+01 -4.27320E+01 -3.71328E+01 -4.59017E+01 -4.80707E+01 -5.22713E+01 -5.36459E+01
  -5.17135E+01 -5.70937E+01 -5.77532E+01 -6.33673E+01 -6.44559E+01 -6.50353E+01 -7.17980E+01 -7.13748E+01 -7.55660E+01 -8.05677E+01
  -8.02725E+01 -8.10269E+01 -8.56521E+01 -8.92501E+01 -9.04538E+01 -9.48902E+01 -9.78505E+01 -1.00226E+02 -1.01356E+02 -1.05030E+02
  -1.04210E+02 -1.03301E+02 -1.03237E+02 -1.13551E+02 -1.09847E+02 -1.11423E+02 -1.18459E+02 -1.20089E+02 -1.23476E+02 -1.25456E+02
  -1.27698E+02 -1.28970E+02 -1.28767E+02 -1.34912E+02 -1.36668E+02 -1.33479E+02 -1.32562E+02 -1.37809E+02 -1.40485E+02 -1.39078E+02
  -1.43917E+02 -1.46692E+02 -1.47298E+02 -1.49650E+02 -1.49095E+02 -1.50985E+02 -1.52172E+02 -1.55369E+02 -1.54120E+02 -1.53804E+02
  -1.55908E+02 -1.58291E+02 -1.60651E+02 -1.62114E+02 -1.64513E+02 -1.65962E+02 -1.66034E+02 -1.63637E+02 -1.68234E+02 -1.64527E+02
  -1.63263E+02 -1.67585E+02 -1.64780E+02 -1.66971E+02 -1.60385E+02 -1.61375E+02 -1.59550E+02 -1.54901E+02 -1.54170E+02 -1.53636E+02
  -1.51137E+02 -1.44870E+02 -1.44251E+02 -1.33096E+02 -1.29154E+02 -1.21628E+02 -1.14684E+02 -1.04904E+02 -9.74986E+01 -8.40557E+01
  -8.35252E+01 -6.65917E+01 -5.64753E+01 -4.26500E+01 -3.15388E+01 -1.63982E+01 -2.51842E+00  1.31664E+01  2.95187E+01  4.77446E+01
   6.95796E+01  8.43558E+01  1.04023E+02  1.21308E+02  1.38552E+02  1.53162E+02  1.66823E+02  1.75391E+02  1.85919E+02  1.93203E+02
   1.93516E+02  1.98367E+02  1.99051E+02  2.02417E+02  2.08371E+02  2.02959E+02  2.05976E+02  2.05756E+02  2.06639E+02  2.09211E+02
   2.05161E+02  2.04098E+02  2.04505E+02  1.98255E+02  1.98128E+02  1.99509E+02  1.97997E+02  1.97728E+02  1.95596E+02  1.97352E+02
   1.96175E+02  2.01469E+02  1.99092E+02  1.99200E+02  2.00457E+02  1.95715E+02  1.91204E+02  1.86722E+02  1.85934E+02  1.91677E+02
   1.86253E+02  1.77686E+02  1.74625E+02  1.75999E+02  1.70185E+02  1.68924E+02  1.68726E+02  1.60839E+02  1.60150E+02  1.54112E+02
   1.53456E+02  1.51573E+02  1.46472E+02  1.41626E+02  1.37641E+02  1.32065E+02  1.29878E+02  1.26446E+02  1.21618E+02  1.19788E+02
   1.12276E+02  1.06977E+02  1.02556E+02  9.73814E+01  9.54135E+01  8.38500E+01  8.31349E+01  7.86824E+01  7.50551E+01  7.20295E+01
   6.25617E+01  6.60158E+01  5.53923E+01  5.26686E+01  5.05717E+01  4.29308E+01  4.10176E+01  3.34483E+01  3.18225E+01  3.02872E+01
   2.51844E+01  2.16781E+01  1.72327E+01  1.36059E+01  1.28107E+01  6.60593E+00  1.80090E+00  9.87326E-01  1.47710E+00 -3.94150E+00
  -8.64586E+00 -1.14929E+01 -1.69931E+01 -2.10773E+01 -1.64308E+01 -2.22073E+01 -2.20386E+01 -2.55856E+01 -2.86589E+01 -3.36453E+01
  -3.53345E+01 -3.58231E+01 -4.16942E+01 -4.07861E+01 -4.17664E+01 -4.32989E+01 -4.39010E+01 -4.99023E+01 -4.84655E+01 -5.28639E+01
  -5.25926E+01 -5.24713E+01 -5.35398E+01 -5.48766E+01 -5.52985E+01 -5.61574E+01 -5.97051E+01 -6.24307E+01 -5.70716E+01 -6.29177E+01
  -6.41543E+01 -6.46278E+01 -6.64390E+01 -6.51190E+01 -7.06042E+01 -6.84761E+01 -6.73808E+01 -6.46146E+01 -6.63043E+01 -7.02197E+01
  -6.75078E+01 -6.94728E+01 -6.58886E+01 -6.68174E+01 -6.65796E+01 -6.57886E+01 -6.73868E+01 -6.54927E+01 -6.80413E+01 -7.10069E+01
  -6.79013E+01 -6.71183E+01 -6.77471E+01 -6.87036E+01 -6.45521E+01 -6.72287E+01 -6.79949E+01 -6.55105E+01 -5.90686E+01 -6.64700E+01
  -6.56456E+01 -6.70586E+01 -6.48534E+01 -6.23326E+01 -6.60924E+01 -6.41495E+01 -6.07318E+01 -6.04349E+01 -5.91002E+01 -5.96787E+01
  -5.90516E+01 -6.09173E+01 -5.81144E+01 -5.55153E+01 -5.97196E+01 -5.75023E+01 -5.20152E+01 -5.62007E+01 -5.10710E+01 -5.30371E+01
  -5.34685E+01 -5.03712E+01 -5.50620E+01 -5.19952E+01 -4.98982E+01 -4.67689E+01 -4.78909E+01 -4.73122E+01 -4.23578E+01 -4.39245E+01
  -4.49024E+01 -4.17736E+01 -4.64534E+01 -4.22235E+01 -4.40361E+01 -4.19542E+01 -3.63074E+01 -3.57543E+01 -3.79112E+01 -3.72858E+01
  -3.66391E+01 -3.51970E+01 -3.37954E+01 -3.66063E+01 -3.42084E+01 -3.43810E+01 -2.73010E+01 -2.92466E+01 -2.71898E+01 -2.94178E+01
  -2.64542E+01 -2.48000E+01 -2.53805E+01 -2.73104E+01 -2.44023E+01 -2.37183E+01 -2.16959E+01 -2.09031E+01
 NY points of the fit to the data follow
  -5.99523E+00 -5.40784E+00 -5.66311E+00 -4.89499E+00 -4.99789E+00 -3.81447E+00 -3.42215E+00 -1.31619E+00 -1.50579E+00  5.07302E-01
  -4.25087E-01  1.76755E+00  2.63087E-01  2.59803E+00  2.69178E-01  3.67438E+00  1.56872E+00  5.65027E+00  3.26261E+00  7.43075E+00
   4.46289E+00  8.66134E+00  5.55182E+00  9.33768E+00  6.30374E+00  9.70957E+00  7.45696E+00  1.06583E+01  9.11818E+00  1.13752E+01
   1.07512E+01  1.23703E+01  1.28450E+01  1.35085E+01  1.48156E+01  1.49153E+01  1.72305E+01  1.64978E+01  1.92977E+01  1.79948E+01
   2.10119E+01  1.94655E+01  2.25706E+01  2.09718E+01  2.41916E+01  2.27593E+01  2.56268E+01  2.44761E+01  2.65912E+01  2.54264E+01
   2.69592E+01  2.60197E+01  2.72079E+01  2.68338E+01  2.79440E+01  2.83751E+01  2.97042E+01  3.04531E+01  3.16453E+01  3.24734E+01
   3.34056E+01  3.41476E+01  3.48264E+01  3.54186E+01  3.60431E+01  3.66041E+01  3.72115E+01  3.77579E+01  3.83524E+01  3.88829E+01
   3.94597E+01  3.99638E+01  4.05134E+01  4.09903E+01  4.15140E+01  4.19642E+01  4.24618E+01  4.28857E+01  4.33583E+01  4.37553E+01
   4.41989E+01  4.45689E+01  4.49857E+01  4.53279E+01  4.57163E+01  4.60291E+01  4.63878E+01  4.66738E+01  4.70040E+01  4.72631E+01
   4.75629E+01  4.77954E+01  4.80638E+01  4.82691E+01  4.85047E+01  4.86801E+01  4.88788E+01  4.90221E+01  4.91823E+01  4.92926E+01
   4.94119E+01  4.94859E+01  4.95605E+01  4.95975E+01  4.96287E+01  4.96286E+01  4.96177E+01  4.95827E+01  4.95270E+01  4.94542E+01
   4.93548E+01  4.92467E+01  4.91060E+01  4.89675E+01  4.87916E+01  4.86394E+01  4.84379E+01  4.82380E+01  4.79872E+01  4.77372E+01
   4.74381E+01  4.71486E+01  4.68228E+01  4.64919E+01  4.61524E+01  4.57673E+01  4.54129E+01  4.49660E+01  4.45977E+01  4.40787E+01
   4.36978E+01  4.31145E+01  4.27259E+01  4.20752E+01  4.16787E+01  4.09697E+01  4.05612E+01  3.97857E+01  3.93521E+01  3.85249E+01
   3.80574E+01  3.71869E+01  3.66736E+01  3.57651E+01  3.51929E+01  3.42435E+01  3.35933E+01  3.26104E+01  3.18734E+01  3.08513E+01
   3.00188E+01  2.89532E+01  2.80187E+01  2.69069E+01  2.58731E+01  2.47092E+01  2.35752E+01  2.23365E+01  2.10961E+01  1.97863E+01
   1.84522E+01  1.70767E+01  1.56662E+01  1.42223E+01  1.27418E+01  1.12239E+01  9.67382E+00  8.07733E+00  6.46015E+00  4.79380E+00
   3.12004E+00  1.39673E+00 -3.13590E-01 -2.08013E+00 -3.81817E+00 -5.62795E+00 -7.39626E+00 -9.24761E+00 -1.10439E+01 -1.29402E+01
  -1.47702E+01 -1.66760E+01 -1.85253E+01 -2.04377E+01 -2.23103E+01 -2.42230E+01 -2.61209E+01 -2.80174E+01 -2.99332E+01 -3.18627E+01
  -3.38197E+01 -3.57731E+01 -3.78580E+01 -3.98220E+01 -4.20091E+01 -4.39595E+01 -4.61692E+01 -4.79915E+01 -4.99936E+01 -5.18789E+01
  -5.38732E+01 -5.58843E+01 -5.78866E+01 -6.01297E+01 -6.22812E+01 -6.48359E+01 -6.68863E+01 -6.95588E+01 -7.14997E+01 -7.43420E+01
  -7.62264E+01 -7.92688E+01 -8.11641E+01 -8.43732E+01 -8.63192E+01 -8.96292E+01 -9.16347E+01 -9.48556E+01 -9.67981E+01 -9.98392E+01
  -1.01871E+02 -1.04662E+02 -1.06737E+02 -1.09253E+02 -1.11429E+02 -1.13715E+02 -1.15810E+02 -1.17794E+02 -1.19852E+02 -1.21680E+02
  -1.23655E+02 -1.25450E+02 -1.27427E+02 -1.29320E+02 -1.31207E+02 -1.33167E+02 -1.34849E+02 -1.36934E+02 -1.38383E+02 -1.40653E+02
  -1.42054E+02 -1.44465E+02 -1.45814E+02 -1.48228E+02 -1.49510E+02 -1.51766E+02 -1.52830E+02 -1.54734E+02 -1.55681E+02 -1.57203E+02
  -1.58087E+02 -1.59230E+02 -1.60103E+02 -1.60901E+02 -1.61766E+02 -1.62158E+02 -1.62956E+02 -1.62978E+02 -1.63646E+02 -1.63302E+02
  -1.63806E+02 -1.63098E+02 -1.63299E+02 -1.62201E+02 -1.61952E+02 -1.60376E+02 -1.59481E+02 -1.57288E+02 -1.55581E+02 -1.52630E+02
  -1.49935E+02 -1.46062E+02 -1.42206E+02 -1.37202E+02 -1.31947E+02 -1.25548E+02 -1.18662E+02 -1.10655E+02 -1.01973E+02 -9.21926E+01
  -8.15934E+01 -6.99185E+01 -5.73440E+01 -4.37846E+01 -2.93481E+01 -1.41070E+01  1.87761E+00  1.84010E+01  3.54012E+01  5.26078E+01
   6.99006E+01  8.69807E+01  1.03686E+02  1.19720E+02  1.34896E+02  1.48960E+02  1.61737E+02  1.73035E+02  1.82737E+02  1.90751E+02
   1.97050E+02  2.01661E+02  2.04670E+02  2.06239E+02  2.06591E+02  2.06035E+02  2.04987E+02  2.04079E+02  2.04396E+02  2.06143E+02
   2.04388E+02  2.05159E+02  2.02113E+02  2.03134E+02  1.99058E+02  2.00054E+02  1.93645E+02  1.98270E+02  1.94002E+02  2.00607E+02
   1.95830E+02  2.02207E+02  1.95711E+02  2.01012E+02  1.94345E+02  1.98125E+02  1.90657E+02  1.92483E+02  1.86820E+02  1.87947E+02
   1.83329E+02  1.80987E+02  1.77891E+02  1.73860E+02  1.73185E+02  1.66756E+02  1.67258E+02  1.60343E+02  1.62481E+02  1.53984E+02
   1.56262E+02  1.47275E+02  1.48524E+02  1.39375E+02  1.39431E+02  1.31158E+02  1.30500E+02  1.23834E+02  1.21788E+02  1.17247E+02
   1.12970E+02  1.08590E+02  1.02945E+02  9.89218E+01  9.20795E+01  8.86878E+01  8.16116E+01  7.95920E+01  7.34877E+01  7.10460E+01
   6.49928E+01  6.19611E+01  5.61914E+01  5.29480E+01  4.78339E+01  4.46760E+01  4.03001E+01  3.72039E+01  3.33163E+01  3.01376E+01
   2.63316E+01  2.28516E+01  1.89995E+01  1.52215E+01  1.13360E+01  7.45634E+00  3.66790E+00 -2.63392E-02 -3.59993E+00 -7.02215E+00
  -1.02663E+01 -1.33133E+01 -1.61539E+01 -1.87891E+01 -2.12297E+01 -2.34951E+01 -2.56117E+01 -2.76102E+01 -2.95233E+01 -3.13830E+01
  -3.32181E+01 -3.50522E+01 -3.69025E+01 -3.87783E+01 -4.06815E+01 -4.26063E+01 -4.45407E+01 -4.64677E+01 -4.83670E+01 -5.02164E+01
  -5.19935E+01 -5.36777E+01 -5.52517E+01 -5.67023E+01 -5.80210E+01 -5.92044E+01 -6.02535E+01 -6.11739E+01 -6.19746E+01 -6.26671E+01
  -6.32650E+01 -6.37827E+01 -6.42344E+01 -6.46337E+01 -6.49930E+01 -6.53228E+01 -6.56317E+01 -6.59260E+01 -6.62099E+01 -6.64857E+01
  -6.67539E+01 -6.70133E+01 -6.72616E+01 -6.74955E+01 -6.77112E+01 -6.79044E+01 -6.80709E+01 -6.82066E+01 -6.83077E+01 -6.83708E+01
  -6.83932E+01 -6.83727E+01 -6.83077E+01 -6.81972E+01 -6.80409E+01 -6.78387E+01 -6.75915E+01 -6.73000E+01 -6.69657E+01 -6.65902E+01
  -6.61753E+01 -6.57228E+01 -6.52349E+01 -6.47137E+01 -6.41613E+01 -6.35797E+01 -6.29711E+01 -6.23375E+01 -6.16807E+01 -6.10027E+01
  -6.03051E+01 -5.95896E+01 -5.88578E+01 -5.81110E+01 -5.73507E+01 -5.65782E+01 -5.57945E+01 -5.50008E+01 -5.41981E+01 -5.33874E+01
  -5.25694E+01 -5.17450E+01 -5.09149E+01 -5.00798E+01 -4.92403E+01 -4.83970E+01 -4.75505E+01 -4.67011E+01 -4.58494E+01 -4.49957E+01
  -4.41405E+01 -4.32840E+01 -4.24267E+01 -4.15687E+01 -4.07104E+01 -3.98520E+01 -3.89936E+01 -3.81356E+01 -3.72781E+01 -3.64212E+01
  -3.55652E+01 -3.47100E+01 -3.38560E+01 -3.30030E+01 -3.21513E+01 -3.13010E+01 -3.04520E+01 -2.96044E+01 -2.87583E+01 -2.79137E+01
  -2.70706E+01 -2.62291E+01 -2.53890E+01 -2.45503E+01 -2.37130E+01 -2.28770E+01 -2.20421E+01 -2.12080E+01
 NY background values follow
    -9.198E+00   -8.753E+00   -8.295E+00   -7.823E+00   -7.337E+00   -6.838E+00   -6.326E+00   -5.803E+00   -5.267E+00   -4.719E+00
    -4.161E+00   -3.591E+00   -3.011E+00   -2.421E+00   -1.821E+00   -1.212E+00   -5.939E-01    3.307E-02    6.683E-01    1.312E+00
     1.962E+00    2.620E+00    3.285E+00    3.956E+00    4.634E+00    5.317E+00    6.005E+00    6.699E+00    7.397E+00    8.099E+00
     8.806E+00    9.516E+00    1.023E+01    1.094E+01    1.166E+01    1.238E+01    1.311E+01    1.383E+01    1.455E+01    1.528E+01
     1.600E+01    1.673E+01    1.745E+01    1.818E+01    1.890E+01    1.962E+01    2.034E+01    2.106E+01    2.177E+01    2.248E+01
     2.319E+01    2.390E+01    2.459E+01    2.529E+01    2.598E+01    2.667E+01    2.735E+01    2.802E+01    2.869E+01    2.935E+01
     3.000E+01    3.065E+01    3.129E+01    3.192E+01    3.254E+01    3.315E+01    3.375E+01    3.435E+01    3.493E+01    3.551E+01
     3.607E+01    3.662E+01    3.716E+01    3.769E+01    3.821E+01    3.871E+01    3.920E+01    3.968E+01    4.014E+01    4.059E+01
     4.103E+01    4.145E+01    4.185E+01    4.225E+01    4.262E+01    4.298E+01    4.332E+01    4.364E+01    4.395E+01    4.424E+01
     4.451E+01    4.477E+01    4.500E+01    4.522E+01    4.541E+01    4.559E+01    4.575E+01    4.588E+01    4.599E+01    4.609E+01
     4.616E+01    4.621E+01    4.624E+01    4.624E+01    4.623E+01    4.619E+01    4.613E+01    4.604E+01    4.594E+01    4.581E+01
     4.566E+01    4.549E+01    4.529E+01    4.507E+01    4.483E+01    4.457E+01    4.428E+01    4.398E+01    4.364E+01    4.329E+01
     4.291E+01    4.251E+01    4.209E+01    4.164E+01    4.117E+01    4.067E+01    4.016E+01    3.962E+01    3.905E+01    3.846E+01
     3.785E+01    3.722E+01    3.656E+01    3.587E+01    3.517E+01    3.443E+01    3.368E+01    3.290E+01    3.210E+01    3.127E+01
     3.042E+01    2.954E+01    2.864E+01    2.772E+01    2.677E+01    2.579E+01    2.479E+01    2.377E+01    2.272E+01    2.165E+01
     2.055E+01    1.943E+01    1.828E+01    1.710E+01    1.591E+01    1.468E+01    1.343E+01    1.216E+01    1.086E+01    9.534E+00
     8.183E+00    6.806E+00    5.404E+00    3.977E+00    2.523E+00    1.044E+00   -4.612E-01   -1.992E+00   -3.550E+00   -5.133E+00
    -6.742E+00   -8.378E+00   -1.004E+01   -1.173E+01   -1.344E+01   -1.518E+01   -1.695E+01   -1.875E+01   -2.057E+01   -2.241E+01
    -2.429E+01   -2.619E+01   -2.812E+01   -3.007E+01   -3.205E+01   -3.406E+01   -3.610E+01   -3.816E+01   -4.025E+01   -4.237E+01
    -4.452E+01   -4.669E+01   -4.889E+01   -5.112E+01   -5.338E+01   -5.566E+01   -5.797E+01   -6.031E+01   -6.268E+01   -6.507E+01
    -6.749E+01   -6.994E+01   -7.242E+01   -7.492E+01   -7.744E+01   -7.999E+01   -8.256E+01   -8.515E+01   -8.776E+01   -9.039E+01
    -9.304E+01   -9.571E+01   -9.839E+01   -1.011E+02   -1.038E+02   -1.065E+02   -1.093E+02   -1.120E+02   -1.148E+02   -1.176E+02
    -1.204E+02   -1.231E+02   -1.259E+02   -1.287E+02   -1.316E+02   -1.344E+02   -1.372E+02   -1.400E+02   -1.428E+02   -1.457E+02
    -1.485E+02   -1.513E+02   -1.541E+02   -1.570E+02   -1.598E+02   -1.626E+02   -1.654E+02   -1.682E+02   -1.710E+02   -1.738E+02
    -1.765E+02   -1.793E+02   -1.820E+02   -1.848E+02   -1.875E+02   -1.902E+02   -1.929E+02   -1.956E+02   -1.983E+02   -2.009E+02
    -2.035E+02   -2.061E+02   -2.087E+02   -2.113E+02   -2.138E+02   -2.164E+02   -2.189E+02   -2.213E+02   -2.238E+02   -2.262E+02
    -2.286E+02   -2.310E+02   -2.333E+02   -2.356E+02   -2.379E+02   -2.401E+02   -2.423E+02   -2.445E+02   -2.466E+02   -2.487E+02
    -2.508E+02   -2.528E+02   -2.548E+02   -2.567E+02   -2.586E+02   -2.605E+02   -2.623E+02   -2.640E+02   -2.658E+02   -2.675E+02
    -2.691E+02   -2.707E+02   -2.722E+02   -2.737E+02   -2.752E+02   -2.765E+02   -2.779E+02   -2.792E+02   -2.804E+02   -2.816E+02
    -2.827E+02   -2.838E+02   -2.848E+02   -2.857E+02   -2.866E+02   -2.874E+02   -2.882E+02   -2.889E+02   -2.895E+02   -2.901E+02
    -2.906E+02   -2.911E+02   -2.915E+02   -2.918E+02   -2.920E+02   -2.922E+02   -2.924E+02   -2.925E+02   -2.925E+02   -2.925E+02
    -2.924E+02   -2.923E+02   -2.921E+02   -2.918E+02   -2.915E+02   -2.912E+02   -2.908E+02   -2.903E+02   -2.898E+02   -2.893E+02
    -2.887E+02   -2.880E+02   -2.873E+02   -2.866E+02   -2.858E+02   -2.850E+02   -2.841E+02   -2.832E+02   -2.823E+02   -2.813E+02
    -2.803E+02   -2.792E+02   -2.781E+02   -2.769E+02   -2.757E+02   -2.745E+02   -2.733E+02   -2.720E+02   -2.707E+02   -2.693E+02
    -2.679E+02   -2.665E+02   -2.650E+02   -2.636E+02   -2.621E+02   -2.605E+02   -2.590E+02   -2.574E+02   -2.558E+02   -2.541E+02
    -2.525E+02   -2.508E+02   -2.491E+02   -2.473E+02   -2.456E+02   -2.438E+02   -2.420E+02   -2.402E+02   -2.384E+02   -2.365E+02
    -2.347E+02   -2.328E+02   -2.309E+02   -2.290E+02   -2.271E+02   -2.251E+02   -2.232E+02   -2.213E+02   -2.193E+02   -2.173E+02
    -2.153E+02   -2.134E+02   -2.114E+02   -2.094E+02   -2.074E+02   -2.054E+02   -2.033E+02   -2.013E+02   -1.993E+02   -1.973E+02
    -1.953E+02   -1.933E+02   -1.913E+02   -1.892E+02   -1.872E+02   -1.852E+02   -1.832E+02   -1.812E+02   -1.792E+02   -1.773E+02
    -1.753E+02   -1.733E+02   -1.714E+02   -1.694E+02   -1.675E+02   -1.655E+02   -1.636E+02   -1.617E+02   -1.598E+02   -1.580E+02
    -1.561E+02   -1.543E+02   -1.525E+02   -1.506E+02   -1.488E+02   -1.471E+02   -1.453E+02   -1.435E+02   -1.418E+02   -1.400E+02
    -1.383E+02   -1.366E+02   -1.349E+02   -1.333E+02   -1.316E+02   -1.299E+02   -1.283E+02   -1.267E+02   -1.251E+02   -1.234E+02
    -1.219E+02   -1.203E+02   -1.187E+02   -1.172E+02   -1.156E+02   -1.141E+02   -1.126E+02   -1.111E+02   -1.096E+02   -1.081E+02
    -1.066E+02   -1.052E+02   -1.037E+02   -1.023E+02   -1.008E+02   -9.943E+01   -9.802E+01   -9.663E+01   -9.524E+01   -9.387E+01
    -9.251E+01   -9.115E+01   -8.981E+01   -8.848E+01   -8.715E+01   -8.584E+01   -8.454E+01   -8.324E+01   -8.196E+01   -8.068E+01
    -7.942E+01   -7.816E+01   -7.691E+01   -7.568E+01   -7.445E+01   -7.323E+01   -7.202E+01   -7.081E+01   -6.962E+01   -6.843E+01
    -6.726E+01   -6.609E+01   -6.493E+01   -6.377E+01   -6.263E+01   -6.149E+01   -6.036E+01   -5.924E+01   -5.813E+01   -5.702E+01
    -5.592E+01   -5.483E+01   -5.374E+01   -5.266E+01   -5.159E+01   -5.053E+01   -4.947E+01   -4.842E+01   -4.738E+01   -4.634E+01
    -4.531E+01   -4.428E+01   -4.326E+01   -4.225E+01   -4.124E+01   -4.024E+01   -3.925E+01   -3.826E+01   -3.727E+01   -3.629E+01
    -3.532E+01   -3.435E+01   -3.339E+01   -3.243E+01   -3.148E+01   -3.053E+01   -2.958E+01   -2.865E+01
 Ala      Conc. = 2.86E+04
