 LCModel (Version 6.3-1L) Copyright: S.W. Provencher.          Ref.: Magn. Reson. Med. 30:672-679 (1993).                
 Slice#1 Row#6 Col#5  K_02_press_1_raw_act
 36 lines in following concentration table = NCONC+1
    Conc.  %SD /Cr+PCr  Metabolite                                         
  449.065  39%   0.374 Ala                                                 
    0.000 999%   0.000 Asp                                                 
    0.000 999%   0.000 Cr                                                  
 1.20E+03   6%   1.000 PCr                                                 
   93.312 193% 7.8E-02 GABA                                                
   51.796 334% 4.3E-02 Glc                                                 
    0.000 999%   0.000 Gln                                                 
  699.272  59%   0.583 Glu                                                 
  527.413   6%   0.440 GPC                                                 
    0.000 999%   0.000 PCh                                                 
  389.260  27%   0.325 GSH                                                 
 1.16E+03  31%   0.971 Ins                                                 
    0.000 999%   0.000 Lac                                                 
 2.11E+03   9%   1.761 NAA                                                 
  453.457  47%   0.378 NAAG                                                
  179.225  21%   0.149 Scyllo                                              
  429.017  57%   0.358 Tau                                                 
  609.979  22%   0.509 -CrCH2                                              
  527.413   6%   0.440 GPC+PCh                                             
 2.56E+03   4%   2.139 NAA+NAAG                                            
 1.20E+03   6%   1.000 Cr+PCr                                              
  699.272  59%   0.583 Glu+Gln                                             
 2.65E+03  15%   2.213 Lip13a                                              
    0.000 999%   0.000 Lip13b                                              
   12.132 999% 1.0E-02 Lip09                                               
  846.036  24%   0.706 MM09                                                
  684.310  31%   0.571 Lip20                                               
 1.61E+03  21%   1.341 MM20                                                
  266.734  37%   0.222 MM12                                                
    0.000 999%   0.000 MM14                                                
  615.240  26%   0.513 MM17                                                
 2.65E+03  15%   2.213 Lip13a+Lip13b                                       
 2.92E+03  13%   2.436 MM14+Lip13a+Lip13b+MM12                             
  858.168  22%   0.716 MM09+Lip09                                          
 2.29E+03  16%   1.912 MM20+Lip20                                          
   6 lines in following misc. output table
  FWHM = 0.069 ppm    S/N =   8                                            
  Data shift = 0.000 ppm                                                   
  Ph: -43 deg      -8.7 deg/ppm                                            
  alphaB,S = 1.4E+00,   1.6E+02                                            
   14 spline knots.   Ns = 8(1)                                            
  (12) 2 infls.   (11) 1 extrs.                                            
  498 points on ppm-axis = NY
      4.000000     3.992357     3.984714     3.977070     3.969427     3.961784     3.954141     3.946497     3.938854     3.931211
      3.923568     3.915925     3.908281     3.900638     3.892995     3.885352     3.877708     3.870065     3.862422     3.854779
      3.847136     3.839492     3.831849     3.824206     3.816563     3.808919     3.801276     3.793633     3.785990     3.778347
      3.770703     3.763060     3.755417     3.747774     3.740130     3.732487     3.724844     3.717201     3.709558     3.701914
      3.694271     3.686628     3.678985     3.671341     3.663698     3.656055     3.648412     3.640769     3.633125     3.625482
      3.617839     3.610196     3.602552     3.594909     3.587266     3.579623     3.571980     3.564336     3.556693     3.549050
      3.541407     3.533763     3.526120     3.518477     3.510834     3.503191     3.495547     3.487904     3.480261     3.472618
      3.464974     3.457331     3.449688     3.442045     3.434402     3.426758     3.419115     3.411472     3.403829     3.396185
      3.388542     3.380899     3.373256     3.365613     3.357969     3.350326     3.342683     3.335040     3.327396     3.319753
      3.312110     3.304467     3.296824     3.289180     3.281537     3.273894     3.266251     3.258607     3.250964     3.243321
      3.235678     3.228034     3.220391     3.212748     3.205105     3.197462     3.189818     3.182175     3.174532     3.166889
      3.159245     3.151602     3.143959     3.136316     3.128673     3.121029     3.113386     3.105743     3.098100     3.090456
      3.082813     3.075170     3.067527     3.059884     3.052240     3.044597     3.036954     3.029311     3.021667     3.014024
      3.006381     2.998738     2.991095     2.983451     2.975808     2.968165     2.960522     2.952878     2.945235     2.937592
      2.929949     2.922306     2.914662     2.907019     2.899376     2.891733     2.884089     2.876446     2.868803     2.861160
      2.853517     2.845873     2.838230     2.830587     2.822944     2.815300     2.807657     2.800014     2.792371     2.784728
      2.777084     2.769441     2.761798     2.754155     2.746511     2.738868     2.731225     2.723582     2.715939     2.708295
      2.700652     2.693009     2.685366     2.677722     2.670079     2.662436     2.654793     2.647150     2.639506     2.631863
      2.624220     2.616577     2.608933     2.601290     2.593647     2.586004     2.578361     2.570717     2.563074     2.555431
      2.547788     2.540144     2.532501     2.524858     2.517215     2.509572     2.501928     2.494285     2.486642     2.478999
      2.471355     2.463712     2.456069     2.448426     2.440783     2.433139     2.425496     2.417853     2.410210     2.402566
      2.394923     2.387280     2.379637     2.371994     2.364350     2.356707     2.349064     2.341421     2.333777     2.326134
      2.318491     2.310848     2.303205     2.295561     2.287918     2.280275     2.272632     2.264988     2.257345     2.249702
      2.242059     2.234416     2.226772     2.219129     2.211486     2.203843     2.196199     2.188556     2.180913     2.173270
      2.165627     2.157983     2.150340     2.142697     2.135054     2.127410     2.119767     2.112124     2.104481     2.096838
      2.089194     2.081551     2.073908     2.066265     2.058621     2.050978     2.043335     2.035692     2.028049     2.020405
      2.012762     2.005119     1.997476     1.989833     1.982190     1.974546     1.966903     1.959260     1.951617     1.943974
      1.936331     1.928688     1.921045     1.913402     1.905759     1.898115     1.890472     1.882829     1.875186     1.867543
      1.859900     1.852257     1.844614     1.836971     1.829327     1.821684     1.814041     1.806398     1.798755     1.791112
      1.783469     1.775826     1.768183     1.760540     1.752896     1.745253     1.737610     1.729967     1.722324     1.714681
      1.707038     1.699395     1.691752     1.684108     1.676465     1.668822     1.661179     1.653536     1.645893     1.638250
      1.630607     1.622964     1.615321     1.607677     1.600034     1.592391     1.584748     1.577105     1.569462     1.561819
      1.554176     1.546533     1.538890     1.531246     1.523603     1.515960     1.508317     1.500674     1.493031     1.485388
      1.477745     1.470102     1.462458     1.454815     1.447172     1.439529     1.431886     1.424243     1.416600     1.408957
      1.401314     1.393671     1.386027     1.378384     1.370741     1.363098     1.355455     1.347812     1.340169     1.332526
      1.324883     1.317240     1.309596     1.301953     1.294310     1.286667     1.279024     1.271381     1.263738     1.256095
      1.248452     1.240808     1.233165     1.225522     1.217879     1.210236     1.202593     1.194950     1.187307     1.179664
      1.172021     1.164377     1.156734     1.149091     1.141448     1.133805     1.126162     1.118519     1.110876     1.103233
      1.095590     1.087946     1.080303     1.072660     1.065017     1.057374     1.049731     1.042088     1.034445     1.026802
      1.019158     1.011515     1.003872     0.996229     0.988586     0.980943     0.973300     0.965657     0.958014     0.950371
      0.942727     0.935084     0.927441     0.919798     0.912155     0.904512     0.896869     0.889226     0.881583     0.873940
      0.866296     0.858653     0.851010     0.843367     0.835724     0.828081     0.820438     0.812795     0.805152     0.797508
      0.789865     0.782222     0.774579     0.766936     0.759293     0.751650     0.744007     0.736364     0.728721     0.721077
      0.713434     0.705791     0.698148     0.690505     0.682862     0.675219     0.667576     0.659933     0.652290     0.644646
      0.637003     0.629360     0.621717     0.614074     0.606431     0.598788     0.591145     0.583502     0.575858     0.568215
      0.560572     0.552929     0.545286     0.537643     0.530000     0.522357     0.514714     0.507071     0.499427     0.491784
      0.484141     0.476498     0.468855     0.461212     0.453569     0.445925     0.438282     0.430639     0.422996     0.415353
      0.407710     0.400067     0.392424     0.384780     0.377137     0.369494     0.361851     0.354208     0.346565     0.338922
      0.331278     0.323635     0.315992     0.308349     0.300706     0.293063     0.285420     0.277777     0.270133     0.262490
      0.254847     0.247204     0.239561     0.231918     0.224275     0.216631     0.208988     0.201345
 NY phased data points follow
  -3.37790E+01 -3.23737E+01 -2.90760E+01 -3.19185E+01 -2.97026E+01 -2.71361E+01 -2.46967E+01 -1.75025E+01 -1.15607E+01 -1.81216E+01
  -1.59207E+01 -1.82242E+01 -1.75221E+01 -2.26370E+01 -2.56143E+01 -2.53901E+01 -2.27650E+01 -3.41193E+01 -3.10354E+01 -3.10313E+01
  -2.72297E+01 -3.06473E+01 -2.45187E+01 -2.57091E+01 -2.67575E+01 -2.60128E+01 -1.86092E+01 -2.54348E+01 -2.28061E+01 -2.06988E+01
  -2.60150E+01 -2.63041E+01 -1.80181E+01 -2.35178E+01 -1.95616E+01 -2.03200E+01 -2.82234E+01 -2.41706E+01 -2.03114E+01 -2.40881E+01
  -1.47754E+01 -2.11811E+01 -1.89812E+01 -1.35379E+01 -1.89274E+01 -1.04447E+01 -1.49949E+01 -1.67432E+01 -1.66779E+01 -1.76938E+01
  -1.65528E+01 -2.30482E+01 -2.27503E+01 -1.99604E+01 -2.17801E+01 -2.18679E+01 -2.12491E+01 -2.32414E+01 -2.41235E+01 -2.27654E+01
  -1.78123E+01 -2.40157E+01 -2.05293E+01 -2.53175E+01 -2.25850E+01 -2.13190E+01 -2.21139E+01 -2.59974E+01 -2.42223E+01 -2.71041E+01
  -2.34990E+01 -2.24101E+01 -2.69592E+01 -2.08829E+01 -1.99712E+01 -1.84939E+01 -2.25171E+01 -2.07833E+01 -1.67327E+01 -1.96336E+01
  -1.83568E+01 -2.16708E+01 -2.00491E+01 -1.87798E+01 -1.50070E+01 -1.74925E+01 -1.92361E+01 -1.51887E+01 -1.84415E+01 -1.12212E+01
  -1.43092E+01 -1.31175E+01 -1.55390E+01 -1.05767E+01 -7.26581E+00 -1.65637E+01 -6.30153E+00 -7.78045E+00 -6.30506E+00  7.22265E-01
   4.68341E+00  1.31712E+01  2.08587E+01  2.76659E+01  1.79555E+01  1.95908E+01  8.27275E+00 -1.31695E+00 -1.87186E+00 -6.61555E+00
  -1.33921E+01 -1.06708E+01 -8.03726E+00 -1.81972E+01 -1.51826E+01 -1.70270E+01 -1.29247E+01 -1.35760E+01 -1.36601E+01 -1.08057E+01
  -1.24918E+01 -7.36059E+00  5.61891E-01 -9.69194E-01  3.53866E+00  9.91818E+00  1.38278E+01  1.50316E+01  1.94963E+01  9.63555E+00
   9.30207E+00 -6.09214E-01 -2.73734E+00 -4.56987E-01 -1.32989E+01 -1.75567E+01 -1.22074E+01 -1.63936E+01 -1.42799E+01 -1.31644E+01
  -9.67021E+00 -1.26191E+01 -1.46152E+01 -1.27225E+01 -1.34833E+01 -1.75593E+01 -1.12996E+01 -1.39656E+01 -1.40702E+01 -1.09662E+01
  -1.23616E+01 -1.21736E+01 -1.37054E+01 -1.50552E+01 -1.97013E+01 -9.77927E+00 -1.00582E+01 -9.65543E+00 -1.30614E+01 -1.63465E+01
  -7.61128E+00 -1.75505E+01 -1.44363E+01 -1.64754E+01 -1.75881E+01 -9.71447E+00 -1.77158E+01 -2.08540E+01 -2.34705E+01 -2.25255E+01
  -2.15082E+01 -2.37775E+01 -2.55379E+01 -2.61611E+01 -2.24817E+01 -2.62424E+01 -2.51390E+01 -3.18124E+01 -2.76224E+01 -2.26494E+01
  -2.51449E+01 -2.31772E+01 -2.41419E+01 -2.46884E+01 -2.03788E+01 -1.66526E+01 -1.52320E+01 -8.85324E+00 -1.58067E+01 -1.80764E+01
  -1.23439E+01 -1.55006E+01 -1.20577E+01 -1.47458E+01 -1.76566E+01 -1.70856E+01 -1.89389E+01 -1.75164E+01 -1.88474E+01 -2.12841E+01
  -2.30944E+01 -1.14733E+01 -1.87005E+01 -1.65843E+01 -1.73534E+01 -1.84555E+01 -1.56582E+01 -1.09392E+01 -1.57552E+01 -1.01750E+01
  -1.43627E+01 -8.44941E+00 -5.47679E+00 -1.26009E+01 -7.43711E+00 -1.06931E+01 -1.18687E+01 -9.26202E+00 -5.23625E+00 -8.71801E+00
  -1.31300E+01 -1.69816E+01 -1.16237E+01 -1.04496E+01 -1.43202E+01 -9.57748E+00 -1.10173E+01 -1.09439E+01 -8.59453E+00 -1.32257E+01
  -1.01295E+01 -7.76088E+00 -7.67979E+00 -1.31267E-01 -6.60017E+00 -7.91022E+00 -9.36678E+00 -2.99964E-01 -3.05299E+00 -5.07339E+00
  -9.83632E+00 -4.10061E+00 -1.41821E+01 -8.12363E+00 -7.47759E+00 -6.60607E+00 -9.47102E+00 -5.03254E+00 -7.64345E-01 -2.00059E+00
  -1.45293E+00  6.75099E-01  3.77950E+00  1.32326E+01  1.55683E+01  3.12163E+01  3.78587E+01  4.01100E+01  5.01494E+01  5.61613E+01
   6.01183E+01  5.54084E+01  5.11428E+01  4.73939E+01  3.11153E+01  2.40875E+01  1.43105E+01  5.24079E+00  2.96806E+00 -1.39544E+00
  -6.21694E+00 -4.15680E+00 -2.17071E+00 -6.81606E+00 -6.94859E+00 -1.04586E+01 -1.30601E+01 -1.35102E+01 -1.24948E+01 -1.14271E+01
  -8.37759E+00 -9.80936E+00 -1.02718E+01 -1.14183E+01 -1.25168E+01 -1.79919E+01 -1.24635E+01 -1.31258E+01 -9.00005E+00 -7.87854E+00
  -5.68889E+00 -7.06245E+00 -3.96801E+00 -8.65320E+00 -5.64326E+00 -1.01161E+01 -5.47482E+00 -1.08927E+01 -7.81238E+00 -8.29610E+00
  -8.53633E+00 -6.29271E+00 -8.10639E+00 -1.92385E+00 -4.58290E+00  4.94935E-01 -3.01497E+00 -1.99825E+00 -5.15091E+00  8.46418E-01
  -8.36039E+00 -9.41204E+00 -7.19142E+00 -1.33190E+01 -9.87499E+00 -1.33965E+01 -3.75605E+00 -1.28830E+01 -1.11237E+01 -1.00637E+01
  -1.10028E+01 -9.68548E+00 -9.61533E+00 -8.40605E+00 -1.15901E+01 -1.32701E+01 -1.00060E+01 -8.03669E+00 -4.82062E+00 -1.11224E+01
  -1.94564E+01 -8.80219E+00 -1.52385E+01 -1.17904E+01 -1.31187E+01 -1.61513E+01 -1.07024E+01 -7.57312E+00 -2.20781E+00 -7.44495E+00
  -5.36071E+00 -4.24195E+00  5.40747E+00  1.44097E+00  1.04322E+01  7.24335E+00  1.31533E+01  1.02661E+01  1.27239E+01  1.21659E+01
   1.01129E+01  1.30557E+01  8.43748E+00  5.45569E+00  4.09774E+00  4.01459E+00  4.37650E+00  5.05310E+00  4.09936E+00  1.46017E+00
   4.31253E+00  4.53370E+00 -4.97973E+00  3.57483E-01 -1.92555E+00 -6.35948E-01  3.25427E+00 -2.00940E+00  1.44824E+00 -3.36987E-01
  -2.34261E+00  5.34565E-01  4.33652E+00 -2.75626E-01 -4.57019E+00 -1.14227E+00  9.82582E-01 -4.62544E+00 -2.96801E+00 -1.63377E-01
  -5.72582E+00 -1.05413E+01 -2.24815E+00 -1.32453E+01 -8.44867E+00 -2.22756E+00 -1.14258E+01 -1.74966E+01 -9.26561E+00 -1.48437E+01
  -1.42557E+01 -5.04384E+00 -1.20604E+01 -9.87219E+00 -6.68229E+00 -3.50411E+00 -5.48776E+00 -1.17871E+00 -3.37420E+00 -1.57865E+00
  -2.37715E+00 -3.45139E+00 -2.05917E-01 -2.76274E+00  1.95904E+00  1.33759E+00 -9.78647E-01  5.35979E+00  3.24647E+00  5.24853E+00
   7.47588E+00  1.44274E+00  4.12704E+00 -2.04785E+00 -2.00564E+00 -2.18337E+00 -3.06963E+00 -4.97646E+00 -3.87172E+00 -7.56967E+00
  -9.06865E+00 -7.79382E+00 -5.94710E+00 -5.02754E+00 -7.89625E+00 -5.80465E+00 -5.40830E+00 -1.13683E+01 -4.49350E+00 -4.97376E+00
  -4.38332E+00 -5.60420E+00 -5.24782E+00 -7.38612E+00 -9.51732E+00 -6.19780E+00 -2.26764E+00 -5.01680E+00 -4.74168E+00 -4.97313E+00
   7.56529E-01 -7.65122E+00 -1.89123E+00 -3.21559E+00 -2.33484E+00 -1.41201E+00 -3.74270E+00 -5.83661E+00 -9.35981E+00 -5.42936E+00
  -5.04808E+00 -5.77985E+00 -4.80772E+00 -5.76828E+00 -8.83390E+00 -4.63377E+00 -2.83313E+00 -1.74584E+00 -9.36141E-01 -4.41733E+00
  -1.01038E+01 -2.89238E+00  2.18028E+00  1.45376E-02 -4.06079E+00 -6.32409E+00 -4.96606E+00 -2.89000E+00 -2.68441E+00 -6.11850E+00
  -1.32475E+00 -1.03577E+00  5.42682E-01  2.46290E+00  1.83389E+00  1.76199E+00  1.83495E+00 -2.45920E+00  6.62356E+00  2.64901E+00
  -2.62402E+00  6.59304E-01 -2.48944E-01  1.49760E+00 -4.66225E+00 -4.98465E+00 -4.23195E+00 -2.71725E+00 -4.96010E+00  1.23424E+00
   3.98640E+00 -8.04918E-01  1.80609E+00 -9.74405E-01 -1.56260E+00 -1.91296E+00 -9.98374E-01 -2.80346E+00
 NY points of the fit to the data follow
  -2.95770E+01 -2.89088E+01 -2.78457E+01 -2.65431E+01 -2.50553E+01 -2.33243E+01 -2.13499E+01 -1.93664E+01 -1.77954E+01 -1.70175E+01
  -1.71712E+01 -1.81454E+01 -1.96253E+01 -2.11900E+01 -2.25593E+01 -2.37392E+01 -2.48486E+01 -2.58242E+01 -2.64051E+01 -2.66241E+01
  -2.68341E+01 -2.69748E+01 -2.67800E+01 -2.63226E+01 -2.57716E+01 -2.51748E+01 -2.44745E+01 -2.35822E+01 -2.25139E+01 -2.13743E+01
  -2.03757E+01 -1.97203E+01 -1.94939E+01 -1.97088E+01 -2.02265E+01 -2.08132E+01 -2.14245E+01 -2.21311E+01 -2.28348E+01 -2.32257E+01
  -2.31002E+01 -2.26427E+01 -2.20149E+01 -2.12273E+01 -2.02557E+01 -1.91964E+01 -1.82701E+01 -1.76792E+01 -1.75928E+01 -1.80931E+01
  -1.90584E+01 -2.01811E+01 -2.11641E+01 -2.18675E+01 -2.23540E+01 -2.26584E+01 -2.27194E+01 -2.25211E+01 -2.21690E+01 -2.17977E+01
  -2.15413E+01 -2.14573E+01 -2.15679E+01 -2.18003E+01 -2.20161E+01 -2.21180E+01 -2.20994E+01 -2.19706E+01 -2.17038E+01 -2.13421E+01
  -2.09693E+01 -2.06369E+01 -2.03975E+01 -2.02605E+01 -2.01944E+01 -2.02014E+01 -2.03130E+01 -2.05316E+01 -2.07938E+01 -2.07797E+01
  -2.04595E+01 -1.99243E+01 -1.92157E+01 -1.83833E+01 -1.74264E+01 -1.63565E+01 -1.53593E+01 -1.47461E+01 -1.46921E+01 -1.52170E+01
  -1.61844E+01 -1.73066E+01 -1.83225E+01 -1.89720E+01 -1.83311E+01 -1.57945E+01 -1.21372E+01 -7.72535E+00 -2.81213E+00  2.57281E+00
   8.52398E+00  1.44892E+01  1.91705E+01  2.12614E+01  2.02093E+01  1.63254E+01  1.05861E+01  4.34522E+00 -1.34225E+00 -6.24496E+00
  -1.05735E+01 -1.42053E+01 -1.65008E+01 -1.74662E+01 -1.79740E+01 -1.83163E+01 -1.85384E+01 -1.85261E+01 -1.75185E+01 -1.50007E+01
  -1.16948E+01 -8.04529E+00 -4.13822E+00  1.72696E-01  5.00576E+00  9.94672E+00  1.39453E+01  1.58641E+01  1.52067E+01  1.22052E+01
   7.63969E+00  2.65031E+00 -1.92278E+00 -5.95009E+00 -9.59262E+00 -1.27312E+01 -1.47848E+01 -1.56437E+01 -1.59407E+01 -1.59017E+01
  -1.56522E+01 -1.53273E+01 -1.50376E+01 -1.48308E+01 -1.47277E+01 -1.47479E+01 -1.48688E+01 -1.50598E+01 -1.52860E+01 -1.55050E+01
  -1.56887E+01 -1.58166E+01 -1.59075E+01 -1.60400E+01 -1.62091E+01 -1.63629E+01 -1.64638E+01 -1.64886E+01 -1.65183E+01 -1.66396E+01
  -1.68513E+01 -1.70834E+01 -1.72611E+01 -1.73516E+01 -1.73946E+01 -1.74823E+01 -1.76863E+01 -1.80346E+01 -1.85084E+01 -1.90042E+01
  -1.94009E+01 -1.97127E+01 -1.99883E+01 -2.02968E+01 -2.06286E+01 -2.08851E+01 -2.10013E+01 -2.09778E+01 -2.08756E+01 -2.08057E+01
  -2.07782E+01 -2.07043E+01 -2.04988E+01 -2.01056E+01 -1.95289E+01 -1.88451E+01 -1.81168E+01 -1.72975E+01 -1.63182E+01 -1.52434E+01
  -1.42765E+01 -1.35763E+01 -1.31985E+01 -1.31194E+01 -1.32543E+01 -1.35025E+01 -1.37491E+01 -1.39449E+01 -1.40123E+01 -1.39205E+01
  -1.36959E+01 -1.33560E+01 -1.29696E+01 -1.26440E+01 -1.24896E+01 -1.25843E+01 -1.28887E+01 -1.33143E+01 -1.37317E+01 -1.40420E+01
  -1.42434E+01 -1.43385E+01 -1.42936E+01 -1.40539E+01 -1.36626E+01 -1.32816E+01 -1.30203E+01 -1.29461E+01 -1.31076E+01 -1.34571E+01
  -1.38714E+01 -1.41659E+01 -1.42096E+01 -1.40088E+01 -1.35693E+01 -1.29017E+01 -1.20861E+01 -1.12923E+01 -1.06481E+01 -1.01422E+01
  -9.71647E+00 -9.34967E+00 -9.03581E+00 -8.73682E+00 -8.40163E+00 -8.07490E+00 -7.85625E+00 -7.79320E+00 -7.87668E+00 -8.06120E+00
  -8.25760E+00 -8.37314E+00 -8.29401E+00 -7.93817E+00 -7.32867E+00 -6.54230E+00 -5.67180E+00 -4.69254E+00 -3.34477E+00 -1.73751E+00
  -3.94626E-02  2.05585E+00  6.01475E+00  1.25226E+01  2.02243E+01  2.81224E+01  3.56565E+01  4.27492E+01  4.94793E+01  5.51666E+01
   5.83223E+01  5.76427E+01  5.27929E+01  4.44146E+01  3.40107E+01  2.36601E+01  1.48758E+01  7.61476E+00  1.38023E+00 -3.63179E+00
  -6.57025E+00 -7.67947E+00 -8.22012E+00 -8.57397E+00 -8.83928E+00 -9.07431E+00 -9.31028E+00 -9.54853E+00 -9.78237E+00 -1.00009E+01
  -1.01914E+01 -1.03399E+01 -1.04422E+01 -1.04972E+01 -1.04974E+01 -1.04433E+01 -1.03452E+01 -1.02122E+01 -1.00441E+01 -9.83535E+00
  -9.58386E+00 -9.29406E+00 -8.96934E+00 -8.61566E+00 -8.24491E+00 -7.87133E+00 -7.50620E+00 -7.16018E+00 -6.84209E+00 -6.55975E+00
  -6.32225E+00 -6.13742E+00 -6.00897E+00 -5.94266E+00 -5.94426E+00 -6.01421E+00 -6.14803E+00 -6.33769E+00 -6.57374E+00 -6.84535E+00
  -7.13822E+00 -7.43758E+00 -7.73007E+00 -8.00257E+00 -8.24301E+00 -8.43969E+00 -8.58062E+00 -8.65055E+00 -8.62406E+00 -8.44299E+00
  -8.06637E+00 -7.69181E+00 -7.44033E+00 -7.31022E+00 -7.28654E+00 -7.38411E+00 -7.70990E+00 -8.39641E+00 -9.31105E+00 -1.02636E+01
  -1.11070E+01 -1.16654E+01 -1.17617E+01 -1.12609E+01 -1.01473E+01 -8.54187E+00 -6.64312E+00 -4.65670E+00 -2.79678E+00 -1.32487E+00
  -2.55734E-01  5.79735E-01  1.33208E+00  2.04501E+00  2.70078E+00  3.32876E+00  4.05995E+00  4.88632E+00  5.71226E+00  6.48050E+00
   7.15178E+00  7.69595E+00  8.08972E+00  8.31665E+00  8.36701E+00  8.23809E+00  7.93383E+00  7.46475E+00  6.84685E+00  6.10094E+00
   5.25100E+00  4.32313E+00  3.34392E+00  2.33953E+00  1.33422E+00  3.49776E-01 -5.95522E-01 -1.48690E+00 -2.31350E+00 -3.06789E+00
  -3.74610E+00 -4.34692E+00 -4.87166E+00 -5.32330E+00 -5.70623E+00 -6.02535E+00 -6.28611E+00 -6.49373E+00 -6.65334E+00 -6.76931E+00
  -6.84551E+00 -6.88482E+00 -6.88953E+00 -6.86096E+00 -6.79983E+00 -6.70600E+00 -6.57880E+00 -6.41697E+00 -6.21908E+00 -5.98349E+00
  -5.70883E+00 -5.39398E+00 -5.03869E+00 -4.64361E+00 -4.21096E+00 -3.74443E+00 -3.24970E+00 -2.73422E+00 -2.20756E+00 -1.68090E+00
  -1.16706E+00 -6.79663E-01 -2.32851E-01  1.59788E-01  4.85602E-01  7.33939E-01  8.96511E-01  9.68286E-01  9.47519E-01  8.36194E-01
   6.39573E-01  3.66181E-01  2.69803E-02 -3.64958E-01 -7.95555E-01 -1.25021E+00 -1.71490E+00 -2.17649E+00 -2.62359E+00 -3.04654E+00
  -3.43799E+00 -3.79262E+00 -4.10736E+00 -4.38087E+00 -4.61353E+00 -4.80682E+00 -4.96334E+00 -5.08615E+00 -5.17887E+00 -5.24503E+00
  -5.28825E+00 -5.31176E+00 -5.31870E+00 -5.31170E+00 -5.29323E+00 -5.26523E+00 -5.22946E+00 -5.18722E+00 -5.13976E+00 -5.08793E+00
  -5.03261E+00 -4.97429E+00 -4.91355E+00 -4.85068E+00 -4.78608E+00 -4.71996E+00 -4.65260E+00 -4.58409E+00 -4.51462E+00 -4.44423E+00
  -4.37312E+00 -4.30129E+00 -4.22891E+00 -4.15592E+00 -4.08246E+00 -4.00848E+00 -3.93414E+00 -3.85938E+00 -3.78432E+00 -3.70887E+00
  -3.63315E+00 -3.55711E+00 -3.48085E+00 -3.40433E+00 -3.32762E+00 -3.25064E+00 -3.17349E+00 -3.09612E+00 -3.01863E+00 -2.94093E+00
  -2.86311E+00 -2.78508E+00 -2.70695E+00 -2.62866E+00 -2.55028E+00 -2.47174E+00 -2.39311E+00 -2.31432E+00 -2.23546E+00 -2.15646E+00
  -2.07741E+00 -1.99821E+00 -1.91894E+00 -1.83953E+00 -1.76006E+00 -1.68046E+00 -1.60081E+00 -1.52099E+00 -1.44109E+00 -1.36104E+00
  -1.28092E+00 -1.20064E+00 -1.12024E+00 -1.03964E+00 -9.58889E-01 -8.77915E-01 -7.96771E-01 -7.15341E-01
 NY background values follow
    -3.189E+01   -3.178E+01   -3.168E+01   -3.158E+01   -3.147E+01   -3.137E+01   -3.126E+01   -3.116E+01   -3.106E+01   -3.095E+01
    -3.085E+01   -3.074E+01   -3.064E+01   -3.053E+01   -3.043E+01   -3.033E+01   -3.022E+01   -3.012E+01   -3.001E+01   -2.991E+01
    -2.980E+01   -2.970E+01   -2.960E+01   -2.949E+01   -2.939E+01   -2.928E+01   -2.918E+01   -2.908E+01   -2.897E+01   -2.887E+01
    -2.876E+01   -2.866E+01   -2.856E+01   -2.845E+01   -2.835E+01   -2.825E+01   -2.814E+01   -2.804E+01   -2.794E+01   -2.784E+01
    -2.773E+01   -2.763E+01   -2.753E+01   -2.743E+01   -2.732E+01   -2.722E+01   -2.712E+01   -2.702E+01   -2.692E+01   -2.682E+01
    -2.672E+01   -2.662E+01   -2.652E+01   -2.642E+01   -2.632E+01   -2.622E+01   -2.612E+01   -2.602E+01   -2.592E+01   -2.582E+01
    -2.572E+01   -2.562E+01   -2.553E+01   -2.543E+01   -2.533E+01   -2.523E+01   -2.514E+01   -2.504E+01   -2.494E+01   -2.485E+01
    -2.475E+01   -2.466E+01   -2.456E+01   -2.447E+01   -2.437E+01   -2.428E+01   -2.419E+01   -2.409E+01   -2.400E+01   -2.391E+01
    -2.382E+01   -2.372E+01   -2.363E+01   -2.354E+01   -2.345E+01   -2.336E+01   -2.327E+01   -2.318E+01   -2.310E+01   -2.301E+01
    -2.292E+01   -2.283E+01   -2.274E+01   -2.266E+01   -2.257E+01   -2.249E+01   -2.240E+01   -2.232E+01   -2.223E+01   -2.215E+01
    -2.207E+01   -2.198E+01   -2.190E+01   -2.182E+01   -2.174E+01   -2.166E+01   -2.158E+01   -2.150E+01   -2.142E+01   -2.134E+01
    -2.126E+01   -2.118E+01   -2.111E+01   -2.103E+01   -2.095E+01   -2.088E+01   -2.080E+01   -2.073E+01   -2.065E+01   -2.058E+01
    -2.051E+01   -2.043E+01   -2.036E+01   -2.029E+01   -2.022E+01   -2.015E+01   -2.008E+01   -2.001E+01   -1.994E+01   -1.987E+01
    -1.980E+01   -1.974E+01   -1.967E+01   -1.960E+01   -1.954E+01   -1.947E+01   -1.941E+01   -1.934E+01   -1.928E+01   -1.922E+01
    -1.916E+01   -1.909E+01   -1.903E+01   -1.897E+01   -1.891E+01   -1.885E+01   -1.879E+01   -1.873E+01   -1.868E+01   -1.862E+01
    -1.856E+01   -1.850E+01   -1.845E+01   -1.839E+01   -1.834E+01   -1.828E+01   -1.823E+01   -1.817E+01   -1.812E+01   -1.806E+01
    -1.801E+01   -1.796E+01   -1.791E+01   -1.785E+01   -1.780E+01   -1.775E+01   -1.770E+01   -1.765E+01   -1.760E+01   -1.755E+01
    -1.750E+01   -1.745E+01   -1.740E+01   -1.735E+01   -1.730E+01   -1.725E+01   -1.720E+01   -1.715E+01   -1.710E+01   -1.705E+01
    -1.701E+01   -1.696E+01   -1.691E+01   -1.686E+01   -1.681E+01   -1.677E+01   -1.672E+01   -1.667E+01   -1.663E+01   -1.658E+01
    -1.653E+01   -1.649E+01   -1.644E+01   -1.639E+01   -1.635E+01   -1.630E+01   -1.626E+01   -1.621E+01   -1.617E+01   -1.612E+01
    -1.608E+01   -1.603E+01   -1.599E+01   -1.594E+01   -1.590E+01   -1.586E+01   -1.581E+01   -1.577E+01   -1.573E+01   -1.568E+01
    -1.564E+01   -1.560E+01   -1.556E+01   -1.551E+01   -1.547E+01   -1.543E+01   -1.539E+01   -1.535E+01   -1.530E+01   -1.526E+01
    -1.522E+01   -1.518E+01   -1.514E+01   -1.510E+01   -1.506E+01   -1.502E+01   -1.498E+01   -1.494E+01   -1.490E+01   -1.486E+01
    -1.483E+01   -1.479E+01   -1.475E+01   -1.471E+01   -1.467E+01   -1.463E+01   -1.460E+01   -1.456E+01   -1.452E+01   -1.449E+01
    -1.445E+01   -1.441E+01   -1.437E+01   -1.434E+01   -1.430E+01   -1.427E+01   -1.423E+01   -1.419E+01   -1.416E+01   -1.412E+01
    -1.409E+01   -1.405E+01   -1.401E+01   -1.398E+01   -1.394E+01   -1.391E+01   -1.387E+01   -1.384E+01   -1.380E+01   -1.377E+01
    -1.373E+01   -1.370E+01   -1.366E+01   -1.363E+01   -1.360E+01   -1.356E+01   -1.353E+01   -1.349E+01   -1.346E+01   -1.342E+01
    -1.339E+01   -1.335E+01   -1.332E+01   -1.328E+01   -1.325E+01   -1.322E+01   -1.318E+01   -1.315E+01   -1.311E+01   -1.308E+01
    -1.304E+01   -1.301E+01   -1.297E+01   -1.294E+01   -1.290E+01   -1.287E+01   -1.284E+01   -1.280E+01   -1.276E+01   -1.273E+01
    -1.269E+01   -1.266E+01   -1.262E+01   -1.259E+01   -1.255E+01   -1.252E+01   -1.248E+01   -1.244E+01   -1.241E+01   -1.237E+01
    -1.234E+01   -1.230E+01   -1.226E+01   -1.223E+01   -1.219E+01   -1.215E+01   -1.211E+01   -1.208E+01   -1.204E+01   -1.200E+01
    -1.196E+01   -1.192E+01   -1.188E+01   -1.184E+01   -1.181E+01   -1.177E+01   -1.173E+01   -1.169E+01   -1.165E+01   -1.161E+01
    -1.156E+01   -1.152E+01   -1.148E+01   -1.144E+01   -1.140E+01   -1.136E+01   -1.132E+01   -1.127E+01   -1.123E+01   -1.119E+01
    -1.114E+01   -1.110E+01   -1.106E+01   -1.101E+01   -1.097E+01   -1.092E+01   -1.088E+01   -1.083E+01   -1.079E+01   -1.074E+01
    -1.070E+01   -1.065E+01   -1.060E+01   -1.056E+01   -1.051E+01   -1.046E+01   -1.041E+01   -1.037E+01   -1.032E+01   -1.027E+01
    -1.022E+01   -1.017E+01   -1.012E+01   -1.007E+01   -1.002E+01   -9.974E+00   -9.924E+00   -9.873E+00   -9.822E+00   -9.771E+00
    -9.719E+00   -9.668E+00   -9.616E+00   -9.563E+00   -9.511E+00   -9.458E+00   -9.404E+00   -9.351E+00   -9.297E+00   -9.243E+00
    -9.189E+00   -9.134E+00   -9.079E+00   -9.024E+00   -8.968E+00   -8.912E+00   -8.856E+00   -8.800E+00   -8.743E+00   -8.686E+00
    -8.628E+00   -8.571E+00   -8.513E+00   -8.454E+00   -8.396E+00   -8.337E+00   -8.277E+00   -8.218E+00   -8.158E+00   -8.098E+00
    -8.037E+00   -7.976E+00   -7.915E+00   -7.853E+00   -7.792E+00   -7.729E+00   -7.667E+00   -7.604E+00   -7.541E+00   -7.477E+00
    -7.413E+00   -7.349E+00   -7.285E+00   -7.220E+00   -7.155E+00   -7.089E+00   -7.023E+00   -6.957E+00   -6.890E+00   -6.823E+00
    -6.756E+00   -6.688E+00   -6.620E+00   -6.552E+00   -6.484E+00   -6.415E+00   -6.346E+00   -6.276E+00   -6.206E+00   -6.136E+00
    -6.066E+00   -5.995E+00   -5.924E+00   -5.853E+00   -5.782E+00   -5.710E+00   -5.638E+00   -5.566E+00   -5.494E+00   -5.421E+00
    -5.348E+00   -5.275E+00   -5.202E+00   -5.128E+00   -5.054E+00   -4.980E+00   -4.906E+00   -4.832E+00   -4.757E+00   -4.682E+00
    -4.608E+00   -4.532E+00   -4.457E+00   -4.382E+00   -4.306E+00   -4.230E+00   -4.154E+00   -4.078E+00   -4.002E+00   -3.926E+00
    -3.849E+00   -3.773E+00   -3.696E+00   -3.619E+00   -3.542E+00   -3.465E+00   -3.388E+00   -3.311E+00   -3.233E+00   -3.156E+00
    -3.078E+00   -3.001E+00   -2.923E+00   -2.845E+00   -2.768E+00   -2.690E+00   -2.612E+00   -2.534E+00   -2.456E+00   -2.377E+00
    -2.299E+00   -2.221E+00   -2.143E+00   -2.064E+00   -1.986E+00   -1.908E+00   -1.829E+00   -1.751E+00   -1.673E+00   -1.594E+00
    -1.516E+00   -1.437E+00   -1.359E+00   -1.281E+00   -1.202E+00   -1.124E+00   -1.046E+00   -9.672E-01   -8.889E-01   -8.106E-01
    -7.324E-01   -6.542E-01   -5.760E-01   -4.979E-01   -4.199E-01   -3.419E-01   -2.639E-01   -1.861E-01
 Ala      Conc. = 4.49E+02
