 LCModel (Version 6.3-1L) Copyright: S.W. Provencher.          Ref.: Magn. Reson. Med. 30:672-679 (1993).                
 Slice#1 Row#13 Col#8  K_02_press_1_raw_act
 36 lines in following concentration table = NCONC+1
    Conc.  %SD /Cr+PCr  Metabolite                                         
   88.012  84%   0.150 Ala                                                 
   37.153 287% 6.3E-02 Asp                                                 
  233.486  69%   0.398 Cr                                                  
  353.263  47%   0.602 PCr                                                 
   25.916 268% 4.4E-02 GABA                                                
    0.000 999%   0.000 Glc                                                 
  393.915  42%   0.671 Gln                                                 
  894.424  22%   1.524 Glu                                                 
    0.000 999%   0.000 GPC                                                 
  122.812  11%   0.209 PCh                                                 
   41.125 115% 7.0E-02 GSH                                                 
  442.584  36%   0.754 Ins                                                 
    2.178 999% 3.7E-03 Lac                                                 
 1.26E+03   8%   2.140 NAA                                                 
   60.795 185%   0.104 NAAG                                                
   25.730  59% 4.4E-02 Scyllo                                              
  144.300  69%   0.246 Tau                                                 
  327.623  20%   0.558 -CrCH2                                              
  122.812  11%   0.209 GPC+PCh                                             
 1.32E+03   3%   2.244 NAA+NAAG                                            
  586.748   6%   1.000 Cr+PCr                                              
 1.29E+03  22%   2.196 Glu+Gln                                             
   92.233 108%   0.157 Lip13a                                              
    0.000 999%   0.000 Lip13b                                              
    0.000 999%   0.000 Lip09                                               
  312.704  27%   0.533 MM09                                                
   22.522 129% 3.8E-02 Lip20                                               
  579.536  24%   0.988 MM20                                                
   93.639  36%   0.160 MM12                                                
  371.698  26%   0.633 MM14                                                
  199.568  33%   0.340 MM17                                                
   92.233 108%   0.157 Lip13a+Lip13b                                       
  557.570  25%   0.950 MM14+Lip13a+Lip13b+MM12                             
  312.704  27%   0.533 MM09+Lip09                                          
  602.058  24%   1.026 MM20+Lip20                                          
   6 lines in following misc. output table
  FWHM = 0.061 ppm    S/N =   9                                            
  Data shift =-0.038 ppm                                                   
  Ph: -65 deg     -17.0 deg/ppm                                            
  alphaB,S = 1.9E+00,   5.3E+01                                            
   14 spline knots.   Ns = 7(1)                                            
  (12) 3 infls.   (15) 1 extrs.                                            
  498 points on ppm-axis = NY
      4.000000     3.992357     3.984714     3.977070     3.969427     3.961784     3.954141     3.946497     3.938854     3.931211
      3.923568     3.915925     3.908281     3.900638     3.892995     3.885352     3.877708     3.870065     3.862422     3.854779
      3.847136     3.839492     3.831849     3.824206     3.816563     3.808919     3.801276     3.793633     3.785990     3.778347
      3.770703     3.763060     3.755417     3.747774     3.740130     3.732487     3.724844     3.717201     3.709558     3.701914
      3.694271     3.686628     3.678985     3.671341     3.663698     3.656055     3.648412     3.640769     3.633125     3.625482
      3.617839     3.610196     3.602552     3.594909     3.587266     3.579623     3.571980     3.564336     3.556693     3.549050
      3.541407     3.533763     3.526120     3.518477     3.510834     3.503191     3.495547     3.487904     3.480261     3.472618
      3.464974     3.457331     3.449688     3.442045     3.434402     3.426758     3.419115     3.411472     3.403829     3.396185
      3.388542     3.380899     3.373256     3.365613     3.357969     3.350326     3.342683     3.335040     3.327396     3.319753
      3.312110     3.304467     3.296824     3.289180     3.281537     3.273894     3.266251     3.258607     3.250964     3.243321
      3.235678     3.228034     3.220391     3.212748     3.205105     3.197462     3.189818     3.182175     3.174532     3.166889
      3.159245     3.151602     3.143959     3.136316     3.128673     3.121029     3.113386     3.105743     3.098100     3.090456
      3.082813     3.075170     3.067527     3.059884     3.052240     3.044597     3.036954     3.029311     3.021667     3.014024
      3.006381     2.998738     2.991095     2.983451     2.975808     2.968165     2.960522     2.952878     2.945235     2.937592
      2.929949     2.922306     2.914662     2.907019     2.899376     2.891733     2.884089     2.876446     2.868803     2.861160
      2.853517     2.845873     2.838230     2.830587     2.822944     2.815300     2.807657     2.800014     2.792371     2.784728
      2.777084     2.769441     2.761798     2.754155     2.746511     2.738868     2.731225     2.723582     2.715939     2.708295
      2.700652     2.693009     2.685366     2.677722     2.670079     2.662436     2.654793     2.647150     2.639506     2.631863
      2.624220     2.616577     2.608933     2.601290     2.593647     2.586004     2.578361     2.570717     2.563074     2.555431
      2.547788     2.540144     2.532501     2.524858     2.517215     2.509572     2.501928     2.494285     2.486642     2.478999
      2.471355     2.463712     2.456069     2.448426     2.440783     2.433139     2.425496     2.417853     2.410210     2.402566
      2.394923     2.387280     2.379637     2.371994     2.364350     2.356707     2.349064     2.341421     2.333777     2.326134
      2.318491     2.310848     2.303205     2.295561     2.287918     2.280275     2.272632     2.264988     2.257345     2.249702
      2.242059     2.234416     2.226772     2.219129     2.211486     2.203843     2.196199     2.188556     2.180913     2.173270
      2.165627     2.157983     2.150340     2.142697     2.135054     2.127410     2.119767     2.112124     2.104481     2.096838
      2.089194     2.081551     2.073908     2.066265     2.058621     2.050978     2.043335     2.035692     2.028049     2.020405
      2.012762     2.005119     1.997476     1.989833     1.982190     1.974546     1.966903     1.959260     1.951617     1.943974
      1.936331     1.928688     1.921045     1.913402     1.905759     1.898115     1.890472     1.882829     1.875186     1.867543
      1.859900     1.852257     1.844614     1.836971     1.829327     1.821684     1.814041     1.806398     1.798755     1.791112
      1.783469     1.775826     1.768183     1.760540     1.752896     1.745253     1.737610     1.729967     1.722324     1.714681
      1.707038     1.699395     1.691752     1.684108     1.676465     1.668822     1.661179     1.653536     1.645893     1.638250
      1.630607     1.622964     1.615321     1.607677     1.600034     1.592391     1.584748     1.577105     1.569462     1.561819
      1.554176     1.546533     1.538890     1.531246     1.523603     1.515960     1.508317     1.500674     1.493031     1.485388
      1.477745     1.470102     1.462458     1.454815     1.447172     1.439529     1.431886     1.424243     1.416600     1.408957
      1.401314     1.393671     1.386027     1.378384     1.370741     1.363098     1.355455     1.347812     1.340169     1.332526
      1.324883     1.317240     1.309596     1.301953     1.294310     1.286667     1.279024     1.271381     1.263738     1.256095
      1.248452     1.240808     1.233165     1.225522     1.217879     1.210236     1.202593     1.194950     1.187307     1.179664
      1.172021     1.164377     1.156734     1.149091     1.141448     1.133805     1.126162     1.118519     1.110876     1.103233
      1.095590     1.087946     1.080303     1.072660     1.065017     1.057374     1.049731     1.042088     1.034445     1.026802
      1.019158     1.011515     1.003872     0.996229     0.988586     0.980943     0.973300     0.965657     0.958014     0.950371
      0.942727     0.935084     0.927441     0.919798     0.912155     0.904512     0.896869     0.889226     0.881583     0.873940
      0.866296     0.858653     0.851010     0.843367     0.835724     0.828081     0.820438     0.812795     0.805152     0.797508
      0.789865     0.782222     0.774579     0.766936     0.759293     0.751650     0.744007     0.736364     0.728721     0.721077
      0.713434     0.705791     0.698148     0.690505     0.682862     0.675219     0.667576     0.659933     0.652290     0.644646
      0.637003     0.629360     0.621717     0.614074     0.606431     0.598788     0.591145     0.583502     0.575858     0.568215
      0.560572     0.552929     0.545286     0.537643     0.530000     0.522357     0.514714     0.507071     0.499427     0.491784
      0.484141     0.476498     0.468855     0.461212     0.453569     0.445925     0.438282     0.430639     0.422996     0.415353
      0.407710     0.400067     0.392424     0.384780     0.377137     0.369494     0.361851     0.354208     0.346565     0.338922
      0.331278     0.323635     0.315992     0.308349     0.300706     0.293063     0.285420     0.277777     0.270133     0.262490
      0.254847     0.247204     0.239561     0.231918     0.224275     0.216631     0.208988     0.201345
 NY phased data points follow
  -6.95581E+00 -4.07971E+00 -9.76855E+00 -5.05015E+00 -6.87712E+00 -5.76586E+00 -3.53983E+00 -1.62199E+00 -1.85717E+00  2.04862E+00
  -1.26034E+00  2.24365E+00 -1.37124E+00 -2.71555E-01  1.51540E+00  6.38626E-01 -3.13979E+00 -3.66028E+00 -2.64811E+00 -3.10662E+00
  -4.38964E+00 -7.79120E+00 -2.98403E+00 -5.25577E+00 -3.33321E+00 -5.35473E+00 -3.80681E+00 -5.91361E+00 -8.50732E-01 -3.37104E+00
  -3.48565E+00 -3.36074E+00  1.17792E+00 -6.08226E+00  4.05560E-02  2.03573E-01 -3.59124E-01 -3.83480E+00  2.78330E-01 -2.78556E+00
  -2.62433E+00 -1.83253E+00 -4.45593E+00 -2.43163E+00 -7.33399E-02  6.38050E-01 -5.09225E-01  2.60146E+00  4.87950E+00 -5.19290E-01
   1.32879E+00  1.30626E+00 -1.43471E+00  8.45970E-01 -7.21047E-01 -3.83617E+00 -1.71743E+00  1.90292E+00 -2.08451E+00 -2.74564E+00
   1.15703E-02 -3.12325E+00 -2.60753E+00  1.52454E+00 -3.96838E+00 -8.38931E-01 -2.22228E+00 -1.02725E-02 -4.82165E+00 -1.64955E+00
  -2.53920E-01 -3.60014E+00 -1.28822E+00 -1.27016E+00  3.90938E-01 -1.33965E+00 -1.25014E+00 -2.86671E-01 -7.83854E-01 -2.49724E+00
  -3.11887E+00  1.45830E+00 -4.28664E+00 -1.76934E+00 -1.35688E+00 -9.59828E-01 -2.14898E+00 -9.02696E-01 -4.11321E-01  2.18552E+00
  -2.60842E+00 -1.01624E+00  3.73236E+00  1.26776E+00 -1.24353E+00  1.57450E+00  3.83313E+00  1.13116E+00  1.64109E+00  2.90122E+00
   3.79788E+00  5.54109E+00  9.47510E+00  4.96355E+00  7.51542E+00  1.24333E+01  1.07673E+01  6.78635E+00  3.20251E+00  4.36163E+00
   2.40636E+00  3.47239E+00  3.18698E-01 -2.58015E+00  1.01329E+00  1.80325E+00  1.92359E+00  2.43303E+00  3.57709E-01  2.17132E+00
   3.69886E+00  3.52027E+00  5.67050E+00  7.39193E+00  1.32447E+01  1.34530E+01  1.54699E+01  1.54133E+01  2.02555E+01  1.40842E+01
   1.41816E+01  1.19199E+01  6.93718E+00  6.35535E+00  2.75643E+00  1.16135E+00  3.03517E+00  2.86153E-01 -1.68238E+00 -1.17449E+00
   1.34297E+00 -1.32719E+00 -9.87627E-01  2.17736E+00 -1.38571E+00  2.79836E+00 -5.66801E-01 -4.02152E+00 -1.81203E+00  5.36424E+00
   7.95437E-01  2.43105E-02  2.56356E-01  1.08078E-01  3.50039E+00 -4.99355E-01 -7.16375E-01 -7.08312E-01  1.67602E+00  8.44621E-01
   4.95002E-01  4.12474E+00 -2.36032E+00 -5.00235E-01 -1.49742E+00  2.06523E+00 -1.33549E+00 -4.06378E-01  3.31519E-01 -2.39396E-01
  -4.79513E+00 -2.98184E+00 -2.90244E+00 -3.01196E+00 -5.36193E+00 -1.91107E+00 -6.23720E+00 -4.95057E+00 -5.56785E+00 -2.01017E+00
  -6.16893E+00 -9.87840E-01 -4.24572E+00 -1.99499E+00 -1.13719E+00 -1.94123E-01  8.06013E-01 -5.10976E-01  1.69844E-01  9.76639E-01
  -1.39774E+00  1.04344E-01  3.46641E-01  2.33334E+00  5.03434E+00  9.48563E-01 -3.19102E+00 -2.01430E+00 -2.44233E+00  1.29864E+00
  -4.82598E-01 -8.87806E-01  1.51078E+00  6.63900E+00  7.47597E+00  3.78310E+00  9.24206E-01  4.02334E+00  2.11898E+00  3.91536E+00
   1.09993E+00 -1.38746E+00  5.88617E+00  5.23909E+00  3.55146E+00  7.24153E+00  7.25714E+00  6.57769E+00  6.42624E+00  4.23991E+00
   1.16938E+00  8.46003E-01 -1.26917E+00  5.00064E+00 -7.82588E-01  1.05046E+00  3.76739E+00  5.19861E+00  3.96290E+00  4.66408E+00
   7.18924E+00  6.89559E+00  6.52461E+00  7.61975E+00  5.14530E+00  3.09834E+00  4.44378E-01  6.70293E+00  6.07486E+00  6.35944E+00
   4.37125E+00  3.60868E+00  1.82315E+00  5.21104E+00  6.53420E-01  2.85888E+00  3.99138E+00  2.73283E+00  6.41574E+00  5.23944E+00
   4.55920E+00  8.07076E+00  9.56607E+00  1.06978E+01  1.11924E+01  1.47988E+01  1.72182E+01  2.27858E+01  3.11987E+01  3.80084E+01
   4.49752E+01  4.67179E+01  3.94947E+01  3.54404E+01  3.10293E+01  2.50460E+01  1.87378E+01  1.06234E+01  8.78439E+00  6.81428E+00
   4.54947E+00  5.73436E+00  5.79501E+00  7.27096E+00  6.04018E+00  4.97663E+00  8.20058E+00  7.13736E+00  4.56840E+00  3.57076E+00
   1.29081E+00  7.39256E+00  4.33800E+00  4.07870E+00  3.62454E+00  5.25235E+00  4.21027E+00  5.77010E+00  5.80341E+00  4.39309E+00
   4.69146E+00  3.67824E-01  4.37865E+00  1.95907E+00  3.83271E+00  6.59370E+00  5.60932E+00  9.08172E+00  4.83941E+00  1.02705E+00
   5.19367E+00  4.25189E+00  2.87903E+00  4.55038E+00  4.22085E+00  4.46726E+00  2.97933E+00  6.77814E+00  2.94338E+00  4.93350E+00
   5.01056E+00  4.23038E+00  7.15304E+00  6.28554E+00  3.25987E+00  2.93923E+00  4.72850E+00  9.52970E+00  6.45812E+00  3.07357E+00
   5.42381E+00  5.76218E+00  5.12713E+00  7.11626E+00  4.94398E+00  6.16416E+00  4.40820E+00  2.05053E+00  4.75573E+00  4.75796E+00
   5.75434E+00  5.43889E+00  5.73201E+00  5.77231E+00  4.93158E+00  2.65441E+00  4.38554E+00  6.14898E+00  4.06131E+00  6.70838E+00
   7.13584E+00  8.10193E+00  5.08876E+00  2.96654E+00  4.35352E+00  5.64802E+00  4.54309E+00  1.30334E+00  5.39271E+00  4.39678E+00
   2.44932E+00  4.17228E+00  7.30625E+00  2.87036E+00  4.07810E+00  3.66590E+00  5.38230E+00  2.96454E+00  2.08018E+00  2.44321E+00
   3.14694E+00  4.21770E+00  4.46155E+00  4.33778E+00  3.05775E+00  3.72086E+00  2.55001E+00  4.55732E+00  4.20293E+00  5.29538E+00
   4.17408E+00  3.16570E+00  4.74707E+00  3.55556E+00  7.91210E+00 -2.02034E-01  1.63469E+00  8.80387E-01  3.83539E+00  5.63106E+00
   1.04702E+00  1.54737E+00  2.96378E+00  1.52895E+00  3.00891E+00  1.85575E+00 -2.18242E-02 -1.65384E+00 -8.69955E-01 -9.89208E-01
   8.50036E-01  2.70577E+00  2.87294E+00 -7.74326E-01  2.60729E+00  2.30936E+00  2.89064E+00  1.71409E+00  1.95152E+00  4.26313E-01
   2.28493E-01  5.03101E+00  1.52253E+00  3.58034E+00  4.35565E-01  3.53469E+00  3.46676E+00  4.03731E-01  2.12947E+00  5.37434E+00
   2.91907E+00  4.24786E+00  5.00361E+00  6.02883E+00  5.16455E+00  3.09795E+00  6.27110E+00  1.01899E-01  7.94775E+00  5.96289E+00
   4.04098E+00  5.23031E-01  2.72890E+00  2.74019E+00  4.60879E+00 -1.49224E+00  5.20027E-01  8.41048E-01  8.66817E-01  1.10461E+00
   3.75684E+00  9.58734E-01  1.85272E+00  3.32865E+00 -1.23302E+00  4.39349E+00  2.39321E-01  3.52530E+00  5.76402E+00 -6.48305E-01
   3.03845E-01  4.02603E+00  1.54303E+00  7.33384E-01  4.30530E+00  3.40323E+00  1.61533E+00  3.24776E+00  5.99938E-01  3.36227E+00
   6.44349E-01  1.92745E+00  2.60520E+00  2.73599E+00  2.20247E+00  2.20716E+00 -8.53561E-01  1.63618E+00 -1.32776E+00  1.29836E+00
   1.84951E+00  2.60800E+00 -4.28244E-02  2.08796E+00 -2.61216E-01  1.99024E+00  1.44996E+00  1.79897E+00 -8.05614E-01  3.13033E+00
   5.64343E+00  1.24994E+00  2.80114E+00  2.13693E+00  3.42651E+00  3.52926E+00  2.47703E+00  3.57094E+00  2.39042E+00  4.11635E+00
   2.71004E+00  3.61410E+00  1.38953E+00  1.97807E+00  1.90215E+00 -4.23539E-01 -6.64333E-01  1.92783E+00  4.34881E-01  2.31505E-01
   9.90438E-02 -4.84653E-01  3.64489E+00  4.27823E+00  3.84763E+00  1.11502E+00  2.47880E+00  8.72302E-01
 NY points of the fit to the data follow
  -3.85148E+00 -4.12515E+00 -4.26320E+00 -4.23843E+00 -4.01275E+00 -3.71538E+00 -3.29316E+00 -2.55447E+00 -1.51485E+00 -3.90473E-01
   5.37253E-01  1.03903E+00  1.03557E+00  6.37662E-01  4.72804E-02 -6.53073E-01 -1.42056E+00 -2.16018E+00 -2.69324E+00 -2.95617E+00
  -2.95346E+00 -2.85778E+00 -2.74089E+00 -2.63349E+00 -2.65650E+00 -2.80719E+00 -3.02914E+00 -3.21592E+00 -3.20324E+00 -2.87539E+00
  -2.22458E+00 -1.44034E+00 -7.53906E-01 -3.03974E-01 -2.27142E-01 -5.57197E-01 -1.17067E+00 -1.87605E+00 -2.49902E+00 -2.90706E+00
  -3.00043E+00 -2.79917E+00 -2.43796E+00 -1.93510E+00 -1.26143E+00 -5.25912E-01  8.61429E-02  4.12381E-01  3.76825E-01  3.80020E-02
  -4.69599E-01 -1.01058E+00 -1.50409E+00 -1.92294E+00 -2.23902E+00 -2.37894E+00 -2.29057E+00 -2.00384E+00 -1.64236E+00 -1.31341E+00
  -1.08674E+00 -1.00601E+00 -1.03181E+00 -1.12948E+00 -1.24950E+00 -1.32590E+00 -1.36522E+00 -1.37746E+00 -1.31284E+00 -1.15824E+00
  -9.84595E-01 -8.14296E-01 -6.49056E-01 -5.21885E-01 -4.63003E-01 -4.62308E-01 -5.33019E-01 -6.90022E-01 -8.66408E-01 -9.69641E-01
  -9.99565E-01 -9.99269E-01 -9.32657E-01 -7.82794E-01 -5.98236E-01 -4.48477E-01 -4.04767E-01 -4.89616E-01 -6.65106E-01 -8.39503E-01
  -9.74272E-01 -1.07699E+00 -1.14518E+00 -1.19176E+00 -1.18045E+00 -1.02482E+00 -5.25615E-01  3.13245E-01  1.06381E+00  2.02928E+00
   3.58420E+00  5.63294E+00  7.66950E+00  9.19928E+00  9.85231E+00  9.48840E+00  8.41423E+00  7.05070E+00  5.49802E+00  3.80141E+00
   2.18379E+00  8.92594E-01  1.01361E-01 -1.90137E-01 -2.97045E-01 -3.44886E-01 -3.61885E-01 -3.36256E-01 -2.17214E-01  3.15932E-01
   1.57027E+00  2.80458E+00  4.32947E+00  6.84469E+00  1.02709E+01  1.37825E+01  1.65361E+01  1.78983E+01  1.75038E+01  1.57664E+01
   1.34647E+01  1.08301E+01  7.93161E+00  5.11998E+00  2.80363E+00  1.27848E+00  6.59122E-01  4.38563E-01  3.43326E-01  3.15996E-01
   3.27313E-01  3.56032E-01  3.93058E-01  4.30184E-01  4.53632E-01  4.58931E-01  4.45593E-01  4.15835E-01  3.79921E-01  3.51471E-01
   3.31233E-01  3.18209E-01  3.11671E-01  3.02842E-01  2.60080E-01  2.18549E-01  1.93061E-01  1.37572E-01  3.82203E-02 -1.24696E-01
  -2.95344E-01 -3.71007E-01 -3.17183E-01 -1.93090E-01 -9.48505E-02 -7.27436E-02 -1.34411E-01 -2.54636E-01 -4.03059E-01 -6.02782E-01
  -8.58356E-01 -1.08646E+00 -1.30200E+00 -1.51923E+00 -1.70286E+00 -1.78572E+00 -1.74173E+00 -1.61920E+00 -1.48617E+00 -1.40028E+00
  -1.36480E+00 -1.27288E+00 -1.08590E+00 -8.99350E-01 -7.63121E-01 -6.25721E-01 -3.95988E-01 -1.83152E-02  4.83946E-01  1.00753E+00
   1.44281E+00  1.72867E+00  1.91473E+00  2.03917E+00  2.10487E+00  2.10669E+00  2.06435E+00  2.07455E+00  2.20128E+00  2.46825E+00
   2.86867E+00  3.35712E+00  3.81095E+00  4.00511E+00  3.96201E+00  3.62195E+00  2.84713E+00  1.77345E+00  7.02429E-01 -5.54110E-02
  -4.62102E-01 -3.87358E-01  3.45735E-01  1.59319E+00  3.00126E+00  4.14781E+00  4.72216E+00  4.62893E+00  3.87216E+00  2.52558E+00
   9.69066E-01 -3.93367E-01 -1.25532E+00 -1.38006E+00 -7.69893E-01  3.55663E-01  1.64068E+00  2.83646E+00  3.80921E+00  4.42183E+00
   4.69418E+00  4.65926E+00  4.40683E+00  4.12058E+00  3.95224E+00  3.91230E+00  3.95327E+00  4.15151E+00  4.41266E+00  4.54771E+00
   4.48599E+00  4.33026E+00  4.15111E+00  3.97287E+00  3.86734E+00  3.85551E+00  3.92317E+00  4.05799E+00  4.29263E+00  4.66693E+00
   5.12193E+00  5.68300E+00  6.60962E+00  8.86376E+00  1.21717E+01  1.51358E+01  1.89780E+01  2.48263E+01  3.19308E+01  3.84637E+01
   4.28848E+01  4.39806E+01  4.14630E+01  3.67079E+01  3.11463E+01  2.50196E+01  1.86031E+01  1.27416E+01  8.20515E+00  5.56859E+00
   4.62380E+00  4.25812E+00  4.09774E+00  4.05010E+00  4.05144E+00  4.05411E+00  4.04614E+00  4.01624E+00  3.95856E+00  3.87585E+00
   3.77798E+00  3.67809E+00  3.59607E+00  3.54416E+00  3.51700E+00  3.50856E+00  3.51453E+00  3.52950E+00  3.54961E+00  3.57368E+00
   3.60067E+00  3.63237E+00  3.66912E+00  3.71110E+00  3.75689E+00  3.80553E+00  3.85591E+00  3.90650E+00  3.95596E+00  4.00423E+00
   4.05082E+00  4.09529E+00  4.13616E+00  4.17193E+00  4.20140E+00  4.22384E+00  4.23894E+00  4.24717E+00  4.24904E+00  4.24606E+00
   4.23983E+00  4.23223E+00  4.22531E+00  4.22133E+00  4.22220E+00  4.23019E+00  4.24760E+00  4.27764E+00  4.32511E+00  4.40065E+00
   4.51710E+00  4.62631E+00  4.72289E+00  4.85076E+00  4.98248E+00  5.04316E+00  4.97852E+00  4.78055E+00  4.51252E+00  4.24311E+00
   3.99555E+00  3.81993E+00  3.77152E+00  3.88526E+00  4.14607E+00  4.49884E+00  4.85970E+00  5.12363E+00  5.26321E+00  5.31446E+00
   5.28554E+00  5.17811E+00  5.01482E+00  4.82867E+00  4.66257E+00  4.53731E+00  4.43246E+00  4.33758E+00  4.25031E+00  4.16980E+00
   4.09607E+00  4.03041E+00  3.97339E+00  3.92494E+00  3.88387E+00  3.84826E+00  3.81536E+00  3.78247E+00  3.74845E+00  3.71351E+00
   3.67711E+00  3.63906E+00  3.59961E+00  3.55940E+00  3.51928E+00  3.47939E+00  3.43916E+00  3.39858E+00  3.35775E+00  3.31700E+00
   3.27656E+00  3.23681E+00  3.19806E+00  3.16078E+00  3.12537E+00  3.09230E+00  3.06189E+00  3.03454E+00  3.01055E+00  2.99038E+00
   2.97433E+00  2.96283E+00  2.95610E+00  2.95454E+00  2.95848E+00  2.96839E+00  2.98461E+00  3.00760E+00  3.03764E+00  3.07516E+00
   3.12045E+00  3.17383E+00  3.23539E+00  3.30512E+00  3.38269E+00  3.46772E+00  3.55940E+00  3.65675E+00  3.75832E+00  3.86239E+00
   3.96687E+00  4.06953E+00  4.16785E+00  4.25926E+00  4.34104E+00  4.41069E+00  4.46582E+00  4.50451E+00  4.52519E+00  4.52684E+00
   4.50894E+00  4.47166E+00  4.41570E+00  4.34246E+00  4.25368E+00  4.15159E+00  4.03856E+00  3.91730E+00  3.79043E+00  3.66065E+00
   3.53033E+00  3.40168E+00  3.27650E+00  3.15640E+00  3.04255E+00  2.93583E+00  2.83670E+00  2.74541E+00  2.66190E+00  2.58603E+00
   2.51741E+00  2.45564E+00  2.40009E+00  2.35025E+00  2.30550E+00  2.26535E+00  2.22924E+00  2.19672E+00  2.16727E+00  2.14054E+00
   2.11613E+00  2.09382E+00  2.07329E+00  2.05432E+00  2.03667E+00  2.02020E+00  2.00475E+00  1.99023E+00  1.97651E+00  1.96350E+00
   1.95107E+00  1.93921E+00  1.92785E+00  1.91696E+00  1.90647E+00  1.89634E+00  1.88650E+00  1.87699E+00  1.86774E+00  1.85878E+00
   1.85002E+00  1.84147E+00  1.83308E+00  1.82490E+00  1.81689E+00  1.80905E+00  1.80133E+00  1.79374E+00  1.78626E+00  1.77893E+00
   1.77170E+00  1.76459E+00  1.75755E+00  1.75060E+00  1.74374E+00  1.73700E+00  1.73033E+00  1.72374E+00  1.71719E+00  1.71073E+00
   1.70433E+00  1.69804E+00  1.69179E+00  1.68561E+00  1.67946E+00  1.67340E+00  1.66740E+00  1.66150E+00  1.65564E+00  1.64984E+00
   1.64409E+00  1.63843E+00  1.63285E+00  1.62737E+00  1.62194E+00  1.61660E+00  1.61133E+00  1.60621E+00
 NY background values follow
    -4.979E+00   -4.942E+00   -4.906E+00   -4.869E+00   -4.833E+00   -4.796E+00   -4.759E+00   -4.723E+00   -4.686E+00   -4.649E+00
    -4.613E+00   -4.576E+00   -4.540E+00   -4.503E+00   -4.466E+00   -4.430E+00   -4.393E+00   -4.357E+00   -4.320E+00   -4.283E+00
    -4.247E+00   -4.210E+00   -4.174E+00   -4.137E+00   -4.101E+00   -4.064E+00   -4.028E+00   -3.991E+00   -3.955E+00   -3.918E+00
    -3.882E+00   -3.846E+00   -3.809E+00   -3.773E+00   -3.736E+00   -3.700E+00   -3.664E+00   -3.628E+00   -3.591E+00   -3.555E+00
    -3.519E+00   -3.483E+00   -3.447E+00   -3.411E+00   -3.375E+00   -3.339E+00   -3.303E+00   -3.267E+00   -3.231E+00   -3.195E+00
    -3.159E+00   -3.123E+00   -3.088E+00   -3.052E+00   -3.016E+00   -2.981E+00   -2.945E+00   -2.910E+00   -2.874E+00   -2.839E+00
    -2.804E+00   -2.768E+00   -2.733E+00   -2.698E+00   -2.663E+00   -2.628E+00   -2.593E+00   -2.558E+00   -2.523E+00   -2.488E+00
    -2.453E+00   -2.418E+00   -2.384E+00   -2.349E+00   -2.315E+00   -2.280E+00   -2.246E+00   -2.211E+00   -2.177E+00   -2.143E+00
    -2.109E+00   -2.075E+00   -2.041E+00   -2.007E+00   -1.973E+00   -1.939E+00   -1.906E+00   -1.872E+00   -1.839E+00   -1.805E+00
    -1.772E+00   -1.739E+00   -1.706E+00   -1.673E+00   -1.640E+00   -1.607E+00   -1.574E+00   -1.541E+00   -1.509E+00   -1.476E+00
    -1.444E+00   -1.412E+00   -1.379E+00   -1.347E+00   -1.315E+00   -1.283E+00   -1.251E+00   -1.220E+00   -1.188E+00   -1.156E+00
    -1.125E+00   -1.094E+00   -1.062E+00   -1.031E+00   -1.000E+00   -9.691E-01   -9.382E-01   -9.074E-01   -8.767E-01   -8.462E-01
    -8.157E-01   -7.853E-01   -7.551E-01   -7.249E-01   -6.949E-01   -6.649E-01   -6.351E-01   -6.053E-01   -5.757E-01   -5.462E-01
    -5.168E-01   -4.875E-01   -4.583E-01   -4.292E-01   -4.002E-01   -3.714E-01   -3.426E-01   -3.140E-01   -2.855E-01   -2.570E-01
    -2.287E-01   -2.005E-01   -1.725E-01   -1.445E-01   -1.166E-01   -8.891E-02   -6.128E-02   -3.376E-02   -6.353E-03    2.094E-02
     4.812E-02    7.519E-02    1.021E-01    1.290E-01    1.557E-01    1.823E-01    2.088E-01    2.352E-01    2.615E-01    2.877E-01
     3.137E-01    3.397E-01    3.655E-01    3.912E-01    4.168E-01    4.423E-01    4.677E-01    4.929E-01    5.181E-01    5.431E-01
     5.680E-01    5.928E-01    6.175E-01    6.421E-01    6.666E-01    6.909E-01    7.152E-01    7.393E-01    7.633E-01    7.872E-01
     8.110E-01    8.347E-01    8.582E-01    8.817E-01    9.050E-01    9.282E-01    9.513E-01    9.743E-01    9.971E-01    1.020E+00
     1.042E+00    1.065E+00    1.087E+00    1.109E+00    1.131E+00    1.153E+00    1.175E+00    1.197E+00    1.218E+00    1.240E+00
     1.261E+00    1.282E+00    1.303E+00    1.324E+00    1.344E+00    1.365E+00    1.385E+00    1.405E+00    1.425E+00    1.445E+00
     1.465E+00    1.484E+00    1.504E+00    1.523E+00    1.542E+00    1.561E+00    1.579E+00    1.598E+00    1.616E+00    1.634E+00
     1.652E+00    1.670E+00    1.688E+00    1.705E+00    1.723E+00    1.740E+00    1.757E+00    1.773E+00    1.790E+00    1.806E+00
     1.822E+00    1.838E+00    1.854E+00    1.870E+00    1.885E+00    1.900E+00    1.915E+00    1.930E+00    1.945E+00    1.959E+00
     1.973E+00    1.987E+00    2.001E+00    2.015E+00    2.028E+00    2.042E+00    2.055E+00    2.068E+00    2.080E+00    2.093E+00
     2.105E+00    2.117E+00    2.129E+00    2.141E+00    2.153E+00    2.164E+00    2.175E+00    2.186E+00    2.197E+00    2.207E+00
     2.218E+00    2.228E+00    2.238E+00    2.248E+00    2.258E+00    2.267E+00    2.276E+00    2.285E+00    2.294E+00    2.303E+00
     2.311E+00    2.320E+00    2.328E+00    2.336E+00    2.343E+00    2.351E+00    2.358E+00    2.365E+00    2.372E+00    2.379E+00
     2.385E+00    2.392E+00    2.398E+00    2.404E+00    2.410E+00    2.415E+00    2.421E+00    2.426E+00    2.431E+00    2.436E+00
     2.441E+00    2.445E+00    2.449E+00    2.454E+00    2.458E+00    2.461E+00    2.465E+00    2.468E+00    2.472E+00    2.475E+00
     2.478E+00    2.481E+00    2.483E+00    2.486E+00    2.488E+00    2.490E+00    2.492E+00    2.494E+00    2.495E+00    2.497E+00
     2.498E+00    2.499E+00    2.500E+00    2.501E+00    2.501E+00    2.502E+00    2.502E+00    2.502E+00    2.502E+00    2.502E+00
     2.502E+00    2.501E+00    2.500E+00    2.500E+00    2.499E+00    2.498E+00    2.496E+00    2.495E+00    2.494E+00    2.492E+00
     2.490E+00    2.488E+00    2.486E+00    2.484E+00    2.482E+00    2.480E+00    2.477E+00    2.474E+00    2.472E+00    2.469E+00
     2.466E+00    2.463E+00    2.460E+00    2.456E+00    2.453E+00    2.450E+00    2.446E+00    2.442E+00    2.439E+00    2.435E+00
     2.431E+00    2.427E+00    2.423E+00    2.418E+00    2.414E+00    2.410E+00    2.405E+00    2.401E+00    2.396E+00    2.391E+00
     2.387E+00    2.382E+00    2.377E+00    2.372E+00    2.367E+00    2.362E+00    2.357E+00    2.352E+00    2.346E+00    2.341E+00
     2.336E+00    2.330E+00    2.325E+00    2.320E+00    2.314E+00    2.308E+00    2.303E+00    2.297E+00    2.292E+00    2.286E+00
     2.280E+00    2.274E+00    2.268E+00    2.263E+00    2.257E+00    2.251E+00    2.245E+00    2.239E+00    2.233E+00    2.227E+00
     2.221E+00    2.215E+00    2.209E+00    2.203E+00    2.197E+00    2.191E+00    2.185E+00    2.179E+00    2.173E+00    2.167E+00
     2.161E+00    2.155E+00    2.149E+00    2.143E+00    2.137E+00    2.131E+00    2.125E+00    2.119E+00    2.113E+00    2.107E+00
     2.101E+00    2.095E+00    2.089E+00    2.083E+00    2.077E+00    2.072E+00    2.066E+00    2.060E+00    2.054E+00    2.048E+00
     2.042E+00    2.037E+00    2.031E+00    2.025E+00    2.019E+00    2.014E+00    2.008E+00    2.002E+00    1.997E+00    1.991E+00
     1.985E+00    1.980E+00    1.974E+00    1.968E+00    1.963E+00    1.957E+00    1.952E+00    1.946E+00    1.941E+00    1.935E+00
     1.929E+00    1.924E+00    1.918E+00    1.913E+00    1.907E+00    1.902E+00    1.896E+00    1.891E+00    1.885E+00    1.880E+00
     1.874E+00    1.869E+00    1.863E+00    1.858E+00    1.853E+00    1.847E+00    1.842E+00    1.836E+00    1.831E+00    1.826E+00
     1.820E+00    1.815E+00    1.809E+00    1.804E+00    1.799E+00    1.793E+00    1.788E+00    1.783E+00    1.777E+00    1.772E+00
     1.767E+00    1.761E+00    1.756E+00    1.750E+00    1.745E+00    1.740E+00    1.735E+00    1.729E+00    1.724E+00    1.719E+00
     1.713E+00    1.708E+00    1.703E+00    1.697E+00    1.692E+00    1.687E+00    1.681E+00    1.676E+00    1.671E+00    1.665E+00
     1.660E+00    1.655E+00    1.649E+00    1.644E+00    1.639E+00    1.634E+00    1.628E+00    1.623E+00
 Ala      Conc. = 8.80E+01
