 LCModel (Version 6.3-1L) Copyright: S.W. Provencher.          Ref.: Magn. Reson. Med. 30:672-679 (1993).                
 Slice#2 Row#10 Col#6  K_02_press_1_raw_act
 36 lines in following concentration table = NCONC+1
    Conc.  %SD /Cr+PCr  Metabolite                                         
   61.614 195% 2.6E-02 Ala                                                 
    0.000 999%   0.000 Asp                                                 
 1.34E+03  19%   0.557 Cr                                                  
 1.07E+03  24%   0.443 PCr                                                 
    0.000 999%   0.000 GABA                                                
    0.000 999%   0.000 Glc                                                 
  781.052  32%   0.325 Gln                                                 
 2.30E+03  12%   0.957 Glu                                                 
  896.883   3%   0.373 GPC                                                 
    0.000 999%   0.000 PCh                                                 
  756.550  11%   0.314 GSH                                                 
 1.91E+03  17%   0.796 Ins                                                 
  107.464 123% 4.5E-02 Lac                                                 
 3.33E+03   4%   1.384 NAA                                                 
  667.406  21%   0.277 NAAG                                                
  124.905  28% 5.2E-02 Scyllo                                              
    0.000 999%   0.000 Tau                                                 
    0.000 999%   0.000 -CrCH2                                              
  896.883   3%   0.373 GPC+PCh                                             
 4.00E+03   3%   1.662 NAA+NAAG                                            
 2.41E+03   3%   1.000 Cr+PCr                                              
 3.08E+03  13%   1.281 Glu+Gln                                             
 2.94E+03  30%   1.223 Lip13a                                              
    0.000 999%   0.000 Lip13b                                              
  551.897  75%   0.229 Lip09                                               
 1.82E+03  24%   0.756 MM09                                                
  697.821  39%   0.290 Lip20                                               
 3.81E+03  16%   1.586 MM20                                                
  594.855  49%   0.247 MM12                                                
 1.21E+03  41%   0.503 MM14                                                
  747.260  46%   0.311 MM17                                                
 2.94E+03  30%   1.223 Lip13a+Lip13b                                       
 4.75E+03  18%   1.973 MM14+Lip13a+Lip13b+MM12                             
 2.37E+03  14%   0.985 MM09+Lip09                                          
 4.51E+03  13%   1.876 MM20+Lip20                                          
   6 lines in following misc. output table
  FWHM = 0.061 ppm    S/N =  17                                            
  Data shift = 0.031 ppm                                                   
  Ph:   2 deg      -4.8 deg/ppm                                            
  alphaB,S = 1.1E+00,   8.3E+01                                            
   14 spline knots.   Ns = 7(1)                                            
  (12) 2 infls.   ( 3) 1 extrs.                                            
  498 points on ppm-axis = NY
      4.000000     3.992357     3.984714     3.977070     3.969427     3.961784     3.954141     3.946497     3.938854     3.931211
      3.923568     3.915925     3.908281     3.900638     3.892995     3.885352     3.877708     3.870065     3.862422     3.854779
      3.847136     3.839492     3.831849     3.824206     3.816563     3.808919     3.801276     3.793633     3.785990     3.778347
      3.770703     3.763060     3.755417     3.747774     3.740130     3.732487     3.724844     3.717201     3.709558     3.701914
      3.694271     3.686628     3.678985     3.671341     3.663698     3.656055     3.648412     3.640769     3.633125     3.625482
      3.617839     3.610196     3.602552     3.594909     3.587266     3.579623     3.571980     3.564336     3.556693     3.549050
      3.541407     3.533763     3.526120     3.518477     3.510834     3.503191     3.495547     3.487904     3.480261     3.472618
      3.464974     3.457331     3.449688     3.442045     3.434402     3.426758     3.419115     3.411472     3.403829     3.396185
      3.388542     3.380899     3.373256     3.365613     3.357969     3.350326     3.342683     3.335040     3.327396     3.319753
      3.312110     3.304467     3.296824     3.289180     3.281537     3.273894     3.266251     3.258607     3.250964     3.243321
      3.235678     3.228034     3.220391     3.212748     3.205105     3.197462     3.189818     3.182175     3.174532     3.166889
      3.159245     3.151602     3.143959     3.136316     3.128673     3.121029     3.113386     3.105743     3.098100     3.090456
      3.082813     3.075170     3.067527     3.059884     3.052240     3.044597     3.036954     3.029311     3.021667     3.014024
      3.006381     2.998738     2.991095     2.983451     2.975808     2.968165     2.960522     2.952878     2.945235     2.937592
      2.929949     2.922306     2.914662     2.907019     2.899376     2.891733     2.884089     2.876446     2.868803     2.861160
      2.853517     2.845873     2.838230     2.830587     2.822944     2.815300     2.807657     2.800014     2.792371     2.784728
      2.777084     2.769441     2.761798     2.754155     2.746511     2.738868     2.731225     2.723582     2.715939     2.708295
      2.700652     2.693009     2.685366     2.677722     2.670079     2.662436     2.654793     2.647150     2.639506     2.631863
      2.624220     2.616577     2.608933     2.601290     2.593647     2.586004     2.578361     2.570717     2.563074     2.555431
      2.547788     2.540144     2.532501     2.524858     2.517215     2.509572     2.501928     2.494285     2.486642     2.478999
      2.471355     2.463712     2.456069     2.448426     2.440783     2.433139     2.425496     2.417853     2.410210     2.402566
      2.394923     2.387280     2.379637     2.371994     2.364350     2.356707     2.349064     2.341421     2.333777     2.326134
      2.318491     2.310848     2.303205     2.295561     2.287918     2.280275     2.272632     2.264988     2.257345     2.249702
      2.242059     2.234416     2.226772     2.219129     2.211486     2.203843     2.196199     2.188556     2.180913     2.173270
      2.165627     2.157983     2.150340     2.142697     2.135054     2.127410     2.119767     2.112124     2.104481     2.096838
      2.089194     2.081551     2.073908     2.066265     2.058621     2.050978     2.043335     2.035692     2.028049     2.020405
      2.012762     2.005119     1.997476     1.989833     1.982190     1.974546     1.966903     1.959260     1.951617     1.943974
      1.936331     1.928688     1.921045     1.913402     1.905759     1.898115     1.890472     1.882829     1.875186     1.867543
      1.859900     1.852257     1.844614     1.836971     1.829327     1.821684     1.814041     1.806398     1.798755     1.791112
      1.783469     1.775826     1.768183     1.760540     1.752896     1.745253     1.737610     1.729967     1.722324     1.714681
      1.707038     1.699395     1.691752     1.684108     1.676465     1.668822     1.661179     1.653536     1.645893     1.638250
      1.630607     1.622964     1.615321     1.607677     1.600034     1.592391     1.584748     1.577105     1.569462     1.561819
      1.554176     1.546533     1.538890     1.531246     1.523603     1.515960     1.508317     1.500674     1.493031     1.485388
      1.477745     1.470102     1.462458     1.454815     1.447172     1.439529     1.431886     1.424243     1.416600     1.408957
      1.401314     1.393671     1.386027     1.378384     1.370741     1.363098     1.355455     1.347812     1.340169     1.332526
      1.324883     1.317240     1.309596     1.301953     1.294310     1.286667     1.279024     1.271381     1.263738     1.256095
      1.248452     1.240808     1.233165     1.225522     1.217879     1.210236     1.202593     1.194950     1.187307     1.179664
      1.172021     1.164377     1.156734     1.149091     1.141448     1.133805     1.126162     1.118519     1.110876     1.103233
      1.095590     1.087946     1.080303     1.072660     1.065017     1.057374     1.049731     1.042088     1.034445     1.026802
      1.019158     1.011515     1.003872     0.996229     0.988586     0.980943     0.973300     0.965657     0.958014     0.950371
      0.942727     0.935084     0.927441     0.919798     0.912155     0.904512     0.896869     0.889226     0.881583     0.873940
      0.866296     0.858653     0.851010     0.843367     0.835724     0.828081     0.820438     0.812795     0.805152     0.797508
      0.789865     0.782222     0.774579     0.766936     0.759293     0.751650     0.744007     0.736364     0.728721     0.721077
      0.713434     0.705791     0.698148     0.690505     0.682862     0.675219     0.667576     0.659933     0.652290     0.644646
      0.637003     0.629360     0.621717     0.614074     0.606431     0.598788     0.591145     0.583502     0.575858     0.568215
      0.560572     0.552929     0.545286     0.537643     0.530000     0.522357     0.514714     0.507071     0.499427     0.491784
      0.484141     0.476498     0.468855     0.461212     0.453569     0.445925     0.438282     0.430639     0.422996     0.415353
      0.407710     0.400067     0.392424     0.384780     0.377137     0.369494     0.361851     0.354208     0.346565     0.338922
      0.331278     0.323635     0.315992     0.308349     0.300706     0.293063     0.285420     0.277777     0.270133     0.262490
      0.254847     0.247204     0.239561     0.231918     0.224275     0.216631     0.208988     0.201345
 NY phased data points follow
  -7.08220E+00 -3.84436E+00 -6.59216E+00 -2.66554E-01  4.44952E+00  9.89315E+00  2.12692E+01  2.63244E+01  3.46569E+01  4.72637E+01
   5.08867E+01  4.85772E+01  4.31092E+01  4.04046E+01  2.81966E+01  1.49402E+01  8.93913E+00  4.76803E+00  4.92814E+00 -1.68299E+00
  -2.39210E+00 -1.72051E+00 -2.87465E+00 -2.38476E+00  3.49403E-03  1.93473E+00  7.85970E+00  6.85574E+00  1.46878E+01  1.12646E+01
   1.19775E+01  8.75118E+00  1.63620E+01  1.79255E+01  1.32490E+01  9.11597E+00  7.04133E+00  3.51124E+00  6.62411E+00  4.96452E+00
   6.26681E+00  6.73432E+00  9.07798E+00  1.04445E+01  1.36919E+01  1.77521E+01  2.12588E+01  2.04350E+01  1.67046E+01  9.19336E+00
   1.29206E+01  9.35252E+00  6.04483E+00  4.27389E+00  5.65545E+00  3.56699E+00  7.44391E+00  6.12552E+00  4.46289E+00  3.70857E+00
  -1.35683E+00 -4.39855E+00 -5.53302E-02 -4.39165E+00 -4.87495E+00 -5.43655E+00 -7.58832E+00 -1.02322E+01 -9.80711E+00 -7.47607E+00
  -7.14544E+00 -3.46676E+00  6.80317E-01 -2.83371E+00 -1.88778E+00  4.33377E+00 -3.70848E+00 -2.60623E+00 -3.13592E+00 -8.10567E+00
  -1.57824E+00 -3.86227E+00  1.25819E+00 -4.19188E-01 -5.45159E+00 -1.71735E+00 -1.26693E+00  4.60334E-02  1.64184E+00 -1.10465E+00
   3.79080E+00  6.14410E+00  9.96110E+00  3.69106E+00  8.12479E+00  9.46367E+00  1.10702E+01  1.14131E+01  2.14170E+01  4.34672E+01
   6.21159E+01  6.84739E+01  7.57892E+01  7.45402E+01  6.60027E+01  5.70579E+01  4.62823E+01  3.56302E+01  2.32531E+01  1.91410E+01
   9.61891E+00  3.24943E+00  6.29577E+00  2.01093E+00  2.76234E+00  3.89774E+00  4.94370E+00  1.03531E+00  8.67323E+00  1.05570E+01
   4.89831E+00  1.03656E+01  1.84452E+01  3.36821E+01  5.41023E+01  7.11182E+01  7.71301E+01  7.68642E+01  7.48174E+01  6.25285E+01
   5.14166E+01  3.93739E+01  2.80238E+01  2.25926E+01  1.08867E+01  6.84111E+00  9.92777E+00  4.42289E-01  1.39926E+00  3.99209E+00
   3.15013E+00  2.94698E+00  5.50786E-01  3.74764E+00  4.52467E+00  1.10752E+00  2.47335E+00  3.34726E+00  2.51175E+00  5.89360E-02
   1.66659E+00  1.69963E+00 -2.62616E+00  1.14692E+00  6.46140E-01 -2.94012E-01  1.00895E+00  2.73729E-01 -4.85646E-01  1.27147E+00
   8.90745E-02 -3.39364E+00 -5.89838E+00 -4.05487E-01 -3.24347E+00 -6.80741E-01 -4.01841E+00 -2.13225E+00 -1.15711E+01 -6.37335E+00
  -6.46678E+00 -1.47638E+01 -1.81561E+01 -1.58090E+01 -2.39361E+01 -2.23398E+01 -1.95342E+01 -1.83547E+01 -1.74493E+01 -1.92448E+01
  -2.34980E+01 -1.84285E+01 -1.75399E+01 -2.08616E+01 -1.35731E+01 -1.58709E+01 -1.94193E+01 -1.17214E+01 -6.65393E+00 -6.42506E+00
   4.58297E-01 -2.20037E+00  2.10367E+00 -5.44571E-02  3.64717E+00 -5.73378E-01 -6.68038E+00 -7.16937E+00 -9.74625E+00 -9.75425E-01
   8.43470E-01 -2.51221E+00  1.34064E+00  2.06178E+00 -1.99436E+00 -1.20008E+00 -8.21181E+00 -7.68386E-01 -6.41113E+00 -1.02100E+01
  -9.64642E+00 -5.48724E+00 -6.36194E+00  4.90930E+00  9.54312E+00  1.42197E+01  1.75806E+01  1.33593E+01  6.75759E+00 -3.03212E+00
  -4.05078E+00 -5.25183E+00 -4.36898E+00 -4.28953E+00 -3.07329E+00 -9.21144E-01  6.73345E+00  5.76411E+00  6.86655E+00  1.09463E+01
   1.00046E+01  8.51413E+00  6.78509E+00  6.33512E+00  5.89774E+00  1.07591E+01  6.82462E+00  4.58837E+00  1.00579E+00  2.37639E+00
   3.23833E+00 -1.31288E+00  2.05707E+00  5.81793E+00  7.19942E+00  1.04833E+01  1.50127E+01  1.37460E+01  1.46577E+01  1.88148E+01
   2.16195E+01  3.54575E+01  3.67848E+01  4.60675E+01  4.30359E+01  4.78475E+01  7.28538E+01  9.83789E+01  1.22768E+02  1.32311E+02
   1.33559E+02  1.18840E+02  1.05898E+02  8.27192E+01  6.32454E+01  4.61453E+01  3.58464E+01  2.67740E+01  1.94880E+01  1.30543E+01
   8.22585E+00  1.02614E+01  6.06434E+00  5.38765E+00  8.76195E+00  1.14820E+01  1.11775E+01  5.59911E+00  5.06699E+00  1.05570E+01
   4.42789E+00  7.49608E+00  2.00114E+00  1.54680E+00  5.39614E+00  3.82564E+00  5.62311E+00  6.69079E-02  2.16429E+00  2.05845E+00
   5.54719E+00 -2.93905E-01  5.09809E+00  1.99387E+00  3.89320E+00  3.08155E+00  1.36757E+00  3.95184E+00  6.63087E+00  4.70619E+00
   5.42830E+00  8.08687E+00  7.24345E+00  9.27054E+00  8.07560E+00  7.39557E+00  1.08077E+01  6.85714E+00  6.12109E+00  7.52014E+00
   8.70879E+00  8.67103E+00  8.64334E+00  8.52765E+00  6.62265E+00  8.47926E+00  5.37406E+00  4.97043E+00  8.46108E+00  8.75755E+00
   1.25992E+01  1.39074E+01  8.73100E+00  7.79712E+00  8.42126E+00  1.15220E+01  1.21049E+01  9.69714E+00  9.90847E+00  1.38081E+01
   1.10066E+01  1.22016E+01  9.60218E+00  1.22556E+01  1.19484E+01  1.55460E+01  1.69284E+01  1.35356E+01  1.53644E+01  1.70687E+01
   1.09533E+01  1.86969E+01  1.59240E+01  1.53017E+01  1.83687E+01  1.77619E+01  2.02418E+01  2.15538E+01  1.97762E+01  1.69390E+01
   1.56125E+01  1.82286E+01  1.97724E+01  1.91537E+01  1.69629E+01  1.89599E+01  2.33268E+01  1.80089E+01  1.97893E+01  1.98451E+01
   2.14627E+01  2.25909E+01  2.15696E+01  1.73001E+01  2.01152E+01  1.49904E+01  1.42429E+01  2.38490E+01  1.67083E+01  1.50930E+01
   1.44497E+01  1.56386E+01  1.61850E+01  1.40832E+01  1.70097E+01  1.16459E+01  1.16399E+01  1.55711E+01  1.84777E+01  1.21473E+01
   1.63714E+01  1.61234E+01  1.09215E+01  1.55193E+01  9.89020E+00  1.24865E+01  1.59571E+01  1.49575E+01  9.79626E+00  2.21588E+01
   1.31017E+01  1.52933E+01  1.53592E+01  1.23182E+01  1.81574E+01  1.84745E+01  2.40390E+01  1.92763E+01  1.87890E+01  2.21609E+01
   2.15411E+01  2.04114E+01  2.29475E+01  2.32883E+01  2.57604E+01  2.23028E+01  2.21210E+01  2.50340E+01  2.67294E+01  2.34928E+01
   2.54679E+01  2.61819E+01  1.99704E+01  2.19329E+01  2.43053E+01  1.99259E+01  2.02603E+01  1.43758E+01  1.24021E+01  1.73384E+01
   1.13757E+01  1.37465E+01  1.76660E+01  1.48502E+01  8.98542E+00  8.64951E+00  1.34541E+01  1.44260E+01  6.67814E+00  8.27138E+00
   9.20427E+00  9.55882E+00  1.20057E+01  9.18367E+00  7.82161E+00  6.50315E+00  1.24112E+01  3.98351E+00  1.13259E+01  1.23702E+01
   1.08946E+01  5.95991E+00  1.12411E+01  1.19437E+01  1.15001E+01  1.08905E+01  1.20922E+01  1.16464E+01  7.01034E+00  1.12414E+01
   1.03576E+01  8.44314E+00  1.23912E+01  1.25839E+01  3.44305E+00  7.34988E+00  8.83829E+00  5.26581E+00  6.91906E+00  9.67036E+00
   7.34467E+00  7.61823E+00  6.40489E+00  3.87078E+00  3.92764E+00  7.48962E+00  9.85002E+00  8.38255E+00  7.88458E+00  7.32078E+00
   1.03520E+01  7.36134E+00  1.21363E+01  6.70977E+00  8.56234E+00  9.55459E+00  7.70511E+00  9.57673E+00  6.86968E+00  6.95624E+00
   1.06274E+01  7.04823E+00  5.76000E+00  6.20380E+00  1.05946E+01  9.17851E+00  4.07766E+00  4.74307E+00  1.04077E+01  8.57822E+00
   1.24951E+01  9.06659E+00  3.69799E+00  6.19318E+00  8.67441E+00  9.53553E+00  8.04545E+00  7.90855E+00
 NY points of the fit to the data follow
  -4.77014E+00 -4.77595E+00 -3.72300E+00 -1.72101E+00  2.24719E+00  8.94874E+00  1.81150E+01  2.90599E+01  3.92938E+01  4.60697E+01
   4.81864E+01  4.61047E+01  4.10839E+01  3.44071E+01  2.72122E+01  2.04583E+01  1.46281E+01  9.83959E+00  6.21072E+00  3.48147E+00
   1.74448E+00  7.15489E-01  2.19940E-03 -1.71375E-01 -2.57415E-01  6.55404E-01  3.44999E+00  7.48569E+00  1.14988E+01  1.45957E+01
   1.66697E+01  1.75155E+01  1.68285E+01  1.47826E+01  1.18793E+01  8.63862E+00  5.58745E+00  2.88008E+00  1.01245E+00  6.13951E-01
   1.22186E+00  2.43482E+00  4.65899E+00  8.09010E+00  1.17678E+01  1.43312E+01  1.52269E+01  1.46028E+01  1.27761E+01  1.01321E+01
   7.17820E+00  4.56452E+00  2.71281E+00  1.45914E+00  7.51879E-01  7.66271E-01  1.55400E+00  2.65837E+00  3.44163E+00  3.59240E+00
   3.10423E+00  2.12889E+00  9.69466E-01 -8.35891E-02 -7.21911E-01 -9.23532E-01 -8.04378E-01 -3.64271E-01  3.23759E-01  1.01138E+00
   1.49874E+00  1.70453E+00  1.65983E+00  1.43363E+00  1.08449E+00  6.88662E-01  3.32282E-01  5.18317E-02 -1.67791E-01 -3.89183E-01
  -4.39237E-01 -4.11900E-01 -3.38984E-01  9.95500E-02  7.65051E-01  1.24406E+00  1.33070E+00  1.11411E+00  7.97195E-01  5.49320E-01
   3.71825E-01  3.35878E-01  4.43028E-01  6.02688E-01  8.48009E-01  2.11986E+00  5.57348E+00  1.13261E+01  2.32047E+01  4.14276E+01
   6.01730E+01  7.32137E+01  7.81936E+01  7.59381E+01  6.82534E+01  5.70129E+01  4.43632E+01  3.25273E+01  2.28912E+01  1.52644E+01
   8.75910E+00  3.97017E+00  1.88044E+00  1.14163E+00  8.17050E-01  6.52007E-01  5.68691E-01  5.91093E-01  8.44880E-01  1.87654E+00
   5.16920E+00  1.00078E+01  1.91407E+01  3.54697E+01  5.48532E+01  7.03045E+01  7.80355E+01  7.82405E+01  7.27212E+01  6.33826E+01
   5.19412E+01  4.01213E+01  2.94837E+01  2.04960E+01  1.24950E+01  5.78003E+00  2.16683E+00  1.24972E+00  1.49086E+00  2.19216E+00
   2.86911E+00  3.26576E+00  3.38870E+00  3.28763E+00  2.96155E+00  2.48781E+00  1.93267E+00  1.30306E+00  6.51281E-01 -1.32885E-02
  -6.79573E-01 -1.24724E+00 -1.65748E+00 -1.87993E+00 -1.99508E+00 -2.04806E+00 -2.28060E+00 -2.92451E+00 -3.79967E+00 -4.64451E+00
  -5.08820E+00 -5.01521E+00 -4.79646E+00 -4.81440E+00 -5.16269E+00 -5.80399E+00 -6.61396E+00 -7.43263E+00 -8.12899E+00 -8.70153E+00
  -9.31254E+00 -1.00625E+01 -1.11267E+01 -1.21730E+01 -1.27368E+01 -1.27334E+01 -1.24961E+01 -1.24386E+01 -1.25986E+01 -1.26817E+01
  -1.26122E+01 -1.24607E+01 -1.23743E+01 -1.23464E+01 -1.19595E+01 -1.09001E+01 -9.16602E+00 -6.85698E+00 -4.34959E+00 -2.21876E+00
  -9.36181E-01 -7.16763E-01 -1.20126E+00 -2.19555E+00 -3.43828E+00 -4.48076E+00 -4.96126E+00 -4.65448E+00 -3.70450E+00 -2.21584E+00
  -2.77398E-01  1.68519E+00  3.14242E+00  3.51235E+00  2.71453E+00  7.45952E-01 -2.13239E+00 -5.13999E+00 -7.57362E+00 -9.03592E+00
  -9.09412E+00 -7.60683E+00 -4.14794E+00  5.33277E-01  4.76428E+00  7.24284E+00  7.57022E+00  5.95365E+00  2.51321E+00 -2.41821E+00
  -7.16812E+00 -9.95671E+00 -1.03399E+01 -8.79218E+00 -6.04453E+00 -2.60147E+00  9.94809E-01  3.70700E+00  5.14360E+00  5.75767E+00
   6.25507E+00  6.75549E+00  7.18358E+00  7.93698E+00  9.13231E+00  1.02816E+01  1.08500E+01  1.06341E+01  9.70344E+00  8.26711E+00
   6.74998E+00  5.86362E+00  6.09624E+00  7.30860E+00  9.02549E+00  1.08821E+01  1.27065E+01  1.42792E+01  1.57653E+01  1.74746E+01
   1.99613E+01  2.45368E+01  3.09391E+01  3.91805E+01  4.78660E+01  5.74589E+01  7.53600E+01  9.96702E+01  1.20679E+02  1.31086E+02
   1.30319E+02  1.20968E+02  1.05448E+02  8.61202E+01  6.65128E+01  4.98038E+01  3.69210E+01  2.65446E+01  1.73271E+01  1.11776E+01
   9.02419E+00  8.14715E+00  7.60341E+00  7.18398E+00  6.82159E+00  6.44918E+00  6.05897E+00  5.63797E+00  5.21843E+00  4.85753E+00
   4.58085E+00  4.35496E+00  4.14847E+00  3.97487E+00  3.84896E+00  3.73998E+00  3.63584E+00  3.56961E+00  3.57464E+00  3.65209E+00
   3.77704E+00  3.93554E+00  4.12674E+00  4.33558E+00  4.54160E+00  4.74229E+00  4.95079E+00  5.18045E+00  5.43073E+00  5.69399E+00
   5.96942E+00  6.25323E+00  6.53328E+00  6.79784E+00  7.03868E+00  7.25289E+00  7.43974E+00  7.59629E+00  7.72231E+00  7.82297E+00
   7.90213E+00  7.96448E+00  8.01600E+00  8.06349E+00  8.11337E+00  8.17212E+00  8.24644E+00  8.34340E+00  8.47050E+00  8.63740E+00
   8.85599E+00  9.11379E+00  9.42664E+00  9.79217E+00  1.01243E+01  1.03534E+01  1.04846E+01  1.05663E+01  1.06595E+01  1.07898E+01
   1.09789E+01  1.13171E+01  1.18410E+01  1.24873E+01  1.31578E+01  1.37999E+01  1.44066E+01  1.49564E+01  1.54352E+01  1.58706E+01
   1.63112E+01  1.67646E+01  1.72483E+01  1.77739E+01  1.82177E+01  1.84578E+01  1.84732E+01  1.83441E+01  1.81888E+01  1.80431E+01
   1.79808E+01  1.81604E+01  1.86134E+01  1.92082E+01  1.97754E+01  2.02286E+01  2.05631E+01  2.07486E+01  2.07481E+01  2.05942E+01
   2.03402E+01  2.00261E+01  1.96528E+01  1.92152E+01  1.87577E+01  1.83056E+01  1.78465E+01  1.73784E+01  1.69051E+01  1.64320E+01
   1.59654E+01  1.55114E+01  1.50763E+01  1.46659E+01  1.42859E+01  1.39412E+01  1.36362E+01  1.33750E+01  1.31612E+01  1.29984E+01
   1.28898E+01  1.28380E+01  1.28458E+01  1.29158E+01  1.30502E+01  1.32513E+01  1.35207E+01  1.38596E+01  1.42683E+01  1.47460E+01
   1.52909E+01  1.58995E+01  1.65663E+01  1.72837E+01  1.80419E+01  1.88289E+01  1.96305E+01  2.04305E+01  2.12109E+01  2.19528E+01
   2.26368E+01  2.32441E+01  2.37570E+01  2.41598E+01  2.44394E+01  2.45865E+01  2.45956E+01  2.44654E+01  2.41992E+01  2.38039E+01
   2.32904E+01  2.26728E+01  2.19676E+01  2.11930E+01  2.03677E+01  1.95105E+01  1.86392E+01  1.77703E+01  1.69184E+01  1.60958E+01
   1.53123E+01  1.45752E+01  1.38895E+01  1.32582E+01  1.26823E+01  1.21614E+01  1.16934E+01  1.12757E+01  1.09048E+01  1.05771E+01
   1.02886E+01  1.00354E+01  9.81354E+00  9.61940E+00  9.44966E+00  9.30136E+00  9.17177E+00  9.05840E+00  8.95908E+00  8.87194E+00
   8.79544E+00  8.72822E+00  8.66903E+00  8.61679E+00  8.57054E+00  8.52955E+00  8.49320E+00  8.46093E+00  8.43217E+00  8.40644E+00
   8.38333E+00  8.36258E+00  8.34393E+00  8.32711E+00  8.31187E+00  8.29799E+00  8.28532E+00  8.27380E+00  8.26331E+00  8.25372E+00
   8.24488E+00  8.23670E+00  8.22914E+00  8.22220E+00  8.21583E+00  8.20991E+00  8.20436E+00  8.19917E+00  8.19435E+00  8.18992E+00
   8.18582E+00  8.18197E+00  8.17836E+00  8.17501E+00  8.17195E+00  8.16920E+00  8.16669E+00  8.16437E+00  8.16226E+00  8.16040E+00
   8.15885E+00  8.15757E+00  8.15654E+00  8.15572E+00  8.15517E+00  8.15495E+00  8.15509E+00  8.15556E+00  8.15633E+00  8.15742E+00
   8.15891E+00  8.16084E+00  8.16325E+00  8.16611E+00  8.16941E+00  8.17323E+00  8.17765E+00  8.18275E+00
 NY background values follow
    -8.976E+00   -8.900E+00   -8.823E+00   -8.747E+00   -8.671E+00   -8.594E+00   -8.518E+00   -8.442E+00   -8.366E+00   -8.290E+00
    -8.214E+00   -8.138E+00   -8.063E+00   -7.987E+00   -7.912E+00   -7.837E+00   -7.762E+00   -7.687E+00   -7.613E+00   -7.538E+00
    -7.464E+00   -7.390E+00   -7.317E+00   -7.243E+00   -7.170E+00   -7.098E+00   -7.025E+00   -6.953E+00   -6.881E+00   -6.810E+00
    -6.738E+00   -6.667E+00   -6.597E+00   -6.527E+00   -6.457E+00   -6.388E+00   -6.319E+00   -6.251E+00   -6.183E+00   -6.115E+00
    -6.048E+00   -5.981E+00   -5.915E+00   -5.849E+00   -5.784E+00   -5.719E+00   -5.655E+00   -5.592E+00   -5.529E+00   -5.466E+00
    -5.404E+00   -5.343E+00   -5.282E+00   -5.221E+00   -5.162E+00   -5.102E+00   -5.044E+00   -4.985E+00   -4.928E+00   -4.871E+00
    -4.814E+00   -4.759E+00   -4.703E+00   -4.649E+00   -4.594E+00   -4.541E+00   -4.488E+00   -4.435E+00   -4.384E+00   -4.332E+00
    -4.282E+00   -4.232E+00   -4.182E+00   -4.133E+00   -4.085E+00   -4.038E+00   -3.991E+00   -3.944E+00   -3.898E+00   -3.853E+00
    -3.809E+00   -3.765E+00   -3.721E+00   -3.679E+00   -3.637E+00   -3.595E+00   -3.554E+00   -3.514E+00   -3.475E+00   -3.436E+00
    -3.398E+00   -3.360E+00   -3.323E+00   -3.287E+00   -3.252E+00   -3.217E+00   -3.184E+00   -3.151E+00   -3.120E+00   -3.089E+00
    -3.060E+00   -3.032E+00   -3.005E+00   -2.980E+00   -2.956E+00   -2.933E+00   -2.912E+00   -2.893E+00   -2.875E+00   -2.859E+00
    -2.844E+00   -2.832E+00   -2.821E+00   -2.812E+00   -2.805E+00   -2.800E+00   -2.797E+00   -2.797E+00   -2.798E+00   -2.802E+00
    -2.808E+00   -2.817E+00   -2.828E+00   -2.842E+00   -2.858E+00   -2.877E+00   -2.898E+00   -2.922E+00   -2.949E+00   -2.979E+00
    -3.012E+00   -3.048E+00   -3.086E+00   -3.128E+00   -3.173E+00   -3.222E+00   -3.273E+00   -3.328E+00   -3.386E+00   -3.446E+00
    -3.510E+00   -3.576E+00   -3.644E+00   -3.715E+00   -3.788E+00   -3.862E+00   -3.939E+00   -4.017E+00   -4.096E+00   -4.177E+00
    -4.259E+00   -4.342E+00   -4.426E+00   -4.510E+00   -4.594E+00   -4.679E+00   -4.764E+00   -4.849E+00   -4.934E+00   -5.019E+00
    -5.103E+00   -5.186E+00   -5.268E+00   -5.350E+00   -5.430E+00   -5.509E+00   -5.586E+00   -5.662E+00   -5.735E+00   -5.807E+00
    -5.877E+00   -5.944E+00   -6.009E+00   -6.071E+00   -6.130E+00   -6.187E+00   -6.240E+00   -6.290E+00   -6.336E+00   -6.379E+00
    -6.418E+00   -6.453E+00   -6.484E+00   -6.511E+00   -6.534E+00   -6.554E+00   -6.569E+00   -6.582E+00   -6.590E+00   -6.595E+00
    -6.597E+00   -6.596E+00   -6.591E+00   -6.583E+00   -6.573E+00   -6.559E+00   -6.543E+00   -6.524E+00   -6.503E+00   -6.479E+00
    -6.452E+00   -6.423E+00   -6.392E+00   -6.359E+00   -6.324E+00   -6.287E+00   -6.248E+00   -6.207E+00   -6.164E+00   -6.120E+00
    -6.075E+00   -6.028E+00   -5.979E+00   -5.930E+00   -5.879E+00   -5.827E+00   -5.774E+00   -5.721E+00   -5.666E+00   -5.611E+00
    -5.556E+00   -5.500E+00   -5.443E+00   -5.386E+00   -5.329E+00   -5.272E+00   -5.214E+00   -5.157E+00   -5.100E+00   -5.043E+00
    -4.986E+00   -4.928E+00   -4.871E+00   -4.814E+00   -4.756E+00   -4.699E+00   -4.642E+00   -4.584E+00   -4.527E+00   -4.469E+00
    -4.411E+00   -4.353E+00   -4.295E+00   -4.237E+00   -4.179E+00   -4.120E+00   -4.062E+00   -4.003E+00   -3.944E+00   -3.884E+00
    -3.825E+00   -3.765E+00   -3.705E+00   -3.645E+00   -3.585E+00   -3.524E+00   -3.463E+00   -3.402E+00   -3.340E+00   -3.278E+00
    -3.216E+00   -3.153E+00   -3.090E+00   -3.027E+00   -2.963E+00   -2.899E+00   -2.835E+00   -2.770E+00   -2.704E+00   -2.639E+00
    -2.573E+00   -2.506E+00   -2.439E+00   -2.371E+00   -2.303E+00   -2.235E+00   -2.166E+00   -2.097E+00   -2.027E+00   -1.957E+00
    -1.887E+00   -1.816E+00   -1.745E+00   -1.674E+00   -1.602E+00   -1.530E+00   -1.458E+00   -1.386E+00   -1.313E+00   -1.240E+00
    -1.167E+00   -1.093E+00   -1.019E+00   -9.454E-01   -8.713E-01   -7.970E-01   -7.226E-01   -6.480E-01   -5.733E-01   -4.984E-01
    -4.235E-01   -3.485E-01   -2.733E-01   -1.981E-01   -1.228E-01   -4.753E-02    2.782E-02    1.032E-01    1.786E-01    2.540E-01
     3.293E-01    4.046E-01    4.799E-01    5.552E-01    6.304E-01    7.054E-01    7.805E-01    8.553E-01    9.301E-01    1.005E+00
     1.079E+00    1.154E+00    1.228E+00    1.302E+00    1.376E+00    1.450E+00    1.523E+00    1.597E+00    1.670E+00    1.743E+00
     1.816E+00    1.889E+00    1.961E+00    2.033E+00    2.105E+00    2.177E+00    2.249E+00    2.320E+00    2.391E+00    2.461E+00
     2.532E+00    2.602E+00    2.672E+00    2.741E+00    2.811E+00    2.880E+00    2.948E+00    3.017E+00    3.084E+00    3.152E+00
     3.219E+00    3.286E+00    3.353E+00    3.419E+00    3.485E+00    3.550E+00    3.615E+00    3.680E+00    3.744E+00    3.808E+00
     3.871E+00    3.934E+00    3.997E+00    4.059E+00    4.120E+00    4.181E+00    4.242E+00    4.302E+00    4.362E+00    4.422E+00
     4.481E+00    4.539E+00    4.597E+00    4.655E+00    4.712E+00    4.769E+00    4.826E+00    4.882E+00    4.937E+00    4.993E+00
     5.047E+00    5.102E+00    5.156E+00    5.209E+00    5.262E+00    5.315E+00    5.367E+00    5.419E+00    5.470E+00    5.521E+00
     5.572E+00    5.622E+00    5.672E+00    5.722E+00    5.771E+00    5.819E+00    5.868E+00    5.915E+00    5.963E+00    6.010E+00
     6.057E+00    6.103E+00    6.149E+00    6.194E+00    6.240E+00    6.284E+00    6.329E+00    6.373E+00    6.416E+00    6.459E+00
     6.502E+00    6.545E+00    6.587E+00    6.628E+00    6.669E+00    6.710E+00    6.750E+00    6.790E+00    6.829E+00    6.868E+00
     6.907E+00    6.945E+00    6.982E+00    7.019E+00    7.055E+00    7.091E+00    7.127E+00    7.161E+00    7.196E+00    7.230E+00
     7.263E+00    7.295E+00    7.328E+00    7.359E+00    7.390E+00    7.420E+00    7.450E+00    7.479E+00    7.508E+00    7.536E+00
     7.563E+00    7.590E+00    7.616E+00    7.641E+00    7.666E+00    7.690E+00    7.713E+00    7.736E+00    7.758E+00    7.779E+00
     7.800E+00    7.819E+00    7.839E+00    7.857E+00    7.875E+00    7.892E+00    7.908E+00    7.924E+00    7.939E+00    7.954E+00
     7.967E+00    7.981E+00    7.994E+00    8.006E+00    8.018E+00    8.029E+00    8.040E+00    8.051E+00    8.061E+00    8.070E+00
     8.080E+00    8.089E+00    8.097E+00    8.106E+00    8.114E+00    8.121E+00    8.129E+00    8.136E+00    8.143E+00    8.150E+00
     8.157E+00    8.164E+00    8.170E+00    8.176E+00    8.183E+00    8.189E+00    8.195E+00    8.201E+00    8.207E+00    8.214E+00
     8.220E+00    8.226E+00    8.233E+00    8.239E+00    8.246E+00    8.252E+00    8.259E+00    8.266E+00
 Ala      Conc. = 6.16E+01
