 LCModel (Version 6.3-1L) Copyright: S.W. Provencher.          Ref.: Magn. Reson. Med. 30:672-679 (1993).                
 Slice#3 Row#1 Col#7  K_02_press_1_raw_act
 36 lines in following concentration table = NCONC+1
    Conc.  %SD /Cr+PCr  Metabolite                                         
  137.232  37%   0.935 Ala                                                 
   20.562  74%   0.140 Asp                                                 
   68.035  82%   0.463 Cr                                                  
   78.791  71%   0.537 PCr                                                 
    9.759  93% 6.6E-02 GABA                                                
   11.708  78% 8.0E-02 Glc                                                 
    0.000 999%   0.000 Gln                                                 
  150.034  65%   1.022 Glu                                                 
   48.423  23%   0.330 GPC                                                 
    0.000 999%   0.000 PCh                                                 
  104.319  35%   0.710 GSH                                                 
  366.931  33%   2.499 Ins                                                 
   24.796 195%   0.169 Lac                                                 
   88.700  33%   0.604 NAA                                                 
    0.000 999%   0.000 NAAG                                                
    4.570  66% 3.1E-02 Scyllo                                              
   19.665  76%   0.134 Tau                                                 
    0.000 999%   0.000 -CrCH2                                              
   48.423  23%   0.330 GPC+PCh                                             
   88.700  33%   0.604 NAA+NAAG                                            
  146.826  19%   1.000 Cr+PCr                                              
  150.034  65%   1.022 Glu+Gln                                             
 2.85E+03  10%  19.412 Lip13a                                              
    0.000 999%   0.000 Lip13b                                              
  702.488  16%   4.784 Lip09                                               
   47.554 117%   0.324 MM09                                                
  242.719  37%   1.653 Lip20                                               
    0.000 999%   0.000 MM20                                                
   17.381 171%   0.118 MM12                                                
  306.201  33%   2.085 MM14                                                
  148.237  45%   1.010 MM17                                                
 2.85E+03  10%  19.412 Lip13a+Lip13b                                       
 3.17E+03   8%  21.616 MM14+Lip13a+Lip13b+MM12                             
  750.042  14%   5.108 MM09+Lip09                                          
  242.719  37%   1.653 MM20+Lip20                                          
   6 lines in following misc. output table
  FWHM = 0.031 ppm    S/N =   2                                            
  Data shift = 0.046 ppm                                                   
  Ph:  42 deg      16.6 deg/ppm                                            
  alphaB,S = 1.1E+00,   1.2E+01                                            
   14 spline knots.   Ns = 5(1)                                            
  ( 6) 2 infls.   ( 7) 1 extrs.                                            
  498 points on ppm-axis = NY
      4.000000     3.992357     3.984714     3.977070     3.969427     3.961784     3.954141     3.946497     3.938854     3.931211
      3.923568     3.915925     3.908281     3.900638     3.892995     3.885352     3.877708     3.870065     3.862422     3.854779
      3.847136     3.839492     3.831849     3.824206     3.816563     3.808919     3.801276     3.793633     3.785990     3.778347
      3.770703     3.763060     3.755417     3.747774     3.740130     3.732487     3.724844     3.717201     3.709558     3.701914
      3.694271     3.686628     3.678985     3.671341     3.663698     3.656055     3.648412     3.640769     3.633125     3.625482
      3.617839     3.610196     3.602552     3.594909     3.587266     3.579623     3.571980     3.564336     3.556693     3.549050
      3.541407     3.533763     3.526120     3.518477     3.510834     3.503191     3.495547     3.487904     3.480261     3.472618
      3.464974     3.457331     3.449688     3.442045     3.434402     3.426758     3.419115     3.411472     3.403829     3.396185
      3.388542     3.380899     3.373256     3.365613     3.357969     3.350326     3.342683     3.335040     3.327396     3.319753
      3.312110     3.304467     3.296824     3.289180     3.281537     3.273894     3.266251     3.258607     3.250964     3.243321
      3.235678     3.228034     3.220391     3.212748     3.205105     3.197462     3.189818     3.182175     3.174532     3.166889
      3.159245     3.151602     3.143959     3.136316     3.128673     3.121029     3.113386     3.105743     3.098100     3.090456
      3.082813     3.075170     3.067527     3.059884     3.052240     3.044597     3.036954     3.029311     3.021667     3.014024
      3.006381     2.998738     2.991095     2.983451     2.975808     2.968165     2.960522     2.952878     2.945235     2.937592
      2.929949     2.922306     2.914662     2.907019     2.899376     2.891733     2.884089     2.876446     2.868803     2.861160
      2.853517     2.845873     2.838230     2.830587     2.822944     2.815300     2.807657     2.800014     2.792371     2.784728
      2.777084     2.769441     2.761798     2.754155     2.746511     2.738868     2.731225     2.723582     2.715939     2.708295
      2.700652     2.693009     2.685366     2.677722     2.670079     2.662436     2.654793     2.647150     2.639506     2.631863
      2.624220     2.616577     2.608933     2.601290     2.593647     2.586004     2.578361     2.570717     2.563074     2.555431
      2.547788     2.540144     2.532501     2.524858     2.517215     2.509572     2.501928     2.494285     2.486642     2.478999
      2.471355     2.463712     2.456069     2.448426     2.440783     2.433139     2.425496     2.417853     2.410210     2.402566
      2.394923     2.387280     2.379637     2.371994     2.364350     2.356707     2.349064     2.341421     2.333777     2.326134
      2.318491     2.310848     2.303205     2.295561     2.287918     2.280275     2.272632     2.264988     2.257345     2.249702
      2.242059     2.234416     2.226772     2.219129     2.211486     2.203843     2.196199     2.188556     2.180913     2.173270
      2.165627     2.157983     2.150340     2.142697     2.135054     2.127410     2.119767     2.112124     2.104481     2.096838
      2.089194     2.081551     2.073908     2.066265     2.058621     2.050978     2.043335     2.035692     2.028049     2.020405
      2.012762     2.005119     1.997476     1.989833     1.982190     1.974546     1.966903     1.959260     1.951617     1.943974
      1.936331     1.928688     1.921045     1.913402     1.905759     1.898115     1.890472     1.882829     1.875186     1.867543
      1.859900     1.852257     1.844614     1.836971     1.829327     1.821684     1.814041     1.806398     1.798755     1.791112
      1.783469     1.775826     1.768183     1.760540     1.752896     1.745253     1.737610     1.729967     1.722324     1.714681
      1.707038     1.699395     1.691752     1.684108     1.676465     1.668822     1.661179     1.653536     1.645893     1.638250
      1.630607     1.622964     1.615321     1.607677     1.600034     1.592391     1.584748     1.577105     1.569462     1.561819
      1.554176     1.546533     1.538890     1.531246     1.523603     1.515960     1.508317     1.500674     1.493031     1.485388
      1.477745     1.470102     1.462458     1.454815     1.447172     1.439529     1.431886     1.424243     1.416600     1.408957
      1.401314     1.393671     1.386027     1.378384     1.370741     1.363098     1.355455     1.347812     1.340169     1.332526
      1.324883     1.317240     1.309596     1.301953     1.294310     1.286667     1.279024     1.271381     1.263738     1.256095
      1.248452     1.240808     1.233165     1.225522     1.217879     1.210236     1.202593     1.194950     1.187307     1.179664
      1.172021     1.164377     1.156734     1.149091     1.141448     1.133805     1.126162     1.118519     1.110876     1.103233
      1.095590     1.087946     1.080303     1.072660     1.065017     1.057374     1.049731     1.042088     1.034445     1.026802
      1.019158     1.011515     1.003872     0.996229     0.988586     0.980943     0.973300     0.965657     0.958014     0.950371
      0.942727     0.935084     0.927441     0.919798     0.912155     0.904512     0.896869     0.889226     0.881583     0.873940
      0.866296     0.858653     0.851010     0.843367     0.835724     0.828081     0.820438     0.812795     0.805152     0.797508
      0.789865     0.782222     0.774579     0.766936     0.759293     0.751650     0.744007     0.736364     0.728721     0.721077
      0.713434     0.705791     0.698148     0.690505     0.682862     0.675219     0.667576     0.659933     0.652290     0.644646
      0.637003     0.629360     0.621717     0.614074     0.606431     0.598788     0.591145     0.583502     0.575858     0.568215
      0.560572     0.552929     0.545286     0.537643     0.530000     0.522357     0.514714     0.507071     0.499427     0.491784
      0.484141     0.476498     0.468855     0.461212     0.453569     0.445925     0.438282     0.430639     0.422996     0.415353
      0.407710     0.400067     0.392424     0.384780     0.377137     0.369494     0.361851     0.354208     0.346565     0.338922
      0.331278     0.323635     0.315992     0.308349     0.300706     0.293063     0.285420     0.277777     0.270133     0.262490
      0.254847     0.247204     0.239561     0.231918     0.224275     0.216631     0.208988     0.201345
 NY phased data points follow
  -1.14556E+00  3.25614E+00  1.86428E+00  5.93433E+00  3.06476E+00  5.41097E+00  3.49197E+00  8.02989E+00  5.46282E+00  6.46959E+00
   8.05268E+00  7.14943E+00  6.40136E+00  9.68203E+00  1.38210E+00  8.09553E+00  4.20374E+00  5.51053E+00  5.44974E+00  4.22591E+00
   2.73499E+00  5.98071E+00  7.64266E+00  5.31641E+00  3.95365E+00  6.18527E+00  2.98344E+00  6.59154E+00  3.45181E+00  6.22182E+00
   5.37290E+00  3.72655E+00  6.58884E+00  5.71441E+00  4.21578E+00  2.78851E+00  3.57283E-01  5.18567E+00  4.41048E+00  3.60133E+00
   4.59940E+00  6.56085E+00  4.41343E+00 -4.38754E-02 -4.60524E-01  5.12059E+00  6.90138E+00  2.69320E+00  5.19829E+00  3.79019E+00
   4.19850E+00  2.56307E+00  2.61169E+00  2.99405E-01  1.12226E+00  2.45433E+00  2.45316E+00  4.92446E+00  2.70211E+00  5.24168E+00
   3.41350E+00  1.23435E-01  2.09209E-01  5.86660E+00  2.54513E+00  1.56505E+00  1.62653E+00  1.88729E+00 -6.70695E-01  3.72220E+00
  -1.08717E+00  4.91948E+00 -1.64803E+00  5.32783E+00  4.04919E+00  4.32934E+00  2.85940E-01  1.21394E+00  1.64666E+00 -5.09221E+00
  -1.34855E+00  1.11924E+00  1.30518E+00  3.31001E+00  5.37964E+00  1.16622E+00 -1.01449E+00  3.66997E+00  2.37545E+00  2.25738E+00
  -1.70096E-01 -3.07033E+00 -1.54116E+00  2.51619E+00  5.45742E+00  2.60856E+00 -1.99953E-01  3.44835E+00 -1.48418E+00  8.17450E-01
  -7.50735E-01 -4.89939E-01  9.92305E-01  4.82784E+00  8.52557E+00  8.37450E+00  1.35757E+00  2.98257E+00  4.13956E+00  4.30815E-01
   5.20468E+00  1.02955E+00 -3.07574E-01  3.74569E+00 -1.59456E+00 -4.03261E+00 -4.38017E+00 -3.25709E+00 -1.72502E+00  3.92004E+00
  -1.02499E+00  3.57564E-01 -1.93035E+00 -5.63594E-02  1.85636E+00 -7.69527E-01  6.12737E+00  6.62637E+00  8.74602E+00  3.92981E+00
   3.61473E+00  5.75917E-01  7.58773E-01 -1.57823E+00  4.76556E+00  1.28147E+00 -3.05885E-01 -1.08347E+00  6.34372E-01 -5.83869E+00
   1.50252E+00  4.44912E-01 -2.00279E+00  1.67495E+00  2.35618E+00 -3.26628E-01 -5.02294E+00  1.79771E+00 -8.00618E-01 -4.78801E-01
  -2.87600E+00  2.34384E+00 -1.46080E+00  4.95224E-02 -2.64989E+00 -3.10863E+00 -2.64727E+00 -3.14472E+00 -4.14779E+00 -1.33289E+00
  -1.88689E+00 -3.32022E+00 -2.11021E-01 -1.90087E+00  2.05501E+00 -4.89759E-01 -1.29207E-01 -7.76056E-01 -1.29174E+00  1.28256E+00
  -2.23767E+00  3.09157E+00 -2.10835E+00  2.47819E+00 -1.26025E+00 -1.33850E+00 -8.93811E-01 -1.53029E+00 -7.05094E-02 -1.78236E+00
   2.02047E+00 -3.25768E+00 -5.69718E-01 -7.18608E-01 -4.81930E-01 -3.87494E+00  2.91083E+00 -4.22949E+00 -3.67272E+00 -8.55908E-02
  -6.37479E-01 -3.34507E+00 -1.72455E+00 -4.08443E+00  4.90794E-02 -2.17916E-01  8.29818E-01 -5.47892E-01 -1.46802E+00 -3.21490E+00
  -3.48409E+00 -6.27373E+00 -3.96045E+00 -5.54581E-01 -9.98941E-01  3.18362E+00 -1.35880E+00 -4.79546E+00 -5.52095E-01  3.20216E+00
  -2.18422E+00  3.35487E-01 -6.73977E+00 -3.90417E+00 -3.75474E-01 -3.20430E-01 -2.54292E-01  1.39593E+00  9.11527E-01 -2.57993E+00
  -1.21492E+00 -6.23872E+00 -3.05449E+00  6.12337E-01 -9.99680E-01 -4.21771E+00 -2.41098E+00 -2.07210E+00 -4.60197E-01  4.36752E-01
   5.61805E-01 -1.02558E+00 -5.98797E-01 -3.47144E+00  5.93980E-01 -2.79033E+00 -3.80901E+00  3.63428E+00 -4.31373E+00 -1.43036E+00
  -4.17251E-01 -3.64825E+00 -3.21855E+00 -7.67494E-01 -2.83458E-01 -4.31556E+00  2.38210E+00 -2.51972E+00 -1.75269E+00  2.20887E+00
   1.06002E+00 -5.63006E-01  2.93365E+00  1.78475E+00  2.58944E+00 -1.68989E+00 -5.86203E+00 -2.52560E+00  1.03039E-01  7.69834E+00
   6.02807E+00  4.33447E+00  6.51087E+00 -2.85416E+00 -9.07065E-01 -5.52964E+00 -4.64412E-01  2.06437E+00 -2.06570E+00 -5.03275E-02
  -1.67267E-01 -1.62325E+00  3.38435E+00 -2.93246E+00 -1.06414E+00 -1.17840E+00 -4.35011E-01  1.79612E+00 -3.58143E+00 -5.31576E-01
  -2.46832E+00 -1.83581E+00  1.45244E+00 -4.91093E+00  1.50311E+00  1.49260E-01  1.47061E-01  1.81011E+00 -1.12650E+00  2.43934E+00
  -2.11660E-01  9.44956E-01  2.41789E-01 -5.90961E-01  3.56338E+00  1.94534E+00  3.57053E+00  3.70584E+00  1.68404E-01  2.40593E+00
   1.47064E+00  2.66699E+00  3.99271E+00  4.70898E+00 -1.04850E+00  3.06648E+00  2.01034E+00  4.44262E-01  2.63566E-01  4.85517E+00
   1.19811E+00  4.42968E+00  1.09622E+01  8.70865E+00  4.50956E+00  2.08028E+00 -3.05193E-01  3.76785E+00  2.71575E+00  5.61091E+00
   3.35120E+00  2.79840E+00  4.23420E+00  5.14379E+00  5.72543E+00  1.93563E+00  5.97676E+00  7.17768E+00  6.54838E+00  1.25765E+01
   5.18795E+00  5.13363E+00  7.97161E+00  9.84920E-02  7.33943E+00  2.37644E+00  7.13200E+00  8.62966E+00  1.13374E+01  1.14347E+01
   8.04873E+00  8.51527E+00  8.57462E+00  8.72112E+00  6.09075E+00  6.68798E+00  9.74201E+00  6.74142E+00  4.52914E+00  7.06250E+00
   3.93654E+00  6.60701E+00  6.71857E+00  6.70024E+00  7.34209E+00  8.70109E+00  8.50629E+00  4.43690E+00  4.97074E+00  7.29677E+00
   5.73548E+00  7.71942E+00  5.90186E+00  7.54109E+00  4.63396E+00  8.20761E+00  7.56850E+00  5.17902E+00  6.46591E+00  1.05235E+01
   4.82375E+00  5.20996E+00  6.57880E+00  5.27138E+00  8.07909E+00  2.06993E+00  8.42285E+00  4.41229E+00  5.64454E+00  3.33145E+00
   1.94464E+00  5.26973E+00  7.58129E+00  6.40212E+00  5.51834E+00  3.93143E+00  6.33679E-01  1.18009E-01  1.54464E+00  4.05508E+00
   4.53345E+00  7.81184E+00  3.83835E+00  2.68875E+00  3.18689E+00  5.26978E+00  2.43006E+00  1.18434E+00  3.42448E+00  2.00811E+00
   3.06024E+00  8.93444E-01  1.55306E+00  3.79026E+00  5.47725E-01  2.45366E+00  3.01093E+00  2.34120E-01 -5.65908E-01  2.30887E+00
   2.74690E+00  6.84508E+00  3.43474E+00  1.86125E+00  1.63430E+00  1.16867E+00  3.22551E+00  2.37284E+00  7.89736E-01  2.75238E+00
   9.33498E-01 -9.21041E-01  2.93040E+00  3.57019E+00  1.73428E+00  2.42411E+00  2.79162E+00  1.40582E+00  1.40153E+00  2.57759E-01
  -1.20749E+00  3.62130E-01  2.48037E+00 -4.69802E-01  2.72245E+00 -1.15454E+00  2.67823E+00  1.16750E+00 -3.53985E+00  1.58975E+00
   1.59094E+00  3.78112E+00  9.73906E-01  1.34535E+00  1.86544E+00  4.38498E+00  2.89545E+00  3.69146E+00  3.78288E+00 -6.27455E-01
  -7.04886E-01  3.91236E-01  3.27652E+00  9.23373E-01  9.54182E-01 -1.90938E+00 -2.03877E+00 -5.26819E-01 -1.46522E+00 -1.63469E+00
   2.31209E+00 -1.16488E+00 -1.12367E+00 -1.13625E+00 -1.67543E+00 -3.40290E+00  3.58622E+00 -1.57088E+00  3.45403E+00 -1.50177E+00
  -1.30701E+00  1.20944E+00 -2.84807E+00 -1.61547E-01 -1.29906E+00 -4.42456E-01 -9.18575E-01 -5.17969E-01  1.94529E+00  6.34295E-01
  -1.41332E+00  9.09503E-01 -9.25821E-01 -1.09155E+00  1.39885E+00  1.24037E+00 -2.24178E+00 -7.45966E-01 -3.22696E+00  2.24019E-01
  -9.62856E-01 -2.20854E-01 -5.59754E+00  2.70568E+00  8.70854E-01 -2.05947E+00  1.78567E+00  1.56212E+00
 NY points of the fit to the data follow
   3.14372E+00  2.91094E+00  2.79638E+00  2.77510E+00  2.80170E+00  2.85029E+00  3.17291E+00  3.88735E+00  4.86594E+00  5.93241E+00
   6.72264E+00  6.85375E+00  6.35703E+00  5.42208E+00  4.34197E+00  3.50897E+00  2.97403E+00  2.63474E+00  2.43354E+00  2.33100E+00
   2.35419E+00  2.48926E+00  2.63163E+00  2.76834E+00  2.89915E+00  2.89916E+00  2.62775E+00  2.36573E+00  2.67254E+00  3.65549E+00
   4.81378E+00  5.53482E+00  5.49538E+00  4.87391E+00  4.14678E+00  3.59178E+00  3.22519E+00  2.99073E+00  2.77544E+00  2.45235E+00
   2.04883E+00  1.74762E+00  1.60557E+00  1.59069E+00  1.85523E+00  2.67101E+00  4.02419E+00  5.39111E+00  6.06171E+00  5.62947E+00
   4.32981E+00  2.83902E+00  1.69628E+00  1.09555E+00  9.79174E-01  1.10755E+00  1.30944E+00  1.60161E+00  2.01832E+00  2.53263E+00
   2.98807E+00  3.14582E+00  2.90854E+00  2.37634E+00  1.76413E+00  1.31037E+00  1.14783E+00  1.24310E+00  1.46046E+00  1.71058E+00
   1.96964E+00  2.18660E+00  2.31407E+00  2.33394E+00  2.23418E+00  2.07253E+00  1.90510E+00  1.73873E+00  1.58415E+00  1.45916E+00
   1.37421E+00  1.32633E+00  1.30502E+00  1.32415E+00  1.34592E+00  1.25811E+00  9.66474E-01  5.03475E-01  2.99108E-02 -2.39357E-01
  -2.05425E-01  7.34697E-02  4.48413E-01  7.98871E-01  1.07054E+00  1.21877E+00  1.22038E+00  1.09311E+00  8.82591E-01  5.80534E-01
   5.37813E-01  1.58422E+00  3.73754E+00  6.03169E+00  7.34256E+00  6.96885E+00  5.20266E+00  3.19348E+00  1.64503E+00  7.28037E-01
   3.82794E-01  3.04091E-01  2.94894E-01  2.99303E-01  3.03525E-01  3.03339E-01  3.02507E-01  2.97088E-01  2.78500E-01  2.51594E-01
   2.32762E-01  2.44671E-01  2.73385E-01  3.16389E-01  1.04486E+00  2.94853E+00  5.42052E+00  7.30919E+00  7.69008E+00  6.34868E+00
   4.23683E+00  2.47977E+00  1.44998E+00  1.03728E+00  8.24531E-01  4.47694E-01 -1.29279E-01 -6.44284E-01 -8.68598E-01 -7.30650E-01
  -2.99047E-01  2.15159E-01  5.87080E-01  7.39723E-01  6.91092E-01  5.32483E-01  3.68607E-01  2.42551E-01  1.63630E-01  1.14381E-01
   7.33344E-02  2.70316E-02 -2.69435E-02 -8.29641E-02 -1.26935E-01 -1.43712E-01 -1.30192E-01 -1.01973E-01 -9.75834E-02 -1.40174E-01
  -2.12182E-01 -2.79060E-01 -3.00616E-01 -2.73246E-01 -2.36266E-01 -2.21212E-01 -2.36596E-01 -2.75895E-01 -3.15453E-01 -3.47090E-01
  -3.74016E-01 -3.92530E-01 -4.05290E-01 -4.33496E-01 -4.95368E-01 -5.75216E-01 -6.39019E-01 -6.61836E-01 -6.57418E-01 -6.64141E-01
  -7.03930E-01 -7.49803E-01 -7.71229E-01 -7.78505E-01 -8.13757E-01 -8.87248E-01 -9.63496E-01 -9.72093E-01 -8.40247E-01 -5.58036E-01
  -1.97728E-01  1.09838E-01  2.40431E-01  1.56676E-01 -7.82899E-02 -4.30286E-01 -8.44341E-01 -1.17844E+00 -1.29903E+00 -1.16783E+00
  -8.46091E-01 -4.89718E-01 -2.23718E-01 -5.57061E-02  1.41979E-02 -8.69645E-03 -8.57461E-02 -2.00810E-01 -3.48188E-01 -4.96051E-01
  -6.29795E-01 -7.14904E-01 -6.96316E-01 -4.68424E-01 -1.98086E-02  4.72301E-01  7.59167E-01  7.05059E-01  3.22870E-01 -2.53985E-01
  -9.13938E-01 -1.52265E+00 -1.84576E+00 -1.75694E+00 -1.29454E+00 -6.54277E-01 -9.24102E-02  2.64998E-01  4.05373E-01  3.05084E-01
   1.59645E-02 -3.11350E-01 -5.22836E-01 -5.12304E-01 -2.71361E-01  1.36478E-01  5.90895E-01  8.88703E-01  8.46153E-01  4.50402E-01
  -1.62066E-01 -7.52973E-01 -1.11512E+00 -1.14612E+00 -8.57438E-01 -3.61708E-01  1.61321E-01  5.37774E-01  6.67378E-01  5.64000E-01
   3.31044E-01  9.71337E-02 -3.02923E-02 -2.45329E-02  8.58368E-02  2.13447E-01  2.22822E-01  4.37782E-01  1.35554E+00  2.82637E+00
   4.18697E+00  4.77868E+00  4.25784E+00  3.01497E+00  1.76048E+00  8.21176E-01  2.80925E-01  5.79980E-02 -3.68710E-02 -1.09515E-01
  -1.73400E-01 -2.12363E-01 -2.12506E-01 -1.72571E-01 -1.07789E-01 -4.52240E-02 -5.84119E-03  7.68226E-03 -8.96017E-04 -2.31171E-02
  -4.55830E-02 -5.89843E-02 -5.84764E-02 -4.14962E-02 -1.01783E-02  3.10514E-02  7.79331E-02  1.27183E-01  1.77910E-01  2.30910E-01
   2.87671E-01  3.48830E-01  4.14600E-01  4.85555E-01  5.61784E-01  6.42798E-01  7.28270E-01  8.17384E-01  9.09019E-01  1.00214E+00
   1.09573E+00  1.18898E+00  1.28102E+00  1.37093E+00  1.45783E+00  1.54104E+00  1.62047E+00  1.69661E+00  1.77028E+00  1.84259E+00
   1.91483E+00  1.98846E+00  2.06517E+00  2.14689E+00  2.23574E+00  2.33391E+00  2.44361E+00  2.56701E+00  2.70634E+00  2.86411E+00
   3.04345E+00  3.24865E+00  3.48628E+00  3.75638E+00  4.08628E+00  4.71556E+00  5.57809E+00  6.15937E+00  6.03586E+00  5.17022E+00
   3.91053E+00  2.88822E+00  2.26903E+00  2.05374E+00  2.55053E+00  3.80701E+00  5.50062E+00  7.14295E+00  8.16965E+00  8.43986E+00
   8.27702E+00  7.97578E+00  7.74540E+00  7.67204E+00  7.74214E+00  7.90905E+00  8.06410E+00  8.10390E+00  7.99601E+00  7.78342E+00
   7.57322E+00  7.41880E+00  7.34532E+00  7.40341E+00  7.58395E+00  7.80950E+00  7.98444E+00  8.01608E+00  7.90008E+00  7.70008E+00
   7.46537E+00  7.23223E+00  7.01183E+00  6.79496E+00  6.57491E+00  6.35048E+00  6.12247E+00  5.89246E+00  5.66236E+00  5.43414E+00
   5.20978E+00  4.99115E+00  4.78000E+00  4.57793E+00  4.38630E+00  4.20632E+00  4.03897E+00  3.88506E+00  3.74524E+00  3.61997E+00
   3.50953E+00  3.41409E+00  3.33364E+00  3.26807E+00  3.21714E+00  3.18045E+00  3.15749E+00  3.14759E+00  3.14994E+00  3.16359E+00
   3.18740E+00  3.22007E+00  3.26013E+00  3.30594E+00  3.35574E+00  3.40762E+00  3.45958E+00  3.50953E+00  3.55540E+00  3.59514E+00
   3.62683E+00  3.64868E+00  3.65911E+00  3.65681E+00  3.64078E+00  3.61035E+00  3.56523E+00  3.50546E+00  3.43146E+00  3.34394E+00
   3.24394E+00  3.13273E+00  3.01178E+00  2.88268E+00  2.74710E+00  2.60675E+00  2.46329E+00  2.31832E+00  2.17332E+00  2.02963E+00
   1.88843E+00  1.75074E+00  1.61739E+00  1.48907E+00  1.36628E+00  1.24938E+00  1.13857E+00  1.03397E+00  9.35598E-01  8.43359E-01
   7.57106E-01  6.76631E-01  6.01695E-01  5.32036E-01  4.67374E-01  4.07412E-01  3.51849E-01  3.00390E-01  2.52755E-01  2.08678E-01
   1.67900E-01  1.30172E-01  9.52569E-02  6.29409E-02  3.30297E-02  5.34259E-03 -2.02920E-02 -4.40366E-02 -6.60388E-02 -8.64281E-02
  -1.05320E-01 -1.22824E-01 -1.39048E-01 -1.54088E-01 -1.68032E-01 -1.80949E-01 -1.92906E-01 -2.03970E-01 -2.14208E-01 -2.23679E-01
  -2.32433E-01 -2.40512E-01 -2.47954E-01 -2.54804E-01 -2.61104E-01 -2.66888E-01 -2.72182E-01 -2.77012E-01 -2.81404E-01 -2.85389E-01
  -2.88995E-01 -2.92240E-01 -2.95139E-01 -2.97705E-01 -2.99961E-01 -3.01928E-01 -3.03622E-01 -3.05053E-01 -3.06229E-01 -3.07162E-01
  -3.07871E-01 -3.08369E-01 -3.08665E-01 -3.08760E-01 -3.08660E-01 -3.08378E-01 -3.07928E-01 -3.07318E-01 -3.06548E-01 -3.05619E-01
  -3.04537E-01 -3.03313E-01 -3.01959E-01 -3.00474E-01 -2.98854E-01 -2.97099E-01 -2.95216E-01 -2.93218E-01
 NY background values follow
     2.083E+00    2.064E+00    2.044E+00    2.025E+00    2.005E+00    1.986E+00    1.966E+00    1.947E+00    1.928E+00    1.908E+00
     1.889E+00    1.869E+00    1.850E+00    1.830E+00    1.811E+00    1.791E+00    1.772E+00    1.752E+00    1.733E+00    1.713E+00
     1.694E+00    1.674E+00    1.655E+00    1.635E+00    1.616E+00    1.597E+00    1.577E+00    1.558E+00    1.538E+00    1.519E+00
     1.499E+00    1.480E+00    1.461E+00    1.441E+00    1.422E+00    1.403E+00    1.383E+00    1.364E+00    1.345E+00    1.325E+00
     1.306E+00    1.287E+00    1.268E+00    1.248E+00    1.229E+00    1.210E+00    1.191E+00    1.171E+00    1.152E+00    1.133E+00
     1.114E+00    1.095E+00    1.076E+00    1.057E+00    1.038E+00    1.019E+00    9.997E-01    9.808E-01    9.618E-01    9.429E-01
     9.240E-01    9.052E-01    8.864E-01    8.676E-01    8.488E-01    8.301E-01    8.114E-01    7.928E-01    7.742E-01    7.556E-01
     7.370E-01    7.185E-01    7.001E-01    6.816E-01    6.633E-01    6.449E-01    6.266E-01    6.084E-01    5.902E-01    5.720E-01
     5.539E-01    5.358E-01    5.178E-01    4.999E-01    4.820E-01    4.641E-01    4.463E-01    4.285E-01    4.108E-01    3.932E-01
     3.756E-01    3.581E-01    3.406E-01    3.232E-01    3.058E-01    2.885E-01    2.713E-01    2.541E-01    2.370E-01    2.200E-01
     2.030E-01    1.861E-01    1.692E-01    1.525E-01    1.358E-01    1.191E-01    1.026E-01    8.606E-02    6.963E-02    5.328E-02
     3.701E-02    2.080E-02    4.677E-03   -1.137E-02   -2.735E-02   -4.324E-02   -5.906E-02   -7.479E-02   -9.045E-02   -1.060E-01
    -1.215E-01   -1.369E-01   -1.522E-01   -1.675E-01   -1.826E-01   -1.977E-01   -2.127E-01   -2.275E-01   -2.423E-01   -2.571E-01
    -2.717E-01   -2.862E-01   -3.006E-01   -3.150E-01   -3.292E-01   -3.433E-01   -3.574E-01   -3.713E-01   -3.852E-01   -3.989E-01
    -4.126E-01   -4.262E-01   -4.396E-01   -4.530E-01   -4.662E-01   -4.794E-01   -4.924E-01   -5.054E-01   -5.182E-01   -5.310E-01
    -5.436E-01   -5.562E-01   -5.686E-01   -5.809E-01   -5.932E-01   -6.053E-01   -6.173E-01   -6.292E-01   -6.410E-01   -6.527E-01
    -6.643E-01   -6.758E-01   -6.872E-01   -6.984E-01   -7.096E-01   -7.206E-01   -7.316E-01   -7.424E-01   -7.531E-01   -7.637E-01
    -7.742E-01   -7.846E-01   -7.949E-01   -8.050E-01   -8.151E-01   -8.250E-01   -8.348E-01   -8.445E-01   -8.541E-01   -8.635E-01
    -8.729E-01   -8.821E-01   -8.912E-01   -9.002E-01   -9.091E-01   -9.179E-01   -9.265E-01   -9.351E-01   -9.435E-01   -9.518E-01
    -9.600E-01   -9.680E-01   -9.760E-01   -9.838E-01   -9.915E-01   -9.991E-01   -1.007E+00   -1.014E+00   -1.021E+00   -1.028E+00
    -1.035E+00   -1.042E+00   -1.049E+00   -1.056E+00   -1.062E+00   -1.069E+00   -1.075E+00   -1.081E+00   -1.087E+00   -1.093E+00
    -1.099E+00   -1.105E+00   -1.111E+00   -1.116E+00   -1.122E+00   -1.127E+00   -1.132E+00   -1.137E+00   -1.142E+00   -1.147E+00
    -1.151E+00   -1.156E+00   -1.161E+00   -1.165E+00   -1.169E+00   -1.173E+00   -1.177E+00   -1.181E+00   -1.185E+00   -1.189E+00
    -1.192E+00   -1.196E+00   -1.199E+00   -1.202E+00   -1.205E+00   -1.208E+00   -1.211E+00   -1.214E+00   -1.217E+00   -1.219E+00
    -1.222E+00   -1.224E+00   -1.227E+00   -1.229E+00   -1.231E+00   -1.233E+00   -1.235E+00   -1.236E+00   -1.238E+00   -1.240E+00
    -1.241E+00   -1.242E+00   -1.244E+00   -1.245E+00   -1.246E+00   -1.247E+00   -1.248E+00   -1.249E+00   -1.250E+00   -1.250E+00
    -1.251E+00   -1.251E+00   -1.252E+00   -1.252E+00   -1.252E+00   -1.252E+00   -1.252E+00   -1.252E+00   -1.252E+00   -1.252E+00
    -1.252E+00   -1.251E+00   -1.251E+00   -1.250E+00   -1.250E+00   -1.249E+00   -1.248E+00   -1.247E+00   -1.247E+00   -1.246E+00
    -1.245E+00   -1.243E+00   -1.242E+00   -1.241E+00   -1.240E+00   -1.238E+00   -1.237E+00   -1.235E+00   -1.234E+00   -1.232E+00
    -1.230E+00   -1.229E+00   -1.227E+00   -1.225E+00   -1.223E+00   -1.221E+00   -1.219E+00   -1.217E+00   -1.215E+00   -1.213E+00
    -1.210E+00   -1.208E+00   -1.206E+00   -1.203E+00   -1.201E+00   -1.199E+00   -1.196E+00   -1.194E+00   -1.191E+00   -1.188E+00
    -1.186E+00   -1.183E+00   -1.180E+00   -1.177E+00   -1.175E+00   -1.172E+00   -1.169E+00   -1.166E+00   -1.163E+00   -1.160E+00
    -1.157E+00   -1.154E+00   -1.151E+00   -1.148E+00   -1.145E+00   -1.141E+00   -1.138E+00   -1.135E+00   -1.132E+00   -1.129E+00
    -1.125E+00   -1.122E+00   -1.119E+00   -1.115E+00   -1.112E+00   -1.108E+00   -1.105E+00   -1.101E+00   -1.098E+00   -1.094E+00
    -1.091E+00   -1.087E+00   -1.084E+00   -1.080E+00   -1.076E+00   -1.073E+00   -1.069E+00   -1.065E+00   -1.062E+00   -1.058E+00
    -1.054E+00   -1.050E+00   -1.046E+00   -1.042E+00   -1.039E+00   -1.035E+00   -1.031E+00   -1.027E+00   -1.023E+00   -1.019E+00
    -1.015E+00   -1.011E+00   -1.007E+00   -1.003E+00   -9.990E-01   -9.950E-01   -9.909E-01   -9.868E-01   -9.827E-01   -9.786E-01
    -9.744E-01   -9.703E-01   -9.661E-01   -9.620E-01   -9.578E-01   -9.535E-01   -9.493E-01   -9.451E-01   -9.408E-01   -9.366E-01
    -9.323E-01   -9.280E-01   -9.237E-01   -9.194E-01   -9.150E-01   -9.107E-01   -9.063E-01   -9.020E-01   -8.976E-01   -8.932E-01
    -8.888E-01   -8.844E-01   -8.799E-01   -8.755E-01   -8.710E-01   -8.666E-01   -8.621E-01   -8.576E-01   -8.531E-01   -8.486E-01
    -8.441E-01   -8.395E-01   -8.350E-01   -8.305E-01   -8.259E-01   -8.213E-01   -8.168E-01   -8.122E-01   -8.076E-01   -8.030E-01
    -7.984E-01   -7.938E-01   -7.891E-01   -7.845E-01   -7.799E-01   -7.752E-01   -7.706E-01   -7.659E-01   -7.612E-01   -7.566E-01
    -7.519E-01   -7.472E-01   -7.425E-01   -7.378E-01   -7.331E-01   -7.284E-01   -7.237E-01   -7.190E-01   -7.143E-01   -7.096E-01
    -7.048E-01   -7.001E-01   -6.954E-01   -6.906E-01   -6.859E-01   -6.812E-01   -6.764E-01   -6.717E-01   -6.669E-01   -6.622E-01
    -6.574E-01   -6.527E-01   -6.479E-01   -6.432E-01   -6.384E-01   -6.337E-01   -6.289E-01   -6.242E-01   -6.195E-01   -6.147E-01
    -6.100E-01   -6.052E-01   -6.005E-01   -5.957E-01   -5.910E-01   -5.862E-01   -5.815E-01   -5.768E-01   -5.720E-01   -5.673E-01
    -5.626E-01   -5.578E-01   -5.531E-01   -5.484E-01   -5.437E-01   -5.389E-01   -5.342E-01   -5.295E-01   -5.248E-01   -5.201E-01
    -5.153E-01   -5.106E-01   -5.059E-01   -5.012E-01   -4.965E-01   -4.917E-01   -4.870E-01   -4.823E-01   -4.776E-01   -4.729E-01
    -4.681E-01   -4.634E-01   -4.587E-01   -4.540E-01   -4.493E-01   -4.446E-01   -4.398E-01   -4.351E-01   -4.304E-01   -4.257E-01
    -4.210E-01   -4.163E-01   -4.115E-01   -4.068E-01   -4.021E-01   -3.974E-01   -3.926E-01   -3.879E-01
 Ala      Conc. = 1.37E+02
