 LCModel (Version 6.3-1L) Copyright: S.W. Provencher.          Ref.: Magn. Reson. Med. 30:672-679 (1993).                
 Slice#3 Row#1 Col#4  K_02_press_1_raw_act
 36 lines in following concentration table = NCONC+1
    Conc.  %SD /Cr+PCr  Metabolite                                         
  176.429  40%   2.497 Ala                                                 
   11.937 164%   0.169 Asp                                                 
    0.000 999%   0.000 Cr                                                  
   70.661  38%   1.000 PCr                                                 
    5.299 224% 7.5E-02 GABA                                                
    4.399 272% 6.2E-02 Glc                                                 
   93.178  65%   1.319 Gln                                                 
   58.748 130%   0.831 Glu                                                 
   12.338  85%   0.175 GPC                                                 
    6.797 155% 9.6E-02 PCh                                                 
   43.825  55%   0.620 GSH                                                 
  142.029  62%   2.010 Ins                                                 
   37.835 110%   0.535 Lac                                                 
   82.314  40%   1.165 NAA                                                 
   42.557  49%   0.602 NAAG                                                
    3.541 103% 5.0E-02 Scyllo                                              
    7.544 246%   0.107 Tau                                                 
    0.000 999%   0.000 -CrCH2                                              
   19.135  45%   0.271 GPC+PCh                                             
  124.872  35%   1.767 NAA+NAAG                                            
   70.661  38%   1.000 Cr+PCr                                              
  151.926  72%   2.150 Glu+Gln                                             
 1.13E+04   6% 160.453 Lip13a                                              
 1.40E+03   8%  19.829 Lip13b                                              
  895.898  28%  12.679-Lip09                                               
    6.369 757% 9.0E-02 MM09                                                
   86.522 240%   1.224-Lip20                                               
    0.000 999%   0.000 MM20                                                
    3.973 612% 5.6E-02 MM12                                                
   38.493 242%   0.545 MM14                                                
   91.869  63%   1.300 MM17                                                
 1.27E+04   6% 180.283 Lip13a+Lip13b                                       
 1.28E+04   6% 180.884 MM14+Lip13a+Lip13b+MM12                             
  902.267  27%  12.769 MM09+Lip09                                          
   86.522 240%   1.224 MM20+Lip20                                          
   6 lines in following misc. output table
  FWHM = 0.084 ppm    S/N =  10                                            
  Data shift =-0.015 ppm                                                   
  Ph: -30 deg     -27.3 deg/ppm                                            
  alphaB,S = 9.1E-01,   3.7E-01                                            
   14 spline knots.   Ns =10(1)                                            
  (12)11 infls.   (12)12 extrs.                                            
  498 points on ppm-axis = NY
      4.000000     3.992357     3.984714     3.977070     3.969427     3.961784     3.954141     3.946497     3.938854     3.931211
      3.923568     3.915925     3.908281     3.900638     3.892995     3.885352     3.877708     3.870065     3.862422     3.854779
      3.847136     3.839492     3.831849     3.824206     3.816563     3.808919     3.801276     3.793633     3.785990     3.778347
      3.770703     3.763060     3.755417     3.747774     3.740130     3.732487     3.724844     3.717201     3.709558     3.701914
      3.694271     3.686628     3.678985     3.671341     3.663698     3.656055     3.648412     3.640769     3.633125     3.625482
      3.617839     3.610196     3.602552     3.594909     3.587266     3.579623     3.571980     3.564336     3.556693     3.549050
      3.541407     3.533763     3.526120     3.518477     3.510834     3.503191     3.495547     3.487904     3.480261     3.472618
      3.464974     3.457331     3.449688     3.442045     3.434402     3.426758     3.419115     3.411472     3.403829     3.396185
      3.388542     3.380899     3.373256     3.365613     3.357969     3.350326     3.342683     3.335040     3.327396     3.319753
      3.312110     3.304467     3.296824     3.289180     3.281537     3.273894     3.266251     3.258607     3.250964     3.243321
      3.235678     3.228034     3.220391     3.212748     3.205105     3.197462     3.189818     3.182175     3.174532     3.166889
      3.159245     3.151602     3.143959     3.136316     3.128673     3.121029     3.113386     3.105743     3.098100     3.090456
      3.082813     3.075170     3.067527     3.059884     3.052240     3.044597     3.036954     3.029311     3.021667     3.014024
      3.006381     2.998738     2.991095     2.983451     2.975808     2.968165     2.960522     2.952878     2.945235     2.937592
      2.929949     2.922306     2.914662     2.907019     2.899376     2.891733     2.884089     2.876446     2.868803     2.861160
      2.853517     2.845873     2.838230     2.830587     2.822944     2.815300     2.807657     2.800014     2.792371     2.784728
      2.777084     2.769441     2.761798     2.754155     2.746511     2.738868     2.731225     2.723582     2.715939     2.708295
      2.700652     2.693009     2.685366     2.677722     2.670079     2.662436     2.654793     2.647150     2.639506     2.631863
      2.624220     2.616577     2.608933     2.601290     2.593647     2.586004     2.578361     2.570717     2.563074     2.555431
      2.547788     2.540144     2.532501     2.524858     2.517215     2.509572     2.501928     2.494285     2.486642     2.478999
      2.471355     2.463712     2.456069     2.448426     2.440783     2.433139     2.425496     2.417853     2.410210     2.402566
      2.394923     2.387280     2.379637     2.371994     2.364350     2.356707     2.349064     2.341421     2.333777     2.326134
      2.318491     2.310848     2.303205     2.295561     2.287918     2.280275     2.272632     2.264988     2.257345     2.249702
      2.242059     2.234416     2.226772     2.219129     2.211486     2.203843     2.196199     2.188556     2.180913     2.173270
      2.165627     2.157983     2.150340     2.142697     2.135054     2.127410     2.119767     2.112124     2.104481     2.096838
      2.089194     2.081551     2.073908     2.066265     2.058621     2.050978     2.043335     2.035692     2.028049     2.020405
      2.012762     2.005119     1.997476     1.989833     1.982190     1.974546     1.966903     1.959260     1.951617     1.943974
      1.936331     1.928688     1.921045     1.913402     1.905759     1.898115     1.890472     1.882829     1.875186     1.867543
      1.859900     1.852257     1.844614     1.836971     1.829327     1.821684     1.814041     1.806398     1.798755     1.791112
      1.783469     1.775826     1.768183     1.760540     1.752896     1.745253     1.737610     1.729967     1.722324     1.714681
      1.707038     1.699395     1.691752     1.684108     1.676465     1.668822     1.661179     1.653536     1.645893     1.638250
      1.630607     1.622964     1.615321     1.607677     1.600034     1.592391     1.584748     1.577105     1.569462     1.561819
      1.554176     1.546533     1.538890     1.531246     1.523603     1.515960     1.508317     1.500674     1.493031     1.485388
      1.477745     1.470102     1.462458     1.454815     1.447172     1.439529     1.431886     1.424243     1.416600     1.408957
      1.401314     1.393671     1.386027     1.378384     1.370741     1.363098     1.355455     1.347812     1.340169     1.332526
      1.324883     1.317240     1.309596     1.301953     1.294310     1.286667     1.279024     1.271381     1.263738     1.256095
      1.248452     1.240808     1.233165     1.225522     1.217879     1.210236     1.202593     1.194950     1.187307     1.179664
      1.172021     1.164377     1.156734     1.149091     1.141448     1.133805     1.126162     1.118519     1.110876     1.103233
      1.095590     1.087946     1.080303     1.072660     1.065017     1.057374     1.049731     1.042088     1.034445     1.026802
      1.019158     1.011515     1.003872     0.996229     0.988586     0.980943     0.973300     0.965657     0.958014     0.950371
      0.942727     0.935084     0.927441     0.919798     0.912155     0.904512     0.896869     0.889226     0.881583     0.873940
      0.866296     0.858653     0.851010     0.843367     0.835724     0.828081     0.820438     0.812795     0.805152     0.797508
      0.789865     0.782222     0.774579     0.766936     0.759293     0.751650     0.744007     0.736364     0.728721     0.721077
      0.713434     0.705791     0.698148     0.690505     0.682862     0.675219     0.667576     0.659933     0.652290     0.644646
      0.637003     0.629360     0.621717     0.614074     0.606431     0.598788     0.591145     0.583502     0.575858     0.568215
      0.560572     0.552929     0.545286     0.537643     0.530000     0.522357     0.514714     0.507071     0.499427     0.491784
      0.484141     0.476498     0.468855     0.461212     0.453569     0.445925     0.438282     0.430639     0.422996     0.415353
      0.407710     0.400067     0.392424     0.384780     0.377137     0.369494     0.361851     0.354208     0.346565     0.338922
      0.331278     0.323635     0.315992     0.308349     0.300706     0.293063     0.285420     0.277777     0.270133     0.262490
      0.254847     0.247204     0.239561     0.231918     0.224275     0.216631     0.208988     0.201345
 NY phased data points follow
   7.96763E+00  7.50722E+00  7.10522E+00  5.02564E+00  5.22149E+00  2.82219E+00  5.22309E+00  9.73993E+00  3.70325E+00  4.53636E+00
   1.03157E+01  6.79261E+00  5.54390E+00  6.62758E+00  7.32249E+00  6.93555E+00  4.94979E+00  1.00946E+01  6.95629E+00  8.87093E+00
   8.97133E+00  9.47477E+00  9.28054E+00  9.37939E+00  5.95033E+00  5.75689E+00  7.67674E+00  7.62877E+00  7.71275E+00  5.26668E+00
   6.34695E+00  1.46160E+00  2.51169E+00  7.85103E+00  7.71594E+00  4.53331E+00  6.01149E+00  8.01835E+00  2.07507E+00  6.85572E+00
   6.29217E+00  8.40252E+00  4.65303E+00  2.35589E+00  8.71830E+00  9.71445E+00  4.49478E+00  8.95380E+00  7.34244E+00  2.88652E+00
   8.52636E+00  7.16892E+00  2.63623E+00  3.03799E+00  8.48061E+00  5.15002E+00  6.64703E+00  6.37303E+00  6.41888E+00  7.05050E+00
   7.76661E+00  3.68357E+00  7.09850E+00  8.35605E+00  5.99517E+00  8.34274E+00  5.65882E+00  4.21323E+00  2.11508E+00  4.01676E+00
   8.28181E+00  3.16743E+00  7.76876E+00  5.04315E+00  2.62831E+00  3.93279E+00  7.44501E+00  3.24407E+00  3.97010E+00  5.01481E+00
   2.32662E+00  6.95088E+00  4.38405E+00  5.17832E+00  3.81394E+00  5.42704E+00  1.98806E+00  5.52388E+00  6.99235E+00  3.36981E-01
   2.34976E+00  7.31935E+00  1.10872E+00  3.36620E+00  6.01820E+00  3.63909E+00  5.16431E+00  5.43915E+00 -1.06088E+00 -1.14863E+00
   4.02633E+00  4.37183E+00  6.47230E-01  5.67888E+00  4.95576E+00  5.12781E+00  2.06427E+00  2.51582E+00  6.06049E+00  7.12206E+00
   6.02935E+00  7.02867E+00  5.94309E+00  6.79671E+00  4.51439E+00  4.33817E+00  8.13066E+00  4.64320E+00  1.85311E+00  4.26635E+00
   3.13110E+00  3.05279E+00  3.12656E+00  1.27754E+00  2.94324E+00  1.87505E+00  5.80213E+00  5.15630E-01  3.75089E+00  3.38224E+00
   2.77262E+00  6.50265E+00  5.94413E+00  5.27329E+00  6.53089E+00  8.12927E+00  7.57435E+00  7.80808E+00  5.91624E+00  7.58720E+00
   2.68088E+00  9.89695E+00  9.87448E+00  7.15927E+00  1.98996E+00  7.03635E+00  2.80661E+00  6.07818E+00  4.78002E+00  7.07836E+00
   5.34930E+00  6.83492E+00  4.11537E+00  3.27056E+00  4.16677E+00  5.61125E+00  6.52679E+00  2.69921E+00  3.21783E+00  6.82069E+00
   3.84749E+00  4.79502E+00  8.22026E+00  3.92566E+00  1.31724E+00  5.04851E+00  5.81041E+00  2.90135E+00  1.49339E+00  5.56252E+00
   4.89257E+00  8.78461E-01  1.15090E+00  5.64202E+00  8.29848E-02  3.67152E+00  5.23993E+00  5.97244E+00  4.53485E+00  2.95776E-01
   1.72920E+00  4.01800E+00  3.14639E+00  1.48677E+00  1.89860E+00  2.73799E+00  3.18962E+00  3.32220E+00  1.82588E+00  4.11643E+00
   2.07768E+00  1.98118E+00  1.87473E+00  6.29790E+00  4.56481E+00  1.84301E+00  6.34057E-01  9.01150E-01  2.47664E+00  4.33086E+00
   1.03109E+00  1.38540E+00  4.39393E+00  1.80739E+00  3.78028E+00  3.83295E+00  1.97446E+00  1.49027E+00  3.94537E+00  2.52753E+00
   8.14459E-01  3.28467E+00  6.96835E+00  2.64145E+00  5.66481E-01  5.77294E+00  4.73821E+00  8.48618E-01  3.97848E+00  7.91831E+00
   3.12738E+00  4.51773E+00  1.87533E+00  5.88948E+00  2.09570E+00  6.09487E+00  7.56275E+00  3.51594E+00  6.26574E+00  3.51912E+00
   5.63802E+00  7.12882E+00  6.31354E+00  4.36461E+00  5.43054E+00  1.82795E+00  3.93741E+00  5.05105E+00  6.52302E+00  5.27759E+00
   6.52723E+00  7.52316E+00  3.78764E+00  5.60800E+00  6.27056E+00  6.88380E+00  5.55573E+00  7.08333E+00  5.07057E+00  4.65609E+00
   3.02328E+00  1.86890E+00  7.32866E+00  7.90872E+00  6.02961E+00  3.67750E+00  4.04378E+00  7.06470E+00  5.84943E+00  6.93499E+00
   9.93767E+00  1.24399E+01  1.01483E+01  1.26206E+01  1.03509E+01  1.20483E+01  1.23153E+01  1.49124E+01  1.26371E+01  1.26492E+01
   1.50164E+01  1.26296E+01  7.69946E+00  1.56206E+01  1.58759E+01  1.04903E+01  1.11397E+01  1.13512E+01  9.42714E+00  1.09601E+01
   9.04751E+00  1.51265E+01  1.42093E+01  5.97322E+00  1.11717E+01  1.05534E+01  1.08649E+01  1.06234E+01  1.42604E+01  8.95812E+00
   1.20732E+01  1.23384E+01  1.09269E+01  1.20357E+01  1.31999E+01  1.61735E+01  1.18449E+01  1.34132E+01  1.24362E+01  1.09340E+01
   1.47946E+01  1.57995E+01  1.23288E+01  1.35079E+01  1.87298E+01  1.61556E+01  1.54760E+01  1.44572E+01  1.95497E+01  1.50962E+01
   1.75022E+01  1.98527E+01  1.82289E+01  1.87983E+01  1.63856E+01  1.49372E+01  1.89710E+01  1.97307E+01  1.88402E+01  2.16713E+01
   2.05304E+01  2.10353E+01  2.06449E+01  2.68340E+01  2.33313E+01  1.92546E+01  2.51423E+01  2.89087E+01  2.59825E+01  2.66530E+01
   2.83378E+01  2.46665E+01  2.46450E+01  2.86099E+01  2.43992E+01  2.78713E+01  2.89260E+01  2.63356E+01  2.44687E+01  2.81902E+01
   2.30934E+01  3.13846E+01  3.38843E+01  3.24464E+01  3.29411E+01  3.93421E+01  4.05839E+01  4.09598E+01  4.22207E+01  4.58928E+01
   4.85683E+01  4.79537E+01  5.54226E+01  5.25644E+01  5.25535E+01  5.39062E+01  5.12560E+01  4.78814E+01  4.85153E+01  4.57609E+01
   3.88113E+01  3.50880E+01  3.31947E+01  3.16747E+01  3.29713E+01  3.20425E+01  2.72102E+01  2.31700E+01  2.18118E+01  2.16201E+01
   2.00967E+01  2.00815E+01  2.14178E+01  1.82752E+01  1.77633E+01  1.65809E+01  1.46610E+01  1.16415E+01  1.57364E+01  1.18619E+01
   1.37260E+01  1.20791E+01  1.09464E+01  1.30393E+01  1.23061E+01  1.04056E+01  1.33713E+01  1.45652E+01  1.56479E+01  9.97839E+00
   9.72794E+00  1.24457E+01  6.83776E+00  9.73807E+00  1.04534E+01  1.10754E+01  8.40489E+00  6.09252E+00  8.07753E+00  7.81111E+00
   8.16498E+00  9.27597E+00  7.47756E+00  5.63218E+00  9.59655E+00  4.90874E+00  7.57670E+00  8.49329E+00  7.22823E+00  5.70964E+00
   9.07372E+00  5.02543E+00  2.28293E+00  6.42433E+00  2.78374E+00  3.54542E+00  4.72612E+00  1.84966E+00  3.63958E+00  3.45274E+00
   4.60311E+00  4.21803E+00  3.95987E+00  4.80922E+00  4.87049E+00  4.93520E+00  2.80847E+00  5.34324E+00  2.35414E+00  5.32307E+00
   3.82675E+00  4.51747E+00  3.77012E+00  2.88210E+00  3.92741E+00  3.14548E+00  4.31443E-01  2.23758E+00  4.01323E+00  4.13486E+00
   2.29427E-02  1.84640E+00  4.61934E+00  2.18875E+00  2.85176E+00  1.86360E+00  3.76654E+00  3.57346E-01  3.55167E+00  2.15720E+00
   3.98654E+00  2.94888E+00  4.21470E+00  4.65345E+00  1.18412E+00  2.76026E+00  2.48158E+00  2.54953E+00  5.50443E+00  2.84848E+00
  -3.06946E-01  3.77420E+00  1.34457E+00  1.54880E+00  1.42753E+00  3.25735E+00  1.12775E+00  3.15589E+00  2.20794E+00  3.08208E+00
   8.28940E-01 -9.46246E-01  2.38197E+00  1.43092E+00  1.26294E+00  4.38876E+00  3.44758E+00  3.82055E+00  2.64241E+00  2.51670E+00
   1.51335E+00  1.86632E+00  3.18743E+00  2.02657E+00  2.35515E+00 -1.28553E+00  1.64516E+00  2.03688E+00  1.98833E+00  2.30763E-01
   2.12908E+00  1.94639E+00 -9.52156E-01  3.05476E+00  4.73129E+00 -2.60875E+00  3.40434E+00  3.61491E+00
 NY points of the fit to the data follow
   6.49335E+00  6.23815E+00  7.30674E+00  7.93651E+00  6.94236E+00  4.50686E+00  5.35972E+00  6.60844E+00  5.32384E+00  4.17565E+00
   6.73084E+00  6.06415E+00  4.48551E+00  6.88595E+00  7.35662E+00  5.07530E+00  6.86663E+00  8.68581E+00  6.94610E+00  7.16750E+00
   7.87134E+00  8.32431E+00  7.83234E+00  6.97072E+00  5.55941E+00  5.24379E+00  6.58747E+00  5.88599E+00  4.52162E+00  4.76710E+00
   6.76902E+00  5.69115E+00  5.15138E+00  6.94138E+00  6.80681E+00  5.24864E+00  6.45673E+00  6.42063E+00  4.49039E+00  6.15718E+00
   8.74665E+00  7.00689E+00  5.38335E+00  5.98865E+00  6.81026E+00  6.08171E+00  5.25075E+00  5.77872E+00  5.97677E+00  5.18746E+00
   5.30783E+00  5.82782E+00  5.62561E+00  5.84022E+00  6.33154E+00  6.23444E+00  6.24935E+00  6.80948E+00  6.85772E+00  6.23763E+00
   5.49473E+00  4.92460E+00  5.00824E+00  5.28104E+00  5.00073E+00  5.22734E+00  5.36702E+00  5.12358E+00  5.27196E+00  5.69285E+00
   5.45299E+00  5.25659E+00  5.36538E+00  4.95637E+00  4.65876E+00  4.90956E+00  5.06736E+00  4.85581E+00  5.22548E+00  5.46015E+00
   5.13975E+00  5.11363E+00  5.26366E+00  5.45321E+00  5.26145E+00  5.04213E+00  5.02556E+00  5.22843E+00  4.81019E+00  4.67481E+00
   4.97634E+00  4.59636E+00  4.28848E+00  4.02908E+00  4.20820E+00  4.24312E+00  4.57857E+00  4.35014E+00  1.83812E+00  1.98908E+00
   4.10905E+00  3.46992E+00  2.46933E+00  4.73802E+00  5.03698E+00  3.17956E+00  4.67707E+00  5.90545E+00  4.27618E+00  4.61603E+00
   6.65045E+00  6.07181E+00  5.83561E+00  7.55845E+00  7.32118E+00  5.62750E+00  4.66482E+00  3.79848E+00  3.12187E+00  4.22030E+00
   3.93434E+00  4.08138E+00  2.84827E+00 -8.20294E-02  2.89986E+00  4.22685E+00  1.83600E+00  2.13090E+00  5.83555E+00  3.01359E+00
   2.91761E+00  6.35213E+00  5.72070E+00  4.03369E+00  6.93333E+00  7.65351E+00  5.80714E+00  7.63187E+00  8.92062E+00  6.64215E+00
   5.17224E+00  4.49433E+00  4.32093E+00  4.39722E+00  4.07147E+00  3.79232E+00  3.69049E+00  3.68852E+00  3.93964E+00  4.24204E+00
   4.32083E+00  4.36893E+00  4.31584E+00  4.15357E+00  3.92578E+00  3.94317E+00  4.20788E+00  4.01497E+00  3.82764E+00  4.02817E+00
   3.88438E+00  3.68847E+00  3.84845E+00  3.87849E+00  3.67039E+00  3.91722E+00  3.94749E+00  3.70170E+00  3.76388E+00  3.85563E+00
   3.64873E+00  3.79106E+00  3.87150E+00  3.56483E+00  3.69606E+00  3.94024E+00  3.73932E+00  3.68472E+00  3.74988E+00  3.44752E+00
   3.50579E+00  3.63392E+00  3.62412E+00  3.57439E+00  3.50237E+00  3.23515E+00  3.28223E+00  3.33558E+00  3.50515E+00  3.71071E+00
   3.61763E+00  3.63372E+00  4.10316E+00  4.04967E+00  3.63584E+00  4.09051E+00  4.11666E+00  3.55192E+00  3.96798E+00  4.70998E+00
   4.16585E+00  3.86775E+00  4.51753E+00  4.11825E+00  3.83087E+00  5.22594E+00  4.44552E+00  3.59051E+00  5.08440E+00  5.66364E+00
   4.04877E+00  4.65045E+00  6.11124E+00  4.53788E+00  3.98338E+00  5.17311E+00  4.74038E+00  3.67975E+00  4.46260E+00  4.34148E+00
   3.77036E+00  4.84547E+00  5.58991E+00  5.57569E+00  5.63473E+00  5.82847E+00  6.10945E+00  5.69997E+00  5.20318E+00  5.03551E+00
   5.41493E+00  5.57355E+00  5.04795E+00  5.65393E+00  6.30109E+00  6.22037E+00  5.67397E+00  6.61645E+00  7.03291E+00  5.90812E+00
   5.93239E+00  6.95921E+00  6.34960E+00  5.70132E+00  7.19636E+00  6.81705E+00  5.15406E+00  6.74955E+00  7.33793E+00  6.05919E+00
   4.25909E+00  3.77921E+00  6.75711E+00  6.50060E+00  5.75296E+00  3.83706E+00  5.63442E+00  8.21792E+00  7.37086E+00  7.37040E+00
   1.03198E+01  1.11994E+01  9.02398E+00  1.19901E+01  1.38119E+01  1.17923E+01  1.23330E+01  1.47385E+01  1.24410E+01  1.06998E+01
   1.37863E+01  1.34845E+01  9.82408E+00  8.88836E+00  8.89774E+00  8.93026E+00  9.02940E+00  9.16384E+00  9.28650E+00  9.42815E+00
   9.57674E+00  9.72942E+00  9.90786E+00  1.00973E+01  1.02300E+01  1.03794E+01  1.05436E+01  1.06344E+01  1.07922E+01  1.10369E+01
   1.12132E+01  1.13677E+01  1.16207E+01  1.18507E+01  1.20366E+01  1.22494E+01  1.24791E+01  1.26805E+01  1.29120E+01  1.31452E+01
   1.33827E+01  1.36275E+01  1.38767E+01  1.41251E+01  1.43706E+01  1.45969E+01  1.48447E+01  1.51089E+01  1.53560E+01  1.56124E+01
   1.58921E+01  1.61656E+01  1.64373E+01  1.67041E+01  1.69493E+01  1.71370E+01  1.71672E+01  1.76984E+01  1.97882E+01  1.92174E+01
   1.93427E+01  1.88697E+01  1.88093E+01  2.46875E+01  2.43708E+01  2.06452E+01  2.44451E+01  2.86761E+01  2.42466E+01  2.61528E+01
   2.57377E+01  2.38569E+01  2.57784E+01  2.85821E+01  2.51400E+01  2.75169E+01  2.95107E+01  2.60603E+01  2.62437E+01  2.88538E+01
   2.70757E+01  3.03264E+01  3.50987E+01  3.52929E+01  3.72422E+01  4.17141E+01  4.28762E+01  4.31499E+01  4.33699E+01  4.46720E+01
   4.66550E+01  4.86671E+01  5.03546E+01  5.20764E+01  5.26496E+01  5.29470E+01  5.19860E+01  4.98873E+01  4.73187E+01  4.41864E+01
   4.03021E+01  3.75056E+01  3.49036E+01  3.13806E+01  2.89257E+01  2.74989E+01  2.53658E+01  2.33975E+01  2.20276E+01  2.09623E+01
   2.00719E+01  1.92882E+01  1.85695E+01  1.78913E+01  1.72408E+01  1.66130E+01  1.60071E+01  1.54250E+01  1.48691E+01  1.43418E+01
   1.38448E+01  1.33793E+01  1.29460E+01  1.25448E+01  1.21753E+01  1.18363E+01  1.15262E+01  1.12430E+01  1.09846E+01  1.07484E+01
   1.05317E+01  1.03315E+01  1.01447E+01  9.96806E+00  9.79859E+00  9.63321E+00  9.46902E+00  9.30324E+00  9.13336E+00  8.95724E+00
   8.77318E+00  8.57990E+00  8.37655E+00  8.16269E+00  7.93835E+00  7.70409E+00  7.46089E+00  7.21011E+00  6.95333E+00  6.69235E+00
   6.42916E+00  6.16587E+00  5.90460E+00  5.64739E+00  5.39611E+00  5.15240E+00  4.91776E+00  4.69351E+00  4.48064E+00  4.27986E+00
   4.09165E+00  3.91619E+00  3.75351E+00  3.60351E+00  3.46588E+00  3.34013E+00  3.22566E+00  3.12186E+00  3.02806E+00  2.94360E+00
   2.86778E+00  2.79987E+00  2.73915E+00  2.68500E+00  2.63683E+00  2.59409E+00  2.55624E+00  2.52275E+00  2.49317E+00  2.46710E+00
   2.44422E+00  2.42418E+00  2.40669E+00  2.39143E+00  2.37815E+00  2.36669E+00  2.35686E+00  2.34849E+00  2.34138E+00  2.33540E+00
   2.33041E+00  2.32633E+00  2.32309E+00  2.32059E+00  2.31868E+00  2.31732E+00  2.31645E+00  2.31605E+00  2.31606E+00  2.31640E+00
   2.31702E+00  2.31789E+00  2.31898E+00  2.32029E+00  2.32180E+00  2.32342E+00  2.32514E+00  2.32694E+00  2.32885E+00  2.33081E+00
   2.33284E+00  2.33488E+00  2.33690E+00  2.33893E+00  2.34099E+00  2.34303E+00  2.34504E+00  2.34700E+00  2.34890E+00  2.35076E+00
   2.35259E+00  2.35436E+00  2.35605E+00  2.35766E+00  2.35919E+00  2.36065E+00  2.36204E+00  2.36335E+00  2.36455E+00  2.36564E+00
   2.36663E+00  2.36753E+00  2.36834E+00  2.36903E+00  2.36960E+00  2.37002E+00  2.37031E+00  2.37047E+00
 NY background values follow
     7.888E+00    7.868E+00    7.847E+00    7.826E+00    7.805E+00    7.784E+00    7.763E+00    7.741E+00    7.719E+00    7.697E+00
     7.675E+00    7.652E+00    7.629E+00    7.606E+00    7.583E+00    7.560E+00    7.536E+00    7.513E+00    7.489E+00    7.465E+00
     7.440E+00    7.416E+00    7.391E+00    7.366E+00    7.341E+00    7.316E+00    7.291E+00    7.266E+00    7.240E+00    7.214E+00
     7.188E+00    7.162E+00    7.136E+00    7.109E+00    7.083E+00    7.056E+00    7.029E+00    7.002E+00    6.975E+00    6.948E+00
     6.921E+00    6.893E+00    6.865E+00    6.838E+00    6.810E+00    6.782E+00    6.754E+00    6.726E+00    6.697E+00    6.669E+00
     6.640E+00    6.612E+00    6.583E+00    6.554E+00    6.525E+00    6.497E+00    6.468E+00    6.439E+00    6.409E+00    6.380E+00
     6.351E+00    6.322E+00    6.293E+00    6.264E+00    6.234E+00    6.205E+00    6.176E+00    6.146E+00    6.117E+00    6.088E+00
     6.058E+00    6.029E+00    6.000E+00    5.971E+00    5.942E+00    5.912E+00    5.883E+00    5.854E+00    5.825E+00    5.796E+00
     5.767E+00    5.739E+00    5.710E+00    5.681E+00    5.653E+00    5.624E+00    5.596E+00    5.568E+00    5.540E+00    5.512E+00
     5.484E+00    5.456E+00    5.429E+00    5.401E+00    5.374E+00    5.347E+00    5.319E+00    5.293E+00    5.266E+00    5.239E+00
     5.213E+00    5.186E+00    5.160E+00    5.134E+00    5.108E+00    5.082E+00    5.057E+00    5.031E+00    5.006E+00    4.981E+00
     4.956E+00    4.931E+00    4.906E+00    4.881E+00    4.857E+00    4.833E+00    4.809E+00    4.785E+00    4.761E+00    4.737E+00
     4.714E+00    4.690E+00    4.667E+00    4.644E+00    4.621E+00    4.599E+00    4.576E+00    4.554E+00    4.532E+00    4.510E+00
     4.488E+00    4.466E+00    4.444E+00    4.423E+00    4.402E+00    4.381E+00    4.360E+00    4.339E+00    4.319E+00    4.299E+00
     4.278E+00    4.258E+00    4.239E+00    4.219E+00    4.200E+00    4.181E+00    4.162E+00    4.143E+00    4.125E+00    4.107E+00
     4.089E+00    4.072E+00    4.054E+00    4.037E+00    4.021E+00    4.004E+00    3.988E+00    3.972E+00    3.957E+00    3.942E+00
     3.927E+00    3.912E+00    3.898E+00    3.884E+00    3.871E+00    3.858E+00    3.845E+00    3.833E+00    3.821E+00    3.809E+00
     3.798E+00    3.787E+00    3.777E+00    3.767E+00    3.757E+00    3.748E+00    3.740E+00    3.731E+00    3.724E+00    3.716E+00
     3.709E+00    3.703E+00    3.697E+00    3.692E+00    3.687E+00    3.682E+00    3.678E+00    3.674E+00    3.671E+00    3.669E+00
     3.667E+00    3.665E+00    3.664E+00    3.663E+00    3.663E+00    3.663E+00    3.664E+00    3.665E+00    3.667E+00    3.669E+00
     3.672E+00    3.675E+00    3.679E+00    3.683E+00    3.688E+00    3.693E+00    3.698E+00    3.705E+00    3.711E+00    3.718E+00
     3.726E+00    3.734E+00    3.743E+00    3.752E+00    3.761E+00    3.771E+00    3.782E+00    3.793E+00    3.804E+00    3.816E+00
     3.829E+00    3.842E+00    3.855E+00    3.869E+00    3.884E+00    3.899E+00    3.914E+00    3.930E+00    3.946E+00    3.963E+00
     3.981E+00    3.998E+00    4.017E+00    4.035E+00    4.054E+00    4.074E+00    4.093E+00    4.113E+00    4.134E+00    4.155E+00
     4.176E+00    4.197E+00    4.219E+00    4.241E+00    4.263E+00    4.286E+00    4.309E+00    4.332E+00    4.355E+00    4.378E+00
     4.402E+00    4.426E+00    4.450E+00    4.474E+00    4.498E+00    4.523E+00    4.547E+00    4.572E+00    4.597E+00    4.622E+00
     4.646E+00    4.671E+00    4.696E+00    4.721E+00    4.746E+00    4.772E+00    4.797E+00    4.822E+00    4.847E+00    4.871E+00
     4.896E+00    4.921E+00    4.946E+00    4.970E+00    4.995E+00    5.019E+00    5.044E+00    5.068E+00    5.092E+00    5.116E+00
     5.140E+00    5.163E+00    5.187E+00    5.210E+00    5.234E+00    5.257E+00    5.280E+00    5.303E+00    5.325E+00    5.348E+00
     5.370E+00    5.392E+00    5.414E+00    5.436E+00    5.458E+00    5.479E+00    5.500E+00    5.521E+00    5.542E+00    5.562E+00
     5.583E+00    5.603E+00    5.623E+00    5.642E+00    5.662E+00    5.681E+00    5.700E+00    5.719E+00    5.737E+00    5.755E+00
     5.773E+00    5.791E+00    5.808E+00    5.825E+00    5.842E+00    5.858E+00    5.874E+00    5.890E+00    5.906E+00    5.921E+00
     5.936E+00    5.951E+00    5.965E+00    5.980E+00    5.994E+00    6.007E+00    6.021E+00    6.034E+00    6.046E+00    6.059E+00
     6.071E+00    6.083E+00    6.095E+00    6.106E+00    6.118E+00    6.129E+00    6.139E+00    6.150E+00    6.160E+00    6.170E+00
     6.180E+00    6.189E+00    6.198E+00    6.207E+00    6.216E+00    6.225E+00    6.233E+00    6.241E+00    6.249E+00    6.257E+00
     6.264E+00    6.271E+00    6.278E+00    6.285E+00    6.291E+00    6.298E+00    6.304E+00    6.310E+00    6.315E+00    6.321E+00
     6.326E+00    6.331E+00    6.336E+00    6.341E+00    6.346E+00    6.350E+00    6.354E+00    6.358E+00    6.362E+00    6.365E+00
     6.369E+00    6.372E+00    6.375E+00    6.378E+00    6.380E+00    6.383E+00    6.385E+00    6.387E+00    6.389E+00    6.391E+00
     6.393E+00    6.394E+00    6.395E+00    6.396E+00    6.397E+00    6.398E+00    6.398E+00    6.399E+00    6.399E+00    6.399E+00
     6.399E+00    6.398E+00    6.398E+00    6.397E+00    6.396E+00    6.395E+00    6.394E+00    6.393E+00    6.392E+00    6.390E+00
     6.388E+00    6.386E+00    6.384E+00    6.382E+00    6.379E+00    6.377E+00    6.374E+00    6.371E+00    6.368E+00    6.365E+00
     6.362E+00    6.358E+00    6.355E+00    6.351E+00    6.347E+00    6.343E+00    6.339E+00    6.334E+00    6.330E+00    6.325E+00
     6.320E+00    6.315E+00    6.310E+00    6.305E+00    6.300E+00    6.294E+00    6.288E+00    6.282E+00    6.276E+00    6.270E+00
     6.264E+00    6.258E+00    6.251E+00    6.244E+00    6.237E+00    6.230E+00    6.223E+00    6.216E+00    6.208E+00    6.201E+00
     6.193E+00    6.185E+00    6.177E+00    6.169E+00    6.161E+00    6.152E+00    6.144E+00    6.135E+00    6.126E+00    6.117E+00
     6.108E+00    6.099E+00    6.089E+00    6.080E+00    6.070E+00    6.060E+00    6.050E+00    6.040E+00    6.030E+00    6.019E+00
     6.009E+00    5.998E+00    5.988E+00    5.977E+00    5.966E+00    5.955E+00    5.944E+00    5.932E+00    5.921E+00    5.909E+00
     5.898E+00    5.886E+00    5.874E+00    5.862E+00    5.850E+00    5.838E+00    5.826E+00    5.814E+00    5.801E+00    5.789E+00
     5.776E+00    5.763E+00    5.751E+00    5.738E+00    5.725E+00    5.712E+00    5.699E+00    5.686E+00    5.672E+00    5.659E+00
     5.646E+00    5.632E+00    5.619E+00    5.605E+00    5.591E+00    5.578E+00    5.564E+00    5.550E+00
 Ala      Conc. = 1.76E+02
