 LCModel (Version 6.3-1L) Copyright: S.W. Provencher.          Ref.: Magn. Reson. Med. 30:672-679 (1993).                
 Slice#1 Row#1 Col#1  K_02_press_1_raw_act
 36 lines in following concentration table = NCONC+1
    Conc.  %SD /Cr+PCr  Metabolite                                         
   39.210  60%   1.828 Ala                                                 
    2.408 115%   0.112 Asp                                                 
    0.000 999%   0.000 Cr                                                  
   21.448  59%   1.000 PCr                                                 
    1.401 119% 6.5E-02 GABA                                                
    1.394 120% 6.5E-02 Glc                                                 
    0.000 999%   0.000 Gln                                                 
   88.694  56%   4.135 Glu                                                 
    8.517  59%   0.397 GPC                                                 
    0.000 999%   0.000 PCh                                                 
   48.691  45%   2.270 GSH                                                 
   14.549 296%   0.678 Ins                                                 
   22.365  93%   1.043 Lac                                                 
    0.000 999%   0.000 NAA                                                 
    0.000 999%   0.000 NAAG                                                
    0.443 126% 2.1E-02 Scyllo                                              
    2.215 126%   0.103 Tau                                                 
    2.409 258%   0.112 -CrCH2                                              
    8.517  59%   0.397 GPC+PCh                                             
    0.000 999%   0.000 NAA+NAAG                                            
   21.448  59%   1.000 Cr+PCr                                              
   88.694  56%   4.135 Glu+Gln                                             
  837.276  13%  39.038 Lip13a                                              
    0.000 999%   0.000 Lip13b                                              
  218.469  15%  10.186 Lip09                                               
 2.04E-03 999% 9.5E-05 MM09                                                
  114.487  20%   5.338 Lip20                                               
    0.000 999%   0.000 MM20                                                
 7.26E-04 999% 3.4E-05 MM12                                                
 2.94E-02 999% 1.4E-03 MM14                                                
    0.000 999%   0.000 MM17                                                
  837.276  13%  39.038 Lip13a+Lip13b                                       
  837.306  13%  39.039 MM14+Lip13a+Lip13b+MM12                             
  218.471  15%  10.186 MM09+Lip09                                          
  114.487  20%   5.338 MM20+Lip20                                          
   6 lines in following misc. output table
  FWHM = 0.031 ppm    S/N =   1                                            
  Data shift = 0.099 ppm                                                   
  Ph: 132 deg      -4.7 deg/ppm                                            
  alphaB,S = 8.5E+01,   6.4E+00                                            
   14 spline knots.   Ns = 5(1)                                            
   2 inflections.     2 extrema                                            
  498 points on ppm-axis = NY
      4.000000     3.992357     3.984714     3.977070     3.969427     3.961784     3.954141     3.946497     3.938854     3.931211
      3.923568     3.915925     3.908281     3.900638     3.892995     3.885352     3.877708     3.870065     3.862422     3.854779
      3.847136     3.839492     3.831849     3.824206     3.816563     3.808919     3.801276     3.793633     3.785990     3.778347
      3.770703     3.763060     3.755417     3.747774     3.740130     3.732487     3.724844     3.717201     3.709558     3.701914
      3.694271     3.686628     3.678985     3.671341     3.663698     3.656055     3.648412     3.640769     3.633125     3.625482
      3.617839     3.610196     3.602552     3.594909     3.587266     3.579623     3.571980     3.564336     3.556693     3.549050
      3.541407     3.533763     3.526120     3.518477     3.510834     3.503191     3.495547     3.487904     3.480261     3.472618
      3.464974     3.457331     3.449688     3.442045     3.434402     3.426758     3.419115     3.411472     3.403829     3.396185
      3.388542     3.380899     3.373256     3.365613     3.357969     3.350326     3.342683     3.335040     3.327396     3.319753
      3.312110     3.304467     3.296824     3.289180     3.281537     3.273894     3.266251     3.258607     3.250964     3.243321
      3.235678     3.228034     3.220391     3.212748     3.205105     3.197462     3.189818     3.182175     3.174532     3.166889
      3.159245     3.151602     3.143959     3.136316     3.128673     3.121029     3.113386     3.105743     3.098100     3.090456
      3.082813     3.075170     3.067527     3.059884     3.052240     3.044597     3.036954     3.029311     3.021667     3.014024
      3.006381     2.998738     2.991095     2.983451     2.975808     2.968165     2.960522     2.952878     2.945235     2.937592
      2.929949     2.922306     2.914662     2.907019     2.899376     2.891733     2.884089     2.876446     2.868803     2.861160
      2.853517     2.845873     2.838230     2.830587     2.822944     2.815300     2.807657     2.800014     2.792371     2.784728
      2.777084     2.769441     2.761798     2.754155     2.746511     2.738868     2.731225     2.723582     2.715939     2.708295
      2.700652     2.693009     2.685366     2.677722     2.670079     2.662436     2.654793     2.647150     2.639506     2.631863
      2.624220     2.616577     2.608933     2.601290     2.593647     2.586004     2.578361     2.570717     2.563074     2.555431
      2.547788     2.540144     2.532501     2.524858     2.517215     2.509572     2.501928     2.494285     2.486642     2.478999
      2.471355     2.463712     2.456069     2.448426     2.440783     2.433139     2.425496     2.417853     2.410210     2.402566
      2.394923     2.387280     2.379637     2.371994     2.364350     2.356707     2.349064     2.341421     2.333777     2.326134
      2.318491     2.310848     2.303205     2.295561     2.287918     2.280275     2.272632     2.264988     2.257345     2.249702
      2.242059     2.234416     2.226772     2.219129     2.211486     2.203843     2.196199     2.188556     2.180913     2.173270
      2.165627     2.157983     2.150340     2.142697     2.135054     2.127410     2.119767     2.112124     2.104481     2.096838
      2.089194     2.081551     2.073908     2.066265     2.058621     2.050978     2.043335     2.035692     2.028049     2.020405
      2.012762     2.005119     1.997476     1.989833     1.982190     1.974546     1.966903     1.959260     1.951617     1.943974
      1.936331     1.928688     1.921045     1.913402     1.905759     1.898115     1.890472     1.882829     1.875186     1.867543
      1.859900     1.852257     1.844614     1.836971     1.829327     1.821684     1.814041     1.806398     1.798755     1.791112
      1.783469     1.775826     1.768183     1.760540     1.752896     1.745253     1.737610     1.729967     1.722324     1.714681
      1.707038     1.699395     1.691752     1.684108     1.676465     1.668822     1.661179     1.653536     1.645893     1.638250
      1.630607     1.622964     1.615321     1.607677     1.600034     1.592391     1.584748     1.577105     1.569462     1.561819
      1.554176     1.546533     1.538890     1.531246     1.523603     1.515960     1.508317     1.500674     1.493031     1.485388
      1.477745     1.470102     1.462458     1.454815     1.447172     1.439529     1.431886     1.424243     1.416600     1.408957
      1.401314     1.393671     1.386027     1.378384     1.370741     1.363098     1.355455     1.347812     1.340169     1.332526
      1.324883     1.317240     1.309596     1.301953     1.294310     1.286667     1.279024     1.271381     1.263738     1.256095
      1.248452     1.240808     1.233165     1.225522     1.217879     1.210236     1.202593     1.194950     1.187307     1.179664
      1.172021     1.164377     1.156734     1.149091     1.141448     1.133805     1.126162     1.118519     1.110876     1.103233
      1.095590     1.087946     1.080303     1.072660     1.065017     1.057374     1.049731     1.042088     1.034445     1.026802
      1.019158     1.011515     1.003872     0.996229     0.988586     0.980943     0.973300     0.965657     0.958014     0.950371
      0.942727     0.935084     0.927441     0.919798     0.912155     0.904512     0.896869     0.889226     0.881583     0.873940
      0.866296     0.858653     0.851010     0.843367     0.835724     0.828081     0.820438     0.812795     0.805152     0.797508
      0.789865     0.782222     0.774579     0.766936     0.759293     0.751650     0.744007     0.736364     0.728721     0.721077
      0.713434     0.705791     0.698148     0.690505     0.682862     0.675219     0.667576     0.659933     0.652290     0.644646
      0.637003     0.629360     0.621717     0.614074     0.606431     0.598788     0.591145     0.583502     0.575858     0.568215
      0.560572     0.552929     0.545286     0.537643     0.530000     0.522357     0.514714     0.507071     0.499427     0.491784
      0.484141     0.476498     0.468855     0.461212     0.453569     0.445925     0.438282     0.430639     0.422996     0.415353
      0.407710     0.400067     0.392424     0.384780     0.377137     0.369494     0.361851     0.354208     0.346565     0.338922
      0.331278     0.323635     0.315992     0.308349     0.300706     0.293063     0.285420     0.277777     0.270133     0.262490
      0.254847     0.247204     0.239561     0.231918     0.224275     0.216631     0.208988     0.201345
 NY phased data points follow
  -1.65771E+00 -1.43311E+00 -2.03159E+00 -6.53606E-01 -1.48220E+00 -2.18832E+00 -1.84576E+00 -2.14066E+00  1.11601E-01 -3.54432E-01
  -1.11470E+00 -1.52254E+00 -1.17758E+00 -1.32618E+00 -1.69644E+00 -1.92974E+00 -2.51566E+00 -3.94453E-01 -5.38815E-01 -2.23333E+00
   1.18871E+00 -9.30864E-01 -9.85658E-01 -2.27872E+00 -3.24069E+00  1.09804E+00 -2.52533E+00 -1.38886E+00 -1.51766E+00 -1.91223E+00
  -1.16986E-01 -1.62656E+00  1.27135E-01 -1.04480E+00 -7.24814E-01 -6.59493E-01 -8.30542E-01 -6.87352E-02 -3.13310E+00 -9.57663E-01
  -3.57284E-01 -3.88077E+00 -1.49243E+00 -1.03789E+00 -1.84002E+00 -2.57556E+00 -1.07365E+00 -1.07146E+00 -5.43332E-01 -4.29018E-01
  -1.38972E+00 -2.74479E+00 -6.37955E-01 -2.00011E+00 -6.35923E-01 -7.72046E-01  1.04503E+00 -1.39658E+00 -7.46440E-01 -8.53090E-01
  -1.90754E+00 -1.98731E+00 -1.53550E+00 -9.07925E-01  9.84072E-01 -3.72276E+00 -1.55675E+00 -2.00629E+00 -1.56328E+00 -7.87923E-01
  -1.15115E+00 -1.29656E+00 -2.29436E+00 -2.03206E+00 -3.60727E-01 -3.25513E+00 -2.57407E+00 -2.53603E+00 -1.69969E+00 -5.12840E-01
  -2.30967E+00 -2.48261E+00 -1.69277E+00 -1.98562E+00 -1.52899E+00 -2.68528E+00 -2.32611E+00 -4.55320E-01 -6.26187E-02 -4.01845E+00
  -2.82856E+00 -1.55059E+00  6.58189E-02 -1.16074E+00 -1.31360E+00 -2.89677E+00 -2.84701E+00 -1.27732E+00 -7.63874E-01 -2.66515E+00
  -2.50627E+00 -3.58092E+00 -1.13757E+00 -7.57062E-01 -1.73413E+00 -4.08186E-01  3.74872E-01  2.16325E-01 -1.42418E+00 -9.97032E-01
  -1.13199E+00 -6.26027E-01 -2.63813E+00 -3.14420E+00 -2.96865E+00 -1.09385E+00 -2.82479E+00  7.50788E-01 -8.71870E-01 -2.32001E+00
  -1.80373E+00 -2.32185E+00 -1.33758E+00 -2.10098E+00 -1.95670E+00 -1.12261E-01 -2.51151E+00 -1.58483E+00  1.36306E+00  2.70844E-01
   6.96333E-01 -2.05765E+00 -4.37948E-01 -1.18575E+00 -2.46647E+00 -5.25596E-01 -4.51095E-01 -1.73799E+00 -1.63037E-01 -1.91365E+00
  -2.69561E+00 -8.83667E-01 -1.52045E+00 -1.78743E+00 -4.31062E-01 -2.69845E-01 -1.41267E-01  3.17785E-02 -1.31099E+00 -1.54046E-01
  -3.57120E+00 -1.52557E+00 -2.08796E+00 -2.02271E+00 -6.60403E-01 -6.29947E-01  8.70043E-01  3.90956E-01 -4.33306E-01  5.67611E-01
  -2.05663E+00 -9.97801E-01 -6.74106E-01 -3.14596E+00 -4.38334E-01  2.90920E-01 -1.29213E+00 -3.90620E+00 -1.36122E+00 -1.44710E+00
   1.12066E+00 -1.75573E+00 -7.07433E-01 -6.10344E-01 -2.29218E+00 -5.88754E-01 -1.53388E+00 -1.51311E+00 -1.70279E+00  1.20649E+00
  -5.33358E-01  9.60316E-01 -5.28273E-01 -2.68341E+00 -7.60444E-01 -1.35338E+00 -1.34005E+00 -1.20315E+00  1.37331E+00  3.35777E-01
  -5.48468E-01 -1.97040E+00 -1.73786E+00  7.61003E-01  2.63691E+00  7.88769E-01 -3.41714E+00 -1.75443E+00 -2.18485E+00 -3.21606E+00
  -2.85357E+00 -1.84447E+00 -1.42237E+00  1.05178E+00 -1.27434E-01 -1.13213E+00 -1.39210E+00 -1.29764E+00 -3.09430E+00  1.19770E+00
  -1.75898E+00 -9.99559E-01 -3.37398E-01 -2.72934E+00 -3.35751E-01 -2.97604E+00 -3.12287E-01 -3.25838E+00 -3.01121E-03  2.55736E-02
  -2.48149E+00  9.94419E-02 -2.84668E+00 -3.69367E+00 -2.30284E+00 -1.64182E+00 -1.00079E-01 -2.63463E+00  9.30333E-01 -2.08611E-01
   9.65559E-01 -2.35384E+00  1.73848E-01  3.07495E-01  1.14310E+00 -3.76634E+00  5.56066E-01  1.05408E+00  8.82394E-01 -1.40102E+00
   6.21250E-01 -1.10294E+00 -2.61007E+00 -2.07441E+00 -1.52108E+00 -4.11191E+00 -2.77214E+00 -1.77034E+00  3.80838E+00 -1.67410E-01
   2.05322E+00 -4.56872E-01 -1.09225E+00 -1.66971E+00 -2.08515E-01 -2.14126E+00 -2.85499E-01 -1.60619E+00 -3.24158E+00 -2.49167E+00
  -1.68997E-01 -4.01296E-01 -3.77583E+00 -2.72125E+00  1.08179E+00 -6.80981E-01 -1.29430E-01 -1.15285E+00 -1.42432E+00 -1.74255E+00
  -2.01890E+00 -2.60055E+00 -3.99113E-01 -1.25653E+00 -1.50196E+00 -1.00253E+00 -1.53956E+00  3.64124E-01 -1.20487E+00 -2.01434E+00
   2.65168E-01 -4.75564E+00  3.14654E-01 -2.20057E+00 -2.31260E+00 -6.09742E-01 -2.56750E+00  6.49446E-02  9.80722E-01 -1.31736E+00
  -2.43691E+00 -2.37257E+00 -2.53887E+00 -1.04105E+00  2.53689E-01 -2.89723E+00 -1.68770E+00  1.35188E+00 -5.52875E-01 -2.22999E-01
  -3.35109E+00  1.58454E+00 -1.51584E+00 -1.30269E+00 -8.04460E-01 -5.33682E-01 -4.47822E-01  1.77321E+00  3.79243E-02  7.06890E-01
  -2.29111E+00 -4.69961E+00 -5.12677E-01 -1.27247E+00 -5.40936E-01  2.04033E+00 -1.69141E+00 -2.26569E+00  1.63793E+00  3.03027E-01
  -8.82082E-01  1.64067E+00 -4.90115E-02  1.36643E+00 -6.54884E-01  5.89978E-01  1.51642E+00  2.24101E+00  2.61518E+00  2.91273E+00
   4.06886E+00  3.38022E+00  2.63019E+00 -1.15214E-01  1.82602E+00  1.80627E+00  9.34735E-01  9.29894E-01  1.38066E+00  1.14233E+00
   1.64656E+00  2.52880E+00  1.90296E+00  4.02395E+00  3.40312E+00  1.55102E+00  4.51232E+00  5.35004E+00  1.74195E+00  3.76484E+00
   1.94929E+00  3.07279E+00  3.30513E+00  3.36079E+00  2.44883E+00  1.27957E+00  2.19874E+00  3.56001E+00  1.14482E+00  3.98797E+00
   3.06938E+00  2.61025E+00  1.58775E+00  3.76744E+00  4.62352E+00  3.10693E+00  1.30003E+00  2.60048E+00  1.21114E+00  3.01873E+00
   5.36747E-01  1.64341E-01 -2.90192E-02  1.75713E+00 -1.38349E+00  4.03491E-02  1.30415E+00  3.62963E+00  3.81406E+00  8.22803E-02
   1.67855E+00  2.51151E-02  2.69580E+00 -4.52006E-01  1.01329E+00  2.72400E+00  1.35964E+00  1.72588E+00  1.60101E+00  2.62451E+00
   9.18885E-01  5.22856E-01  1.78134E+00  4.15843E+00  1.71821E+00  8.26087E-01  8.37685E-01  6.07306E-01  2.18586E+00  1.67335E+00
  -3.29678E-01  4.25436E-01 -2.12885E-01  4.81845E-01  1.92341E+00  1.04095E+00  1.43299E+00 -5.19287E-01  1.11590E+00 -7.35100E-01
   2.17265E+00  1.62263E+00  1.57376E-01  8.72775E-01 -6.57659E-01  5.26854E-01  3.24096E-01  1.37019E+00 -3.04318E-02  3.55366E-01
  -4.26618E-01  6.29507E-01 -8.46637E-02 -1.62751E-02  2.38327E+00 -1.20093E+00  6.84447E-01  5.40133E-01  5.83607E-01  1.79772E+00
   1.64546E+00  3.87379E-01 -3.01936E-02 -8.40861E-02 -4.21054E-01  9.94361E-01  1.29730E-01  8.43248E-01  1.68442E-02  5.21693E-02
   3.01481E+00  1.08755E+00  5.39079E-01  4.11951E+00 -9.15457E-01  8.96295E-01  1.58821E+00  1.10464E+00 -2.07727E-02 -5.13905E-01
  -2.99694E-02 -8.08670E-01 -1.21254E+00  1.65447E+00  1.57499E+00  1.12475E+00 -3.78621E-01  1.02559E+00  2.96539E-02 -7.19659E-01
   2.63981E+00  1.31279E+00 -2.65376E-01  1.39836E+00  1.48610E+00 -3.03545E-01  1.47382E+00 -5.15326E-01  7.59595E-01 -1.01309E+00
  -1.79479E+00  4.26336E-01  7.21933E-02  4.81966E-01 -1.75324E+00  1.01912E-01  7.21298E-01 -9.26298E-02 -2.18723E+00 -7.26680E-01
  -9.70722E-01 -1.08838E+00 -1.34722E+00  2.18928E+00 -1.76728E+00  7.69046E-01  1.12240E+00  1.53099E+00  6.22306E-01  6.26156E-01
   3.27902E-01  1.14382E+00 -2.01428E-01  2.33288E+00  2.58353E+00 -8.94560E-01  1.87393E+00  1.57981E+00
 NY points of the fit to the data follow
  -1.87374E+00 -1.90319E+00 -1.91103E+00 -1.88646E+00 -1.86502E+00 -1.95303E+00 -2.03324E+00 -1.94486E+00 -1.71503E+00 -1.45174E+00
  -1.20446E+00 -1.01951E+00 -1.00462E+00 -1.18569E+00 -1.44575E+00 -1.62821E+00 -1.68158E+00 -1.70483E+00 -1.74038E+00 -1.77510E+00
  -1.76437E+00 -1.72715E+00 -1.71514E+00 -1.68135E+00 -1.51718E+00 -1.36817E+00 -1.66432E+00 -2.07111E+00 -2.04035E+00 -1.61965E+00
  -1.15409E+00 -6.66077E-01 -6.46169E-02  2.86500E-01  9.56522E-02 -4.50137E-01 -9.66441E-01 -1.23312E+00 -1.44811E+00 -1.65957E+00
  -1.79138E+00 -1.78468E+00 -1.69892E+00 -1.63642E+00 -1.61082E+00 -1.59911E+00 -1.57767E+00 -1.52729E+00 -1.47253E+00 -1.42190E+00
  -1.38921E+00 -1.40385E+00 -1.46699E+00 -1.54275E+00 -1.59383E+00 -1.61792E+00 -1.63225E+00 -1.63787E+00 -1.63262E+00 -1.61550E+00
  -1.59040E+00 -1.56178E+00 -1.53578E+00 -1.52449E+00 -1.53351E+00 -1.56036E+00 -1.58861E+00 -1.60292E+00 -1.60554E+00 -1.59891E+00
  -1.58362E+00 -1.56504E+00 -1.55275E+00 -1.54412E+00 -1.53119E+00 -1.51755E+00 -1.50778E+00 -1.50322E+00 -1.50382E+00 -1.50849E+00
  -1.51685E+00 -1.52515E+00 -1.53384E+00 -1.53636E+00 -1.52319E+00 -1.49822E+00 -1.47752E+00 -1.47086E+00 -1.47745E+00 -1.49458E+00
  -1.51784E+00 -1.53584E+00 -1.53892E+00 -1.52408E+00 -1.50003E+00 -1.48008E+00 -1.46534E+00 -1.43808E+00 -1.40040E+00 -1.55603E+00
  -1.79958E+00 -1.77408E+00 -1.41943E+00 -9.26462E-01 -4.34537E-01 -1.99881E-02  1.23023E-01 -1.27322E-01 -6.33353E-01 -1.10619E+00
  -1.31467E+00 -1.36025E+00 -1.37245E+00 -1.37542E+00 -1.37673E+00 -1.37517E+00 -1.36261E+00 -1.34399E+00 -1.33141E+00 -1.32654E+00
  -1.32701E+00 -1.32039E+00 -1.35730E+00 -1.55632E+00 -1.68600E+00 -1.50955E+00 -1.10036E+00 -6.40882E-01 -2.20531E-01  2.98116E-02
  -5.43667E-02 -3.49014E-01 -6.18462E-01 -7.21283E-01 -6.46310E-01 -6.16594E-01 -7.58509E-01 -1.08601E+00 -1.48540E+00 -1.74067E+00
  -1.71306E+00 -1.45192E+00 -1.12644E+00 -8.47926E-01 -6.87635E-01 -6.85529E-01 -7.78826E-01 -8.87988E-01 -9.56278E-01 -9.77331E-01
  -9.81105E-01 -9.77119E-01 -9.85527E-01 -1.01471E+00 -1.04982E+00 -1.07226E+00 -1.07520E+00 -1.06517E+00 -1.04469E+00 -1.02019E+00
  -1.00233E+00 -9.97987E-01 -1.00371E+00 -1.01099E+00 -1.01905E+00 -1.02726E+00 -1.03409E+00 -1.03909E+00 -1.04119E+00 -1.04119E+00
  -1.03896E+00 -1.03100E+00 -1.01881E+00 -1.00906E+00 -1.00443E+00 -1.00608E+00 -1.01577E+00 -1.03344E+00 -1.05445E+00 -1.07277E+00
  -1.08995E+00 -1.08784E+00 -1.07196E+00 -1.06827E+00 -1.08199E+00 -1.11021E+00 -1.16726E+00 -1.25296E+00 -1.31832E+00 -1.29009E+00
  -1.14484E+00 -9.31329E-01 -7.28684E-01 -5.60584E-01 -4.61647E-01 -5.59211E-01 -8.50699E-01 -1.17040E+00 -1.38364E+00 -1.46445E+00
  -1.41848E+00 -1.24338E+00 -1.00963E+00 -8.03598E-01 -6.94662E-01 -6.90157E-01 -6.84501E-01 -6.56249E-01 -6.50906E-01 -7.01138E-01
  -7.99702E-01 -9.09034E-01 -1.09199E+00 -1.22554E+00 -1.12117E+00 -7.85014E-01 -3.74573E-01 -2.91864E-02  2.41629E-01  3.30080E-01
   5.52625E-02 -5.58769E-01 -1.21253E+00 -1.63975E+00 -1.84564E+00 -1.82319E+00 -1.53047E+00 -1.01267E+00 -4.70916E-01 -1.72628E-01
  -1.74696E-01 -3.28627E-01 -5.18936E-01 -7.42201E-01 -9.14906E-01 -8.62962E-01 -5.54618E-01 -1.62958E-01  8.98437E-02  1.59542E-01
   5.53218E-02 -2.78579E-01 -7.68105E-01 -1.15951E+00 -1.27747E+00 -1.15527E+00 -8.83473E-01 -5.19894E-01 -1.69826E-01  1.95920E-02
  -1.15139E-02 -1.84367E-01 -3.79558E-01 -5.32979E-01 -5.90780E-01 -5.32808E-01 -4.32930E-01 -3.77645E-01 -3.84556E-01 -4.24093E-01
  -4.74902E-01 -4.95077E-01 -4.37787E-01 -3.38398E-01 -2.58735E-01 -2.34493E-01 -2.49262E-01 -2.87980E-01 -3.34925E-01 -3.79742E-01
  -4.24969E-01 -4.65279E-01 -4.99502E-01 -5.22155E-01 -5.20809E-01 -4.97342E-01 -4.58231E-01 -4.17704E-01 -3.95222E-01 -3.99099E-01
  -4.17114E-01 -4.35628E-01 -4.52086E-01 -4.65469E-01 -4.71306E-01 -4.68130E-01 -4.59704E-01 -4.51245E-01 -4.44715E-01 -4.38959E-01
  -4.34208E-01 -4.30126E-01 -4.25481E-01 -4.19669E-01 -4.12941E-01 -4.05709E-01 -3.97894E-01 -3.89322E-01 -3.80228E-01 -3.70967E-01
  -3.61424E-01 -3.51272E-01 -3.40279E-01 -3.28421E-01 -3.15759E-01 -3.02303E-01 -2.88125E-01 -2.73384E-01 -2.58111E-01 -2.42107E-01
  -2.24983E-01 -2.06543E-01 -1.86759E-01 -1.65581E-01 -1.42887E-01 -1.18480E-01 -9.21239E-02 -6.35599E-02 -3.24852E-02  1.46209E-03
   3.88860E-02  8.14690E-02  1.32217E-01  1.40349E-01  7.90607E-02  1.94781E-01  5.54240E-01  9.42689E-01  1.18737E+00  1.26284E+00
   1.17182E+00  8.97016E-01  3.65705E-01 -2.03387E-01 -4.21136E-01 -2.10724E-01  1.93430E-01  7.23050E-01  1.37251E+00  1.97685E+00
   2.33759E+00  2.40819E+00  2.33020E+00  2.27896E+00  2.29170E+00  2.46681E+00  2.77249E+00  3.06330E+00  3.25640E+00  3.34520E+00
   3.32604E+00  3.11572E+00  2.74546E+00  2.45201E+00  2.41194E+00  2.55570E+00  2.75250E+00  2.99321E+00  3.22422E+00  3.33109E+00
   3.25560E+00  3.04366E+00  2.82447E+00  2.65242E+00  2.49982E+00  2.35470E+00  2.21394E+00  2.07709E+00  1.94470E+00  1.81764E+00
   1.69679E+00  1.58295E+00  1.47678E+00  1.37879E+00  1.28933E+00  1.20861E+00  1.13670E+00  1.07354E+00  1.01900E+00  9.72863E-01
   9.34902E-01  9.04830E-01  8.82338E-01  8.67087E-01  8.58736E-01  8.56927E-01  8.61294E-01  8.71429E-01  8.86889E-01  9.07181E-01
   9.31773E-01  9.60069E-01  9.91418E-01  1.02509E+00  1.06029E+00  1.09617E+00  1.13185E+00  1.16642E+00  1.19896E+00  1.22857E+00
   1.25440E+00  1.27565E+00  1.29166E+00  1.30187E+00  1.30587E+00  1.30340E+00  1.29437E+00  1.27887E+00  1.25715E+00  1.22959E+00
   1.19672E+00  1.15917E+00  1.11766E+00  1.07294E+00  1.02581E+00  9.77040E-01  9.27398E-01  8.77572E-01  8.28206E-01  7.79853E-01
   7.32992E-01  6.87998E-01  6.45171E-01  6.04716E-01  5.66778E-01  5.31424E-01  4.98671E-01  4.68477E-01  4.40770E-01  4.15446E-01
   3.92387E-01  3.71454E-01  3.52509E-01  3.35400E-01  3.19987E-01  3.06129E-01  2.93698E-01  2.82567E-01  2.72622E-01  2.63750E-01
   2.55857E-01  2.48853E-01  2.42662E-01  2.37206E-01  2.32422E-01  2.28245E-01  2.24627E-01  2.21518E-01  2.18879E-01  2.16665E-01
   2.14845E-01  2.13382E-01  2.12253E-01  2.11429E-01  2.10891E-01  2.10612E-01  2.10577E-01  2.10766E-01  2.11168E-01  2.11767E-01
   2.12551E-01  2.13501E-01  2.14610E-01  2.15865E-01  2.17262E-01  2.18789E-01  2.20441E-01  2.22206E-01  2.24081E-01  2.26056E-01
   2.28132E-01  2.30297E-01  2.32548E-01  2.34878E-01  2.37288E-01  2.39770E-01  2.42326E-01  2.44945E-01  2.47630E-01  2.50371E-01
   2.53171E-01  2.56024E-01  2.58931E-01  2.61885E-01  2.64886E-01  2.67931E-01  2.71021E-01  2.74151E-01  2.77323E-01  2.80529E-01
   2.83774E-01  2.87051E-01  2.90364E-01  2.93707E-01  2.97083E-01  3.00486E-01  3.03921E-01  3.07380E-01
 NY background values follow
    -1.934E+00   -1.930E+00   -1.925E+00   -1.921E+00   -1.916E+00   -1.912E+00   -1.908E+00   -1.903E+00   -1.899E+00   -1.894E+00
    -1.890E+00   -1.886E+00   -1.881E+00   -1.877E+00   -1.872E+00   -1.868E+00   -1.864E+00   -1.859E+00   -1.855E+00   -1.850E+00
    -1.846E+00   -1.842E+00   -1.837E+00   -1.833E+00   -1.828E+00   -1.824E+00   -1.820E+00   -1.815E+00   -1.811E+00   -1.806E+00
    -1.802E+00   -1.798E+00   -1.793E+00   -1.789E+00   -1.784E+00   -1.780E+00   -1.776E+00   -1.771E+00   -1.767E+00   -1.762E+00
    -1.758E+00   -1.754E+00   -1.749E+00   -1.745E+00   -1.740E+00   -1.736E+00   -1.732E+00   -1.727E+00   -1.723E+00   -1.718E+00
    -1.714E+00   -1.710E+00   -1.705E+00   -1.701E+00   -1.696E+00   -1.692E+00   -1.688E+00   -1.683E+00   -1.679E+00   -1.674E+00
    -1.670E+00   -1.666E+00   -1.661E+00   -1.657E+00   -1.652E+00   -1.648E+00   -1.644E+00   -1.639E+00   -1.635E+00   -1.630E+00
    -1.626E+00   -1.622E+00   -1.617E+00   -1.613E+00   -1.608E+00   -1.604E+00   -1.600E+00   -1.595E+00   -1.591E+00   -1.586E+00
    -1.582E+00   -1.578E+00   -1.573E+00   -1.569E+00   -1.564E+00   -1.560E+00   -1.556E+00   -1.551E+00   -1.547E+00   -1.543E+00
    -1.538E+00   -1.534E+00   -1.529E+00   -1.525E+00   -1.521E+00   -1.516E+00   -1.512E+00   -1.507E+00   -1.503E+00   -1.499E+00
    -1.494E+00   -1.490E+00   -1.485E+00   -1.481E+00   -1.477E+00   -1.472E+00   -1.468E+00   -1.463E+00   -1.459E+00   -1.455E+00
    -1.450E+00   -1.446E+00   -1.441E+00   -1.437E+00   -1.433E+00   -1.428E+00   -1.424E+00   -1.419E+00   -1.415E+00   -1.411E+00
    -1.406E+00   -1.402E+00   -1.397E+00   -1.393E+00   -1.389E+00   -1.384E+00   -1.380E+00   -1.375E+00   -1.371E+00   -1.367E+00
    -1.362E+00   -1.358E+00   -1.353E+00   -1.349E+00   -1.345E+00   -1.340E+00   -1.336E+00   -1.331E+00   -1.327E+00   -1.323E+00
    -1.318E+00   -1.314E+00   -1.309E+00   -1.305E+00   -1.301E+00   -1.296E+00   -1.292E+00   -1.287E+00   -1.283E+00   -1.279E+00
    -1.274E+00   -1.270E+00   -1.265E+00   -1.261E+00   -1.257E+00   -1.252E+00   -1.248E+00   -1.243E+00   -1.239E+00   -1.235E+00
    -1.230E+00   -1.226E+00   -1.221E+00   -1.217E+00   -1.213E+00   -1.208E+00   -1.204E+00   -1.199E+00   -1.195E+00   -1.191E+00
    -1.186E+00   -1.182E+00   -1.177E+00   -1.173E+00   -1.169E+00   -1.164E+00   -1.160E+00   -1.155E+00   -1.151E+00   -1.147E+00
    -1.142E+00   -1.138E+00   -1.133E+00   -1.129E+00   -1.125E+00   -1.120E+00   -1.116E+00   -1.111E+00   -1.107E+00   -1.103E+00
    -1.098E+00   -1.094E+00   -1.089E+00   -1.085E+00   -1.081E+00   -1.076E+00   -1.072E+00   -1.067E+00   -1.063E+00   -1.059E+00
    -1.054E+00   -1.050E+00   -1.045E+00   -1.041E+00   -1.037E+00   -1.032E+00   -1.028E+00   -1.023E+00   -1.019E+00   -1.015E+00
    -1.010E+00   -1.006E+00   -1.001E+00   -9.969E-01   -9.925E-01   -9.881E-01   -9.837E-01   -9.793E-01   -9.749E-01   -9.705E-01
    -9.661E-01   -9.617E-01   -9.573E-01   -9.529E-01   -9.485E-01   -9.441E-01   -9.397E-01   -9.353E-01   -9.309E-01   -9.265E-01
    -9.221E-01   -9.177E-01   -9.133E-01   -9.089E-01   -9.045E-01   -9.001E-01   -8.957E-01   -8.913E-01   -8.869E-01   -8.825E-01
    -8.781E-01   -8.737E-01   -8.693E-01   -8.649E-01   -8.605E-01   -8.561E-01   -8.517E-01   -8.473E-01   -8.429E-01   -8.385E-01
    -8.341E-01   -8.297E-01   -8.253E-01   -8.209E-01   -8.165E-01   -8.121E-01   -8.077E-01   -8.033E-01   -7.989E-01   -7.945E-01
    -7.901E-01   -7.857E-01   -7.813E-01   -7.769E-01   -7.725E-01   -7.681E-01   -7.637E-01   -7.593E-01   -7.549E-01   -7.505E-01
    -7.461E-01   -7.417E-01   -7.373E-01   -7.329E-01   -7.285E-01   -7.241E-01   -7.197E-01   -7.153E-01   -7.109E-01   -7.065E-01
    -7.021E-01   -6.977E-01   -6.933E-01   -6.889E-01   -6.845E-01   -6.801E-01   -6.757E-01   -6.713E-01   -6.669E-01   -6.625E-01
    -6.581E-01   -6.537E-01   -6.493E-01   -6.449E-01   -6.405E-01   -6.361E-01   -6.317E-01   -6.273E-01   -6.229E-01   -6.185E-01
    -6.141E-01   -6.097E-01   -6.053E-01   -6.009E-01   -5.965E-01   -5.921E-01   -5.877E-01   -5.833E-01   -5.789E-01   -5.745E-01
    -5.701E-01   -5.657E-01   -5.613E-01   -5.569E-01   -5.525E-01   -5.481E-01   -5.437E-01   -5.393E-01   -5.349E-01   -5.305E-01
    -5.261E-01   -5.217E-01   -5.173E-01   -5.129E-01   -5.085E-01   -5.041E-01   -4.997E-01   -4.953E-01   -4.909E-01   -4.865E-01
    -4.821E-01   -4.777E-01   -4.733E-01   -4.689E-01   -4.645E-01   -4.601E-01   -4.557E-01   -4.513E-01   -4.469E-01   -4.425E-01
    -4.381E-01   -4.337E-01   -4.293E-01   -4.249E-01   -4.205E-01   -4.161E-01   -4.117E-01   -4.073E-01   -4.029E-01   -3.985E-01
    -3.941E-01   -3.897E-01   -3.853E-01   -3.809E-01   -3.765E-01   -3.721E-01   -3.677E-01   -3.633E-01   -3.589E-01   -3.545E-01
    -3.500E-01   -3.456E-01   -3.412E-01   -3.368E-01   -3.324E-01   -3.280E-01   -3.236E-01   -3.192E-01   -3.148E-01   -3.104E-01
    -3.060E-01   -3.016E-01   -2.972E-01   -2.928E-01   -2.884E-01   -2.840E-01   -2.796E-01   -2.752E-01   -2.708E-01   -2.664E-01
    -2.620E-01   -2.576E-01   -2.532E-01   -2.488E-01   -2.444E-01   -2.400E-01   -2.356E-01   -2.312E-01   -2.268E-01   -2.224E-01
    -2.180E-01   -2.136E-01   -2.092E-01   -2.048E-01   -2.004E-01   -1.960E-01   -1.916E-01   -1.872E-01   -1.828E-01   -1.784E-01
    -1.740E-01   -1.696E-01   -1.652E-01   -1.608E-01   -1.564E-01   -1.520E-01   -1.476E-01   -1.432E-01   -1.388E-01   -1.344E-01
    -1.300E-01   -1.256E-01   -1.212E-01   -1.168E-01   -1.124E-01   -1.080E-01   -1.036E-01   -9.920E-02   -9.480E-02   -9.040E-02
    -8.600E-02   -8.160E-02   -7.720E-02   -7.280E-02   -6.839E-02   -6.399E-02   -5.959E-02   -5.519E-02   -5.079E-02   -4.639E-02
    -4.199E-02   -3.759E-02   -3.319E-02   -2.879E-02   -2.439E-02   -1.999E-02   -1.558E-02   -1.118E-02   -6.782E-03   -2.381E-03
     2.019E-03    6.420E-03    1.082E-02    1.522E-02    1.962E-02    2.402E-02    2.842E-02    3.283E-02    3.723E-02    4.163E-02
     4.603E-02    5.043E-02    5.483E-02    5.923E-02    6.363E-02    6.803E-02    7.243E-02    7.683E-02    8.124E-02    8.564E-02
     9.004E-02    9.444E-02    9.884E-02    1.032E-01    1.076E-01    1.120E-01    1.164E-01    1.208E-01    1.252E-01    1.296E-01
     1.340E-01    1.384E-01    1.428E-01    1.472E-01    1.517E-01    1.561E-01    1.605E-01    1.649E-01    1.693E-01    1.737E-01
     1.781E-01    1.825E-01    1.869E-01    1.913E-01    1.957E-01    2.001E-01    2.045E-01    2.089E-01    2.133E-01    2.177E-01
     2.221E-01    2.265E-01    2.309E-01    2.353E-01    2.397E-01    2.441E-01    2.485E-01    2.529E-01
 Ala      Conc. = 3.92E+01
