 LCModel (Version 6.3-1L) Copyright: S.W. Provencher.          Ref.: Magn. Reson. Med. 30:672-679 (1993).                
 Slice#2 Row#6 Col#1  K_02_press_1_raw_act
 36 lines in following concentration table = NCONC+1
    Conc.  %SD /Cr+PCr  Metabolite                                         
    0.000 999%   0.000 Ala                                                 
   17.012 102%   0.144 Asp                                                 
    0.000 999%   0.000 Cr                                                  
  118.154  19%   1.000 PCr                                                 
   11.016  95% 9.3E-02 GABA                                                
    9.513 110% 8.1E-02 Glc                                                 
    0.000 999%   0.000 Gln                                                 
   47.568 193%   0.403 Glu                                                 
   36.342  23%   0.308 GPC                                                 
    0.000 999%   0.000 PCh                                                 
    0.000 999%   0.000 GSH                                                 
    0.000 999%   0.000 Ins                                                 
    0.000 999%   0.000 Lac                                                 
  139.796  22%   1.183 NAA                                                 
    5.749 584% 4.9E-02 NAAG                                                
    2.226 152% 1.9E-02 Scyllo                                              
    8.400 206% 7.1E-02 Tau                                                 
    0.000 999%   0.000 -CrCH2                                              
   36.342  23%   0.308 GPC+PCh                                             
  145.544  23%   1.232 NAA+NAAG                                            
  118.154  19%   1.000 Cr+PCr                                              
   47.568 193%   0.403 Glu+Gln                                             
    0.000 999%   0.000 Lip13a                                              
   36.283 174%   0.307 Lip13b                                              
   14.664 394%   0.124 Lip09                                               
  264.156  36%   2.236 MM09                                                
   20.177 203%   0.171 Lip20                                               
  416.332  38%   3.524 MM20                                                
   79.941  61%   0.677 MM12                                                
   56.405 219%   0.477 MM14                                                
  117.201  78%   0.992 MM17                                                
   36.283 174%   0.307 Lip13a+Lip13b                                       
  172.628  93%   1.461 MM14+Lip13a+Lip13b+MM12                             
  278.820  32%   2.360 MM09+Lip09                                          
  436.509  36%   3.694 MM20+Lip20                                          
   6 lines in following misc. output table
  FWHM = 0.046 ppm    S/N =   2                                            
  Data shift = 0.023 ppm                                                   
  Ph: 113 deg     -15.2 deg/ppm                                            
  alphaB,S = 9.6E-01,   2.6E+01                                            
   14 spline knots.   Ns = 5(1)                                            
  ( 7) 2 infls.   ( 7) 1 extrs.                                            
  498 points on ppm-axis = NY
      4.000000     3.992357     3.984714     3.977070     3.969427     3.961784     3.954141     3.946497     3.938854     3.931211
      3.923568     3.915925     3.908281     3.900638     3.892995     3.885352     3.877708     3.870065     3.862422     3.854779
      3.847136     3.839492     3.831849     3.824206     3.816563     3.808919     3.801276     3.793633     3.785990     3.778347
      3.770703     3.763060     3.755417     3.747774     3.740130     3.732487     3.724844     3.717201     3.709558     3.701914
      3.694271     3.686628     3.678985     3.671341     3.663698     3.656055     3.648412     3.640769     3.633125     3.625482
      3.617839     3.610196     3.602552     3.594909     3.587266     3.579623     3.571980     3.564336     3.556693     3.549050
      3.541407     3.533763     3.526120     3.518477     3.510834     3.503191     3.495547     3.487904     3.480261     3.472618
      3.464974     3.457331     3.449688     3.442045     3.434402     3.426758     3.419115     3.411472     3.403829     3.396185
      3.388542     3.380899     3.373256     3.365613     3.357969     3.350326     3.342683     3.335040     3.327396     3.319753
      3.312110     3.304467     3.296824     3.289180     3.281537     3.273894     3.266251     3.258607     3.250964     3.243321
      3.235678     3.228034     3.220391     3.212748     3.205105     3.197462     3.189818     3.182175     3.174532     3.166889
      3.159245     3.151602     3.143959     3.136316     3.128673     3.121029     3.113386     3.105743     3.098100     3.090456
      3.082813     3.075170     3.067527     3.059884     3.052240     3.044597     3.036954     3.029311     3.021667     3.014024
      3.006381     2.998738     2.991095     2.983451     2.975808     2.968165     2.960522     2.952878     2.945235     2.937592
      2.929949     2.922306     2.914662     2.907019     2.899376     2.891733     2.884089     2.876446     2.868803     2.861160
      2.853517     2.845873     2.838230     2.830587     2.822944     2.815300     2.807657     2.800014     2.792371     2.784728
      2.777084     2.769441     2.761798     2.754155     2.746511     2.738868     2.731225     2.723582     2.715939     2.708295
      2.700652     2.693009     2.685366     2.677722     2.670079     2.662436     2.654793     2.647150     2.639506     2.631863
      2.624220     2.616577     2.608933     2.601290     2.593647     2.586004     2.578361     2.570717     2.563074     2.555431
      2.547788     2.540144     2.532501     2.524858     2.517215     2.509572     2.501928     2.494285     2.486642     2.478999
      2.471355     2.463712     2.456069     2.448426     2.440783     2.433139     2.425496     2.417853     2.410210     2.402566
      2.394923     2.387280     2.379637     2.371994     2.364350     2.356707     2.349064     2.341421     2.333777     2.326134
      2.318491     2.310848     2.303205     2.295561     2.287918     2.280275     2.272632     2.264988     2.257345     2.249702
      2.242059     2.234416     2.226772     2.219129     2.211486     2.203843     2.196199     2.188556     2.180913     2.173270
      2.165627     2.157983     2.150340     2.142697     2.135054     2.127410     2.119767     2.112124     2.104481     2.096838
      2.089194     2.081551     2.073908     2.066265     2.058621     2.050978     2.043335     2.035692     2.028049     2.020405
      2.012762     2.005119     1.997476     1.989833     1.982190     1.974546     1.966903     1.959260     1.951617     1.943974
      1.936331     1.928688     1.921045     1.913402     1.905759     1.898115     1.890472     1.882829     1.875186     1.867543
      1.859900     1.852257     1.844614     1.836971     1.829327     1.821684     1.814041     1.806398     1.798755     1.791112
      1.783469     1.775826     1.768183     1.760540     1.752896     1.745253     1.737610     1.729967     1.722324     1.714681
      1.707038     1.699395     1.691752     1.684108     1.676465     1.668822     1.661179     1.653536     1.645893     1.638250
      1.630607     1.622964     1.615321     1.607677     1.600034     1.592391     1.584748     1.577105     1.569462     1.561819
      1.554176     1.546533     1.538890     1.531246     1.523603     1.515960     1.508317     1.500674     1.493031     1.485388
      1.477745     1.470102     1.462458     1.454815     1.447172     1.439529     1.431886     1.424243     1.416600     1.408957
      1.401314     1.393671     1.386027     1.378384     1.370741     1.363098     1.355455     1.347812     1.340169     1.332526
      1.324883     1.317240     1.309596     1.301953     1.294310     1.286667     1.279024     1.271381     1.263738     1.256095
      1.248452     1.240808     1.233165     1.225522     1.217879     1.210236     1.202593     1.194950     1.187307     1.179664
      1.172021     1.164377     1.156734     1.149091     1.141448     1.133805     1.126162     1.118519     1.110876     1.103233
      1.095590     1.087946     1.080303     1.072660     1.065017     1.057374     1.049731     1.042088     1.034445     1.026802
      1.019158     1.011515     1.003872     0.996229     0.988586     0.980943     0.973300     0.965657     0.958014     0.950371
      0.942727     0.935084     0.927441     0.919798     0.912155     0.904512     0.896869     0.889226     0.881583     0.873940
      0.866296     0.858653     0.851010     0.843367     0.835724     0.828081     0.820438     0.812795     0.805152     0.797508
      0.789865     0.782222     0.774579     0.766936     0.759293     0.751650     0.744007     0.736364     0.728721     0.721077
      0.713434     0.705791     0.698148     0.690505     0.682862     0.675219     0.667576     0.659933     0.652290     0.644646
      0.637003     0.629360     0.621717     0.614074     0.606431     0.598788     0.591145     0.583502     0.575858     0.568215
      0.560572     0.552929     0.545286     0.537643     0.530000     0.522357     0.514714     0.507071     0.499427     0.491784
      0.484141     0.476498     0.468855     0.461212     0.453569     0.445925     0.438282     0.430639     0.422996     0.415353
      0.407710     0.400067     0.392424     0.384780     0.377137     0.369494     0.361851     0.354208     0.346565     0.338922
      0.331278     0.323635     0.315992     0.308349     0.300706     0.293063     0.285420     0.277777     0.270133     0.262490
      0.254847     0.247204     0.239561     0.231918     0.224275     0.216631     0.208988     0.201345
 NY phased data points follow
   8.25055E+01  8.28497E+01  8.38022E+01  8.19613E+01  8.24125E+01  7.98352E+01  7.56250E+01  8.05093E+01  7.96798E+01  7.79388E+01
   7.59707E+01  7.45800E+01  7.45073E+01  7.28981E+01  7.37809E+01  7.28258E+01  7.17858E+01  7.07546E+01  6.95040E+01  7.08483E+01
   6.99345E+01  6.71253E+01  6.96190E+01  6.57377E+01  6.85732E+01  6.58608E+01  6.51342E+01  6.26626E+01  6.43711E+01  6.32960E+01
   6.20594E+01  6.18720E+01  6.01736E+01  6.03343E+01  6.17360E+01  5.96853E+01  5.99650E+01  5.68283E+01  5.96072E+01  5.60165E+01
   5.97494E+01  5.78596E+01  5.44524E+01  5.59273E+01  5.58791E+01  5.59172E+01  5.53895E+01  5.48552E+01  5.40692E+01  5.45895E+01
   5.56738E+01  5.28033E+01  5.50783E+01  5.48029E+01  5.12096E+01  5.02145E+01  5.44518E+01  5.09107E+01  5.20808E+01  5.35069E+01
   4.81095E+01  4.95168E+01  4.46692E+01  4.67069E+01  4.78065E+01  4.65559E+01  4.34842E+01  4.89337E+01  4.71690E+01  4.68634E+01
   4.55889E+01  4.64830E+01  4.55744E+01  4.79216E+01  4.17763E+01  4.13481E+01  4.20347E+01  4.20100E+01  4.39592E+01  4.19436E+01
   4.21361E+01  4.13525E+01  4.11362E+01  3.92332E+01  4.30687E+01  4.09448E+01  4.20912E+01  3.66999E+01  4.02655E+01  3.52647E+01
   3.84278E+01  3.63219E+01  3.75501E+01  3.83578E+01  3.85917E+01  3.87784E+01  3.61957E+01  3.73612E+01  3.68579E+01  3.78636E+01
   4.03799E+01  4.02515E+01  3.88891E+01  3.95058E+01  4.03598E+01  3.76494E+01  3.62588E+01  3.43654E+01  3.75467E+01  3.31373E+01
   3.54122E+01  3.45994E+01  3.20972E+01  3.38310E+01  3.31089E+01  2.94231E+01  3.22471E+01  3.31564E+01  3.10473E+01  3.17102E+01
   3.03226E+01  2.90138E+01  3.15254E+01  3.16356E+01  3.02592E+01  3.19652E+01  3.43594E+01  3.48168E+01  3.40266E+01  3.18874E+01
   3.12940E+01  2.97004E+01  2.89162E+01  2.77062E+01  2.62875E+01  2.54178E+01  2.75192E+01  2.76466E+01  3.14010E+01  2.71537E+01
   2.82539E+01  2.74568E+01  2.32327E+01  2.66916E+01  2.76866E+01  2.77110E+01  2.64506E+01  2.57340E+01  2.45055E+01  2.64975E+01
   2.52773E+01  2.69045E+01  2.39373E+01  2.86847E+01  2.46170E+01  2.34578E+01  2.58589E+01  2.72044E+01  2.21176E+01  2.26461E+01
   2.67434E+01  2.41493E+01  2.44299E+01  2.11757E+01  2.61259E+01  2.30722E+01  2.47933E+01  2.40138E+01  2.25083E+01  2.28219E+01
   2.32192E+01  2.53784E+01  2.30534E+01  1.90992E+01  2.25202E+01  2.04991E+01  2.19345E+01  2.22221E+01  2.07975E+01  2.13539E+01
   2.34924E+01  2.33715E+01  2.03147E+01  1.83381E+01  2.04694E+01  2.06676E+01  1.87841E+01  2.25879E+01  2.24382E+01  2.01007E+01
   1.89230E+01  2.07198E+01  1.97102E+01  2.31868E+01  2.26314E+01  2.12473E+01  2.01928E+01  1.88701E+01  1.82146E+01  1.90718E+01
   1.68056E+01  2.00859E+01  1.94693E+01  1.69768E+01  2.13023E+01  2.06037E+01  1.82701E+01  1.95416E+01  1.69167E+01  2.05351E+01
   2.17715E+01  1.70652E+01  1.57836E+01  1.90913E+01  1.90828E+01  1.79271E+01  2.10238E+01  1.95060E+01  2.18051E+01  1.71263E+01
   1.85610E+01  1.90731E+01  1.86595E+01  1.62983E+01  1.87051E+01  1.49935E+01  1.95063E+01  2.09522E+01  2.06216E+01  1.70531E+01
   1.42943E+01  1.88911E+01  1.89395E+01  1.64572E+01  1.81856E+01  1.85516E+01  2.14078E+01  1.69537E+01  1.71705E+01  1.65900E+01
   1.70555E+01  1.64542E+01  1.61662E+01  1.61253E+01  1.77129E+01  1.82103E+01  1.60676E+01  1.55036E+01  1.79498E+01  1.70790E+01
   1.74612E+01  1.56508E+01  1.81620E+01  1.77910E+01  1.55266E+01  1.82397E+01  1.99163E+01  1.73070E+01  1.96004E+01  2.22932E+01
   2.21551E+01  2.12498E+01  2.12359E+01  1.70057E+01  1.48696E+01  1.54120E+01  1.32874E+01  1.34142E+01  1.71883E+01  1.66279E+01
   1.43380E+01  1.47800E+01  1.54233E+01  1.49231E+01  9.14068E+00  1.50070E+01  1.53061E+01  1.56165E+01  1.41070E+01  1.37847E+01
   1.36506E+01  1.33778E+01  1.28431E+01  1.52952E+01  1.16065E+01  9.91045E+00  1.28943E+01  1.16789E+01  1.28107E+01  1.38866E+01
   1.24889E+01  1.20598E+01  1.25748E+01  1.11808E+01  1.10726E+01  1.16256E+01  1.23097E+01  9.85120E+00  1.31123E+01  1.26760E+01
   1.14292E+01  1.39530E+01  1.22047E+01  1.41754E+01  1.46537E+01  9.38074E+00  1.38155E+01  1.12361E+01  1.04636E+01  1.20219E+01
   1.21539E+01  1.25000E+01  1.06778E+01  1.26700E+01  1.05899E+01  1.48949E+01  1.14236E+01  1.39015E+01  1.61109E+01  1.27571E+01
   1.77345E+01  9.46455E+00  9.32012E+00  1.25651E+01  1.04754E+01  1.16904E+01  1.12136E+01  1.13620E+01  1.02845E+01  1.11540E+01
   1.33935E+01  1.27847E+01  1.61445E+01  1.36371E+01  1.68085E+01  1.33430E+01  1.22786E+01  9.74244E+00  7.21351E+00  5.81363E+00
   4.70690E+00  8.10465E+00  7.49724E+00  6.84272E+00  7.14740E+00  1.02474E+01  8.96815E+00  7.52946E+00  1.27981E+01  1.29370E+01
   1.15205E+01  1.14105E+01  1.10039E+01  1.13240E+01  8.48564E+00  8.14229E+00  8.84113E+00  9.15689E+00  1.12584E+01  1.34348E+01
   1.18932E+01  1.14438E+01  1.23677E+01  1.36474E+01  7.75193E+00  1.30077E+01  1.00152E+01  9.15064E+00  1.02632E+01  1.04926E+01
   7.71363E+00  1.07733E+01  8.62495E+00  9.57495E+00  8.56026E+00  1.17360E+01  9.42976E+00  8.34206E+00  9.40008E+00  1.07022E+01
   1.36501E+01  9.84009E+00  1.10532E+01  1.14009E+01  1.07266E+01  9.85669E+00  1.08862E+01  8.87017E+00  1.00845E+01  1.07170E+01
   8.07610E+00  9.61613E+00  1.13420E+01  9.45187E+00  1.11225E+01  1.20285E+01  1.07535E+01  9.86232E+00  9.00960E+00  1.12361E+01
   8.96009E+00  1.11535E+01  1.02166E+01  1.18639E+01  1.13475E+01  1.17064E+01  9.95910E+00  1.31372E+01  1.10714E+01  8.72776E+00
   1.26035E+01  1.09402E+01  1.16029E+01  1.04260E+01  9.48600E+00  7.33654E+00  1.02360E+01  8.80018E+00  9.42615E+00  9.33450E+00
   8.41164E+00  6.83699E+00  9.08370E+00  1.11788E+01  8.12469E+00  1.03785E+01  9.28632E+00  8.65513E+00  1.03855E+01  8.75168E+00
   5.75506E+00  6.54361E+00  8.81872E+00  6.64138E+00  1.06622E+01  8.38813E+00  8.35285E+00  7.72602E+00  8.66565E+00  8.63051E+00
   6.11331E+00  8.37179E+00  1.01740E+01  8.37805E+00  1.12958E+01  6.35854E+00  9.58895E+00  8.62994E+00  7.52795E+00  8.84383E+00
   8.41630E+00  5.47705E+00  7.89013E+00  9.86307E+00  1.01157E+01  8.07043E+00  7.75404E+00  5.00369E+00  7.29291E+00  1.01172E+01
   7.94232E+00  6.76107E+00  9.60119E+00  8.13384E+00  7.81487E+00  4.73484E+00  6.34467E+00  6.96472E+00  7.08231E+00  7.67471E+00
   7.03187E+00  5.95654E+00  6.28603E+00  6.54587E+00  6.75801E+00  7.21573E+00  6.97916E+00  7.00461E+00  5.00173E+00  7.62931E+00
   8.66071E+00  5.05348E+00  6.37180E+00  7.61100E+00  4.50505E+00  7.11204E+00  4.12409E+00  7.63102E+00  7.92489E+00  6.79678E+00
   6.31962E+00  5.89191E+00  2.26892E+00  5.37450E+00  6.64023E+00  6.19986E+00  6.81611E+00  6.68508E+00
 NY points of the fit to the data follow
   7.76296E+01  7.71940E+01  7.67888E+01  7.64756E+01  7.64211E+01  7.65563E+01  7.67631E+01  7.69792E+01  7.70212E+01  7.66704E+01
   7.58417E+01  7.46389E+01  7.33302E+01  7.21923E+01  7.13406E+01  7.07111E+01  7.01698E+01  6.96436E+01  6.91172E+01  6.85959E+01
   6.80920E+01  6.76130E+01  6.71519E+01  6.66870E+01  6.62090E+01  6.57173E+01  6.52138E+01  6.47095E+01  6.42214E+01  6.37633E+01
   6.33395E+01  6.29382E+01  6.25378E+01  6.21143E+01  6.16572E+01  6.11757E+01  6.06791E+01  6.01933E+01  5.97427E+01  5.93162E+01
   5.88954E+01  5.84788E+01  5.80551E+01  5.76122E+01  5.71563E+01  5.67016E+01  5.62507E+01  5.58096E+01  5.53845E+01  5.49728E+01
   5.45667E+01  5.41543E+01  5.37252E+01  5.32782E+01  5.28244E+01  5.23752E+01  5.19344E+01  5.15000E+01  5.10724E+01  5.06535E+01
   5.02434E+01  4.98409E+01  4.94436E+01  4.90488E+01  4.86573E+01  4.82678E+01  4.78784E+01  4.74893E+01  4.71012E+01  4.67158E+01
   4.63398E+01  4.59773E+01  4.56248E+01  4.52784E+01  4.49328E+01  4.45803E+01  4.42156E+01  4.38407E+01  4.34627E+01  4.30913E+01
   4.27367E+01  4.24099E+01  4.21050E+01  4.18082E+01  4.15129E+01  4.12103E+01  4.08902E+01  4.05489E+01  4.01894E+01  3.98232E+01
   3.94662E+01  3.91267E+01  3.88032E+01  3.84938E+01  3.82021E+01  3.79336E+01  3.77069E+01  3.76213E+01  3.79078E+01  3.84498E+01
   3.90997E+01  3.97680E+01  4.01935E+01  4.00755E+01  3.92917E+01  3.79909E+01  3.65588E+01  3.53893E+01  3.46352E+01  3.41984E+01
   3.38916E+01  3.36207E+01  3.33656E+01  3.31207E+01  3.28832E+01  3.26505E+01  3.24230E+01  3.22022E+01  3.19884E+01  3.17887E+01
   3.16279E+01  3.16343E+01  3.20565E+01  3.27496E+01  3.35683E+01  3.44018E+01  3.49458E+01  3.48729E+01  3.40687E+01  3.27174E+01
   3.12488E+01  3.00789E+01  2.93498E+01  2.89442E+01  2.86693E+01  2.84363E+01  2.82243E+01  2.80229E+01  2.78256E+01  2.76301E+01
   2.74353E+01  2.72430E+01  2.70544E+01  2.68701E+01  2.66913E+01  2.65149E+01  2.63351E+01  2.61498E+01  2.59615E+01  2.57756E+01
   2.55966E+01  2.54254E+01  2.52600E+01  2.50984E+01  2.49392E+01  2.47778E+01  2.46037E+01  2.44185E+01  2.42276E+01  2.40374E+01
   2.38665E+01  2.37219E+01  2.36070E+01  2.35156E+01  2.34227E+01  2.33027E+01  2.31485E+01  2.29725E+01  2.27960E+01  2.26335E+01
   2.24838E+01  2.23329E+01  2.21759E+01  2.20258E+01  2.18851E+01  2.17582E+01  2.16462E+01  2.15501E+01  2.14627E+01  2.13677E+01
   2.12578E+01  2.11386E+01  2.10206E+01  2.09218E+01  2.08428E+01  2.07662E+01  2.06911E+01  2.06279E+01  2.05795E+01  2.05373E+01
   2.04834E+01  2.04079E+01  2.03209E+01  2.02303E+01  2.01438E+01  2.00594E+01  1.99625E+01  1.98429E+01  1.97097E+01  1.95872E+01
   1.94888E+01  1.94232E+01  1.93820E+01  1.93418E+01  1.92788E+01  1.91756E+01  1.90350E+01  1.88722E+01  1.87005E+01  1.85457E+01
   1.84263E+01  1.83571E+01  1.83354E+01  1.83497E+01  1.83832E+01  1.83987E+01  1.83517E+01  1.82153E+01  1.80072E+01  1.77862E+01
   1.76093E+01  1.75010E+01  1.74703E+01  1.75057E+01  1.75770E+01  1.76423E+01  1.76615E+01  1.76229E+01  1.75441E+01  1.74530E+01
   1.73737E+01  1.73184E+01  1.72879E+01  1.72750E+01  1.72678E+01  1.72528E+01  1.72231E+01  1.71818E+01  1.71315E+01  1.70818E+01
   1.70416E+01  1.70159E+01  1.70068E+01  1.70151E+01  1.70321E+01  1.70416E+01  1.70303E+01  1.69942E+01  1.69393E+01  1.68760E+01
   1.68209E+01  1.67957E+01  1.68020E+01  1.68361E+01  1.69464E+01  1.73900E+01  1.82424E+01  1.92481E+01  2.03228E+01  2.12556E+01
   2.16484E+01  2.12195E+01  2.00011E+01  1.83707E+01  1.68735E+01  1.58625E+01  1.53344E+01  1.50671E+01  1.48773E+01  1.47185E+01
   1.45813E+01  1.44634E+01  1.43625E+01  1.42727E+01  1.41859E+01  1.40954E+01  1.39967E+01  1.38904E+01  1.37802E+01  1.36705E+01
   1.35659E+01  1.34701E+01  1.33839E+01  1.33067E+01  1.32374E+01  1.31743E+01  1.31151E+01  1.30587E+01  1.30047E+01  1.29531E+01
   1.29047E+01  1.28602E+01  1.28197E+01  1.27829E+01  1.27496E+01  1.27198E+01  1.26934E+01  1.26699E+01  1.26488E+01  1.26295E+01
   1.26110E+01  1.25926E+01  1.25732E+01  1.25519E+01  1.25278E+01  1.25002E+01  1.24685E+01  1.24324E+01  1.23916E+01  1.23461E+01
   1.22960E+01  1.22415E+01  1.21830E+01  1.21211E+01  1.20564E+01  1.19898E+01  1.19220E+01  1.18539E+01  1.17861E+01  1.17194E+01
   1.16543E+01  1.15914E+01  1.15309E+01  1.14732E+01  1.14183E+01  1.13662E+01  1.13169E+01  1.12701E+01  1.12255E+01  1.11830E+01
   1.11421E+01  1.11026E+01  1.10641E+01  1.10265E+01  1.09893E+01  1.09526E+01  1.09160E+01  1.08797E+01  1.08436E+01  1.08080E+01
   1.07732E+01  1.07397E+01  1.07083E+01  1.06800E+01  1.06560E+01  1.06380E+01  1.06274E+01  1.06257E+01  1.06338E+01  1.06518E+01
   1.06785E+01  1.07114E+01  1.07466E+01  1.07792E+01  1.08039E+01  1.08156E+01  1.08107E+01  1.07874E+01  1.07458E+01  1.06886E+01
   1.06197E+01  1.05439E+01  1.04662E+01  1.03906E+01  1.03202E+01  1.02566E+01  1.02002E+01  1.01507E+01  1.01072E+01  1.00683E+01
   1.00330E+01  1.00005E+01  9.97022E+00  9.94179E+00  9.91522E+00  9.89071E+00  9.86859E+00  9.84933E+00  9.83344E+00  9.82150E+00
   9.81409E+00  9.81185E+00  9.81539E+00  9.82532E+00  9.84220E+00  9.86655E+00  9.89879E+00  9.93923E+00  9.98799E+00  1.00450E+01
   1.01099E+01  1.01822E+01  1.02607E+01  1.03443E+01  1.04313E+01  1.05197E+01  1.06073E+01  1.06914E+01  1.07696E+01  1.08391E+01
   1.08973E+01  1.09419E+01  1.09706E+01  1.09820E+01  1.09748E+01  1.09485E+01  1.09033E+01  1.08397E+01  1.07591E+01  1.06631E+01
   1.05539E+01  1.04339E+01  1.03058E+01  1.01721E+01  1.00353E+01  9.89785E+00  9.76184E+00  9.62908E+00  9.50103E+00  9.37879E+00
   9.26315E+00  9.15456E+00  9.05322E+00  8.95908E+00  8.87192E+00  8.79135E+00  8.71692E+00  8.64811E+00  8.58438E+00  8.52518E+00
   8.46997E+00  8.41825E+00  8.36958E+00  8.32354E+00  8.27976E+00  8.23791E+00  8.19770E+00  8.15890E+00  8.12129E+00  8.08469E+00
   8.04895E+00  8.01392E+00  7.97949E+00  7.94556E+00  7.91206E+00  7.87891E+00  7.84603E+00  7.81338E+00  7.78091E+00  7.74858E+00
   7.71634E+00  7.68417E+00  7.65203E+00  7.61990E+00  7.58776E+00  7.55561E+00  7.52343E+00  7.49121E+00  7.45895E+00  7.42663E+00
   7.39426E+00  7.36183E+00  7.32935E+00  7.29679E+00  7.26417E+00  7.23149E+00  7.19875E+00  7.16594E+00  7.13307E+00  7.10013E+00
   7.06713E+00  7.03408E+00  7.00097E+00  6.96782E+00  6.93461E+00  6.90135E+00  6.86805E+00  6.83471E+00  6.80134E+00  6.76794E+00
   6.73451E+00  6.70105E+00  6.66758E+00  6.63409E+00  6.60060E+00  6.56710E+00  6.53359E+00  6.50009E+00  6.46661E+00  6.43314E+00
   6.39969E+00  6.36626E+00  6.33286E+00  6.29950E+00  6.26618E+00  6.23291E+00  6.19969E+00  6.16653E+00
 NY background values follow
     7.751E+01    7.703E+01    7.654E+01    7.606E+01    7.558E+01    7.510E+01    7.462E+01    7.414E+01    7.366E+01    7.317E+01
     7.269E+01    7.221E+01    7.173E+01    7.125E+01    7.078E+01    7.030E+01    6.982E+01    6.934E+01    6.886E+01    6.839E+01
     6.791E+01    6.744E+01    6.697E+01    6.649E+01    6.602E+01    6.555E+01    6.508E+01    6.461E+01    6.415E+01    6.368E+01
     6.322E+01    6.276E+01    6.229E+01    6.183E+01    6.138E+01    6.092E+01    6.046E+01    6.001E+01    5.956E+01    5.911E+01
     5.866E+01    5.822E+01    5.777E+01    5.733E+01    5.689E+01    5.645E+01    5.602E+01    5.558E+01    5.515E+01    5.472E+01
     5.430E+01    5.387E+01    5.345E+01    5.303E+01    5.261E+01    5.220E+01    5.178E+01    5.137E+01    5.097E+01    5.056E+01
     5.016E+01    4.976E+01    4.936E+01    4.897E+01    4.857E+01    4.818E+01    4.780E+01    4.741E+01    4.703E+01    4.665E+01
     4.627E+01    4.590E+01    4.553E+01    4.516E+01    4.479E+01    4.443E+01    4.407E+01    4.371E+01    4.336E+01    4.301E+01
     4.266E+01    4.231E+01    4.197E+01    4.163E+01    4.129E+01    4.096E+01    4.063E+01    4.030E+01    3.998E+01    3.966E+01
     3.934E+01    3.902E+01    3.871E+01    3.840E+01    3.810E+01    3.779E+01    3.749E+01    3.720E+01    3.690E+01    3.661E+01
     3.633E+01    3.604E+01    3.576E+01    3.548E+01    3.521E+01    3.493E+01    3.466E+01    3.440E+01    3.413E+01    3.387E+01
     3.361E+01    3.336E+01    3.311E+01    3.286E+01    3.261E+01    3.236E+01    3.212E+01    3.188E+01    3.165E+01    3.141E+01
     3.118E+01    3.096E+01    3.073E+01    3.051E+01    3.029E+01    3.007E+01    2.985E+01    2.964E+01    2.943E+01    2.922E+01
     2.902E+01    2.882E+01    2.862E+01    2.842E+01    2.822E+01    2.803E+01    2.784E+01    2.765E+01    2.746E+01    2.728E+01
     2.710E+01    2.692E+01    2.674E+01    2.657E+01    2.640E+01    2.623E+01    2.606E+01    2.589E+01    2.573E+01    2.557E+01
     2.541E+01    2.525E+01    2.509E+01    2.494E+01    2.478E+01    2.463E+01    2.448E+01    2.434E+01    2.419E+01    2.405E+01
     2.391E+01    2.377E+01    2.363E+01    2.349E+01    2.336E+01    2.322E+01    2.309E+01    2.296E+01    2.283E+01    2.270E+01
     2.257E+01    2.245E+01    2.232E+01    2.220E+01    2.208E+01    2.196E+01    2.184E+01    2.172E+01    2.160E+01    2.149E+01
     2.137E+01    2.126E+01    2.115E+01    2.104E+01    2.093E+01    2.082E+01    2.071E+01    2.060E+01    2.049E+01    2.039E+01
     2.028E+01    2.018E+01    2.007E+01    1.997E+01    1.987E+01    1.977E+01    1.967E+01    1.957E+01    1.947E+01    1.937E+01
     1.928E+01    1.918E+01    1.909E+01    1.899E+01    1.890E+01    1.880E+01    1.871E+01    1.862E+01    1.853E+01    1.844E+01
     1.835E+01    1.826E+01    1.817E+01    1.808E+01    1.799E+01    1.790E+01    1.781E+01    1.773E+01    1.764E+01    1.756E+01
     1.747E+01    1.738E+01    1.730E+01    1.722E+01    1.713E+01    1.705E+01    1.696E+01    1.688E+01    1.680E+01    1.672E+01
     1.663E+01    1.655E+01    1.647E+01    1.639E+01    1.631E+01    1.623E+01    1.615E+01    1.607E+01    1.599E+01    1.591E+01
     1.583E+01    1.575E+01    1.567E+01    1.560E+01    1.552E+01    1.544E+01    1.537E+01    1.529E+01    1.521E+01    1.514E+01
     1.507E+01    1.499E+01    1.492E+01    1.484E+01    1.477E+01    1.470E+01    1.463E+01    1.455E+01    1.448E+01    1.441E+01
     1.434E+01    1.427E+01    1.420E+01    1.414E+01    1.407E+01    1.400E+01    1.393E+01    1.387E+01    1.380E+01    1.373E+01
     1.367E+01    1.361E+01    1.354E+01    1.348E+01    1.342E+01    1.335E+01    1.329E+01    1.323E+01    1.317E+01    1.311E+01
     1.305E+01    1.299E+01    1.293E+01    1.287E+01    1.282E+01    1.276E+01    1.270E+01    1.265E+01    1.259E+01    1.254E+01
     1.248E+01    1.243E+01    1.237E+01    1.232E+01    1.227E+01    1.222E+01    1.217E+01    1.211E+01    1.206E+01    1.201E+01
     1.196E+01    1.192E+01    1.187E+01    1.182E+01    1.177E+01    1.172E+01    1.168E+01    1.163E+01    1.158E+01    1.154E+01
     1.149E+01    1.145E+01    1.140E+01    1.136E+01    1.132E+01    1.127E+01    1.123E+01    1.119E+01    1.115E+01    1.111E+01
     1.107E+01    1.103E+01    1.099E+01    1.095E+01    1.091E+01    1.087E+01    1.083E+01    1.079E+01    1.075E+01    1.072E+01
     1.068E+01    1.064E+01    1.061E+01    1.057E+01    1.054E+01    1.050E+01    1.047E+01    1.043E+01    1.040E+01    1.036E+01
     1.033E+01    1.030E+01    1.027E+01    1.023E+01    1.020E+01    1.017E+01    1.014E+01    1.011E+01    1.008E+01    1.005E+01
     1.002E+01    9.989E+00    9.959E+00    9.930E+00    9.902E+00    9.873E+00    9.845E+00    9.818E+00    9.790E+00    9.763E+00
     9.736E+00    9.710E+00    9.683E+00    9.657E+00    9.631E+00    9.606E+00    9.581E+00    9.556E+00    9.531E+00    9.506E+00
     9.482E+00    9.458E+00    9.434E+00    9.410E+00    9.387E+00    9.363E+00    9.340E+00    9.317E+00    9.294E+00    9.271E+00
     9.249E+00    9.226E+00    9.204E+00    9.182E+00    9.160E+00    9.138E+00    9.116E+00    9.094E+00    9.073E+00    9.051E+00
     9.029E+00    9.008E+00    8.986E+00    8.965E+00    8.943E+00    8.922E+00    8.901E+00    8.879E+00    8.858E+00    8.837E+00
     8.815E+00    8.794E+00    8.772E+00    8.751E+00    8.729E+00    8.708E+00    8.686E+00    8.665E+00    8.643E+00    8.621E+00
     8.599E+00    8.577E+00    8.555E+00    8.533E+00    8.510E+00    8.488E+00    8.466E+00    8.443E+00    8.420E+00    8.397E+00
     8.374E+00    8.351E+00    8.328E+00    8.305E+00    8.282E+00    8.258E+00    8.234E+00    8.210E+00    8.186E+00    8.162E+00
     8.138E+00    8.114E+00    8.089E+00    8.064E+00    8.039E+00    8.014E+00    7.989E+00    7.964E+00    7.938E+00    7.912E+00
     7.886E+00    7.860E+00    7.834E+00    7.807E+00    7.780E+00    7.754E+00    7.726E+00    7.699E+00    7.671E+00    7.644E+00
     7.616E+00    7.587E+00    7.559E+00    7.530E+00    7.501E+00    7.472E+00    7.443E+00    7.413E+00    7.384E+00    7.354E+00
     7.324E+00    7.294E+00    7.263E+00    7.232E+00    7.202E+00    7.171E+00    7.140E+00    7.108E+00    7.077E+00    7.046E+00
     7.014E+00    6.982E+00    6.950E+00    6.919E+00    6.887E+00    6.854E+00    6.822E+00    6.790E+00    6.757E+00    6.725E+00
     6.693E+00    6.660E+00    6.627E+00    6.595E+00    6.562E+00    6.529E+00    6.497E+00    6.464E+00    6.431E+00    6.398E+00
     6.365E+00    6.333E+00    6.300E+00    6.267E+00    6.234E+00    6.201E+00    6.169E+00    6.136E+00
 Asp      Conc. = 1.70E+01
