 LCModel (Version 6.3-1L) Copyright: S.W. Provencher.          Ref.: Magn. Reson. Med. 30:672-679 (1993).                
 Slice#3 Row#5 Col#12  K_02_press_1_raw_act
 36 lines in following concentration table = NCONC+1
    Conc.  %SD /Cr+PCr  Metabolite                                         
 1.08E+03  33%   6.276 Ala                                                 
   31.017  27%   0.180 Asp                                                 
    0.000 999%   0.000 Cr                                                  
  172.792  42%   1.000 PCr                                                 
   18.609  27%   0.108 GABA                                                
   18.613  27%   0.108 Glc                                                 
 6.69E+03  17%  38.707 Gln                                                 
 9.76E+03  18%  56.483 Glu                                                 
    0.000 999%   0.000 GPC                                                 
  149.195  25%   0.863 PCh                                                 
    0.000 999%   0.000 GSH                                                 
 1.40E+03  36%   8.089 Ins                                                 
    0.000 999%   0.000 Lac                                                 
    0.000 999%   0.000 NAA                                                 
    0.000 999%   0.000 NAAG                                                
    6.206  27% 3.6E-02 Scyllo                                              
   31.021  27%   0.180 Tau                                                 
    0.000 999%   0.000 -CrCH2                                              
  149.195  25%   0.863 GPC+PCh                                             
    0.000 999%   0.000 NAA+NAAG                                            
  172.792  42%   1.000 Cr+PCr                                              
 1.64E+04  17%  95.189 Glu+Gln                                             
  210.108 999%   1.216 Lip13a                                              
 1.01E+03  40%   5.820 Lip13b                                              
 9.48E+03  21%  54.878 Lip09                                               
 4.71E+03  23%  27.264 MM09                                                
 2.23E+03  41%  12.935 Lip20                                               
 1.49E+04  10%  86.119 MM20                                                
 1.14E+04  21%  66.240 MM12                                                
 8.87E+04   6% 513.199+MM14                                                
 7.25E+03  25%  41.948 MM17                                                
 1.22E+03 284%   7.036 Lip13a+Lip13b                                       
 1.01E+05   4% 586.475 MM14+Lip13a+Lip13b+MM12                             
 1.42E+04  16%  82.142 MM09+Lip09                                          
 1.71E+04   8%  99.053 MM20+Lip20                                          
   6 lines in following misc. output table
  FWHM = 0.092 ppm    S/N =  32                                            
  Data shift = 0.199 ppm                                                   
  Ph:-129 deg      50.5 deg/ppm                                            
  alphaB,S = 1.0E+01,   2.6E+01                                            
    6 spline knots.   Ns = 9(2)                                            
  ( 5) 2 infls.   ( 2) 2 extrs.                                            
  498 points on ppm-axis = NY
      4.000000     3.992357     3.984714     3.977070     3.969427     3.961784     3.954141     3.946497     3.938854     3.931211
      3.923568     3.915925     3.908281     3.900638     3.892995     3.885352     3.877708     3.870065     3.862422     3.854779
      3.847136     3.839492     3.831849     3.824206     3.816563     3.808919     3.801276     3.793633     3.785990     3.778347
      3.770703     3.763060     3.755417     3.747774     3.740130     3.732487     3.724844     3.717201     3.709558     3.701914
      3.694271     3.686628     3.678985     3.671341     3.663698     3.656055     3.648412     3.640769     3.633125     3.625482
      3.617839     3.610196     3.602552     3.594909     3.587266     3.579623     3.571980     3.564336     3.556693     3.549050
      3.541407     3.533763     3.526120     3.518477     3.510834     3.503191     3.495547     3.487904     3.480261     3.472618
      3.464974     3.457331     3.449688     3.442045     3.434402     3.426758     3.419115     3.411472     3.403829     3.396185
      3.388542     3.380899     3.373256     3.365613     3.357969     3.350326     3.342683     3.335040     3.327396     3.319753
      3.312110     3.304467     3.296824     3.289180     3.281537     3.273894     3.266251     3.258607     3.250964     3.243321
      3.235678     3.228034     3.220391     3.212748     3.205105     3.197462     3.189818     3.182175     3.174532     3.166889
      3.159245     3.151602     3.143959     3.136316     3.128673     3.121029     3.113386     3.105743     3.098100     3.090456
      3.082813     3.075170     3.067527     3.059884     3.052240     3.044597     3.036954     3.029311     3.021667     3.014024
      3.006381     2.998738     2.991095     2.983451     2.975808     2.968165     2.960522     2.952878     2.945235     2.937592
      2.929949     2.922306     2.914662     2.907019     2.899376     2.891733     2.884089     2.876446     2.868803     2.861160
      2.853517     2.845873     2.838230     2.830587     2.822944     2.815300     2.807657     2.800014     2.792371     2.784728
      2.777084     2.769441     2.761798     2.754155     2.746511     2.738868     2.731225     2.723582     2.715939     2.708295
      2.700652     2.693009     2.685366     2.677722     2.670079     2.662436     2.654793     2.647150     2.639506     2.631863
      2.624220     2.616577     2.608933     2.601290     2.593647     2.586004     2.578361     2.570717     2.563074     2.555431
      2.547788     2.540144     2.532501     2.524858     2.517215     2.509572     2.501928     2.494285     2.486642     2.478999
      2.471355     2.463712     2.456069     2.448426     2.440783     2.433139     2.425496     2.417853     2.410210     2.402566
      2.394923     2.387280     2.379637     2.371994     2.364350     2.356707     2.349064     2.341421     2.333777     2.326134
      2.318491     2.310848     2.303205     2.295561     2.287918     2.280275     2.272632     2.264988     2.257345     2.249702
      2.242059     2.234416     2.226772     2.219129     2.211486     2.203843     2.196199     2.188556     2.180913     2.173270
      2.165627     2.157983     2.150340     2.142697     2.135054     2.127410     2.119767     2.112124     2.104481     2.096838
      2.089194     2.081551     2.073908     2.066265     2.058621     2.050978     2.043335     2.035692     2.028049     2.020405
      2.012762     2.005119     1.997476     1.989833     1.982190     1.974546     1.966903     1.959260     1.951617     1.943974
      1.936331     1.928688     1.921045     1.913402     1.905759     1.898115     1.890472     1.882829     1.875186     1.867543
      1.859900     1.852257     1.844614     1.836971     1.829327     1.821684     1.814041     1.806398     1.798755     1.791112
      1.783469     1.775826     1.768183     1.760540     1.752896     1.745253     1.737610     1.729967     1.722324     1.714681
      1.707038     1.699395     1.691752     1.684108     1.676465     1.668822     1.661179     1.653536     1.645893     1.638250
      1.630607     1.622964     1.615321     1.607677     1.600034     1.592391     1.584748     1.577105     1.569462     1.561819
      1.554176     1.546533     1.538890     1.531246     1.523603     1.515960     1.508317     1.500674     1.493031     1.485388
      1.477745     1.470102     1.462458     1.454815     1.447172     1.439529     1.431886     1.424243     1.416600     1.408957
      1.401314     1.393671     1.386027     1.378384     1.370741     1.363098     1.355455     1.347812     1.340169     1.332526
      1.324883     1.317240     1.309596     1.301953     1.294310     1.286667     1.279024     1.271381     1.263738     1.256095
      1.248452     1.240808     1.233165     1.225522     1.217879     1.210236     1.202593     1.194950     1.187307     1.179664
      1.172021     1.164377     1.156734     1.149091     1.141448     1.133805     1.126162     1.118519     1.110876     1.103233
      1.095590     1.087946     1.080303     1.072660     1.065017     1.057374     1.049731     1.042088     1.034445     1.026802
      1.019158     1.011515     1.003872     0.996229     0.988586     0.980943     0.973300     0.965657     0.958014     0.950371
      0.942727     0.935084     0.927441     0.919798     0.912155     0.904512     0.896869     0.889226     0.881583     0.873940
      0.866296     0.858653     0.851010     0.843367     0.835724     0.828081     0.820438     0.812795     0.805152     0.797508
      0.789865     0.782222     0.774579     0.766936     0.759293     0.751650     0.744007     0.736364     0.728721     0.721077
      0.713434     0.705791     0.698148     0.690505     0.682862     0.675219     0.667576     0.659933     0.652290     0.644646
      0.637003     0.629360     0.621717     0.614074     0.606431     0.598788     0.591145     0.583502     0.575858     0.568215
      0.560572     0.552929     0.545286     0.537643     0.530000     0.522357     0.514714     0.507071     0.499427     0.491784
      0.484141     0.476498     0.468855     0.461212     0.453569     0.445925     0.438282     0.430639     0.422996     0.415353
      0.407710     0.400067     0.392424     0.384780     0.377137     0.369494     0.361851     0.354208     0.346565     0.338922
      0.331278     0.323635     0.315992     0.308349     0.300706     0.293063     0.285420     0.277777     0.270133     0.262490
      0.254847     0.247204     0.239561     0.231918     0.224275     0.216631     0.208988     0.201345
 NY phased data points follow
  -1.23452E+01 -8.07968E+00 -7.75086E+00 -1.12131E+01 -1.49158E+01 -1.54149E+01 -1.42589E+01 -1.00875E+01 -1.45521E+01 -1.40263E+01
  -1.36167E+01 -1.43857E+01 -1.27521E+01 -1.44187E+01 -1.52188E+01 -1.41120E+01 -1.41118E+01 -1.49593E+01 -1.46083E+01 -1.85315E+01
  -1.76001E+01 -1.99121E+01 -1.68363E+01 -1.52372E+01 -1.74011E+01 -1.85551E+01 -1.91474E+01 -1.61461E+01 -1.75461E+01 -1.62400E+01
  -1.86525E+01 -1.76784E+01 -1.69038E+01 -1.67945E+01 -1.78804E+01 -1.70707E+01 -1.38519E+01 -1.95504E+01 -1.56877E+01 -1.71632E+01
  -2.02442E+01 -1.96294E+01 -1.89974E+01 -2.11084E+01 -1.58024E+01 -2.07235E+01 -2.15423E+01 -2.07762E+01 -2.02739E+01 -2.12865E+01
  -2.32050E+01 -2.05840E+01 -2.26936E+01 -2.05257E+01 -2.21236E+01 -2.30075E+01 -2.27882E+01 -2.48962E+01 -2.60015E+01 -2.34762E+01
  -2.46335E+01 -2.84338E+01 -2.30248E+01 -2.90864E+01 -2.91900E+01 -3.00684E+01 -2.81372E+01 -3.25877E+01 -3.02424E+01 -2.97731E+01
  -3.36916E+01 -3.45950E+01 -3.92661E+01 -3.98907E+01 -3.98690E+01 -4.19767E+01 -3.99916E+01 -4.06276E+01 -3.90161E+01 -3.51477E+01
  -3.66153E+01 -3.05161E+01 -3.25492E+01 -3.61824E+01 -3.15940E+01 -3.34503E+01 -3.25158E+01 -3.24067E+01 -3.57311E+01 -3.74828E+01
  -3.74737E+01 -3.65455E+01 -3.65471E+01 -4.02945E+01 -4.15120E+01 -4.78759E+01 -4.56938E+01 -5.07517E+01 -5.74198E+01 -5.50707E+01
  -5.01214E+01 -4.68769E+01 -4.19177E+01 -3.83708E+01 -3.62859E+01 -3.81619E+01 -3.50844E+01 -3.43471E+01 -3.23632E+01 -3.33476E+01
  -3.54907E+01 -3.55347E+01 -3.76557E+01 -3.76851E+01 -3.75891E+01 -3.63340E+01 -3.85953E+01 -3.91059E+01 -3.75046E+01 -3.89518E+01
  -3.89143E+01 -3.70344E+01 -4.06837E+01 -4.04958E+01 -3.79150E+01 -3.98471E+01 -4.10748E+01 -4.40047E+01 -4.08700E+01 -4.25346E+01
  -4.16740E+01 -4.01354E+01 -4.26439E+01 -4.09807E+01 -4.10434E+01 -4.13486E+01 -4.10277E+01 -4.00854E+01 -4.02114E+01 -4.07580E+01
  -4.22600E+01 -4.05706E+01 -3.84897E+01 -4.02956E+01 -4.04469E+01 -3.83051E+01 -4.15414E+01 -4.41558E+01 -4.37606E+01 -4.71769E+01
  -4.79397E+01 -5.03656E+01 -4.96259E+01 -5.01280E+01 -5.19581E+01 -5.12112E+01 -5.44535E+01 -5.44537E+01 -5.23543E+01 -5.27789E+01
  -5.12709E+01 -5.78771E+01 -5.48847E+01 -5.77592E+01 -5.65824E+01 -5.69258E+01 -5.71964E+01 -5.77781E+01 -5.43060E+01 -5.59826E+01
  -5.68504E+01 -6.15376E+01 -6.24599E+01 -6.01264E+01 -6.51441E+01 -6.45748E+01 -6.18877E+01 -6.42837E+01 -6.47908E+01 -6.14199E+01
  -6.51088E+01 -6.37849E+01 -6.48868E+01 -6.70549E+01 -7.06395E+01 -6.91660E+01 -7.05825E+01 -6.44430E+01 -6.87493E+01 -6.28903E+01
  -5.97843E+01 -6.20968E+01 -5.95509E+01 -6.17362E+01 -6.27373E+01 -6.13440E+01 -6.53508E+01 -6.52832E+01 -6.20776E+01 -6.53816E+01
  -6.21938E+01 -6.34270E+01 -6.00378E+01 -6.10034E+01 -5.80935E+01 -5.87488E+01 -5.69574E+01 -5.51192E+01 -5.36647E+01 -5.42726E+01
  -4.91382E+01 -5.33778E+01 -5.10167E+01 -5.05459E+01 -4.68216E+01 -4.70309E+01 -4.87399E+01 -5.07070E+01 -4.87286E+01 -4.76080E+01
  -4.70935E+01 -4.94957E+01 -4.72340E+01 -4.62080E+01 -4.88055E+01 -4.74956E+01 -4.53881E+01 -5.16266E+01 -4.37349E+01 -4.27215E+01
  -4.14036E+01 -3.83844E+01 -3.01069E+01 -1.79443E+01 -4.25550E+00  3.83970E+00  1.37662E+01  1.07173E+01  1.20706E+01  1.04977E+01
   8.28957E+00  7.78761E+00  4.78541E+00  4.90228E+00 -1.12885E+00  6.59332E-01 -2.32249E+00 -4.59869E-01 -1.28540E-01 -1.38510E+00
  -5.78396E-01  1.77703E+00 -4.31424E+00 -4.30700E+00 -3.80455E+00 -2.64493E+00 -5.55764E+00 -4.12882E+00 -3.79664E+00 -2.87220E+00
  -2.20008E+00  9.47546E-01 -2.68840E+00 -2.73333E+00 -8.55721E-01 -2.77136E+00 -1.31919E+00 -1.33338E+00 -1.18446E+00 -4.56689E-01
   1.18195E+00  4.23049E+00  4.15467E+00  4.33008E+00  8.40584E+00  5.81737E+00  9.36388E+00  9.39362E+00  1.12110E+01  1.12073E+01
   1.35481E+01  1.37586E+01  1.76717E+01  2.22995E+01  2.16677E+01  1.77032E+01  2.11359E+01  2.34048E+01  2.58863E+01  2.71803E+01
   3.04506E+01  3.16320E+01  3.32883E+01  3.41832E+01  3.96884E+01  3.84369E+01  4.19171E+01  4.44568E+01  4.93773E+01  5.17403E+01
   5.37187E+01  6.17699E+01  6.54301E+01  6.90820E+01  7.45214E+01  8.14730E+01  8.94069E+01  9.93204E+01  1.02890E+02  1.11399E+02
   1.16932E+02  1.24309E+02  1.33616E+02  1.41089E+02  1.45298E+02  1.51135E+02  1.59546E+02  1.65497E+02  1.75734E+02  1.83522E+02
   1.87717E+02  1.98528E+02  2.05411E+02  2.12069E+02  2.19916E+02  2.25530E+02  2.24946E+02  2.24663E+02  2.27226E+02  2.28381E+02
   2.26773E+02  2.16664E+02  2.13424E+02  2.07899E+02  2.03193E+02  1.92589E+02  1.84587E+02  1.77374E+02  1.70301E+02  1.67545E+02
   1.59948E+02  1.50358E+02  1.46889E+02  1.41598E+02  1.33574E+02  1.31369E+02  1.23323E+02  1.19274E+02  1.17027E+02  1.09620E+02
   1.06372E+02  1.03078E+02  1.00011E+02  9.35616E+01  9.13950E+01  9.23170E+01  9.21747E+01  8.87277E+01  8.63128E+01  8.15932E+01
   7.93052E+01  7.56797E+01  7.21598E+01  7.22380E+01  6.99362E+01  6.86324E+01  6.77351E+01  6.49849E+01  6.70361E+01  5.82088E+01
   6.01134E+01  6.12419E+01  5.88821E+01  5.77503E+01  5.78693E+01  5.57176E+01  5.21381E+01  5.32663E+01  5.14667E+01  5.17331E+01
   4.82015E+01  4.40059E+01  4.58146E+01  4.51280E+01  4.48084E+01  4.38825E+01  4.13545E+01  3.88025E+01  3.76677E+01  3.70446E+01
   3.50536E+01  3.51835E+01  3.11418E+01  2.89907E+01  3.12464E+01  2.71191E+01  2.44457E+01  2.58514E+01  2.38822E+01  2.51944E+01
   2.09249E+01  2.07770E+01  1.93905E+01  2.18748E+01  1.60615E+01  1.78667E+01  1.66588E+01  1.48660E+01  1.33567E+01  1.34309E+01
   9.30387E+00  1.20037E+01  1.14138E+01  8.05600E+00  8.77508E+00  6.71350E+00  6.96626E+00  4.98316E+00  8.77492E+00  5.51391E+00
   6.93906E+00  5.29729E+00  4.26009E+00  1.65288E+00  3.63492E+00  7.44361E-01  6.80041E-01 -3.93261E-01  1.79823E+00 -1.46407E-01
  -1.54847E+00 -8.76898E-01  1.06126E+00 -2.44192E+00 -3.55655E+00 -3.23100E+00 -1.27733E+00 -3.05930E+00 -3.29315E+00 -4.38245E+00
  -2.50766E+00 -5.36510E+00 -6.55805E+00 -5.24324E+00 -8.33169E+00 -5.55272E+00 -6.95427E+00 -7.76020E+00 -6.65956E+00 -7.33824E+00
  -6.11363E+00 -7.92143E+00 -1.13260E+01 -6.40778E+00 -9.76560E+00 -1.08428E+01 -9.12281E+00 -1.07012E+01 -1.19270E+01 -1.18349E+01
  -1.20495E+01 -1.02994E+01 -1.04684E+01 -1.26349E+01 -1.25337E+01 -1.15140E+01 -1.34156E+01 -1.39717E+01 -1.17964E+01 -1.40782E+01
  -1.18552E+01 -1.13212E+01 -1.35382E+01 -1.39647E+01 -1.14043E+01 -1.37271E+01 -1.55838E+01 -1.53803E+01 -1.02683E+01 -1.49338E+01
  -1.58051E+01 -1.42124E+01 -1.73633E+01 -1.56385E+01 -1.83060E+01 -1.69113E+01 -1.45348E+01 -1.61554E+01 -1.58016E+01 -1.60212E+01
  -1.63880E+01 -1.28815E+01 -1.42875E+01 -1.22903E+01 -1.66522E+01 -1.53701E+01 -1.58580E+01 -1.85352E+01
 NY points of the fit to the data follow
  -1.00143E+01 -1.03076E+01 -1.08109E+01 -1.13239E+01 -1.21272E+01 -1.28201E+01 -1.39589E+01 -1.46502E+01 -1.58485E+01 -1.64082E+01
  -1.74265E+01 -1.74777E+01 -1.81653E+01 -1.76168E+01 -1.79571E+01 -1.69631E+01 -1.73512E+01 -1.64001E+01 -1.67846E+01 -1.56118E+01
  -1.56291E+01 -1.54796E+01 -1.52168E+01 -1.62901E+01 -1.55891E+01 -1.77665E+01 -1.57493E+01 -1.81673E+01 -1.50197E+01 -1.84527E+01
  -1.47880E+01 -1.84176E+01 -1.46076E+01 -1.78046E+01 -1.39454E+01 -1.58628E+01 -1.29923E+01 -1.55919E+01 -1.41246E+01 -1.52820E+01
  -1.46463E+01 -1.52710E+01 -1.47479E+01 -1.54995E+01 -1.61808E+01 -1.84955E+01 -1.94398E+01 -2.21033E+01 -2.23803E+01 -2.22250E+01
  -2.05857E+01 -1.91201E+01 -1.77680E+01 -1.70100E+01 -1.75923E+01 -1.89608E+01 -2.10257E+01 -2.30033E+01 -2.51485E+01 -2.64538E+01
  -2.79417E+01 -2.92562E+01 -3.05855E+01 -3.14324E+01 -3.23209E+01 -3.26474E+01 -3.32043E+01 -3.30454E+01 -3.34846E+01 -3.31370E+01
  -3.38398E+01 -3.36306E+01 -3.45637E+01 -3.43663E+01 -3.52689E+01 -3.50341E+01 -3.57363E+01 -3.54845E+01 -3.59694E+01 -3.57503E+01
  -3.61114E+01 -3.60860E+01 -3.65736E+01 -3.69130E+01 -3.76224E+01 -3.83309E+01 -3.92545E+01 -4.01163E+01 -4.12540E+01 -4.20732E+01
  -4.34273E+01 -4.40635E+01 -4.53976E+01 -4.57646E+01 -4.68618E+01 -4.70164E+01 -4.76825E+01 -4.74941E+01 -4.71593E+01 -4.66479E+01
  -4.53735E+01 -4.46380E+01 -4.26436E+01 -4.18361E+01 -3.94324E+01 -3.87124E+01 -3.63995E+01 -3.59707E+01 -3.45369E+01 -3.44707E+01
  -3.38750E+01 -3.41090E+01 -3.45891E+01 -3.50797E+01 -3.61232E+01 -3.68588E+01 -3.86223E+01 -3.94595E+01 -4.10386E+01 -4.16925E+01
  -4.25390E+01 -4.26171E+01 -4.26016E+01 -4.21399E+01 -4.15758E+01 -4.08481E+01 -4.05573E+01 -3.97190E+01 -3.96001E+01 -3.87588E+01
  -3.89366E+01 -3.83993E+01 -3.88882E+01 -3.87073E+01 -3.95084E+01 -3.98527E+01 -4.08509E+01 -4.15454E+01 -4.26682E+01 -4.37663E+01
  -4.48354E+01 -4.59598E+01 -4.68242E+01 -4.77371E+01 -4.83647E+01 -4.89738E+01 -4.94188E+01 -4.97879E+01 -5.01984E+01 -5.06102E+01
  -5.10110E+01 -5.14066E+01 -5.17927E+01 -5.21798E+01 -5.25562E+01 -5.29377E+01 -5.33104E+01 -5.36900E+01 -5.40665E+01 -5.44434E+01
  -5.48217E+01 -5.51929E+01 -5.55682E+01 -5.59255E+01 -5.62864E+01 -5.66287E+01 -5.69752E+01 -5.72980E+01 -5.76242E+01 -5.79247E+01
  -5.82295E+01 -5.85096E+01 -5.87931E+01 -5.90614E+01 -5.93265E+01 -5.95781E+01 -5.98134E+01 -6.00216E+01 -6.02063E+01 -6.02894E+01
  -6.03926E+01 -6.02526E+01 -6.02533E+01 -5.98606E+01 -5.98376E+01 -5.93532E+01 -5.94915E+01 -5.91606E+01 -5.96980E+01 -5.98653E+01
  -6.08432E+01 -6.16319E+01 -6.28470E+01 -6.37752E+01 -6.48401E+01 -6.53124E+01 -6.56652E+01 -6.52668E+01 -6.47209E+01 -6.36473E+01
  -6.21599E+01 -6.07592E+01 -5.80894E+01 -5.70188E+01 -5.37846E+01 -5.44540E+01 -5.04915E+01 -5.28991E+01 -4.79104E+01 -5.08358E+01
  -4.58234E+01 -4.99268E+01 -4.52711E+01 -4.92103E+01 -4.52627E+01 -4.84532E+01 -4.65449E+01 -4.80763E+01 -4.75243E+01 -4.74121E+01
  -4.79541E+01 -4.65761E+01 -4.71765E+01 -4.52818E+01 -4.60796E+01 -4.50146E+01 -4.51700E+01 -4.72565E+01 -4.50180E+01 -4.61588E+01
  -3.98003E+01 -3.89279E+01 -2.84347E+01 -2.36824E+01 -1.15351E+01 -7.68100E+00  1.39078E+00  1.12712E+00  6.05892E+00  3.38060E+00
   5.07032E+00  2.93820E+00  2.98603E+00  3.75778E+00  2.78487E+00  5.70260E+00  2.12336E+00  6.19574E+00  7.82651E-01  5.55657E+00
  -1.19380E+00  2.85890E+00 -3.54460E+00 -7.10550E-01 -5.12486E+00 -3.48353E+00 -5.27532E+00 -4.43532E+00 -3.18963E+00 -2.33748E+00
  -1.06728E-01  9.68737E-01  3.25799E+00  3.63943E+00  4.28591E+00  3.71781E+00  3.34684E+00  1.74731E+00  1.57588E+00  1.45990E-01
   8.67747E-01 -2.33212E-01  1.87550E+00  1.08754E+00  3.52838E+00  2.78754E+00  5.40829E+00  5.30001E+00  7.83784E+00  9.12984E+00
   1.15872E+01  1.36893E+01  1.58971E+01  1.83988E+01  2.02615E+01  2.24338E+01  2.40709E+01  2.60415E+01  2.75007E+01  2.93317E+01
   3.08388E+01  3.27460E+01  3.45624E+01  3.67109E+01  3.88450E+01  4.11913E+01  4.36777E+01  4.63713E+01  4.93259E+01  5.25471E+01
   5.61154E+01  6.00547E+01  6.44029E+01  6.91568E+01  7.43486E+01  7.99611E+01  8.60011E+01  9.24460E+01  9.92663E+01  1.06433E+02
   1.13868E+02  1.21597E+02  1.29423E+02  1.37584E+02  1.45598E+02  1.54057E+02  1.62098E+02  1.70628E+02  1.78430E+02  1.86639E+02
   1.93825E+02  2.01375E+02  2.07780E+02  2.13663E+02  2.18632E+02  2.22133E+02  2.25263E+02  2.25904E+02  2.26800E+02  2.24145E+02
   2.22995E+02  2.17397E+02  2.14074E+02  2.06555E+02  2.01633E+02  1.92985E+02  1.86867E+02  1.78519E+02  1.72127E+02  1.64637E+02
   1.57656E+02  1.51615E+02  1.45055E+02  1.40446E+02  1.34177E+02  1.30209E+02  1.24609E+02  1.21059E+02  1.15611E+02  1.11690E+02
   1.06645E+02  1.03140E+02  9.93201E+01  9.64121E+01  9.37144E+01  9.12782E+01  8.92303E+01  8.70287E+01  8.46307E+01  8.20888E+01
   7.94847E+01  7.69196E+01  7.44913E+01  7.22741E+01  7.03056E+01  6.85849E+01  6.70775E+01  6.57269E+01  6.44674E+01  6.32361E+01
   6.19812E+01  6.06671E+01  5.92758E+01  5.78052E+01  5.62665E+01  5.46805E+01  5.30736E+01  5.14743E+01  4.99098E+01  4.84040E+01
   4.69747E+01  4.56333E+01  4.43833E+01  4.32209E+01  4.21353E+01  4.11102E+01  4.01248E+01  3.91560E+01  3.81800E+01  3.71745E+01
   3.61201E+01  3.50017E+01  3.38097E+01  3.25401E+01  3.11953E+01  2.97829E+01  2.83158E+01  2.68104E+01  2.52860E+01  2.37632E+01
   2.22627E+01  2.08041E+01  1.94049E+01  1.80796E+01  1.68394E+01  1.56917E+01  1.46404E+01  1.36855E+01  1.28242E+01  1.20506E+01
   1.13568E+01  1.07332E+01  1.01691E+01  9.65326E+00  9.17432E+00  8.72131E+00  8.28393E+00  7.85277E+00  7.41959E+00  6.97730E+00
   6.52019E+00  6.04380E+00  5.54500E+00  5.02180E+00  4.47340E+00  3.89995E+00  3.30253E+00  2.68295E+00  2.04363E+00  1.38752E+00
   7.17838E-01  3.81818E-02 -6.47906E-01 -1.33666E+00 -2.02457E+00 -2.70807E+00 -3.38396E+00 -4.04914E+00 -4.70086E+00 -5.33667E+00
  -5.95436E+00 -6.55215E+00 -7.12842E+00 -7.68203E+00 -8.21192E+00 -8.71751E+00 -9.19825E+00 -9.65404E+00 -1.00847E+01 -1.04905E+01
  -1.08717E+01 -1.12287E+01 -1.15620E+01 -1.18723E+01 -1.21600E+01 -1.24262E+01 -1.26714E+01 -1.28965E+01 -1.31022E+01 -1.32894E+01
  -1.34588E+01 -1.36112E+01 -1.37475E+01 -1.38683E+01 -1.39744E+01 -1.40666E+01 -1.41454E+01 -1.42117E+01 -1.42660E+01 -1.43088E+01
  -1.43410E+01 -1.43628E+01 -1.43750E+01 -1.43781E+01 -1.43724E+01 -1.43585E+01 -1.43368E+01 -1.43077E+01 -1.42717E+01 -1.42290E+01
  -1.41802E+01 -1.41254E+01 -1.40651E+01 -1.39996E+01 -1.39291E+01 -1.38539E+01 -1.37743E+01 -1.36906E+01 -1.36030E+01 -1.35118E+01
  -1.34170E+01 -1.33191E+01 -1.32182E+01 -1.31144E+01 -1.30080E+01 -1.28992E+01 -1.27881E+01 -1.26750E+01
 NY background values follow
    -1.911E+01   -1.939E+01   -1.966E+01   -1.994E+01   -2.022E+01   -2.051E+01   -2.079E+01   -2.107E+01   -2.136E+01   -2.164E+01
    -2.193E+01   -2.221E+01   -2.250E+01   -2.279E+01   -2.308E+01   -2.337E+01   -2.366E+01   -2.395E+01   -2.425E+01   -2.454E+01
    -2.483E+01   -2.513E+01   -2.542E+01   -2.572E+01   -2.602E+01   -2.631E+01   -2.661E+01   -2.691E+01   -2.721E+01   -2.751E+01
    -2.781E+01   -2.811E+01   -2.841E+01   -2.871E+01   -2.901E+01   -2.931E+01   -2.961E+01   -2.992E+01   -3.022E+01   -3.052E+01
    -3.082E+01   -3.113E+01   -3.143E+01   -3.174E+01   -3.204E+01   -3.234E+01   -3.265E+01   -3.295E+01   -3.326E+01   -3.356E+01
    -3.387E+01   -3.417E+01   -3.448E+01   -3.478E+01   -3.508E+01   -3.539E+01   -3.569E+01   -3.600E+01   -3.630E+01   -3.661E+01
    -3.691E+01   -3.721E+01   -3.752E+01   -3.782E+01   -3.812E+01   -3.843E+01   -3.873E+01   -3.903E+01   -3.933E+01   -3.964E+01
    -3.994E+01   -4.024E+01   -4.054E+01   -4.084E+01   -4.114E+01   -4.144E+01   -4.174E+01   -4.203E+01   -4.233E+01   -4.263E+01
    -4.292E+01   -4.322E+01   -4.352E+01   -4.381E+01   -4.410E+01   -4.440E+01   -4.469E+01   -4.498E+01   -4.527E+01   -4.556E+01
    -4.585E+01   -4.614E+01   -4.643E+01   -4.671E+01   -4.700E+01   -4.729E+01   -4.757E+01   -4.785E+01   -4.813E+01   -4.842E+01
    -4.870E+01   -4.898E+01   -4.925E+01   -4.953E+01   -4.981E+01   -5.008E+01   -5.036E+01   -5.063E+01   -5.090E+01   -5.117E+01
    -5.144E+01   -5.171E+01   -5.197E+01   -5.224E+01   -5.250E+01   -5.277E+01   -5.303E+01   -5.329E+01   -5.355E+01   -5.380E+01
    -5.406E+01   -5.431E+01   -5.457E+01   -5.482E+01   -5.507E+01   -5.532E+01   -5.556E+01   -5.581E+01   -5.605E+01   -5.629E+01
    -5.653E+01   -5.677E+01   -5.701E+01   -5.725E+01   -5.748E+01   -5.771E+01   -5.794E+01   -5.817E+01   -5.840E+01   -5.862E+01
    -5.884E+01   -5.906E+01   -5.928E+01   -5.950E+01   -5.972E+01   -5.993E+01   -6.014E+01   -6.035E+01   -6.056E+01   -6.076E+01
    -6.097E+01   -6.117E+01   -6.137E+01   -6.156E+01   -6.176E+01   -6.195E+01   -6.214E+01   -6.233E+01   -6.252E+01   -6.270E+01
    -6.288E+01   -6.306E+01   -6.324E+01   -6.341E+01   -6.358E+01   -6.375E+01   -6.392E+01   -6.409E+01   -6.425E+01   -6.441E+01
    -6.457E+01   -6.472E+01   -6.488E+01   -6.503E+01   -6.518E+01   -6.532E+01   -6.546E+01   -6.561E+01   -6.574E+01   -6.588E+01
    -6.602E+01   -6.615E+01   -6.628E+01   -6.640E+01   -6.653E+01   -6.665E+01   -6.677E+01   -6.689E+01   -6.700E+01   -6.712E+01
    -6.723E+01   -6.734E+01   -6.744E+01   -6.755E+01   -6.765E+01   -6.775E+01   -6.784E+01   -6.794E+01   -6.803E+01   -6.812E+01
    -6.821E+01   -6.829E+01   -6.838E+01   -6.846E+01   -6.853E+01   -6.861E+01   -6.868E+01   -6.876E+01   -6.883E+01   -6.889E+01
    -6.896E+01   -6.902E+01   -6.908E+01   -6.914E+01   -6.919E+01   -6.925E+01   -6.930E+01   -6.935E+01   -6.940E+01   -6.944E+01
    -6.948E+01   -6.952E+01   -6.956E+01   -6.960E+01   -6.963E+01   -6.966E+01   -6.969E+01   -6.972E+01   -6.974E+01   -6.976E+01
    -6.979E+01   -6.980E+01   -6.982E+01   -6.983E+01   -6.984E+01   -6.985E+01   -6.986E+01   -6.987E+01   -6.987E+01   -6.987E+01
    -6.987E+01   -6.987E+01   -6.986E+01   -6.985E+01   -6.984E+01   -6.983E+01   -6.982E+01   -6.980E+01   -6.978E+01   -6.976E+01
    -6.974E+01   -6.971E+01   -6.969E+01   -6.966E+01   -6.963E+01   -6.959E+01   -6.956E+01   -6.952E+01   -6.948E+01   -6.944E+01
    -6.939E+01   -6.935E+01   -6.930E+01   -6.925E+01   -6.920E+01   -6.914E+01   -6.909E+01   -6.903E+01   -6.897E+01   -6.891E+01
    -6.884E+01   -6.877E+01   -6.871E+01   -6.864E+01   -6.856E+01   -6.849E+01   -6.841E+01   -6.833E+01   -6.825E+01   -6.817E+01
    -6.808E+01   -6.800E+01   -6.791E+01   -6.782E+01   -6.772E+01   -6.763E+01   -6.753E+01   -6.743E+01   -6.733E+01   -6.723E+01
    -6.713E+01   -6.702E+01   -6.691E+01   -6.680E+01   -6.669E+01   -6.657E+01   -6.645E+01   -6.634E+01   -6.621E+01   -6.609E+01
    -6.597E+01   -6.584E+01   -6.571E+01   -6.558E+01   -6.545E+01   -6.532E+01   -6.518E+01   -6.504E+01   -6.490E+01   -6.476E+01
    -6.462E+01   -6.447E+01   -6.432E+01   -6.417E+01   -6.402E+01   -6.387E+01   -6.371E+01   -6.355E+01   -6.340E+01   -6.323E+01
    -6.307E+01   -6.291E+01   -6.274E+01   -6.257E+01   -6.240E+01   -6.223E+01   -6.205E+01   -6.188E+01   -6.170E+01   -6.152E+01
    -6.134E+01   -6.116E+01   -6.097E+01   -6.078E+01   -6.059E+01   -6.040E+01   -6.021E+01   -6.002E+01   -5.982E+01   -5.962E+01
    -5.942E+01   -5.922E+01   -5.902E+01   -5.882E+01   -5.861E+01   -5.840E+01   -5.819E+01   -5.798E+01   -5.777E+01   -5.756E+01
    -5.734E+01   -5.712E+01   -5.691E+01   -5.669E+01   -5.646E+01   -5.624E+01   -5.602E+01   -5.579E+01   -5.557E+01   -5.534E+01
    -5.511E+01   -5.488E+01   -5.465E+01   -5.441E+01   -5.418E+01   -5.394E+01   -5.371E+01   -5.347E+01   -5.323E+01   -5.299E+01
    -5.275E+01   -5.250E+01   -5.226E+01   -5.202E+01   -5.177E+01   -5.152E+01   -5.127E+01   -5.103E+01   -5.078E+01   -5.053E+01
    -5.027E+01   -5.002E+01   -4.977E+01   -4.951E+01   -4.926E+01   -4.900E+01   -4.874E+01   -4.849E+01   -4.823E+01   -4.797E+01
    -4.771E+01   -4.745E+01   -4.718E+01   -4.692E+01   -4.666E+01   -4.640E+01   -4.613E+01   -4.587E+01   -4.560E+01   -4.533E+01
    -4.507E+01   -4.480E+01   -4.453E+01   -4.426E+01   -4.400E+01   -4.373E+01   -4.346E+01   -4.319E+01   -4.292E+01   -4.265E+01
    -4.237E+01   -4.210E+01   -4.183E+01   -4.156E+01   -4.129E+01   -4.101E+01   -4.074E+01   -4.047E+01   -4.019E+01   -3.992E+01
    -3.964E+01   -3.937E+01   -3.910E+01   -3.882E+01   -3.855E+01   -3.827E+01   -3.800E+01   -3.772E+01   -3.745E+01   -3.717E+01
    -3.690E+01   -3.662E+01   -3.635E+01   -3.607E+01   -3.580E+01   -3.552E+01   -3.525E+01   -3.498E+01   -3.470E+01   -3.443E+01
    -3.415E+01   -3.388E+01   -3.361E+01   -3.333E+01   -3.306E+01   -3.279E+01   -3.252E+01   -3.224E+01   -3.197E+01   -3.170E+01
    -3.143E+01   -3.116E+01   -3.089E+01   -3.062E+01   -3.035E+01   -3.008E+01   -2.981E+01   -2.955E+01   -2.928E+01   -2.901E+01
    -2.875E+01   -2.848E+01   -2.822E+01   -2.795E+01   -2.769E+01   -2.742E+01   -2.716E+01   -2.690E+01   -2.664E+01   -2.638E+01
    -2.612E+01   -2.586E+01   -2.560E+01   -2.535E+01   -2.509E+01   -2.484E+01   -2.458E+01   -2.433E+01   -2.408E+01   -2.382E+01
    -2.357E+01   -2.332E+01   -2.307E+01   -2.283E+01   -2.258E+01   -2.233E+01   -2.209E+01   -2.185E+01   -2.160E+01   -2.136E+01
    -2.112E+01   -2.088E+01   -2.064E+01   -2.041E+01   -2.017E+01   -1.994E+01   -1.970E+01   -1.947E+01
 Ala      Conc. = 1.08E+03
