 LCModel (Version 6.3-1L) Copyright: S.W. Provencher.          Ref.: Magn. Reson. Med. 30:672-679 (1993).                
 Slice#3 Row#1 Col#2  K_02_press_1_raw_act
 36 lines in following concentration table = NCONC+1
    Conc.  %SD /Cr+PCr  Metabolite                                         
 1.21E+03  17%  25.347 Ala                                                 
    0.987 999% 2.1E-02 Asp                                                 
    0.000 999%   0.000 Cr                                                  
   47.883  55%   1.000 PCr                                                 
    1.582 557% 3.3E-02 GABA                                                
    2.348 376% 4.9E-02 Glc                                                 
    0.000 999%   0.000 Gln                                                 
    0.000 999%   0.000 Glu                                                 
    0.000 999%   0.000 GPC                                                 
   15.615  69%   0.326 PCh                                                 
   66.068  63%   1.380 GSH                                                 
  236.260  53%   4.934 Ins                                                 
 2.42E+03   8%  50.472 Lac                                                 
    0.000 999%   0.000 NAA                                                 
    0.000 999%   0.000 NAAG                                                
    0.467 623% 9.8E-03 Scyllo                                              
    3.544 408% 7.4E-02 Tau                                                 
   25.465  97%   0.532 -CrCH2                                              
   15.615  69%   0.326 GPC+PCh                                             
    0.000 999%   0.000 NAA+NAAG                                            
   47.883  55%   1.000 Cr+PCr                                              
    0.000 999%   0.000 Glu+Gln                                             
    0.000 999%   0.000 Lip13a                                              
    0.000 999%   0.000 Lip13b                                              
   65.482  60%   1.368 Lip09                                               
  224.498  17%   4.688 MM09                                                
    0.000 999%   0.000 Lip20                                               
  223.295  26%   4.663 MM20                                                
   66.880  23%   1.397 MM12                                                
  330.841  12%   6.909+MM14                                                
  158.585  18%   3.312 MM17                                                
    0.000 999%   0.000 Lip13a+Lip13b                                       
  397.721  12%   8.306 MM14+Lip13a+Lip13b+MM12                             
  289.980  16%   6.056 MM09+Lip09                                          
  223.295  26%   4.663 MM20+Lip20                                          
   6 lines in following misc. output table
  FWHM = 0.168 ppm    S/N =   5                                            
  Data shift = 0.145 ppm                                                   
  Ph:-112 deg      41.6 deg/ppm                                            
  alphaB,S = 2.9E+00,   6.7E+02                                            
    7 spline knots.   Ns = 9(2)                                            
  (15) 2 infls.   ( 5) 1 extrs.                                            
  498 points on ppm-axis = NY
      4.000000     3.992357     3.984714     3.977070     3.969427     3.961784     3.954141     3.946497     3.938854     3.931211
      3.923568     3.915925     3.908281     3.900638     3.892995     3.885352     3.877708     3.870065     3.862422     3.854779
      3.847136     3.839492     3.831849     3.824206     3.816563     3.808919     3.801276     3.793633     3.785990     3.778347
      3.770703     3.763060     3.755417     3.747774     3.740130     3.732487     3.724844     3.717201     3.709558     3.701914
      3.694271     3.686628     3.678985     3.671341     3.663698     3.656055     3.648412     3.640769     3.633125     3.625482
      3.617839     3.610196     3.602552     3.594909     3.587266     3.579623     3.571980     3.564336     3.556693     3.549050
      3.541407     3.533763     3.526120     3.518477     3.510834     3.503191     3.495547     3.487904     3.480261     3.472618
      3.464974     3.457331     3.449688     3.442045     3.434402     3.426758     3.419115     3.411472     3.403829     3.396185
      3.388542     3.380899     3.373256     3.365613     3.357969     3.350326     3.342683     3.335040     3.327396     3.319753
      3.312110     3.304467     3.296824     3.289180     3.281537     3.273894     3.266251     3.258607     3.250964     3.243321
      3.235678     3.228034     3.220391     3.212748     3.205105     3.197462     3.189818     3.182175     3.174532     3.166889
      3.159245     3.151602     3.143959     3.136316     3.128673     3.121029     3.113386     3.105743     3.098100     3.090456
      3.082813     3.075170     3.067527     3.059884     3.052240     3.044597     3.036954     3.029311     3.021667     3.014024
      3.006381     2.998738     2.991095     2.983451     2.975808     2.968165     2.960522     2.952878     2.945235     2.937592
      2.929949     2.922306     2.914662     2.907019     2.899376     2.891733     2.884089     2.876446     2.868803     2.861160
      2.853517     2.845873     2.838230     2.830587     2.822944     2.815300     2.807657     2.800014     2.792371     2.784728
      2.777084     2.769441     2.761798     2.754155     2.746511     2.738868     2.731225     2.723582     2.715939     2.708295
      2.700652     2.693009     2.685366     2.677722     2.670079     2.662436     2.654793     2.647150     2.639506     2.631863
      2.624220     2.616577     2.608933     2.601290     2.593647     2.586004     2.578361     2.570717     2.563074     2.555431
      2.547788     2.540144     2.532501     2.524858     2.517215     2.509572     2.501928     2.494285     2.486642     2.478999
      2.471355     2.463712     2.456069     2.448426     2.440783     2.433139     2.425496     2.417853     2.410210     2.402566
      2.394923     2.387280     2.379637     2.371994     2.364350     2.356707     2.349064     2.341421     2.333777     2.326134
      2.318491     2.310848     2.303205     2.295561     2.287918     2.280275     2.272632     2.264988     2.257345     2.249702
      2.242059     2.234416     2.226772     2.219129     2.211486     2.203843     2.196199     2.188556     2.180913     2.173270
      2.165627     2.157983     2.150340     2.142697     2.135054     2.127410     2.119767     2.112124     2.104481     2.096838
      2.089194     2.081551     2.073908     2.066265     2.058621     2.050978     2.043335     2.035692     2.028049     2.020405
      2.012762     2.005119     1.997476     1.989833     1.982190     1.974546     1.966903     1.959260     1.951617     1.943974
      1.936331     1.928688     1.921045     1.913402     1.905759     1.898115     1.890472     1.882829     1.875186     1.867543
      1.859900     1.852257     1.844614     1.836971     1.829327     1.821684     1.814041     1.806398     1.798755     1.791112
      1.783469     1.775826     1.768183     1.760540     1.752896     1.745253     1.737610     1.729967     1.722324     1.714681
      1.707038     1.699395     1.691752     1.684108     1.676465     1.668822     1.661179     1.653536     1.645893     1.638250
      1.630607     1.622964     1.615321     1.607677     1.600034     1.592391     1.584748     1.577105     1.569462     1.561819
      1.554176     1.546533     1.538890     1.531246     1.523603     1.515960     1.508317     1.500674     1.493031     1.485388
      1.477745     1.470102     1.462458     1.454815     1.447172     1.439529     1.431886     1.424243     1.416600     1.408957
      1.401314     1.393671     1.386027     1.378384     1.370741     1.363098     1.355455     1.347812     1.340169     1.332526
      1.324883     1.317240     1.309596     1.301953     1.294310     1.286667     1.279024     1.271381     1.263738     1.256095
      1.248452     1.240808     1.233165     1.225522     1.217879     1.210236     1.202593     1.194950     1.187307     1.179664
      1.172021     1.164377     1.156734     1.149091     1.141448     1.133805     1.126162     1.118519     1.110876     1.103233
      1.095590     1.087946     1.080303     1.072660     1.065017     1.057374     1.049731     1.042088     1.034445     1.026802
      1.019158     1.011515     1.003872     0.996229     0.988586     0.980943     0.973300     0.965657     0.958014     0.950371
      0.942727     0.935084     0.927441     0.919798     0.912155     0.904512     0.896869     0.889226     0.881583     0.873940
      0.866296     0.858653     0.851010     0.843367     0.835724     0.828081     0.820438     0.812795     0.805152     0.797508
      0.789865     0.782222     0.774579     0.766936     0.759293     0.751650     0.744007     0.736364     0.728721     0.721077
      0.713434     0.705791     0.698148     0.690505     0.682862     0.675219     0.667576     0.659933     0.652290     0.644646
      0.637003     0.629360     0.621717     0.614074     0.606431     0.598788     0.591145     0.583502     0.575858     0.568215
      0.560572     0.552929     0.545286     0.537643     0.530000     0.522357     0.514714     0.507071     0.499427     0.491784
      0.484141     0.476498     0.468855     0.461212     0.453569     0.445925     0.438282     0.430639     0.422996     0.415353
      0.407710     0.400067     0.392424     0.384780     0.377137     0.369494     0.361851     0.354208     0.346565     0.338922
      0.331278     0.323635     0.315992     0.308349     0.300706     0.293063     0.285420     0.277777     0.270133     0.262490
      0.254847     0.247204     0.239561     0.231918     0.224275     0.216631     0.208988     0.201345
 NY phased data points follow
   5.82930E-01  2.81805E+00  1.74142E+00  1.57122E+00  2.32661E+00  2.95408E-01  2.13003E+00  1.00298E+00  1.93573E+00  2.06237E+00
   1.24447E+00  1.37134E+00  7.15046E-01  1.75963E+00  1.30028E+00  9.15961E-01  1.06740E+00 -1.64927E-01  1.60132E+00  8.49754E-01
   6.95971E-01  1.44116E+00  7.23990E-01  1.30847E+00  3.45996E+00  2.89950E+00  1.29538E+00  2.45999E+00  1.07766E+00  2.89251E+00
   1.29408E+00  1.24927E+00  1.11638E+00  4.07024E-01  1.72709E+00  5.76289E-01  1.90262E+00  2.27394E+00  2.51285E+00  1.48859E+00
   2.11028E+00  1.52835E+00  2.46183E+00  2.69361E+00  2.31212E+00  2.42520E+00  3.55981E+00  1.87709E+00  2.48696E+00  3.24292E+00
   1.34721E+00  1.86189E+00  5.58079E-01  1.99236E+00  2.19550E+00  7.94633E-01 -6.61321E-01  2.18386E+00  2.35890E+00  5.87499E-01
   1.32136E+00  1.40924E+00  2.21140E+00  1.86348E+00  1.15150E+00  1.58834E+00  8.43728E-01  1.72969E+00  3.72385E-01  2.11569E+00
   4.29623E-01  1.05432E+00  2.49976E+00  1.41855E+00  1.87715E+00  1.73528E+00  2.29615E+00  1.24610E+00  1.31900E+00  6.13640E-01
  -2.10849E-01  1.16928E+00  1.45186E+00 -3.31634E-01  2.65873E-01 -6.61495E-01 -2.45996E-01  2.35595E+00  1.94036E+00  1.06579E+00
   3.83180E-01  1.51543E+00  1.25471E+00  1.96317E+00  1.34273E+00  1.08340E+00  1.72079E+00  8.13511E-01  1.24468E+00  5.32436E-02
   4.09238E-01  1.82266E+00  1.00907E+00  1.17021E+00  1.61900E+00  1.30047E-01  1.27857E+00  1.73206E+00  7.19355E-01  1.25708E+00
   1.11293E+00  1.55324E+00  6.01155E-01  1.74535E+00  3.03097E+00  1.94176E+00  9.11154E-01  2.02145E+00  2.72436E+00  8.06704E-01
   1.32530E+00  1.27130E+00  6.69724E-01  2.28891E+00  2.64795E+00  2.35631E+00  1.44706E+00  6.35103E-01  1.08209E+00  6.61748E-02
  -6.76669E-01  3.05927E+00  1.14611E+00  2.11585E+00  9.97966E-01  1.69041E+00  9.90476E-01  1.47754E+00  1.69607E+00  4.90807E-01
   2.17841E+00  6.21093E-01  1.26979E+00  7.69886E-01  1.40346E+00  5.66784E-01  1.58550E+00  2.14832E-01  6.44626E-01  8.50418E-01
   4.74944E-01  6.16494E-01  1.33362E+00  1.24364E+00  1.72115E+00  2.16051E+00 -6.40851E-01  6.65400E-01  2.09954E-01  1.94458E+00
   2.13259E+00 -2.35631E-01  1.19015E+00  2.19434E+00  1.94769E+00  2.09298E+00 -3.40807E-01 -9.90845E-01  9.00362E-01  2.05591E+00
   6.46379E-01  3.43312E-01 -4.65004E-02  3.42138E-01  1.03734E+00  1.25805E+00 -6.84297E-01  6.96835E-01  1.14807E+00  1.09071E-01
  -1.61442E-01  1.93435E+00  1.92596E-01  3.93819E-01 -3.38820E-01 -4.72125E-01  1.30343E-01  6.44736E-01  1.47829E+00  5.30149E-01
  -5.37641E-01  1.54860E+00  4.67874E-01  1.16124E+00  2.19840E+00  4.01844E-01  2.26569E-01  1.46844E-01 -3.17344E-01  1.15964E+00
   4.80325E-01  1.63439E+00  2.85707E-01  2.07822E-01 -3.96954E-02  6.76920E-01  2.20827E-02 -6.95401E-01 -8.98885E-01  1.58386E-01
  -4.25336E-01 -6.39337E-01 -1.50934E-01 -9.61098E-01  1.47459E+00 -8.54362E-01 -4.58977E-01  1.34740E+00 -1.00865E-02  5.33151E-01
  -1.46425E+00 -1.95121E+00 -1.10448E-01 -7.46795E-01  1.20865E-02 -9.86563E-01 -5.65518E-01 -4.04633E-01 -2.63789E-01 -1.39140E+00
  -1.19721E+00  4.34659E-01 -1.11252E+00 -9.09378E-01 -7.08227E-01 -9.13459E-01 -1.29808E+00 -6.22021E-01 -1.17790E+00 -7.53147E-01
  -6.36968E-02 -9.26990E-01  4.51968E-01  3.61891E-01  7.52974E-01 -7.62134E-01  6.13778E-01  1.35396E-01 -5.23488E-01  1.42943E-01
  -1.50036E+00 -4.82321E-01 -5.89701E-01  4.61054E-01 -4.93795E-01 -1.54385E+00 -1.94424E+00  2.71618E-01  2.08391E+00 -1.81780E+00
  -8.05498E-02 -8.22544E-01 -1.17132E+00  5.40816E-01  2.52552E-01  6.87049E-01  6.75766E-01 -4.22034E-01 -9.11498E-03 -1.06060E+00
  -1.27670E+00  2.05525E-01 -2.79426E+00 -6.37399E-01 -9.18901E-01 -2.33414E+00 -1.53181E+00 -1.92909E+00 -1.69541E+00  1.07131E+00
  -6.56456E-01 -2.01858E+00 -1.19983E+00 -2.15309E+00  2.25398E-01  4.73521E-01 -7.27297E-01 -3.17853E-02 -1.09732E+00 -3.53488E-01
  -4.44198E-02  6.15257E-01  6.91242E-01 -2.35640E-01  1.01102E+00 -1.19836E+00 -1.12152E-01  2.64965E-01  6.36034E-02 -7.75599E-01
  -1.74241E+00  6.40625E-01  1.21009E+00  1.70716E+00  7.00244E-01  2.69459E-02  2.40083E+00  2.15096E+00  1.54732E+00  1.75346E+00
   2.10666E+00  3.72924E+00  3.47718E+00  3.71909E+00  4.69948E+00  5.70746E+00  4.50074E+00  5.47356E+00  6.39263E+00  5.07656E+00
   5.88432E+00  6.26577E+00  6.30337E+00  5.32824E+00  7.30594E+00  6.86901E+00  7.66526E+00  7.85217E+00  8.54038E+00  8.20339E+00
   8.55953E+00  9.65258E+00  8.91583E+00  1.01302E+01  9.28699E+00  8.09513E+00  8.11235E+00  8.52974E+00  8.02710E+00  7.65594E+00
   7.70490E+00  7.97777E+00  8.42811E+00  7.96580E+00  6.29592E+00  6.27074E+00  5.02701E+00  5.59101E+00  5.58108E+00  5.21909E+00
   5.43705E+00  4.80327E+00  5.52703E+00  4.27110E+00  4.34127E+00  5.24700E+00  4.11114E+00  5.84291E+00  4.67353E+00  3.68880E+00
   4.83548E+00  5.07982E+00  3.81300E+00  3.88681E+00  2.98061E+00  4.26185E+00  4.21343E+00  3.45185E+00  2.84416E+00  4.36265E+00
   3.44624E+00  4.92900E+00  3.75982E+00  3.51708E+00  4.57127E+00  4.39967E+00  2.94834E+00  3.18020E+00  1.34972E+00  2.14990E+00
   2.48218E+00  3.67254E+00  2.57109E+00  2.28671E+00  2.05573E+00  2.70128E+00  1.69863E+00  2.92676E+00  3.01849E+00  2.57426E+00
   2.47614E+00  2.97254E+00  4.06976E+00  2.03081E+00  1.77835E-01  8.84857E-01  3.23651E+00  1.67105E+00  2.74132E+00  1.36993E+00
   7.23679E-01  2.53899E+00  1.61789E+00  1.23657E+00  1.36826E+00  1.52418E+00  1.06398E+00  3.40197E+00  1.04679E+00  2.39335E+00
   2.35234E+00  1.62012E+00  6.47245E-01  4.17159E-01  2.75437E-01  1.35575E+00  1.62118E+00  1.57235E+00  8.86534E-01  2.64944E+00
  -8.83200E-02  8.04532E-01  2.17847E+00  2.04465E+00  1.40272E+00  4.33284E-01  1.85720E+00  8.15580E-01  2.35465E+00  7.35907E-01
   8.36603E-01  1.27068E+00  1.40889E+00  1.95455E+00  1.79589E+00  7.64870E-01  5.86478E-01 -4.40482E-02  3.90420E-01  1.38633E+00
   1.70713E+00  1.48745E+00 -6.17523E-01  1.14478E+00  4.61475E-01  1.43445E-01  1.19196E+00  9.11182E-01  4.83041E-01 -4.95121E-01
  -6.96530E-01  1.10569E+00 -5.87477E-01 -7.59179E-01  1.36977E+00  1.43041E+00  8.45343E-01 -1.11741E+00  8.90178E-01  8.34798E-01
   3.69945E-01 -4.12681E-01 -1.54496E-01 -3.70543E-01 -1.39155E-01 -1.06176E-01 -9.07419E-01 -1.95332E-01  5.81550E-01  1.43006E+00
  -5.87395E-01 -2.30520E-01  6.14583E-01 -5.92465E-02  7.21236E-01 -2.09992E-01  3.03824E-02 -3.57594E-01  1.19415E+00  1.61600E+00
   3.14980E-01 -2.92889E-01 -3.49643E-02 -1.20114E+00  1.45881E-01 -3.33495E-02  3.11050E-04  7.28130E-01  1.52991E+00  8.48434E-01
  -1.85721E-01  3.06686E-01  1.51784E-01  1.48885E-01  8.16971E-01  6.26094E-01  5.79221E-01  2.04208E-01
 NY points of the fit to the data follow
   1.38757E+00  1.85385E+00  1.39114E+00  1.81806E+00  1.48768E+00  1.89276E+00  1.60357E+00  1.91060E+00  1.62160E+00  1.81403E+00
   1.51633E+00  1.63480E+00  1.37628E+00  1.54657E+00  1.33371E+00  1.54008E+00  1.38216E+00  1.59433E+00  1.47833E+00  1.66253E+00
   1.55233E+00  1.71556E+00  1.61774E+00  1.73147E+00  1.65956E+00  1.71555E+00  1.68125E+00  1.68005E+00  1.70072E+00  1.66829E+00
   1.76033E+00  1.69737E+00  1.84015E+00  1.73629E+00  1.91257E+00  1.76523E+00  1.95396E+00  1.76418E+00  1.95073E+00  1.72867E+00
   1.89686E+00  1.67857E+00  1.85270E+00  1.66343E+00  1.84624E+00  1.69499E+00  1.86794E+00  1.75376E+00  1.86303E+00  1.73531E+00
   1.79472E+00  1.67174E+00  1.70237E+00  1.59696E+00  1.59962E+00  1.54939E+00  1.57691E+00  1.55403E+00  1.58538E+00  1.57720E+00
   1.60175E+00  1.59011E+00  1.59107E+00  1.56091E+00  1.55781E+00  1.52229E+00  1.52214E+00  1.48986E+00  1.49770E+00  1.47361E+00
   1.48539E+00  1.44896E+00  1.44896E+00  1.39804E+00  1.39045E+00  1.33068E+00  1.32034E+00  1.25610E+00  1.24867E+00  1.18294E+00
   1.17783E+00  1.11528E+00  1.11498E+00  1.05369E+00  1.05903E+00  1.01467E+00  1.03590E+00  1.00019E+00  1.03763E+00  1.00602E+00
   1.05903E+00  1.02773E+00  1.09411E+00  1.06128E+00  1.14125E+00  1.10260E+00  1.19059E+00  1.14339E+00  1.23552E+00  1.17812E+00
   1.27020E+00  1.20257E+00  1.29023E+00  1.21445E+00  1.29467E+00  1.21269E+00  1.28247E+00  1.19879E+00  1.26504E+00  1.20419E+00
   1.25701E+00  1.22373E+00  1.25891E+00  1.25664E+00  1.27295E+00  1.30271E+00  1.30249E+00  1.35625E+00  1.33365E+00  1.40164E+00
   1.34989E+00  1.42929E+00  1.35476E+00  1.44666E+00  1.36282E+00  1.46621E+00  1.38239E+00  1.46898E+00  1.38127E+00  1.44291E+00
   1.35478E+00  1.38915E+00  1.30542E+00  1.31320E+00  1.23836E+00  1.22232E+00  1.15887E+00  1.12289E+00  1.07092E+00  1.01826E+00
   9.77312E-01  9.11782E-01  8.79877E-01  8.04136E-01  7.81419E-01  7.01027E-01  6.88824E-01  6.14853E-01  6.15285E-01  5.62541E-01
   5.60677E-01  5.15552E-01  5.10121E-01  4.73289E-01  4.65807E-01  4.37479E-01  4.27873E-01  4.01223E-01  3.84542E-01  3.60182E-01
   3.38921E-01  3.19042E-01  2.98822E-01  2.83044E-01  2.65951E-01  2.51091E-01  2.35319E-01  2.18942E-01  2.03554E-01  1.85590E-01
   1.70575E-01  1.52466E-01  1.40330E-01  1.24656E-01  1.17141E-01  1.03515E-01  9.84562E-02  8.52621E-02  8.02824E-02  6.45446E-02
   5.53840E-02  4.13057E-02  3.02239E-02  2.03458E-02  7.97890E-03  3.01182E-03 -1.09194E-02 -1.14137E-02 -2.76407E-02 -2.40874E-02
  -4.23576E-02 -3.47045E-02 -5.45088E-02 -4.30874E-02 -6.36538E-02 -4.92072E-02 -7.00987E-02 -5.42497E-02 -7.45210E-02 -5.78033E-02
  -7.61357E-02 -5.93049E-02 -7.51704E-02 -5.95930E-02 -7.30051E-02 -6.01104E-02 -7.11894E-02 -6.22730E-02 -7.13779E-02 -6.46098E-02
  -7.00578E-02 -6.38432E-02 -6.41666E-02 -5.97513E-02 -5.88960E-02 -5.71826E-02 -5.73587E-02 -5.74922E-02 -5.80423E-02 -5.60534E-02
  -5.48455E-02 -5.03049E-02 -4.74148E-02 -4.41030E-02 -4.17295E-02 -4.12981E-02 -3.98980E-02 -3.96475E-02 -3.41295E-02 -3.22818E-02
  -2.06901E-02 -1.68295E-02  1.17514E-03  6.42757E-03  2.95781E-02  3.57532E-02  6.32216E-02  7.07167E-02  1.02354E-01  1.11691E-01
   1.46326E-01  1.57323E-01  1.93075E-01  2.05225E-01  2.39994E-01  2.52041E-01  2.83333E-01  2.93432E-01  3.18507E-01  3.23961E-01
   3.39956E-01  3.38611E-01  3.43410E-01  3.33809E-01  3.26832E-01  3.13262E-01  2.99441E-01  2.84300E-01  2.66481E-01  2.50906E-01
   2.30435E-01  2.09938E-01  1.84319E-01  1.60702E-01  1.32863E-01  1.08893E-01  8.16439E-02  6.05170E-02  3.80351E-02  1.98958E-02
   1.06710E-03 -1.46588E-02 -3.03851E-02 -4.39830E-02 -5.73901E-02 -6.87747E-02 -7.95444E-02 -8.79251E-02 -9.55347E-02 -1.00605E-01
  -1.04784E-01 -1.06259E-01 -1.06720E-01 -1.04323E-01 -1.00783E-01 -9.42617E-02 -8.64618E-02 -7.55450E-02 -6.31784E-02 -4.75116E-02
  -3.01242E-02 -9.11079E-03  1.41134E-02  4.16519E-02  7.22446E-02  1.08249E-01  1.48724E-01  1.96417E-01  2.50898E-01  3.15459E-01
   3.90364E-01  4.79761E-01  5.85031E-01  7.11692E-01  8.63115E-01  1.04780E+00  1.27457E+00  1.56410E+00  1.96038E+00  2.50354E+00
   2.88469E+00  3.47562E+00  3.74330E+00  4.27052E+00  4.36859E+00  4.73695E+00  4.60860E+00  5.01101E+00  4.89641E+00  5.31776E+00
   5.27145E+00  5.64250E+00  5.66711E+00  5.92119E+00  6.02305E+00  6.15980E+00  6.40474E+00  6.50764E+00  7.09536E+00  7.50141E+00
   8.15404E+00  8.41375E+00  8.96046E+00  8.85432E+00  9.18336E+00  8.55570E+00  8.62015E+00  8.08422E+00  8.09035E+00  7.71437E+00
   7.64715E+00  7.39269E+00  7.19679E+00  6.99167E+00  6.67453E+00  6.57677E+00  6.21864E+00  6.30500E+00  5.93451E+00  6.22543E+00
   5.71281E+00  5.95715E+00  5.36523E+00  5.59642E+00  4.96642E+00  5.22967E+00  4.62881E+00  5.02612E+00  4.61541E+00  4.92577E+00
   4.58940E+00  4.75454E+00  4.46017E+00  4.48547E+00  4.27891E+00  4.29460E+00  4.24467E+00  4.35388E+00  4.44652E+00  4.68189E+00
   4.58091E+00  4.38203E+00  4.11866E+00  3.61410E+00  3.23985E+00  2.62785E+00  2.26140E+00  2.03535E+00  1.88165E+00  1.77609E+00
   1.70415E+00  1.65980E+00  1.63651E+00  1.63229E+00  1.64282E+00  1.66724E+00  1.70179E+00  1.74586E+00  1.79577E+00  1.85094E+00
   1.90762E+00  1.96514E+00  2.01975E+00  2.07088E+00  2.11502E+00  2.15198E+00  2.17873E+00  2.19562E+00  2.20028E+00  2.19380E+00
   2.17460E+00  2.14452E+00  2.10267E+00  2.05149E+00  1.99059E+00  1.92285E+00  1.84816E+00  1.76952E+00  1.68687E+00  1.60307E+00
   1.51790E+00  1.43402E+00  1.35091E+00  1.27092E+00  1.19319E+00  1.11976E+00  1.04948E+00  9.84153E-01  9.22394E-01  8.65774E-01
   8.12740E-01  7.64717E-01  7.20056E-01  6.80107E-01  6.43153E-01  6.10484E-01  5.80348E-01  5.54024E-01  5.29770E-01  5.08876E-01
   4.89604E-01  4.73247E-01  4.58089E-01  4.45460E-01  4.33681E-01  4.24108E-01  4.15079E-01  4.07968E-01  4.01145E-01  3.96021E-01
   3.90992E-01  3.87486E-01  3.83907E-01  3.81697E-01  3.79286E-01  3.78138E-01  3.76696E-01  3.76425E-01  3.75772E-01  3.76213E-01
   3.76210E-01  3.77252E-01  3.77803E-01  3.79348E-01  3.80354E-01  3.82312E-01  3.83703E-01  3.86023E-01  3.87749E-01  3.90370E-01
   3.92368E-01  3.95242E-01  3.97481E-01  4.00581E-01  4.03027E-01  4.06312E-01  4.08926E-01  4.12370E-01  4.15139E-01  4.18727E-01
   4.21625E-01  4.25325E-01  4.28329E-01  4.32132E-01  4.35236E-01  4.39130E-01  4.42313E-01  4.46276E-01  4.49526E-01  4.53558E-01
   4.56874E-01  4.60962E-01  4.64327E-01  4.68460E-01  4.71872E-01  4.76056E-01  4.79516E-01  4.83741E-01  4.87240E-01  4.91508E-01
   4.95056E-01  4.99380E-01  5.02987E-01  5.07373E-01  5.11053E-01  5.15534E-01  5.19337E-01  5.23974E-01
 NY background values follow
     9.789E-01    9.765E-01    9.741E-01    9.717E-01    9.694E-01    9.671E-01    9.649E-01    9.626E-01    9.604E-01    9.582E-01
     9.561E-01    9.540E-01    9.518E-01    9.497E-01    9.477E-01    9.456E-01    9.436E-01    9.416E-01    9.395E-01    9.375E-01
     9.356E-01    9.336E-01    9.316E-01    9.296E-01    9.277E-01    9.257E-01    9.238E-01    9.218E-01    9.199E-01    9.179E-01
     9.160E-01    9.140E-01    9.120E-01    9.101E-01    9.081E-01    9.061E-01    9.041E-01    9.021E-01    9.000E-01    8.980E-01
     8.959E-01    8.939E-01    8.918E-01    8.896E-01    8.875E-01    8.853E-01    8.832E-01    8.809E-01    8.787E-01    8.764E-01
     8.741E-01    8.718E-01    8.694E-01    8.670E-01    8.646E-01    8.622E-01    8.596E-01    8.571E-01    8.545E-01    8.519E-01
     8.492E-01    8.465E-01    8.437E-01    8.409E-01    8.381E-01    8.352E-01    8.322E-01    8.292E-01    8.261E-01    8.230E-01
     8.198E-01    8.166E-01    8.133E-01    8.099E-01    8.065E-01    8.030E-01    7.995E-01    7.959E-01    7.922E-01    7.884E-01
     7.846E-01    7.807E-01    7.768E-01    7.727E-01    7.686E-01    7.644E-01    7.602E-01    7.558E-01    7.514E-01    7.469E-01
     7.423E-01    7.376E-01    7.328E-01    7.279E-01    7.230E-01    7.180E-01    7.128E-01    7.076E-01    7.023E-01    6.969E-01
     6.914E-01    6.858E-01    6.801E-01    6.742E-01    6.683E-01    6.623E-01    6.562E-01    6.500E-01    6.436E-01    6.372E-01
     6.306E-01    6.240E-01    6.172E-01    6.103E-01    6.033E-01    5.961E-01    5.889E-01    5.815E-01    5.740E-01    5.664E-01
     5.587E-01    5.508E-01    5.428E-01    5.347E-01    5.264E-01    5.180E-01    5.095E-01    5.009E-01    4.921E-01    4.833E-01
     4.743E-01    4.651E-01    4.559E-01    4.466E-01    4.371E-01    4.276E-01    4.179E-01    4.081E-01    3.983E-01    3.883E-01
     3.783E-01    3.681E-01    3.579E-01    3.476E-01    3.372E-01    3.267E-01    3.162E-01    3.056E-01    2.949E-01    2.841E-01
     2.733E-01    2.624E-01    2.514E-01    2.404E-01    2.293E-01    2.182E-01    2.070E-01    1.958E-01    1.845E-01    1.732E-01
     1.618E-01    1.504E-01    1.390E-01    1.276E-01    1.161E-01    1.045E-01    9.299E-02    8.143E-02    6.984E-02    5.823E-02
     4.662E-02    3.498E-02    2.334E-02    1.170E-02    4.642E-05   -1.161E-02   -2.326E-02   -3.491E-02   -4.655E-02   -5.818E-02
    -6.980E-02   -8.141E-02   -9.300E-02   -1.046E-01   -1.161E-01   -1.276E-01   -1.391E-01   -1.506E-01   -1.620E-01   -1.734E-01
    -1.848E-01   -1.961E-01   -2.074E-01   -2.186E-01   -2.298E-01   -2.409E-01   -2.520E-01   -2.631E-01   -2.740E-01   -2.849E-01
    -2.958E-01   -3.065E-01   -3.172E-01   -3.279E-01   -3.384E-01   -3.489E-01   -3.593E-01   -3.696E-01   -3.799E-01   -3.900E-01
    -4.001E-01   -4.101E-01   -4.199E-01   -4.297E-01   -4.394E-01   -4.489E-01   -4.584E-01   -4.678E-01   -4.770E-01   -4.861E-01
    -4.952E-01   -5.041E-01   -5.128E-01   -5.215E-01   -5.300E-01   -5.384E-01   -5.467E-01   -5.548E-01   -5.628E-01   -5.707E-01
    -5.784E-01   -5.859E-01   -5.934E-01   -6.006E-01   -6.077E-01   -6.147E-01   -6.215E-01   -6.282E-01   -6.346E-01   -6.410E-01
    -6.471E-01   -6.531E-01   -6.589E-01   -6.645E-01   -6.700E-01   -6.752E-01   -6.803E-01   -6.852E-01   -6.899E-01   -6.944E-01
    -6.987E-01   -7.029E-01   -7.068E-01   -7.106E-01   -7.142E-01   -7.175E-01   -7.207E-01   -7.238E-01   -7.266E-01   -7.293E-01
    -7.318E-01   -7.341E-01   -7.362E-01   -7.382E-01   -7.400E-01   -7.416E-01   -7.431E-01   -7.444E-01   -7.455E-01   -7.465E-01
    -7.473E-01   -7.480E-01   -7.485E-01   -7.488E-01   -7.490E-01   -7.491E-01   -7.490E-01   -7.487E-01   -7.483E-01   -7.478E-01
    -7.471E-01   -7.462E-01   -7.453E-01   -7.441E-01   -7.429E-01   -7.415E-01   -7.400E-01   -7.383E-01   -7.365E-01   -7.346E-01
    -7.326E-01   -7.304E-01   -7.281E-01   -7.257E-01   -7.232E-01   -7.205E-01   -7.177E-01   -7.148E-01   -7.118E-01   -7.087E-01
    -7.055E-01   -7.021E-01   -6.987E-01   -6.951E-01   -6.915E-01   -6.877E-01   -6.838E-01   -6.799E-01   -6.758E-01   -6.717E-01
    -6.674E-01   -6.630E-01   -6.586E-01   -6.541E-01   -6.494E-01   -6.447E-01   -6.399E-01   -6.351E-01   -6.301E-01   -6.251E-01
    -6.199E-01   -6.147E-01   -6.095E-01   -6.041E-01   -5.987E-01   -5.932E-01   -5.876E-01   -5.820E-01   -5.763E-01   -5.705E-01
    -5.647E-01   -5.588E-01   -5.529E-01   -5.469E-01   -5.408E-01   -5.347E-01   -5.285E-01   -5.223E-01   -5.160E-01   -5.097E-01
    -5.033E-01   -4.969E-01   -4.905E-01   -4.840E-01   -4.774E-01   -4.709E-01   -4.642E-01   -4.576E-01   -4.509E-01   -4.442E-01
    -4.374E-01   -4.307E-01   -4.238E-01   -4.170E-01   -4.102E-01   -4.033E-01   -3.964E-01   -3.895E-01   -3.825E-01   -3.756E-01
    -3.686E-01   -3.616E-01   -3.546E-01   -3.476E-01   -3.406E-01   -3.336E-01   -3.266E-01   -3.196E-01   -3.125E-01   -3.055E-01
    -2.985E-01   -2.915E-01   -2.844E-01   -2.774E-01   -2.704E-01   -2.634E-01   -2.564E-01   -2.495E-01   -2.425E-01   -2.355E-01
    -2.286E-01   -2.216E-01   -2.147E-01   -2.078E-01   -2.008E-01   -1.939E-01   -1.870E-01   -1.801E-01   -1.733E-01   -1.664E-01
    -1.595E-01   -1.527E-01   -1.459E-01   -1.390E-01   -1.322E-01   -1.254E-01   -1.186E-01   -1.119E-01   -1.051E-01   -9.834E-02
    -9.160E-02   -8.487E-02   -7.815E-02   -7.145E-02   -6.476E-02   -5.809E-02   -5.143E-02   -4.478E-02   -3.814E-02   -3.152E-02
    -2.492E-02   -1.833E-02   -1.175E-02   -5.190E-03    1.356E-03    7.887E-03    1.440E-02    2.090E-02    2.739E-02    3.385E-02
     4.030E-02    4.674E-02    5.316E-02    5.956E-02    6.594E-02    7.231E-02    7.866E-02    8.499E-02    9.131E-02    9.761E-02
     1.039E-01    1.101E-01    1.164E-01    1.226E-01    1.288E-01    1.350E-01    1.412E-01    1.473E-01    1.534E-01    1.595E-01
     1.656E-01    1.717E-01    1.777E-01    1.838E-01    1.898E-01    1.958E-01    2.017E-01    2.077E-01    2.136E-01    2.195E-01
     2.254E-01    2.312E-01    2.370E-01    2.429E-01    2.486E-01    2.544E-01    2.601E-01    2.659E-01    2.716E-01    2.772E-01
     2.829E-01    2.885E-01    2.941E-01    2.997E-01    3.052E-01    3.108E-01    3.163E-01    3.217E-01    3.272E-01    3.326E-01
     3.380E-01    3.434E-01    3.487E-01    3.540E-01    3.593E-01    3.646E-01    3.698E-01    3.751E-01    3.802E-01    3.854E-01
     3.905E-01    3.956E-01    4.007E-01    4.058E-01    4.108E-01    4.158E-01    4.207E-01    4.257E-01    4.306E-01    4.355E-01
     4.403E-01    4.451E-01    4.499E-01    4.547E-01    4.594E-01    4.641E-01    4.688E-01    4.734E-01
 Ala      Conc. = 1.21E+03
