 LCModel (Version 6.3-1L) Copyright: S.W. Provencher.          Ref.: Magn. Reson. Med. 30:672-679 (1993).                
 Slice#1 Row#4 Col#12  K_02_press_1_raw_act
 36 lines in following concentration table = NCONC+1
    Conc.  %SD /Cr+PCr  Metabolite                                         
  260.592  57%   0.815 Ala                                                 
   26.250 416% 8.2E-02 Asp                                                 
    0.000 999%   0.000 Cr                                                  
  319.753  19%   1.000 PCr                                                 
   27.243 247% 8.5E-02 GABA                                                
    0.000 999%   0.000 Glc                                                 
    0.000 999%   0.000 Gln                                                 
  232.233 129%   0.726 Glu                                                 
    0.000 999%   0.000 GPC                                                 
   27.588  68% 8.6E-02 PCh                                                 
    0.000 999%   0.000 GSH                                                 
  199.139 115%   0.623 Ins                                                 
  407.430  41%   1.274 Lac                                                 
    0.000 999%   0.000 NAA                                                 
  787.874  14%   2.464 NAAG                                                
    0.000 999%   0.000 Scyllo                                              
    0.000 999%   0.000 Tau                                                 
  229.593  37%   0.718 -CrCH2                                              
   27.588  68% 8.6E-02 GPC+PCh                                             
  787.874  14%   2.464 NAA+NAAG                                            
  319.753  19%   1.000 Cr+PCr                                              
  232.233 129%   0.726 Glu+Gln                                             
 9.02E+03  11%  28.206 Lip13a                                              
    0.000 999%   0.000 Lip13b                                              
 1.84E+03  18%   5.744 Lip09                                               
    0.000 999%   0.000 MM09                                                
 4.33E+03  12%  13.547+Lip20                                               
  776.950  70%   2.430 MM20                                                
   11.390 999% 3.6E-02 MM12                                                
 2.25E+03  20%   7.023 MM14                                                
    0.000 999%   0.000 MM17                                                
 9.02E+03  11%  28.206 Lip13a+Lip13b                                       
 1.13E+04   7%  35.265 MM14+Lip13a+Lip13b+MM12                             
 1.84E+03  18%   5.744 MM09+Lip09                                          
 5.11E+03   8%  15.977 MM20+Lip20                                          
   6 lines in following misc. output table
  FWHM = 0.069 ppm    S/N =   7                                            
  Data shift = 0.069 ppm                                                   
  Ph:-118 deg      96.6 deg/ppm                                            
  alphaB,S = 3.7E-01,   9.2E+01                                            
   14 spline knots.   Ns =11(1)                                            
  (16) 3 infls.   (19) 1 extrs.                                            
  498 points on ppm-axis = NY
      4.000000     3.992357     3.984714     3.977070     3.969427     3.961784     3.954141     3.946497     3.938854     3.931211
      3.923568     3.915925     3.908281     3.900638     3.892995     3.885352     3.877708     3.870065     3.862422     3.854779
      3.847136     3.839492     3.831849     3.824206     3.816563     3.808919     3.801276     3.793633     3.785990     3.778347
      3.770703     3.763060     3.755417     3.747774     3.740130     3.732487     3.724844     3.717201     3.709558     3.701914
      3.694271     3.686628     3.678985     3.671341     3.663698     3.656055     3.648412     3.640769     3.633125     3.625482
      3.617839     3.610196     3.602552     3.594909     3.587266     3.579623     3.571980     3.564336     3.556693     3.549050
      3.541407     3.533763     3.526120     3.518477     3.510834     3.503191     3.495547     3.487904     3.480261     3.472618
      3.464974     3.457331     3.449688     3.442045     3.434402     3.426758     3.419115     3.411472     3.403829     3.396185
      3.388542     3.380899     3.373256     3.365613     3.357969     3.350326     3.342683     3.335040     3.327396     3.319753
      3.312110     3.304467     3.296824     3.289180     3.281537     3.273894     3.266251     3.258607     3.250964     3.243321
      3.235678     3.228034     3.220391     3.212748     3.205105     3.197462     3.189818     3.182175     3.174532     3.166889
      3.159245     3.151602     3.143959     3.136316     3.128673     3.121029     3.113386     3.105743     3.098100     3.090456
      3.082813     3.075170     3.067527     3.059884     3.052240     3.044597     3.036954     3.029311     3.021667     3.014024
      3.006381     2.998738     2.991095     2.983451     2.975808     2.968165     2.960522     2.952878     2.945235     2.937592
      2.929949     2.922306     2.914662     2.907019     2.899376     2.891733     2.884089     2.876446     2.868803     2.861160
      2.853517     2.845873     2.838230     2.830587     2.822944     2.815300     2.807657     2.800014     2.792371     2.784728
      2.777084     2.769441     2.761798     2.754155     2.746511     2.738868     2.731225     2.723582     2.715939     2.708295
      2.700652     2.693009     2.685366     2.677722     2.670079     2.662436     2.654793     2.647150     2.639506     2.631863
      2.624220     2.616577     2.608933     2.601290     2.593647     2.586004     2.578361     2.570717     2.563074     2.555431
      2.547788     2.540144     2.532501     2.524858     2.517215     2.509572     2.501928     2.494285     2.486642     2.478999
      2.471355     2.463712     2.456069     2.448426     2.440783     2.433139     2.425496     2.417853     2.410210     2.402566
      2.394923     2.387280     2.379637     2.371994     2.364350     2.356707     2.349064     2.341421     2.333777     2.326134
      2.318491     2.310848     2.303205     2.295561     2.287918     2.280275     2.272632     2.264988     2.257345     2.249702
      2.242059     2.234416     2.226772     2.219129     2.211486     2.203843     2.196199     2.188556     2.180913     2.173270
      2.165627     2.157983     2.150340     2.142697     2.135054     2.127410     2.119767     2.112124     2.104481     2.096838
      2.089194     2.081551     2.073908     2.066265     2.058621     2.050978     2.043335     2.035692     2.028049     2.020405
      2.012762     2.005119     1.997476     1.989833     1.982190     1.974546     1.966903     1.959260     1.951617     1.943974
      1.936331     1.928688     1.921045     1.913402     1.905759     1.898115     1.890472     1.882829     1.875186     1.867543
      1.859900     1.852257     1.844614     1.836971     1.829327     1.821684     1.814041     1.806398     1.798755     1.791112
      1.783469     1.775826     1.768183     1.760540     1.752896     1.745253     1.737610     1.729967     1.722324     1.714681
      1.707038     1.699395     1.691752     1.684108     1.676465     1.668822     1.661179     1.653536     1.645893     1.638250
      1.630607     1.622964     1.615321     1.607677     1.600034     1.592391     1.584748     1.577105     1.569462     1.561819
      1.554176     1.546533     1.538890     1.531246     1.523603     1.515960     1.508317     1.500674     1.493031     1.485388
      1.477745     1.470102     1.462458     1.454815     1.447172     1.439529     1.431886     1.424243     1.416600     1.408957
      1.401314     1.393671     1.386027     1.378384     1.370741     1.363098     1.355455     1.347812     1.340169     1.332526
      1.324883     1.317240     1.309596     1.301953     1.294310     1.286667     1.279024     1.271381     1.263738     1.256095
      1.248452     1.240808     1.233165     1.225522     1.217879     1.210236     1.202593     1.194950     1.187307     1.179664
      1.172021     1.164377     1.156734     1.149091     1.141448     1.133805     1.126162     1.118519     1.110876     1.103233
      1.095590     1.087946     1.080303     1.072660     1.065017     1.057374     1.049731     1.042088     1.034445     1.026802
      1.019158     1.011515     1.003872     0.996229     0.988586     0.980943     0.973300     0.965657     0.958014     0.950371
      0.942727     0.935084     0.927441     0.919798     0.912155     0.904512     0.896869     0.889226     0.881583     0.873940
      0.866296     0.858653     0.851010     0.843367     0.835724     0.828081     0.820438     0.812795     0.805152     0.797508
      0.789865     0.782222     0.774579     0.766936     0.759293     0.751650     0.744007     0.736364     0.728721     0.721077
      0.713434     0.705791     0.698148     0.690505     0.682862     0.675219     0.667576     0.659933     0.652290     0.644646
      0.637003     0.629360     0.621717     0.614074     0.606431     0.598788     0.591145     0.583502     0.575858     0.568215
      0.560572     0.552929     0.545286     0.537643     0.530000     0.522357     0.514714     0.507071     0.499427     0.491784
      0.484141     0.476498     0.468855     0.461212     0.453569     0.445925     0.438282     0.430639     0.422996     0.415353
      0.407710     0.400067     0.392424     0.384780     0.377137     0.369494     0.361851     0.354208     0.346565     0.338922
      0.331278     0.323635     0.315992     0.308349     0.300706     0.293063     0.285420     0.277777     0.270133     0.262490
      0.254847     0.247204     0.239561     0.231918     0.224275     0.216631     0.208988     0.201345
 NY phased data points follow
  -8.17534E-02 -3.42963E+00 -5.15414E-02 -5.17922E+00  1.56409E+00 -2.67227E+00 -2.18076E+00 -5.50540E+00 -1.53157E+00 -2.28172E+00
  -4.18900E+00 -4.73037E+00 -1.63890E+00 -7.68552E+00 -4.99279E+00 -4.42045E+00 -4.23057E+00 -3.83426E+00 -9.13951E-01 -5.93698E+00
  -2.41783E+00 -2.79060E+00 -3.71890E+00 -1.23086E+00 -5.80547E-01 -4.37118E+00 -7.30180E+00 -3.16871E+00 -6.33593E+00 -3.55223E+00
  -6.69835E+00 -4.27952E+00 -4.98623E+00 -5.69840E+00 -6.34825E+00 -6.06401E+00 -4.67171E+00 -3.02789E+00 -3.41276E+00 -4.87776E+00
  -2.67069E+00 -4.20480E+00 -4.48417E+00 -4.71496E+00 -5.14303E+00 -2.78785E+00 -3.18532E+00 -2.24001E+00 -1.18519E+00  5.15710E-01
   1.21624E+00 -3.27381E+00 -5.34318E-01  8.43773E-01 -3.38310E+00 -3.76421E+00 -1.82943E+00 -2.29385E+00  2.60864E+00 -4.37462E+00
  -6.93147E+00 -5.59220E+00 -7.02177E-01 -1.85288E+00 -2.69313E+00 -8.94809E-01 -5.16237E+00 -2.10380E+00 -8.30625E-01  1.28615E+00
  -4.29572E+00 -4.39087E+00  1.65354E+00 -4.52892E+00 -3.33790E+00 -3.74480E+00 -4.48410E+00 -3.85143E+00 -1.38839E+00 -2.61150E+00
  -5.89586E+00 -4.89424E+00 -4.25867E+00 -4.69821E+00 -5.33396E+00 -6.47354E+00 -4.52034E+00 -3.88248E+00 -1.44249E+00 -2.38264E+00
  -2.25432E+00 -5.80790E+00 -1.90162E+00 -2.11146E+00 -1.80575E+00 -1.49664E+00  1.01911E+00 -4.20152E+00 -4.92311E+00 -1.13911E+00
  -2.03529E+00 -7.02431E-01 -1.18517E+00  4.13072E+00 -8.62561E-01  4.19005E+00  3.04268E+00  7.57044E-01  1.04250E-01 -5.76416E-01
   4.02145E-01  7.06101E-01 -1.02127E+00  5.19299E+00 -4.04296E+00  6.08321E-01  3.70976E-01 -2.21644E+00  7.64690E-01 -2.13769E+00
   2.05094E+00 -1.28444E+00  4.01966E-01  3.56328E-01 -8.76386E-01  4.36857E+00  5.60915E+00  7.51325E+00  1.07292E+01  5.95047E+00
   8.09859E+00  1.17557E+01  8.78411E+00  9.98643E+00  8.87182E+00  7.08240E+00  5.39838E+00  7.05900E+00  3.88345E+00  5.30701E+00
   6.29354E+00  2.76294E+00  4.69452E+00  3.84256E+00  5.05318E+00  4.55813E+00  2.61026E+00  4.41885E+00  4.93283E+00  6.56184E-01
   3.22253E+00  3.58007E+00  2.87725E+00  1.01786E+00  3.44261E+00 -4.75039E-01 -2.06743E-01  2.94164E+00  4.34876E+00  4.23625E+00
   6.77433E+00  2.79046E+00  1.46548E+00  9.85037E-01  2.66844E+00 -3.28826E-01  5.60120E-01 -3.07289E+00  3.84244E+00  9.15234E-02
  -3.21704E+00 -2.50786E+00 -3.01156E+00 -4.13702E+00 -2.50000E+00 -4.24540E+00 -8.57733E+00 -4.11448E+00 -5.13490E+00 -1.14058E+01
  -4.02816E+00 -5.22395E+00 -8.37093E-01 -4.46227E+00 -7.10207E+00 -6.00795E+00 -9.54143E+00 -3.90521E+00 -1.44846E+00 -3.69727E+00
  -3.55499E+00 -3.14093E+00 -4.75910E+00 -6.07704E+00  1.71168E+00 -5.95649E+00 -3.71774E+00 -1.59447E+00 -5.43064E+00 -6.17091E+00
  -6.34685E+00 -2.47019E+00 -5.59630E+00 -3.61979E+00 -3.48879E+00  1.30501E-01 -4.21490E+00  1.25845E+00 -3.81323E+00  1.04569E+00
  -1.52722E+00 -1.40988E+00  1.23073E-01  2.77877E+00 -2.56493E+00  9.27543E-02  6.34011E-01  3.05345E+00 -1.08511E+00  2.19021E+00
  -4.19661E+00 -3.79127E+00 -6.04500E-01 -3.20926E+00 -2.54590E+00  3.35140E-01 -5.05532E+00  3.00768E+00  3.02792E+00 -1.00960E+00
  -1.30284E+00 -5.49687E-01 -2.09183E-01  1.14129E+00  1.62711E+00 -4.60386E-01  7.38532E-01 -2.13100E+00 -3.35591E+00 -1.09168E+00
   2.23432E-01  3.01730E+00  4.08230E-01  2.35132E+00  4.99117E+00  4.62222E+00  7.65207E+00  8.38725E+00  6.37470E+00  1.09268E+01
   1.36713E+01  1.12981E+01  1.28837E+01  1.20344E+01  1.77697E+01  1.46230E+01  1.63395E+01  2.45350E+01  2.10756E+01  2.51172E+01
   2.22185E+01  1.92449E+01  1.21190E+01  1.20020E+01  4.49683E+00  2.78702E+00  1.71730E-01 -6.10480E+00 -7.67669E+00 -6.74774E+00
  -9.45844E+00 -1.12822E+01 -1.54539E+01 -1.34663E+01 -1.56789E+01 -1.26494E+01 -1.55160E+01 -1.27643E+01 -1.72243E+01 -1.93645E+01
  -1.75916E+01 -2.11566E+01 -1.91697E+01 -1.45149E+01 -1.54015E+01 -1.88907E+01 -1.53718E+01 -1.64887E+01 -1.78257E+01 -2.12500E+01
  -1.93174E+01 -2.00515E+01 -1.70314E+01 -2.17579E+01 -2.35635E+01 -1.86314E+01 -1.77480E+01 -1.79050E+01 -2.28408E+01 -2.16283E+01
  -2.26503E+01 -1.92244E+01 -2.18389E+01 -2.02465E+01 -2.27016E+01 -1.94564E+01 -1.62752E+01 -2.11085E+01 -1.92573E+01 -1.71266E+01
  -1.93433E+01 -1.57683E+01 -1.64117E+01 -1.41308E+01 -1.31048E+01 -1.31003E+01 -1.02362E+01 -9.70725E+00 -1.04000E+01 -1.28925E+01
  -1.03301E+01 -9.20994E+00 -1.16572E+01 -7.13638E+00 -7.60896E+00 -8.95605E+00 -4.66168E+00 -4.55023E+00  3.28940E-02 -1.10463E-01
   1.97839E+00  2.98138E-01  3.90923E+00  5.07484E+00  3.62896E+00  5.69995E+00  6.30758E+00  6.19776E+00  1.01642E+01  6.48811E+00
   9.22481E+00  1.29706E+01  1.09605E+01  1.60204E+01  1.94664E+01  1.65986E+01  1.90158E+01  2.05465E+01  2.25310E+01  2.11945E+01
   2.11859E+01  2.26419E+01  2.12904E+01  2.19083E+01  2.47662E+01  1.97891E+01  1.94417E+01  1.71092E+01  1.81152E+01  1.92416E+01
   1.80241E+01  2.02454E+01  1.84123E+01  1.90154E+01  2.13272E+01  2.19411E+01  1.59898E+01  1.84692E+01  1.48822E+01  1.28151E+01
   1.26915E+01  1.12098E+01  1.33615E+01  9.29311E+00  1.12837E+01  1.04788E+01  6.57638E+00  1.09522E+01  8.11513E+00  7.61034E+00
   6.34446E+00  1.05879E+01  9.91178E+00  1.15328E+01  1.38003E+01  8.27472E+00  7.84048E+00  9.62396E+00  9.27547E+00  9.53764E+00
   8.49037E+00  6.62146E+00  5.63834E+00  3.12630E+00  8.26442E-01  8.34384E+00  5.83336E+00  6.44600E+00  3.15328E+00  6.13451E+00
   2.57918E+00  4.19601E+00  2.35583E-01  1.66814E+00  2.36959E-01 -1.97020E+00  4.44820E+00 -3.77253E-02  2.75857E+00 -1.56806E+00
  -1.01335E-01 -8.28370E-01  5.72537E-01 -2.60645E+00 -3.55343E+00 -2.90983E+00 -1.27277E+00 -5.91807E+00 -3.54521E+00 -1.76803E+00
  -3.89756E+00 -4.99877E-01 -2.68950E+00 -5.49310E+00 -2.23292E-01 -3.99167E+00 -1.99921E+00 -2.65419E+00 -2.21220E+00 -2.50313E-01
   1.45446E+00 -2.65129E+00 -1.32500E+00 -2.21394E+00 -8.69022E-01 -1.13030E+00 -1.47271E+00  6.08912E-01  2.78228E+00  2.48706E+00
   2.04852E+00 -1.52840E+00 -1.40398E+00 -1.41955E+00 -3.75709E-01 -2.99020E-01 -1.02929E+00  3.62552E+00 -2.29136E+00 -3.64552E+00
   2.62288E-01 -2.60664E+00  1.34448E+00 -1.03831E+00 -4.85573E-01 -1.23468E+00  4.72751E-01 -7.46345E-01 -9.42243E-01  1.84849E+00
   5.99944E-02 -2.84147E+00  2.19407E+00 -1.00691E+00 -5.14319E-01  8.91645E-01  1.64554E+00 -8.27427E-01  3.65544E+00 -1.63756E+00
   9.79291E-01  2.21463E+00  2.71712E+00  2.53907E+00  6.10228E+00 -8.24365E-01  5.68204E-01  2.12146E+00 -6.17572E-01  2.88403E+00
  -2.85174E-01 -4.43410E+00  2.40642E+00  3.81584E-02 -2.38944E-01 -6.64065E-02  3.06782E+00  2.15823E+00  5.47955E-01  3.41709E+00
   7.01266E-02 -1.28253E+00 -3.03025E+00 -3.75940E+00  2.03496E+00  1.40539E+00 -7.65574E-01  2.22550E+00
 NY points of the fit to the data follow
  -2.42272E+00 -2.75320E+00 -3.03428E+00 -3.21309E+00 -3.26111E+00 -3.20280E+00 -3.08307E+00 -2.92515E+00 -2.72615E+00 -2.50608E+00
  -2.30378E+00 -2.16712E+00 -2.12210E+00 -2.17893E+00 -2.34051E+00 -2.58907E+00 -2.88116E+00 -3.16188E+00 -3.40132E+00 -3.59155E+00
  -3.73401E+00 -3.80451E+00 -3.73524E+00 -3.52720E+00 -3.35249E+00 -3.25579E+00 -3.23704E+00 -3.29354E+00 -3.40656E+00 -3.54001E+00
  -3.65151E+00 -3.69764E+00 -3.64532E+00 -3.50103E+00 -3.29461E+00 -3.06746E+00 -2.85216E+00 -2.67279E+00 -2.56131E+00 -2.55562E+00
  -2.64317E+00 -2.76984E+00 -2.89526E+00 -2.99632E+00 -3.04805E+00 -3.02048E+00 -2.89487E+00 -2.70146E+00 -2.51225E+00 -2.37397E+00
  -2.32037E+00 -2.36405E+00 -2.48769E+00 -2.65637E+00 -2.83101E+00 -2.97466E+00 -3.07499E+00 -3.13186E+00 -3.14361E+00 -3.09370E+00
  -2.96862E+00 -2.80578E+00 -2.67071E+00 -2.59750E+00 -2.58036E+00 -2.59858E+00 -2.63206E+00 -2.66387E+00 -2.67997E+00 -2.67477E+00
  -2.65204E+00 -2.61392E+00 -2.55557E+00 -2.48482E+00 -2.41687E+00 -2.36541E+00 -2.34125E+00 -2.34110E+00 -2.35473E+00 -2.37091E+00
  -2.38132E+00 -2.38499E+00 -2.38266E+00 -2.37706E+00 -2.36752E+00 -2.35431E+00 -2.34651E+00 -2.34723E+00 -2.34949E+00 -2.33974E+00
  -2.30315E+00 -2.22581E+00 -2.09132E+00 -1.91671E+00 -1.74453E+00 -1.58744E+00 -1.43419E+00 -1.28066E+00 -1.13172E+00 -9.83934E-01
  -8.22417E-01 -6.29196E-01 -3.98945E-01 -1.34201E-01  1.41427E-01  3.71770E-01  5.05108E-01  5.19171E-01  4.22838E-01  2.57683E-01
   7.03082E-02 -1.10929E-01 -2.71902E-01 -4.01898E-01 -4.75948E-01 -4.23002E-01 -1.33702E-01  2.93337E-01  6.41334E-01  8.96780E-01
   1.14499E+00  1.43369E+00  1.77396E+00  2.21198E+00  2.82129E+00  3.64195E+00  4.64413E+00  5.76922E+00  6.90489E+00  7.82457E+00
   8.31169E+00  8.26493E+00  7.71415E+00  6.81883E+00  5.78553E+00  4.74990E+00  3.76303E+00  2.84749E+00  2.06570E+00  1.61125E+00
   1.70867E+00  2.16100E+00  2.61244E+00  3.00715E+00  3.35450E+00  3.66220E+00  3.92764E+00  4.14410E+00  4.30227E+00  4.38917E+00
   4.39987E+00  4.33737E+00  4.20444E+00  4.00201E+00  3.73480E+00  3.41650E+00  3.06867E+00  2.70410E+00  2.32573E+00  1.92867E+00
   1.50450E+00  1.03558E+00  5.12044E-01 -5.81524E-02 -6.52923E-01 -1.24854E+00 -1.84453E+00 -2.45176E+00 -3.04054E+00 -3.57791E+00
  -4.03896E+00 -4.40404E+00 -4.68136E+00 -4.89762E+00 -5.07135E+00 -5.23527E+00 -5.40700E+00 -5.57727E+00 -5.72935E+00 -5.85251E+00
  -5.94311E+00 -6.01550E+00 -6.09877E+00 -6.17170E+00 -6.15553E+00 -6.03453E+00 -5.84013E+00 -5.62360E+00 -5.42949E+00 -5.25828E+00
  -5.11135E+00 -4.99809E+00 -4.92218E+00 -4.90152E+00 -4.96668E+00 -5.12383E+00 -5.31723E+00 -5.48200E+00 -5.60043E+00 -5.65471E+00
  -5.63961E+00 -5.57173E+00 -5.47144E+00 -5.34558E+00 -5.19011E+00 -5.01649E+00 -4.87834E+00 -4.78775E+00 -4.72666E+00 -4.67628E+00
  -4.61275E+00 -4.48880E+00 -4.23210E+00 -3.81078E+00 -3.25332E+00 -2.60709E+00 -1.91852E+00 -1.23905E+00 -6.20614E-01 -1.12848E-01
   2.43035E-01  4.43410E-01  5.23147E-01  5.50999E-01  5.81001E-01  6.38749E-01  7.23001E-01  8.32515E-01  9.64121E-01  1.08919E+00
   1.14150E+00  1.10939E+00  1.03328E+00  9.54556E-01  8.77953E-01  8.05723E-01  7.83872E-01  8.49805E-01  9.91901E-01  1.19172E+00
   1.45134E+00  1.79206E+00  2.24718E+00  2.83432E+00  3.67648E+00  4.87575E+00  6.12110E+00  7.18553E+00  8.13116E+00  9.03545E+00
   9.85324E+00  1.06233E+01  1.15315E+01  1.27682E+01  1.43812E+01  1.63206E+01  1.85390E+01  2.06833E+01  2.21390E+01  2.24220E+01
   2.13033E+01  1.88946E+01  1.55863E+01  1.17898E+01  7.73787E+00  3.53817E+00 -7.37531E-01 -4.74218E+00 -7.69331E+00 -9.27798E+00
  -1.03391E+01 -1.12329E+01 -1.19984E+01 -1.26442E+01 -1.31893E+01 -1.36544E+01 -1.40651E+01 -1.44466E+01 -1.48140E+01 -1.51628E+01
  -1.54849E+01 -1.57722E+01 -1.60190E+01 -1.62256E+01 -1.63872E+01 -1.65070E+01 -1.65932E+01 -1.66522E+01 -1.66966E+01 -1.67485E+01
  -1.68152E+01 -1.68863E+01 -1.69493E+01 -1.69993E+01 -1.70356E+01 -1.70555E+01 -1.70564E+01 -1.70505E+01 -1.70464E+01 -1.70446E+01
  -1.70446E+01 -1.70437E+01 -1.70399E+01 -1.70329E+01 -1.70110E+01 -1.69608E+01 -1.68816E+01 -1.67742E+01 -1.66369E+01 -1.64666E+01
  -1.62608E+01 -1.60208E+01 -1.57454E+01 -1.54230E+01 -1.50429E+01 -1.45924E+01 -1.40505E+01 -1.34246E+01 -1.27632E+01 -1.20645E+01
  -1.12879E+01 -1.04122E+01 -9.44185E+00 -8.37533E+00 -7.18296E+00 -5.81894E+00 -4.32573E+00 -2.79834E+00 -1.31607E+00  3.35054E-02
   1.16343E+00  2.03988E+00  2.70250E+00  3.26339E+00  3.85473E+00  4.57565E+00  5.51719E+00  6.72129E+00  8.08519E+00  9.55289E+00
   1.11443E+01  1.27542E+01  1.41848E+01  1.54397E+01  1.66167E+01  1.78226E+01  1.89932E+01  1.99848E+01  2.08034E+01  2.15101E+01
   2.19364E+01  2.19516E+01  2.15681E+01  2.09291E+01  2.02339E+01  1.96478E+01  1.92923E+01  1.92136E+01  1.93627E+01  1.96909E+01
   2.01791E+01  2.06972E+01  2.09198E+01  2.07830E+01  2.03437E+01  1.96288E+01  1.86163E+01  1.73034E+01  1.58762E+01  1.46132E+01
   1.35030E+01  1.25002E+01  1.15928E+01  1.07799E+01  1.00630E+01  9.44375E+00  8.92229E+00  8.49686E+00  8.16368E+00  7.91664E+00
   7.74762E+00  7.64642E+00  7.60139E+00  7.59959E+00  7.62746E+00  7.67103E+00  7.71660E+00  7.75104E+00  7.76251E+00  7.74065E+00
   7.67714E+00  7.56569E+00  7.40236E+00  7.18542E+00  6.91553E+00  6.59527E+00  6.22914E+00  5.82294E+00  5.38362E+00  4.91873E+00
   4.43628E+00  3.94407E+00  3.44971E+00  2.95999E+00  2.48111E+00  2.01819E+00  1.57558E+00  1.15648E+00  7.63294E-01  3.97417E-01
   5.96175E-02 -2.50065E-01 -5.32010E-01 -7.87128E-01 -1.01654E+00 -1.22170E+00 -1.40403E+00 -1.56516E+00 -1.70658E+00 -1.82988E+00
  -1.93651E+00 -2.02794E+00 -2.10538E+00 -2.17010E+00 -2.22314E+00 -2.26558E+00 -2.29829E+00 -2.32217E+00 -2.33791E+00 -2.34622E+00
  -2.34769E+00 -2.34292E+00 -2.33240E+00 -2.31661E+00 -2.29592E+00 -2.27075E+00 -2.24140E+00 -2.20826E+00 -2.17157E+00 -2.13163E+00
  -2.08863E+00 -2.04285E+00 -1.99446E+00 -1.94371E+00 -1.89073E+00 -1.83572E+00 -1.77878E+00 -1.72013E+00 -1.65985E+00 -1.59814E+00
  -1.53504E+00 -1.47071E+00 -1.40522E+00 -1.33872E+00 -1.27125E+00 -1.20292E+00 -1.13373E+00 -1.06380E+00 -9.93143E-01 -9.21871E-01
  -8.49996E-01 -7.77601E-01 -7.04678E-01 -6.31315E-01 -5.57523E-01 -4.83391E-01 -4.08911E-01 -3.34149E-01 -2.59090E-01 -1.83817E-01
  -1.08327E-01 -3.26974E-02  4.30969E-02  1.18997E-01  1.95020E-01  2.71088E-01  3.47208E-01  4.23325E-01  4.99464E-01  5.75571E-01
   6.51659E-01  7.27658E-01  8.03584E-01  8.79386E-01  9.55093E-01  1.03065E+00  1.10606E+00  1.18127E+00  1.25630E+00  1.33109E+00
   1.40567E+00  1.47999E+00  1.55405E+00  1.62778E+00  1.70121E+00  1.77428E+00  1.84701E+00  1.91933E+00
 NY background values follow
    -8.341E+00   -8.356E+00   -8.371E+00   -8.385E+00   -8.399E+00   -8.413E+00   -8.425E+00   -8.438E+00   -8.450E+00   -8.461E+00
    -8.472E+00   -8.482E+00   -8.492E+00   -8.502E+00   -8.511E+00   -8.519E+00   -8.527E+00   -8.535E+00   -8.542E+00   -8.548E+00
    -8.554E+00   -8.560E+00   -8.565E+00   -8.570E+00   -8.574E+00   -8.578E+00   -8.581E+00   -8.584E+00   -8.587E+00   -8.589E+00
    -8.590E+00   -8.591E+00   -8.592E+00   -8.593E+00   -8.592E+00   -8.592E+00   -8.591E+00   -8.590E+00   -8.588E+00   -8.586E+00
    -8.583E+00   -8.581E+00   -8.577E+00   -8.574E+00   -8.570E+00   -8.565E+00   -8.560E+00   -8.555E+00   -8.550E+00   -8.544E+00
    -8.538E+00   -8.531E+00   -8.524E+00   -8.517E+00   -8.510E+00   -8.502E+00   -8.494E+00   -8.485E+00   -8.477E+00   -8.468E+00
    -8.459E+00   -8.450E+00   -8.440E+00   -8.430E+00   -8.420E+00   -8.410E+00   -8.400E+00   -8.389E+00   -8.378E+00   -8.367E+00
    -8.356E+00   -8.345E+00   -8.334E+00   -8.322E+00   -8.310E+00   -8.299E+00   -8.287E+00   -8.275E+00   -8.263E+00   -8.251E+00
    -8.239E+00   -8.227E+00   -8.215E+00   -8.203E+00   -8.190E+00   -8.178E+00   -8.166E+00   -8.154E+00   -8.142E+00   -8.130E+00
    -8.118E+00   -8.106E+00   -8.094E+00   -8.082E+00   -8.071E+00   -8.060E+00   -8.048E+00   -8.037E+00   -8.026E+00   -8.016E+00
    -8.005E+00   -7.995E+00   -7.985E+00   -7.976E+00   -7.966E+00   -7.958E+00   -7.949E+00   -7.941E+00   -7.933E+00   -7.926E+00
    -7.919E+00   -7.912E+00   -7.906E+00   -7.901E+00   -7.896E+00   -7.892E+00   -7.888E+00   -7.885E+00   -7.882E+00   -7.880E+00
    -7.879E+00   -7.878E+00   -7.878E+00   -7.879E+00   -7.880E+00   -7.883E+00   -7.886E+00   -7.890E+00   -7.894E+00   -7.900E+00
    -7.906E+00   -7.914E+00   -7.922E+00   -7.931E+00   -7.941E+00   -7.953E+00   -7.965E+00   -7.978E+00   -7.992E+00   -8.008E+00
    -8.024E+00   -8.041E+00   -8.060E+00   -8.079E+00   -8.100E+00   -8.122E+00   -8.145E+00   -8.169E+00   -8.194E+00   -8.221E+00
    -8.248E+00   -8.277E+00   -8.307E+00   -8.338E+00   -8.371E+00   -8.404E+00   -8.439E+00   -8.475E+00   -8.513E+00   -8.551E+00
    -8.591E+00   -8.632E+00   -8.675E+00   -8.719E+00   -8.764E+00   -8.810E+00   -8.858E+00   -8.907E+00   -8.957E+00   -9.009E+00
    -9.062E+00   -9.117E+00   -9.173E+00   -9.230E+00   -9.289E+00   -9.349E+00   -9.411E+00   -9.474E+00   -9.539E+00   -9.605E+00
    -9.672E+00   -9.741E+00   -9.811E+00   -9.883E+00   -9.956E+00   -1.003E+01   -1.011E+01   -1.018E+01   -1.026E+01   -1.034E+01
    -1.042E+01   -1.051E+01   -1.059E+01   -1.068E+01   -1.076E+01   -1.085E+01   -1.094E+01   -1.103E+01   -1.112E+01   -1.121E+01
    -1.130E+01   -1.140E+01   -1.149E+01   -1.159E+01   -1.169E+01   -1.178E+01   -1.188E+01   -1.198E+01   -1.208E+01   -1.218E+01
    -1.229E+01   -1.239E+01   -1.249E+01   -1.260E+01   -1.270E+01   -1.281E+01   -1.291E+01   -1.302E+01   -1.313E+01   -1.323E+01
    -1.334E+01   -1.345E+01   -1.356E+01   -1.367E+01   -1.378E+01   -1.389E+01   -1.400E+01   -1.411E+01   -1.422E+01   -1.433E+01
    -1.445E+01   -1.456E+01   -1.467E+01   -1.478E+01   -1.489E+01   -1.501E+01   -1.512E+01   -1.523E+01   -1.534E+01   -1.545E+01
    -1.556E+01   -1.567E+01   -1.578E+01   -1.589E+01   -1.600E+01   -1.611E+01   -1.622E+01   -1.633E+01   -1.643E+01   -1.654E+01
    -1.665E+01   -1.675E+01   -1.685E+01   -1.696E+01   -1.706E+01   -1.716E+01   -1.726E+01   -1.736E+01   -1.746E+01   -1.756E+01
    -1.765E+01   -1.775E+01   -1.784E+01   -1.793E+01   -1.803E+01   -1.812E+01   -1.820E+01   -1.829E+01   -1.838E+01   -1.846E+01
    -1.854E+01   -1.862E+01   -1.870E+01   -1.878E+01   -1.885E+01   -1.893E+01   -1.900E+01   -1.907E+01   -1.914E+01   -1.920E+01
    -1.927E+01   -1.933E+01   -1.939E+01   -1.945E+01   -1.951E+01   -1.956E+01   -1.962E+01   -1.967E+01   -1.972E+01   -1.977E+01
    -1.981E+01   -1.986E+01   -1.990E+01   -1.994E+01   -1.998E+01   -2.002E+01   -2.005E+01   -2.008E+01   -2.011E+01   -2.014E+01
    -2.017E+01   -2.019E+01   -2.022E+01   -2.024E+01   -2.025E+01   -2.027E+01   -2.029E+01   -2.030E+01   -2.031E+01   -2.032E+01
    -2.032E+01   -2.033E+01   -2.033E+01   -2.033E+01   -2.033E+01   -2.032E+01   -2.031E+01   -2.031E+01   -2.029E+01   -2.028E+01
    -2.027E+01   -2.025E+01   -2.023E+01   -2.021E+01   -2.019E+01   -2.016E+01   -2.013E+01   -2.010E+01   -2.007E+01   -2.004E+01
    -2.000E+01   -1.997E+01   -1.993E+01   -1.989E+01   -1.985E+01   -1.980E+01   -1.976E+01   -1.971E+01   -1.966E+01   -1.961E+01
    -1.955E+01   -1.950E+01   -1.944E+01   -1.939E+01   -1.933E+01   -1.927E+01   -1.920E+01   -1.914E+01   -1.907E+01   -1.901E+01
    -1.894E+01   -1.887E+01   -1.879E+01   -1.872E+01   -1.865E+01   -1.857E+01   -1.849E+01   -1.841E+01   -1.833E+01   -1.825E+01
    -1.817E+01   -1.809E+01   -1.800E+01   -1.792E+01   -1.783E+01   -1.774E+01   -1.765E+01   -1.756E+01   -1.747E+01   -1.737E+01
    -1.728E+01   -1.718E+01   -1.709E+01   -1.699E+01   -1.689E+01   -1.679E+01   -1.669E+01   -1.659E+01   -1.649E+01   -1.638E+01
    -1.628E+01   -1.617E+01   -1.607E+01   -1.596E+01   -1.585E+01   -1.574E+01   -1.563E+01   -1.552E+01   -1.541E+01   -1.530E+01
    -1.519E+01   -1.507E+01   -1.496E+01   -1.484E+01   -1.473E+01   -1.461E+01   -1.449E+01   -1.437E+01   -1.426E+01   -1.414E+01
    -1.402E+01   -1.390E+01   -1.378E+01   -1.365E+01   -1.353E+01   -1.341E+01   -1.329E+01   -1.316E+01   -1.304E+01   -1.291E+01
    -1.279E+01   -1.266E+01   -1.254E+01   -1.241E+01   -1.229E+01   -1.216E+01   -1.203E+01   -1.191E+01   -1.178E+01   -1.165E+01
    -1.152E+01   -1.140E+01   -1.127E+01   -1.114E+01   -1.101E+01   -1.088E+01   -1.075E+01   -1.063E+01   -1.050E+01   -1.037E+01
    -1.024E+01   -1.011E+01   -9.984E+00   -9.856E+00   -9.728E+00   -9.600E+00   -9.472E+00   -9.345E+00   -9.218E+00   -9.091E+00
    -8.964E+00   -8.838E+00   -8.712E+00   -8.586E+00   -8.461E+00   -8.335E+00   -8.211E+00   -8.087E+00   -7.963E+00   -7.839E+00
    -7.716E+00   -7.594E+00   -7.472E+00   -7.351E+00   -7.230E+00   -7.109E+00   -6.990E+00   -6.870E+00   -6.751E+00   -6.633E+00
    -6.515E+00   -6.398E+00   -6.281E+00   -6.165E+00   -6.049E+00   -5.934E+00   -5.820E+00   -5.705E+00   -5.592E+00   -5.479E+00
    -5.366E+00   -5.254E+00   -5.142E+00   -5.031E+00   -4.921E+00   -4.811E+00   -4.701E+00   -4.592E+00   -4.484E+00   -4.376E+00
    -4.268E+00   -4.161E+00   -4.055E+00   -3.949E+00   -3.843E+00   -3.738E+00   -3.634E+00   -3.530E+00   -3.427E+00   -3.324E+00
    -3.221E+00   -3.119E+00   -3.018E+00   -2.917E+00   -2.817E+00   -2.717E+00   -2.618E+00   -2.519E+00
 Ala      Conc. = 2.61E+02
