 LCModel (Version 6.3-1L) Copyright: S.W. Provencher.          Ref.: Magn. Reson. Med. 30:672-679 (1993).                
 Slice#3 Row#12 Col#4  K_02_press_1_raw_act
 36 lines in following concentration table = NCONC+1
    Conc.  %SD /Cr+PCr  Metabolite                                         
  188.192 135%   0.281 Ala                                                 
    0.000 999%   0.000 Asp                                                 
  670.885   9%   1.000 Cr                                                  
    0.000 999%   0.000 PCr                                                 
   86.459 112%   0.129 GABA                                                
    0.000 999%   0.000 Glc                                                 
 5.78E+03  11%   8.610 Gln                                                 
 5.69E+03  13%   8.479 Glu                                                 
  287.846   8%   0.429 GPC                                                 
    0.000 999%   0.000 PCh                                                 
    0.000 999%   0.000 GSH                                                 
 1.73E+03  21%   2.579 Ins                                                 
    0.000 999%   0.000 Lac                                                 
 1.04E+03   6%   1.555 NAA                                                 
    0.000 999%   0.000 NAAG                                                
   73.160  35%   0.109 Scyllo                                              
    0.000 999%   0.000 Tau                                                 
    0.000 999%   0.000 -CrCH2                                              
  287.846   8%   0.429 GPC+PCh                                             
 1.04E+03   6%   1.555 NAA+NAAG                                            
  670.885   9%   1.000 Cr+PCr                                              
 1.15E+04  11%  17.089 Glu+Gln                                             
  686.741  40%   1.024 Lip13a                                              
    0.000 999%   0.000 Lip13b                                              
  115.522 123%   0.172 Lip09                                               
  383.424  38%   0.572 MM09                                                
  164.806  66%   0.246 Lip20                                               
  545.888  47%   0.814 MM20                                                
  123.466  56%   0.184 MM12                                                
  199.330  92%   0.297 MM14                                                
  342.025  34%   0.510 MM17                                                
  686.741  40%   1.024 Lip13a+Lip13b                                       
 1.01E+03  34%   1.505 MM14+Lip13a+Lip13b+MM12                             
  498.945  29%   0.744 MM09+Lip09                                          
  710.694  37%   1.059 MM20+Lip20                                          
   6 lines in following misc. output table
  FWHM = 0.122 ppm    S/N =   5                                            
  Data shift = 0.076 ppm                                                   
  Ph: -16 deg     -13.3 deg/ppm                                            
  alphaB,S = 5.2E-01,   1.0E+02                                            
   14 spline knots.   Ns = 7(2)                                            
  (11) 6 infls.   ( 5) 1 extrs.                                            
  498 points on ppm-axis = NY
      4.000000     3.992357     3.984714     3.977070     3.969427     3.961784     3.954141     3.946497     3.938854     3.931211
      3.923568     3.915925     3.908281     3.900638     3.892995     3.885352     3.877708     3.870065     3.862422     3.854779
      3.847136     3.839492     3.831849     3.824206     3.816563     3.808919     3.801276     3.793633     3.785990     3.778347
      3.770703     3.763060     3.755417     3.747774     3.740130     3.732487     3.724844     3.717201     3.709558     3.701914
      3.694271     3.686628     3.678985     3.671341     3.663698     3.656055     3.648412     3.640769     3.633125     3.625482
      3.617839     3.610196     3.602552     3.594909     3.587266     3.579623     3.571980     3.564336     3.556693     3.549050
      3.541407     3.533763     3.526120     3.518477     3.510834     3.503191     3.495547     3.487904     3.480261     3.472618
      3.464974     3.457331     3.449688     3.442045     3.434402     3.426758     3.419115     3.411472     3.403829     3.396185
      3.388542     3.380899     3.373256     3.365613     3.357969     3.350326     3.342683     3.335040     3.327396     3.319753
      3.312110     3.304467     3.296824     3.289180     3.281537     3.273894     3.266251     3.258607     3.250964     3.243321
      3.235678     3.228034     3.220391     3.212748     3.205105     3.197462     3.189818     3.182175     3.174532     3.166889
      3.159245     3.151602     3.143959     3.136316     3.128673     3.121029     3.113386     3.105743     3.098100     3.090456
      3.082813     3.075170     3.067527     3.059884     3.052240     3.044597     3.036954     3.029311     3.021667     3.014024
      3.006381     2.998738     2.991095     2.983451     2.975808     2.968165     2.960522     2.952878     2.945235     2.937592
      2.929949     2.922306     2.914662     2.907019     2.899376     2.891733     2.884089     2.876446     2.868803     2.861160
      2.853517     2.845873     2.838230     2.830587     2.822944     2.815300     2.807657     2.800014     2.792371     2.784728
      2.777084     2.769441     2.761798     2.754155     2.746511     2.738868     2.731225     2.723582     2.715939     2.708295
      2.700652     2.693009     2.685366     2.677722     2.670079     2.662436     2.654793     2.647150     2.639506     2.631863
      2.624220     2.616577     2.608933     2.601290     2.593647     2.586004     2.578361     2.570717     2.563074     2.555431
      2.547788     2.540144     2.532501     2.524858     2.517215     2.509572     2.501928     2.494285     2.486642     2.478999
      2.471355     2.463712     2.456069     2.448426     2.440783     2.433139     2.425496     2.417853     2.410210     2.402566
      2.394923     2.387280     2.379637     2.371994     2.364350     2.356707     2.349064     2.341421     2.333777     2.326134
      2.318491     2.310848     2.303205     2.295561     2.287918     2.280275     2.272632     2.264988     2.257345     2.249702
      2.242059     2.234416     2.226772     2.219129     2.211486     2.203843     2.196199     2.188556     2.180913     2.173270
      2.165627     2.157983     2.150340     2.142697     2.135054     2.127410     2.119767     2.112124     2.104481     2.096838
      2.089194     2.081551     2.073908     2.066265     2.058621     2.050978     2.043335     2.035692     2.028049     2.020405
      2.012762     2.005119     1.997476     1.989833     1.982190     1.974546     1.966903     1.959260     1.951617     1.943974
      1.936331     1.928688     1.921045     1.913402     1.905759     1.898115     1.890472     1.882829     1.875186     1.867543
      1.859900     1.852257     1.844614     1.836971     1.829327     1.821684     1.814041     1.806398     1.798755     1.791112
      1.783469     1.775826     1.768183     1.760540     1.752896     1.745253     1.737610     1.729967     1.722324     1.714681
      1.707038     1.699395     1.691752     1.684108     1.676465     1.668822     1.661179     1.653536     1.645893     1.638250
      1.630607     1.622964     1.615321     1.607677     1.600034     1.592391     1.584748     1.577105     1.569462     1.561819
      1.554176     1.546533     1.538890     1.531246     1.523603     1.515960     1.508317     1.500674     1.493031     1.485388
      1.477745     1.470102     1.462458     1.454815     1.447172     1.439529     1.431886     1.424243     1.416600     1.408957
      1.401314     1.393671     1.386027     1.378384     1.370741     1.363098     1.355455     1.347812     1.340169     1.332526
      1.324883     1.317240     1.309596     1.301953     1.294310     1.286667     1.279024     1.271381     1.263738     1.256095
      1.248452     1.240808     1.233165     1.225522     1.217879     1.210236     1.202593     1.194950     1.187307     1.179664
      1.172021     1.164377     1.156734     1.149091     1.141448     1.133805     1.126162     1.118519     1.110876     1.103233
      1.095590     1.087946     1.080303     1.072660     1.065017     1.057374     1.049731     1.042088     1.034445     1.026802
      1.019158     1.011515     1.003872     0.996229     0.988586     0.980943     0.973300     0.965657     0.958014     0.950371
      0.942727     0.935084     0.927441     0.919798     0.912155     0.904512     0.896869     0.889226     0.881583     0.873940
      0.866296     0.858653     0.851010     0.843367     0.835724     0.828081     0.820438     0.812795     0.805152     0.797508
      0.789865     0.782222     0.774579     0.766936     0.759293     0.751650     0.744007     0.736364     0.728721     0.721077
      0.713434     0.705791     0.698148     0.690505     0.682862     0.675219     0.667576     0.659933     0.652290     0.644646
      0.637003     0.629360     0.621717     0.614074     0.606431     0.598788     0.591145     0.583502     0.575858     0.568215
      0.560572     0.552929     0.545286     0.537643     0.530000     0.522357     0.514714     0.507071     0.499427     0.491784
      0.484141     0.476498     0.468855     0.461212     0.453569     0.445925     0.438282     0.430639     0.422996     0.415353
      0.407710     0.400067     0.392424     0.384780     0.377137     0.369494     0.361851     0.354208     0.346565     0.338922
      0.331278     0.323635     0.315992     0.308349     0.300706     0.293063     0.285420     0.277777     0.270133     0.262490
      0.254847     0.247204     0.239561     0.231918     0.224275     0.216631     0.208988     0.201345
 NY phased data points follow
  -2.55352E+02 -2.49603E+02 -2.43933E+02 -2.39905E+02 -2.32881E+02 -2.28390E+02 -2.29526E+02 -2.20173E+02 -2.16173E+02 -2.16545E+02
  -2.14262E+02 -2.09709E+02 -2.09204E+02 -2.06873E+02 -2.03195E+02 -2.00065E+02 -2.00667E+02 -1.96892E+02 -1.93765E+02 -1.93769E+02
  -1.94570E+02 -1.91515E+02 -1.86982E+02 -1.86725E+02 -1.82468E+02 -1.79069E+02 -1.77866E+02 -1.75536E+02 -1.72878E+02 -1.68475E+02
  -1.68563E+02 -1.69364E+02 -1.63114E+02 -1.59092E+02 -1.58022E+02 -1.56007E+02 -1.52963E+02 -1.49997E+02 -1.48098E+02 -1.44195E+02
  -1.43466E+02 -1.41606E+02 -1.38892E+02 -1.36849E+02 -1.37832E+02 -1.36671E+02 -1.34235E+02 -1.29917E+02 -1.29309E+02 -1.28301E+02
  -1.25131E+02 -1.24567E+02 -1.25480E+02 -1.22456E+02 -1.24304E+02 -1.22008E+02 -1.21548E+02 -1.22389E+02 -1.20581E+02 -1.20378E+02
  -1.19370E+02 -1.16138E+02 -1.14162E+02 -1.16806E+02 -1.14380E+02 -1.11705E+02 -1.14929E+02 -1.11132E+02 -1.13951E+02 -1.10235E+02
  -1.06754E+02 -1.07931E+02 -1.03143E+02 -1.05263E+02 -1.04360E+02 -1.03492E+02 -1.03325E+02 -1.00122E+02 -9.80086E+01 -1.01321E+02
  -9.80954E+01 -9.97344E+01 -9.78503E+01 -9.52916E+01 -9.13481E+01 -9.01837E+01 -9.25390E+01 -9.24519E+01 -9.21814E+01 -8.58805E+01
  -8.70065E+01 -8.58977E+01 -8.52837E+01 -8.20657E+01 -7.76005E+01 -7.62567E+01 -7.71374E+01 -7.48246E+01 -7.30838E+01 -7.15301E+01
  -7.11352E+01 -7.11288E+01 -6.79028E+01 -7.19136E+01 -6.93510E+01 -6.69856E+01 -6.63347E+01 -6.80266E+01 -6.60498E+01 -6.64211E+01
  -6.74469E+01 -6.62145E+01 -6.69264E+01 -6.67067E+01 -6.58852E+01 -6.62877E+01 -6.67208E+01 -6.40967E+01 -6.33793E+01 -5.69005E+01
  -5.54501E+01 -5.59915E+01 -5.45672E+01 -5.48275E+01 -5.45763E+01 -5.20294E+01 -5.29395E+01 -5.04916E+01 -5.32306E+01 -5.12009E+01
  -4.84568E+01 -5.31369E+01 -4.89927E+01 -4.88907E+01 -4.83912E+01 -5.31945E+01 -5.13126E+01 -5.16795E+01 -5.10012E+01 -5.34596E+01
  -5.12430E+01 -5.37704E+01 -5.37275E+01 -5.20752E+01 -5.00058E+01 -4.82600E+01 -4.80753E+01 -4.76374E+01 -4.82303E+01 -4.73789E+01
  -4.74497E+01 -4.68883E+01 -4.71031E+01 -4.50885E+01 -4.80944E+01 -4.24070E+01 -4.54855E+01 -4.53810E+01 -4.36472E+01 -4.03201E+01
  -4.14119E+01 -4.43017E+01 -4.06816E+01 -4.09254E+01 -4.24522E+01 -4.16781E+01 -4.35464E+01 -4.29838E+01 -4.06765E+01 -4.17528E+01
  -4.24517E+01 -3.84966E+01 -3.96648E+01 -4.00633E+01 -3.94067E+01 -4.33435E+01 -4.23815E+01 -4.13724E+01 -4.22933E+01 -4.19025E+01
  -4.02183E+01 -4.13428E+01 -4.16726E+01 -4.16553E+01 -3.98589E+01 -4.19425E+01 -4.14789E+01 -3.94761E+01 -3.77327E+01 -3.69760E+01
  -3.69213E+01 -3.56846E+01 -3.90932E+01 -3.44192E+01 -3.38828E+01 -3.50074E+01 -3.21023E+01 -3.28577E+01 -3.31046E+01 -3.07875E+01
  -3.46748E+01 -3.41813E+01 -3.03112E+01 -3.35171E+01 -3.15706E+01 -3.25551E+01 -3.18402E+01 -2.94096E+01 -3.05894E+01 -3.31109E+01
  -3.02526E+01 -2.99799E+01 -3.03472E+01 -2.88825E+01 -3.05741E+01 -2.91932E+01 -2.82804E+01 -2.39636E+01 -2.58014E+01 -2.45304E+01
  -2.67596E+01 -2.79334E+01 -2.57072E+01 -2.63050E+01 -2.50393E+01 -2.70390E+01 -2.44210E+01 -2.44361E+01 -2.25195E+01 -2.49949E+01
  -2.38874E+01 -2.07909E+01 -2.25869E+01 -2.02977E+01 -1.95802E+01 -2.33368E+01 -2.27726E+01 -2.37027E+01 -2.25315E+01 -2.27479E+01
  -2.12296E+01 -2.10120E+01 -2.21196E+01 -2.33701E+01 -2.04406E+01 -2.18448E+01 -1.71614E+01 -1.64805E+01 -1.71919E+01 -1.87764E+01
  -1.35952E+01 -9.75288E+00 -7.58099E+00 -2.41861E+00 -4.72920E+00 -3.37356E+00 -5.05136E+00 -4.08076E+00 -2.38316E+00  1.78657E+00
   2.65389E+00  1.27965E+00  3.60600E+00 -9.19567E-01 -1.80558E+00 -1.44127E+00 -1.09677E+00 -3.09665E+00 -4.05157E+00 -5.02580E+00
  -2.76275E+00 -9.36930E+00 -9.48666E+00 -1.09726E+01 -1.03339E+01 -9.32958E+00 -1.37146E+01 -1.15669E+01 -1.04800E+01 -8.60051E+00
  -1.18084E+01 -1.11566E+01 -8.98811E+00 -8.74609E+00 -9.16579E+00 -1.02555E+01 -8.15238E+00 -7.80493E+00 -1.02661E+01 -9.76664E+00
  -8.41175E+00 -9.73583E+00 -9.65065E+00 -8.15667E+00 -1.06100E+01 -8.28335E+00 -9.28485E+00 -6.48550E+00 -8.50603E+00 -8.34528E+00
  -7.88436E+00 -5.37327E+00 -6.69262E+00 -4.97075E+00 -6.38902E+00 -1.70223E+00 -3.95131E+00  7.77942E-01 -3.35660E+00 -2.17128E+00
  -1.65121E+00  7.93068E-01 -6.46503E+00 -2.79885E+00 -8.67747E-01  3.82600E-01 -1.22320E+00 -1.33568E+00 -8.29092E-01  1.19410E+00
  -3.49479E+00 -2.49564E+00 -2.23332E+00 -3.15455E+00 -3.99053E+00 -1.22580E+00 -1.18590E+00 -2.84099E-01 -9.40576E-01 -6.39219E-01
   8.65413E-01  3.52766E-01  2.12849E-02 -3.22410E-01  2.77391E+00 -1.70423E+00  1.74451E+00  1.75228E+00 -1.22385E+00  2.03876E-01
   1.85461E+00  2.00250E+00  2.06611E+00  1.91639E+00  2.00545E+00  3.65396E+00  4.95577E+00  1.42034E+00  4.26844E+00  4.62468E+00
   5.04190E+00  2.29706E+00  3.82287E+00  5.28473E+00  4.50900E+00  3.59602E+00  6.10734E+00  4.80655E+00  4.42312E+00  3.52005E+00
   2.34058E+00  4.23140E+00  3.93568E+00  4.64181E+00  4.38867E+00  6.67229E+00  5.28122E+00  3.59883E+00  4.33924E+00  4.03368E+00
   3.54686E+00  2.25485E+00  4.85825E+00  3.69847E+00  5.75568E+00  2.10213E+00  2.48255E+00  2.50426E-01  4.02295E+00  2.67904E+00
   4.30608E+00  2.21719E+00  1.13398E+00  3.68260E+00  2.62164E+00  4.24833E+00  2.75327E+00  1.35170E+00  2.66725E+00  7.41606E-01
   4.59223E+00  2.80116E+00  3.33326E+00  3.89837E+00  1.26670E+00  6.01325E+00  5.83166E+00  6.96545E+00  5.63134E+00  3.03110E+00
   2.92916E+00  2.84612E+00  4.79356E+00  4.14056E+00  1.30283E+00  3.58144E+00  3.28945E+00  3.20664E+00  2.59047E+00  7.74240E-01
   2.03056E+00  2.44922E+00  2.71476E+00  1.53614E+00  4.26011E+00  3.95839E+00  3.35206E+00  3.13436E+00  2.64655E+00  2.46075E+00
   2.59159E+00 -3.41244E-02  1.33024E+00 -3.02443E-01  2.61160E+00  3.43029E+00  1.60896E+00  2.89311E+00  5.30939E-01 -4.05927E-01
  -1.00619E-01  1.73745E+00  1.18082E+00 -1.47479E+00  2.68106E+00  1.52155E+00 -8.04822E-02  1.42501E+00 -9.65241E-01  2.12073E+00
   2.07296E+00  1.33565E+00  1.08770E+00  1.96058E+00  1.44809E+00  1.21707E+00 -5.03794E-01  1.36527E+00  2.59029E+00  2.86809E+00
   3.35493E+00  3.34383E+00  4.39363E+00  3.53472E+00  3.14348E+00  4.33304E+00  4.28721E+00  2.69519E+00  2.79675E+00  2.87812E+00
   2.74662E+00  5.06299E+00  6.69589E+00  6.02351E-01  4.40834E+00  3.82620E+00  2.46077E+00  5.28477E+00  4.29896E+00  3.83258E+00
   5.20576E+00  4.33372E+00  2.53766E+00  1.66258E-01  3.05217E+00  2.78029E+00  2.70153E+00  1.26370E+00  3.44225E+00  2.68334E+00
   1.66550E+00  2.71184E+00  2.42938E+00  5.07051E+00 -4.97287E-01  1.15052E+00  3.00488E+00  2.82592E+00  1.69859E+00  1.42364E+00
  -4.78477E-01  1.77060E+00  2.35882E+00  2.07585E+00  3.61358E+00  2.18818E+00  4.71993E+00  4.52405E+00
 NY points of the fit to the data follow
  -2.46704E+02 -2.43468E+02 -2.40418E+02 -2.37018E+02 -2.33864E+02 -2.30858E+02 -2.27691E+02 -2.24743E+02 -2.21533E+02 -2.18498E+02
  -2.15037E+02 -2.11968E+02 -2.08965E+02 -2.06702E+02 -2.04395E+02 -2.02298E+02 -2.00324E+02 -1.98024E+02 -1.95502E+02 -1.93313E+02
  -1.91595E+02 -1.89268E+02 -1.87057E+02 -1.84238E+02 -1.81782E+02 -1.78601E+02 -1.76625E+02 -1.74168E+02 -1.73099E+02 -1.70472E+02
  -1.68856E+02 -1.65750E+02 -1.63376E+02 -1.60022E+02 -1.58019E+02 -1.55283E+02 -1.53686E+02 -1.50921E+02 -1.48966E+02 -1.46213E+02
  -1.44654E+02 -1.42532E+02 -1.41114E+02 -1.39181E+02 -1.37682E+02 -1.35656E+02 -1.33989E+02 -1.32291E+02 -1.31190E+02 -1.29854E+02
  -1.28727E+02 -1.27416E+02 -1.26376E+02 -1.25079E+02 -1.24232E+02 -1.23287E+02 -1.22729E+02 -1.21573E+02 -1.20763E+02 -1.19442E+02
  -1.18558E+02 -1.17105E+02 -1.16214E+02 -1.14871E+02 -1.13932E+02 -1.12521E+02 -1.11544E+02 -1.10240E+02 -1.09311E+02 -1.08089E+02
  -1.07150E+02 -1.05977E+02 -1.04931E+02 -1.03849E+02 -1.02998E+02 -1.02039E+02 -1.01149E+02 -1.00197E+02 -9.93642E+01 -9.84501E+01
  -9.77919E+01 -9.68888E+01 -9.62038E+01 -9.53207E+01 -9.46505E+01 -9.37569E+01 -9.30410E+01 -9.21621E+01 -9.11457E+01 -8.90822E+01
  -8.79173E+01 -8.63308E+01 -8.50000E+01 -8.26339E+01 -8.10558E+01 -7.83360E+01 -7.68713E+01 -7.49292E+01 -7.37682E+01 -7.21672E+01
  -7.11430E+01 -6.96408E+01 -6.88233E+01 -6.77468E+01 -6.72133E+01 -6.68015E+01 -6.66006E+01 -6.67129E+01 -6.66321E+01 -6.68121E+01
  -6.67989E+01 -6.72938E+01 -6.69706E+01 -6.61830E+01 -6.56273E+01 -6.49624E+01 -6.41662E+01 -6.24693E+01 -6.14460E+01 -5.94001E+01
  -5.84581E+01 -5.65639E+01 -5.57873E+01 -5.41575E+01 -5.35384E+01 -5.20149E+01 -5.15840E+01 -5.04764E+01 -5.03156E+01 -4.98313E+01
  -4.99140E+01 -4.99244E+01 -5.00828E+01 -5.02091E+01 -5.04212E+01 -5.09143E+01 -5.10635E+01 -5.14087E+01 -5.14005E+01 -5.15561E+01
  -5.13787E+01 -5.12744E+01 -5.10059E+01 -5.09064E+01 -5.05073E+01 -5.00324E+01 -4.95771E+01 -4.91557E+01 -4.86978E+01 -4.82746E+01
  -4.78084E+01 -4.74106E+01 -4.70043E+01 -4.66739E+01 -4.62590E+01 -4.59084E+01 -4.55208E+01 -4.51818E+01 -4.48576E+01 -4.45638E+01
  -4.42781E+01 -4.40120E+01 -4.37807E+01 -4.34966E+01 -4.32481E+01 -4.29773E+01 -4.27964E+01 -4.25927E+01 -4.23844E+01 -4.21481E+01
  -4.18783E+01 -4.16846E+01 -4.14211E+01 -4.12882E+01 -4.09114E+01 -4.07325E+01 -4.03042E+01 -4.01231E+01 -3.96258E+01 -3.95125E+01
  -3.91703E+01 -3.90589E+01 -3.89591E+01 -3.89439E+01 -3.89890E+01 -3.89591E+01 -3.92448E+01 -3.87399E+01 -3.86115E+01 -3.78399E+01
  -3.76024E+01 -3.60155E+01 -3.54201E+01 -3.38174E+01 -3.34984E+01 -3.24502E+01 -3.40414E+01 -3.25699E+01 -3.36054E+01 -3.27050E+01
  -3.47737E+01 -3.32470E+01 -3.45900E+01 -3.26744E+01 -3.33313E+01 -3.13439E+01 -3.12683E+01 -3.01747E+01 -3.08364E+01 -3.09203E+01
  -3.11837E+01 -3.10954E+01 -3.11324E+01 -3.13210E+01 -3.05598E+01 -3.05105E+01 -2.90743E+01 -2.85801E+01 -2.71703E+01 -2.67679E+01
  -2.60333E+01 -2.61156E+01 -2.64170E+01 -2.58462E+01 -2.60784E+01 -2.45907E+01 -2.47613E+01 -2.27318E+01 -2.39233E+01 -2.22089E+01
  -2.22192E+01 -2.02355E+01 -2.06709E+01 -1.98288E+01 -1.99563E+01 -2.07159E+01 -2.07163E+01 -2.18599E+01 -2.10218E+01 -2.23558E+01
  -2.11144E+01 -2.31182E+01 -2.15731E+01 -2.35099E+01 -2.14205E+01 -2.27724E+01 -1.89486E+01 -1.94474E+01 -1.66134E+01 -1.68819E+01
  -1.32250E+01 -1.22184E+01 -8.32395E+00 -6.78449E+00 -4.38561E+00 -3.05220E+00 -1.70209E+00 -5.93906E-01  1.96707E-01  1.44720E+00
   1.34995E+00  1.95720E+00  8.23316E-01  9.12788E-01 -1.02057E+00 -1.11991E+00 -2.97571E+00 -3.20651E+00 -5.50391E+00 -5.86335E+00
  -7.75069E+00 -7.99465E+00 -9.39385E+00 -9.44140E+00 -1.01909E+01 -1.01846E+01 -1.08393E+01 -1.08130E+01 -1.07839E+01 -1.06309E+01
  -1.05132E+01 -1.03777E+01 -1.02032E+01 -1.01228E+01 -9.94960E+00 -9.85072E+00 -9.67647E+00 -9.55346E+00 -9.35314E+00 -9.20234E+00
  -9.00498E+00 -8.80702E+00 -8.56815E+00 -8.31975E+00 -8.04988E+00 -7.75949E+00 -7.45132E+00 -7.12210E+00 -6.79040E+00 -6.43790E+00
  -6.08172E+00 -5.71309E+00 -5.34554E+00 -4.97557E+00 -4.61200E+00 -4.25961E+00 -3.92257E+00 -3.60526E+00 -3.30785E+00 -3.03600E+00
  -2.78296E+00 -2.54865E+00 -2.30961E+00 -2.05839E+00 -1.95751E+00 -1.82960E+00 -1.75224E+00 -1.61226E+00 -1.61784E+00 -1.54594E+00
  -1.67433E+00 -1.59378E+00 -1.61813E+00 -1.57166E+00 -1.58564E+00 -1.46999E+00 -1.39546E+00 -1.23307E+00 -1.03750E+00 -9.24263E-01
  -6.70758E-01 -5.67277E-01 -2.37777E-01 -9.00002E-02  3.02711E-01  4.46281E-01  9.07514E-01  1.06358E+00  1.52047E+00  1.66209E+00
   2.07539E+00  2.23104E+00  2.59822E+00  2.71074E+00  3.01571E+00  3.15383E+00  3.38770E+00  3.51114E+00  3.69574E+00  3.82347E+00
   3.98077E+00  4.07938E+00  4.18359E+00  4.28692E+00  4.37872E+00  4.45451E+00  4.51182E+00  4.54926E+00  4.56610E+00  4.56224E+00
   4.53809E+00  4.49449E+00  4.43270E+00  4.35448E+00  4.26195E+00  4.15743E+00  4.04333E+00  3.92214E+00  3.79628E+00  3.66813E+00
   3.53990E+00  3.41371E+00  3.29149E+00  3.17500E+00  3.06586E+00  2.96547E+00  2.87513E+00  2.79599E+00  2.72908E+00  2.67534E+00
   2.63559E+00  2.61054E+00  2.60079E+00  2.60677E+00  2.62876E+00  2.66680E+00  2.72064E+00  2.78968E+00  2.87293E+00  2.96897E+00
   3.07589E+00  3.19128E+00  3.31226E+00  3.43549E+00  3.55730E+00  3.67376E+00  3.78084E+00  3.87455E+00  3.95114E+00  4.00728E+00
   4.04024E+00  4.04800E+00  4.02940E+00  3.98422E+00  3.91313E+00  3.81776E+00  3.70056E+00  3.56468E+00  3.41367E+00  3.25128E+00
   3.08140E+00  2.90797E+00  2.73477E+00  2.56530E+00  2.40263E+00  2.24940E+00  2.10768E+00  1.97906E+00  1.86457E+00  1.76480E+00
   1.67990E+00  1.60964E+00  1.55354E+00  1.51087E+00  1.48079E+00  1.46230E+00  1.45438E+00  1.45596E+00  1.46606E+00  1.48369E+00
   1.50792E+00  1.53789E+00  1.57280E+00  1.61194E+00  1.65463E+00  1.70032E+00  1.74842E+00  1.79849E+00  1.85003E+00  1.90270E+00
   1.95607E+00  2.00987E+00  2.06372E+00  2.11740E+00  2.17055E+00  2.22300E+00  2.27444E+00  2.32472E+00  2.37352E+00  2.42071E+00
   2.46600E+00  2.50928E+00  2.55029E+00  2.58896E+00  2.62521E+00  2.65912E+00  2.69068E+00  2.71997E+00  2.74697E+00  2.77173E+00
   2.79428E+00  2.81465E+00  2.83288E+00  2.84903E+00  2.86312E+00  2.87519E+00  2.88528E+00  2.89343E+00  2.89970E+00  2.90413E+00
   2.90675E+00  2.90761E+00  2.90676E+00  2.90424E+00  2.90012E+00  2.89443E+00  2.88723E+00  2.87855E+00  2.86846E+00  2.85701E+00
   2.84426E+00  2.83026E+00  2.81506E+00  2.79872E+00  2.78130E+00  2.76288E+00  2.74352E+00  2.72328E+00  2.70222E+00  2.68042E+00
   2.65798E+00  2.63500E+00  2.61155E+00  2.58774E+00  2.56367E+00  2.53949E+00  2.51536E+00  2.49148E+00
 NY background values follow
    -2.540E+02   -2.513E+02   -2.486E+02   -2.459E+02   -2.432E+02   -2.406E+02   -2.379E+02   -2.352E+02   -2.326E+02   -2.299E+02
    -2.273E+02   -2.247E+02   -2.221E+02   -2.195E+02   -2.169E+02   -2.143E+02   -2.118E+02   -2.092E+02   -2.067E+02   -2.042E+02
    -2.017E+02   -1.992E+02   -1.968E+02   -1.944E+02   -1.919E+02   -1.896E+02   -1.872E+02   -1.848E+02   -1.825E+02   -1.802E+02
    -1.780E+02   -1.757E+02   -1.735E+02   -1.713E+02   -1.691E+02   -1.670E+02   -1.649E+02   -1.628E+02   -1.607E+02   -1.587E+02
    -1.567E+02   -1.548E+02   -1.528E+02   -1.509E+02   -1.491E+02   -1.472E+02   -1.454E+02   -1.437E+02   -1.420E+02   -1.403E+02
    -1.386E+02   -1.370E+02   -1.354E+02   -1.338E+02   -1.323E+02   -1.308E+02   -1.293E+02   -1.279E+02   -1.265E+02   -1.251E+02
    -1.237E+02   -1.223E+02   -1.210E+02   -1.197E+02   -1.185E+02   -1.172E+02   -1.160E+02   -1.148E+02   -1.136E+02   -1.124E+02
    -1.112E+02   -1.101E+02   -1.090E+02   -1.079E+02   -1.068E+02   -1.057E+02   -1.047E+02   -1.036E+02   -1.026E+02   -1.016E+02
    -1.005E+02   -9.955E+01   -9.856E+01   -9.758E+01   -9.661E+01   -9.565E+01   -9.469E+01   -9.374E+01   -9.280E+01   -9.186E+01
    -9.092E+01   -8.999E+01   -8.906E+01   -8.814E+01   -8.722E+01   -8.630E+01   -8.539E+01   -8.448E+01   -8.357E+01   -8.267E+01
    -8.178E+01   -8.089E+01   -8.000E+01   -7.912E+01   -7.825E+01   -7.738E+01   -7.651E+01   -7.566E+01   -7.481E+01   -7.396E+01
    -7.312E+01   -7.229E+01   -7.147E+01   -7.065E+01   -6.984E+01   -6.904E+01   -6.824E+01   -6.745E+01   -6.667E+01   -6.590E+01
    -6.514E+01   -6.438E+01   -6.363E+01   -6.290E+01   -6.217E+01   -6.145E+01   -6.074E+01   -6.003E+01   -5.934E+01   -5.866E+01
    -5.799E+01   -5.733E+01   -5.668E+01   -5.603E+01   -5.540E+01   -5.479E+01   -5.418E+01   -5.358E+01   -5.299E+01   -5.242E+01
    -5.185E+01   -5.130E+01   -5.075E+01   -5.022E+01   -4.970E+01   -4.918E+01   -4.868E+01   -4.818E+01   -4.770E+01   -4.722E+01
    -4.675E+01   -4.630E+01   -4.585E+01   -4.541E+01   -4.497E+01   -4.455E+01   -4.413E+01   -4.373E+01   -4.333E+01   -4.294E+01
    -4.255E+01   -4.218E+01   -4.181E+01   -4.144E+01   -4.109E+01   -4.074E+01   -4.040E+01   -4.006E+01   -3.974E+01   -3.941E+01
    -3.910E+01   -3.879E+01   -3.848E+01   -3.819E+01   -3.789E+01   -3.761E+01   -3.732E+01   -3.705E+01   -3.677E+01   -3.651E+01
    -3.624E+01   -3.598E+01   -3.573E+01   -3.548E+01   -3.523E+01   -3.499E+01   -3.475E+01   -3.452E+01   -3.429E+01   -3.406E+01
    -3.384E+01   -3.362E+01   -3.340E+01   -3.318E+01   -3.297E+01   -3.276E+01   -3.255E+01   -3.234E+01   -3.214E+01   -3.194E+01
    -3.174E+01   -3.154E+01   -3.134E+01   -3.114E+01   -3.095E+01   -3.075E+01   -3.056E+01   -3.037E+01   -3.018E+01   -2.998E+01
    -2.979E+01   -2.960E+01   -2.941E+01   -2.922E+01   -2.903E+01   -2.884E+01   -2.864E+01   -2.845E+01   -2.826E+01   -2.806E+01
    -2.787E+01   -2.767E+01   -2.747E+01   -2.727E+01   -2.707E+01   -2.686E+01   -2.666E+01   -2.645E+01   -2.624E+01   -2.602E+01
    -2.581E+01   -2.559E+01   -2.538E+01   -2.516E+01   -2.493E+01   -2.471E+01   -2.449E+01   -2.426E+01   -2.403E+01   -2.380E+01
    -2.357E+01   -2.334E+01   -2.311E+01   -2.287E+01   -2.264E+01   -2.240E+01   -2.216E+01   -2.193E+01   -2.169E+01   -2.145E+01
    -2.121E+01   -2.096E+01   -2.072E+01   -2.048E+01   -2.024E+01   -1.999E+01   -1.975E+01   -1.950E+01   -1.926E+01   -1.902E+01
    -1.877E+01   -1.853E+01   -1.828E+01   -1.804E+01   -1.779E+01   -1.755E+01   -1.730E+01   -1.706E+01   -1.682E+01   -1.657E+01
    -1.633E+01   -1.609E+01   -1.585E+01   -1.561E+01   -1.537E+01   -1.513E+01   -1.489E+01   -1.465E+01   -1.441E+01   -1.418E+01
    -1.394E+01   -1.370E+01   -1.347E+01   -1.324E+01   -1.300E+01   -1.277E+01   -1.254E+01   -1.231E+01   -1.208E+01   -1.185E+01
    -1.162E+01   -1.139E+01   -1.117E+01   -1.094E+01   -1.071E+01   -1.049E+01   -1.027E+01   -1.004E+01   -9.823E+00   -9.602E+00
    -9.382E+00   -9.163E+00   -8.945E+00   -8.728E+00   -8.512E+00   -8.297E+00   -8.082E+00   -7.869E+00   -7.657E+00   -7.446E+00
    -7.235E+00   -7.026E+00   -6.818E+00   -6.611E+00   -6.404E+00   -6.199E+00   -5.995E+00   -5.792E+00   -5.591E+00   -5.390E+00
    -5.191E+00   -4.993E+00   -4.797E+00   -4.603E+00   -4.410E+00   -4.220E+00   -4.031E+00   -3.844E+00   -3.660E+00   -3.478E+00
    -3.299E+00   -3.122E+00   -2.947E+00   -2.776E+00   -2.607E+00   -2.441E+00   -2.279E+00   -2.119E+00   -1.963E+00   -1.811E+00
    -1.661E+00   -1.516E+00   -1.374E+00   -1.236E+00   -1.102E+00   -9.720E-01   -8.461E-01   -7.245E-01   -6.073E-01   -4.946E-01
    -3.864E-01   -2.829E-01   -1.843E-01   -9.051E-02   -1.756E-03    8.188E-02    1.603E-01    2.334E-01    3.010E-01    3.632E-01
     4.196E-01    4.703E-01    5.152E-01    5.542E-01    5.878E-01    6.159E-01    6.390E-01    6.572E-01    6.708E-01    6.800E-01
     6.849E-01    6.859E-01    6.832E-01    6.769E-01    6.674E-01    6.548E-01    6.395E-01    6.215E-01    6.011E-01    5.786E-01
     5.542E-01    5.281E-01    5.005E-01    4.717E-01    4.420E-01    4.114E-01    3.803E-01    3.488E-01    3.173E-01    2.859E-01
     2.548E-01    2.244E-01    1.947E-01    1.661E-01    1.388E-01    1.129E-01    8.881E-02    6.663E-02    4.662E-02    2.901E-02
     1.403E-02    1.895E-03   -7.159E-03   -1.291E-02   -1.512E-02   -1.358E-02   -8.059E-03    1.671E-03    1.568E-02    3.383E-02
     5.595E-02    8.190E-02    1.115E-01    1.446E-01    1.811E-01    2.207E-01    2.634E-01    3.089E-01    3.572E-01    4.080E-01
     4.612E-01    5.166E-01    5.742E-01    6.336E-01    6.948E-01    7.576E-01    8.219E-01    8.874E-01    9.541E-01    1.022E+00
     1.090E+00    1.159E+00    1.229E+00    1.299E+00    1.369E+00    1.439E+00    1.509E+00    1.579E+00    1.648E+00    1.717E+00
     1.785E+00    1.852E+00    1.918E+00    1.983E+00    2.046E+00    2.108E+00    2.168E+00    2.226E+00    2.282E+00    2.336E+00
     2.388E+00    2.437E+00    2.484E+00    2.527E+00    2.569E+00    2.607E+00    2.643E+00    2.676E+00    2.707E+00    2.735E+00
     2.761E+00    2.784E+00    2.805E+00    2.824E+00    2.840E+00    2.854E+00    2.867E+00    2.877E+00    2.885E+00    2.891E+00
     2.895E+00    2.897E+00    2.897E+00    2.895E+00    2.892E+00    2.887E+00    2.880E+00    2.871E+00    2.861E+00    2.850E+00
     2.837E+00    2.822E+00    2.806E+00    2.789E+00    2.770E+00    2.751E+00    2.730E+00    2.707E+00    2.684E+00    2.660E+00
     2.634E+00    2.608E+00    2.581E+00    2.552E+00    2.523E+00    2.493E+00    2.463E+00    2.432E+00
 Ala      Conc. = 1.88E+02
