 LCModel (Version 6.3-1L) Copyright: S.W. Provencher.          Ref.: Magn. Reson. Med. 30:672-679 (1993).                
 Slice#3 Row#8 Col#7  K_02_press_1_raw_act
 36 lines in following concentration table = NCONC+1
    Conc.  %SD /Cr+PCr  Metabolite                                         
    0.000 999%   0.000 Ala                                                 
    0.000 999%   0.000 Asp                                                 
 1.02E+03  22%   0.472 Cr                                                  
 1.15E+03  21%   0.528 PCr                                                 
    0.000 999%   0.000 GABA                                                
    0.000 999%   0.000 Glc                                                 
 1.10E+03  23%   0.505 Gln                                                 
 1.90E+03  14%   0.874 Glu                                                 
  608.477   4%   0.280 GPC                                                 
    0.000 999%   0.000 PCh                                                 
  651.613  13%   0.300 GSH                                                 
 1.14E+03  24%   0.525 Ins                                                 
  136.170  93% 6.3E-02 Lac                                                 
 2.52E+03   5%   1.162 NAA                                                 
  204.962  60% 9.4E-02 NAAG                                                
    0.000 999%   0.000 Scyllo                                              
    0.000 999%   0.000 Tau                                                 
    0.000 999%   0.000 -CrCH2                                              
  608.477   4%   0.280 GPC+PCh                                             
 2.73E+03   4%   1.256 NAA+NAAG                                            
 2.17E+03   3%   1.000 Cr+PCr                                              
 2.99E+03  13%   1.380 Glu+Gln                                             
    0.000 999%   0.000 Lip13a                                              
    0.000 999%   0.000 Lip13b                                              
    0.000 999%   0.000 Lip09                                               
 1.95E+03  15%   0.899 MM09                                                
 1.14E-02 999% 5.2E-06 Lip20                                               
 3.95E+03  12%   1.822 MM20                                                
  518.477  28%   0.239 MM12                                                
 1.63E+03  21%   0.749 MM14                                                
 1.22E+03  22%   0.564 MM17                                                
    0.000 999%   0.000 Lip13a+Lip13b                                       
 2.14E+03  19%   0.988 MM14+Lip13a+Lip13b+MM12                             
 1.95E+03  15%   0.899 MM09+Lip09                                          
 3.95E+03  12%   1.822 MM20+Lip20                                          
   6 lines in following misc. output table
  FWHM = 0.038 ppm    S/N =  12                                            
  Data shift = 0.008 ppm                                                   
  Ph: -23 deg      -6.8 deg/ppm                                            
  alphaB,S = 7.6E-01,   4.8E+01                                            
   14 spline knots.   Ns = 6(1)                                            
  (10) 4 infls.   (11) 1 extrs.                                            
  498 points on ppm-axis = NY
      4.000000     3.992357     3.984714     3.977070     3.969427     3.961784     3.954141     3.946497     3.938854     3.931211
      3.923568     3.915925     3.908281     3.900638     3.892995     3.885352     3.877708     3.870065     3.862422     3.854779
      3.847136     3.839492     3.831849     3.824206     3.816563     3.808919     3.801276     3.793633     3.785990     3.778347
      3.770703     3.763060     3.755417     3.747774     3.740130     3.732487     3.724844     3.717201     3.709558     3.701914
      3.694271     3.686628     3.678985     3.671341     3.663698     3.656055     3.648412     3.640769     3.633125     3.625482
      3.617839     3.610196     3.602552     3.594909     3.587266     3.579623     3.571980     3.564336     3.556693     3.549050
      3.541407     3.533763     3.526120     3.518477     3.510834     3.503191     3.495547     3.487904     3.480261     3.472618
      3.464974     3.457331     3.449688     3.442045     3.434402     3.426758     3.419115     3.411472     3.403829     3.396185
      3.388542     3.380899     3.373256     3.365613     3.357969     3.350326     3.342683     3.335040     3.327396     3.319753
      3.312110     3.304467     3.296824     3.289180     3.281537     3.273894     3.266251     3.258607     3.250964     3.243321
      3.235678     3.228034     3.220391     3.212748     3.205105     3.197462     3.189818     3.182175     3.174532     3.166889
      3.159245     3.151602     3.143959     3.136316     3.128673     3.121029     3.113386     3.105743     3.098100     3.090456
      3.082813     3.075170     3.067527     3.059884     3.052240     3.044597     3.036954     3.029311     3.021667     3.014024
      3.006381     2.998738     2.991095     2.983451     2.975808     2.968165     2.960522     2.952878     2.945235     2.937592
      2.929949     2.922306     2.914662     2.907019     2.899376     2.891733     2.884089     2.876446     2.868803     2.861160
      2.853517     2.845873     2.838230     2.830587     2.822944     2.815300     2.807657     2.800014     2.792371     2.784728
      2.777084     2.769441     2.761798     2.754155     2.746511     2.738868     2.731225     2.723582     2.715939     2.708295
      2.700652     2.693009     2.685366     2.677722     2.670079     2.662436     2.654793     2.647150     2.639506     2.631863
      2.624220     2.616577     2.608933     2.601290     2.593647     2.586004     2.578361     2.570717     2.563074     2.555431
      2.547788     2.540144     2.532501     2.524858     2.517215     2.509572     2.501928     2.494285     2.486642     2.478999
      2.471355     2.463712     2.456069     2.448426     2.440783     2.433139     2.425496     2.417853     2.410210     2.402566
      2.394923     2.387280     2.379637     2.371994     2.364350     2.356707     2.349064     2.341421     2.333777     2.326134
      2.318491     2.310848     2.303205     2.295561     2.287918     2.280275     2.272632     2.264988     2.257345     2.249702
      2.242059     2.234416     2.226772     2.219129     2.211486     2.203843     2.196199     2.188556     2.180913     2.173270
      2.165627     2.157983     2.150340     2.142697     2.135054     2.127410     2.119767     2.112124     2.104481     2.096838
      2.089194     2.081551     2.073908     2.066265     2.058621     2.050978     2.043335     2.035692     2.028049     2.020405
      2.012762     2.005119     1.997476     1.989833     1.982190     1.974546     1.966903     1.959260     1.951617     1.943974
      1.936331     1.928688     1.921045     1.913402     1.905759     1.898115     1.890472     1.882829     1.875186     1.867543
      1.859900     1.852257     1.844614     1.836971     1.829327     1.821684     1.814041     1.806398     1.798755     1.791112
      1.783469     1.775826     1.768183     1.760540     1.752896     1.745253     1.737610     1.729967     1.722324     1.714681
      1.707038     1.699395     1.691752     1.684108     1.676465     1.668822     1.661179     1.653536     1.645893     1.638250
      1.630607     1.622964     1.615321     1.607677     1.600034     1.592391     1.584748     1.577105     1.569462     1.561819
      1.554176     1.546533     1.538890     1.531246     1.523603     1.515960     1.508317     1.500674     1.493031     1.485388
      1.477745     1.470102     1.462458     1.454815     1.447172     1.439529     1.431886     1.424243     1.416600     1.408957
      1.401314     1.393671     1.386027     1.378384     1.370741     1.363098     1.355455     1.347812     1.340169     1.332526
      1.324883     1.317240     1.309596     1.301953     1.294310     1.286667     1.279024     1.271381     1.263738     1.256095
      1.248452     1.240808     1.233165     1.225522     1.217879     1.210236     1.202593     1.194950     1.187307     1.179664
      1.172021     1.164377     1.156734     1.149091     1.141448     1.133805     1.126162     1.118519     1.110876     1.103233
      1.095590     1.087946     1.080303     1.072660     1.065017     1.057374     1.049731     1.042088     1.034445     1.026802
      1.019158     1.011515     1.003872     0.996229     0.988586     0.980943     0.973300     0.965657     0.958014     0.950371
      0.942727     0.935084     0.927441     0.919798     0.912155     0.904512     0.896869     0.889226     0.881583     0.873940
      0.866296     0.858653     0.851010     0.843367     0.835724     0.828081     0.820438     0.812795     0.805152     0.797508
      0.789865     0.782222     0.774579     0.766936     0.759293     0.751650     0.744007     0.736364     0.728721     0.721077
      0.713434     0.705791     0.698148     0.690505     0.682862     0.675219     0.667576     0.659933     0.652290     0.644646
      0.637003     0.629360     0.621717     0.614074     0.606431     0.598788     0.591145     0.583502     0.575858     0.568215
      0.560572     0.552929     0.545286     0.537643     0.530000     0.522357     0.514714     0.507071     0.499427     0.491784
      0.484141     0.476498     0.468855     0.461212     0.453569     0.445925     0.438282     0.430639     0.422996     0.415353
      0.407710     0.400067     0.392424     0.384780     0.377137     0.369494     0.361851     0.354208     0.346565     0.338922
      0.331278     0.323635     0.315992     0.308349     0.300706     0.293063     0.285420     0.277777     0.270133     0.262490
      0.254847     0.247204     0.239561     0.231918     0.224275     0.216631     0.208988     0.201345
 NY phased data points follow
   1.22220E+00 -1.26903E+00 -6.64806E-01 -6.86919E-01  7.62680E+00  7.47505E+00  1.94520E+01  2.55470E+01  3.93992E+01  4.86360E+01
   5.83857E+01  6.34832E+01  5.87478E+01  3.98656E+01  3.81050E+01  2.41266E+01  2.26616E+01  1.45678E+01  1.03200E+01  4.27707E+00
   3.54940E+00  2.00574E+00  1.65498E+00  4.15484E+00  9.53103E+00  1.07582E+01  1.16651E+01  9.49275E+00  1.37737E+01  1.40571E+01
   1.94345E+01  2.29802E+01  2.68960E+01  2.37710E+01  2.19890E+01  8.77353E+00  1.04539E+01  8.15410E+00  9.87222E+00  1.40730E+01
   1.41435E+01  1.33295E+01  7.48479E+00  6.44077E+00  7.97169E+00  1.35879E+01  2.07834E+01  1.88962E+01  2.28004E+01  1.46141E+01
   1.67600E+01  1.04031E+01  1.10904E+01 -2.79739E+00  6.16215E+00  6.65197E+00  1.17486E+01  7.97426E+00  9.58813E+00  4.22801E+00
   9.86072E+00  6.74084E+00 -2.17354E+00 -1.39112E+00 -2.64796E+00 -2.00183E+00 -3.96666E+00  1.25106E+00 -2.80763E-01 -1.11128E+00
   1.28073E+00 -2.94590E+00 -2.56639E+00  6.17261E+00  2.04023E+00  2.93729E+00  3.03214E+00  3.29389E+00  3.09251E+00  2.42739E+00
  -1.44320E+00  2.51634E+00  4.06069E+00  4.01236E+00 -4.49610E+00 -5.34618E+00 -2.21813E+00  2.82608E+00 -2.31926E-01 -4.11771E+00
   3.95232E+00  2.98600E+00  1.34834E+00  9.95233E+00  6.32652E+00  7.11582E+00  8.50996E+00  8.83611E+00  6.62608E+00  2.01857E+01
   2.34343E+01  3.96949E+01  5.52156E+01  6.91773E+01  6.46642E+01  5.61602E+01  4.17368E+01  3.75900E+01  2.58653E+01  1.97198E+01
   1.69730E+01  1.26145E+01  8.31960E+00  1.32068E+01  1.06316E+01  3.97700E+00  9.75656E+00  1.02133E+01  1.35724E+01  1.08189E+01
   1.49649E+01  9.09448E+00  1.18812E+01  1.54877E+01  2.66909E+01  4.91429E+01  7.19273E+01  8.71599E+01  8.31052E+01  7.70162E+01
   5.85099E+01  4.89696E+01  3.78316E+01  2.30171E+01  2.16582E+01  1.70351E+01  8.20942E+00  6.55811E+00  5.13928E+00  3.76982E+00
   1.01870E+01  6.79774E+00  1.04320E+00  1.01409E+01  6.86690E+00 -3.51359E+00  4.58461E+00  5.63154E+00  4.96957E+00 -1.44223E+00
   4.22436E+00  4.47194E-01  4.09457E+00  6.21458E+00  3.93752E+00 -8.94173E-01 -2.31000E+00  4.12297E+00  7.01908E+00  8.29418E+00
   6.48910E-01  1.53713E+00 -7.05320E+00 -1.63038E+00  2.47425E+00  1.61581E+00  1.80223E+00  4.37682E+00 -2.39204E-01  2.67365E+00
  -9.81113E-01 -3.78257E+00 -1.66644E+00 -4.68219E+00 -1.58473E+01 -1.58349E+01 -1.34377E+01 -8.07375E+00 -1.02817E+01 -1.07811E+01
  -2.10194E+00 -7.51498E+00 -8.66461E+00 -1.32843E+01 -1.01417E+01 -7.03148E+00 -1.20584E+01 -1.20029E+01 -1.39393E+00 -3.45408E-01
   6.79910E+00  1.06389E+01  8.46638E+00  7.41714E+00  7.30642E+00  1.00671E+01  8.94525E+00  3.08569E+00  1.85098E+00 -4.70295E+00
   4.07825E+00  1.86894E+00  5.98692E+00  8.75282E+00  1.23758E+01  9.53000E+00  4.57519E+00  9.79225E-01 -2.39947E+00 -5.09702E+00
  -5.62882E+00 -6.62629E+00 -5.64205E+00  8.93533E+00  1.89500E+01  1.99993E+01  2.20382E+01  2.13197E+01  1.26346E+01  5.37915E+00
   1.38017E+01  3.58263E+00  8.85176E-01 -3.32831E+00  5.25869E+00  7.52559E+00  1.12780E+01  1.57665E+01  1.16807E+01  1.71893E+01
   1.47638E+01  1.55075E+01  1.31198E+01  1.16598E+01  7.94306E+00  1.41704E+01  1.05430E+01  1.42113E+01  1.22747E+01  1.65996E+01
   1.32750E+01  6.73565E+00  4.24135E+00  1.07130E+01  5.75782E+00  1.41873E+01  1.24417E+01  1.87832E+01  1.74679E+01  2.32425E+01
   2.02782E+01  1.97112E+01  2.36451E+01  3.17796E+01  3.75388E+01  3.12259E+01  3.48792E+01  3.95275E+01  6.72538E+01  9.86152E+01
   1.16771E+02  1.14071E+02  9.86636E+01  7.59712E+01  6.62406E+01  5.01421E+01  4.03563E+01  3.08447E+01  2.29982E+01  1.71361E+01
   1.80545E+01  1.34930E+01  1.93054E+01  1.26943E+01  1.73362E+01  1.26749E+01  1.51210E+01  5.98278E+00  9.72995E+00  8.30264E+00
   6.08602E+00  9.96635E+00  8.69241E+00  6.15687E+00  2.72018E+00  6.58783E+00  7.39066E+00  1.42638E+01  2.59643E+00  1.13169E+01
   4.37210E+00  5.18188E+00  5.99040E+00  6.59312E+00  7.92819E+00  5.39795E+00  6.52818E+00  1.00028E+01  3.10511E+00  5.82426E+00
   6.53130E+00  1.00256E+01  5.93039E+00  8.56946E+00  9.98149E+00  1.03612E+01  1.42127E+01  9.34111E+00  9.63427E+00  1.39904E+01
   1.20207E+01  8.66241E+00  1.13615E+01  1.43763E+01  1.32699E+01  1.18529E+01  1.22242E+01  1.07253E+01  1.48189E+01  1.22621E+01
   9.25720E+00  1.16081E+01  7.95941E+00  1.73245E+01  1.15991E+01  1.31902E+01  1.31426E+01  1.05802E+01  1.33521E+01  1.19013E+01
   7.24340E+00  1.20558E+01  7.92086E+00  1.23297E+01  6.53783E+00  7.43273E+00  1.20518E+01  6.68946E+00  4.62645E+00  3.09473E-01
   9.75690E-01 -1.79545E+00 -4.63031E+00 -1.98184E+00  4.48708E-01  1.82486E+00 -6.07527E+00 -8.22525E+00 -4.34667E+00 -5.12192E+00
  -1.29420E+01 -1.10587E+01 -6.96583E+00 -9.82549E+00 -7.53213E+00 -5.64227E+00 -4.24716E+00 -3.73706E+00 -3.29282E+00 -1.81155E+00
  -3.06838E+00 -4.00111E+00 -3.28197E+00  4.23350E+00  2.20443E+00  1.89381E+00 -2.01071E+00 -2.11634E+00  1.60469E+00 -5.73762E-01
   4.06903E+00 -1.64141E+00  1.28163E+00  2.99111E+00  2.44049E+00  2.24796E+00  2.47960E+00 -2.23533E+00  3.60902E+00  4.89516E+00
   5.36301E+00 -2.71557E+00  1.07860E+00  3.93355E+00  5.70285E+00  3.20641E+00 -2.95538E-01  1.21570E+00 -1.55954E+00  1.13473E+00
   5.00179E+00  1.15533E+00  4.26587E+00 -9.24215E-01  1.89853E+00  4.47808E+00  4.66914E+00  7.10586E+00  5.73572E+00  3.52518E+00
   2.57367E+00  1.50210E+00  9.84078E+00  1.07618E+00  5.99329E+00  6.07858E+00  7.72689E+00  5.84241E+00  5.63036E+00  9.59082E+00
   6.22783E+00  4.30028E+00  5.55071E+00  5.89731E+00  4.31776E+00  1.09423E+01  1.50903E+01  7.25422E+00  4.31456E+00  2.65256E+00
   7.99932E+00  2.48704E+00  5.13930E+00  8.60896E+00  9.51386E+00  5.50025E+00  1.17382E+01  9.47708E+00  6.98618E-01  6.24450E+00
   7.98455E+00  7.29989E+00  1.32323E+01  1.08617E+01  2.52298E+00  1.19263E+01  1.07297E+01  3.70977E+00  5.18054E+00  4.71918E+00
   8.90702E+00  1.00846E+01  3.52825E+00  7.66467E+00  6.16922E+00  8.77437E+00  3.45857E+00  6.25848E+00  8.69852E+00  4.50215E+00
   6.85778E+00  6.81546E+00  2.91766E+00  5.80071E+00  1.45317E+00  1.04820E+01  6.92477E+00  8.37715E+00  5.96072E+00  7.27599E+00
   2.28700E+00  6.14354E+00  3.42614E+00  8.07239E+00  6.64396E+00  2.44236E+00  4.59406E+00  8.55679E+00  4.97519E+00  2.51594E+00
   9.88945E+00  8.48246E+00  2.61036E+00 -1.19810E+00  8.40955E+00  5.90467E+00  3.46115E+00  8.03074E+00  7.91443E+00  8.40577E+00
   7.10677E+00  6.84201E+00  1.30365E+01  4.08612E+00  6.50925E+00  5.43621E+00  1.07115E+01  8.16615E+00  1.05685E+01  1.06300E+01
   2.21017E+00  1.21078E+01  5.09336E+00  6.51406E+00  5.14271E+00  6.87024E+00  1.11006E+01  9.12796E+00
 NY points of the fit to the data follow
   4.37482E+00  4.27701E+00  4.54740E+00  5.48558E+00  7.65382E+00  1.05922E+01  1.52732E+01  2.36307E+01  3.63305E+01  4.97881E+01
   5.83262E+01  5.86643E+01  5.20456E+01  4.26182E+01  3.38700E+01  2.69667E+01  2.11189E+01  1.55286E+01  1.12502E+01  8.78354E+00
   8.03600E+00  7.79323E+00  7.42039E+00  6.91732E+00  6.46152E+00  5.61730E+00  4.72883E+00  5.83401E+00  1.02605E+01  1.68983E+01
   2.29057E+01  2.61124E+01  2.58380E+01  2.28848E+01  1.85780E+01  1.39558E+01  9.69893E+00  6.36551E+00  4.71326E+00  4.62563E+00
   5.32371E+00  6.46484E+00  7.53914E+00  8.69096E+00  1.04819E+01  1.30812E+01  1.55067E+01  1.63563E+01  1.54002E+01  1.32473E+01
   1.07949E+01  8.72531E+00  7.21977E+00  6.03998E+00  5.01403E+00  4.46505E+00  4.62479E+00  5.25758E+00  6.11904E+00  6.90536E+00
   7.19085E+00  6.79297E+00  5.83581E+00  4.71519E+00  3.82908E+00  3.37931E+00  3.28422E+00  3.41243E+00  3.72711E+00  4.20586E+00
   4.79884E+00  5.26182E+00  5.42692E+00  5.28375E+00  4.94040E+00  4.59514E+00  4.31182E+00  4.11009E+00  3.92566E+00  3.72711E+00
   3.57393E+00  3.40925E+00  3.23027E+00  2.94869E+00  2.41481E+00  1.55123E+00  5.26206E-01 -2.95248E-01 -6.16454E-01 -4.01180E-01
   2.29896E-01  1.04995E+00  1.91153E+00  2.79718E+00  3.63567E+00  4.26892E+00  4.94980E+00  6.88028E+00  9.41508E+00  1.30572E+01
   2.29413E+01  4.01631E+01  5.82557E+01  6.83584E+01  6.68369E+01  5.68398E+01  4.46028E+01  3.43059E+01  2.62664E+01  1.93213E+01
   1.20871E+01  6.71799E+00  5.05334E+00  4.61199E+00  4.48827E+00  4.50222E+00  4.60417E+00  4.74739E+00  4.92705E+00  5.24290E+00
   6.09901E+00  8.84127E+00  1.27505E+01  1.74524E+01  2.90603E+01  5.00214E+01  7.31730E+01  8.73642E+01  8.70628E+01  7.54139E+01
   6.03973E+01  4.79982E+01  3.85401E+01  2.98569E+01  1.97525E+01  1.04983E+01  5.99161E+00  4.04333E+00  3.60325E+00  4.26657E+00
   5.41203E+00  6.40316E+00  7.02818E+00  7.21145E+00  6.94075E+00  6.47738E+00  5.96969E+00  5.39580E+00  4.85429E+00  4.25532E+00
   3.75043E+00  3.31511E+00  2.89522E+00  2.53899E+00  2.30935E+00  2.19162E+00  2.22418E+00  2.26907E+00  1.96444E+00  1.22202E+00
   2.90886E-01 -2.37243E-01  6.98954E-02  8.90683E-01  1.47032E+00  1.36088E+00  6.67099E-01 -1.74203E-01 -7.41190E-01 -1.11312E+00
  -1.48316E+00 -1.84960E+00 -2.26879E+00 -2.89832E+00 -3.71846E+00 -4.39644E+00 -4.37746E+00 -3.70272E+00 -3.09375E+00 -3.08578E+00
  -3.50153E+00 -3.75700E+00 -3.52178E+00 -3.07831E+00 -3.04916E+00 -3.42751E+00 -3.28787E+00 -2.04926E+00  2.26829E-01  2.90837E+00
   5.08322E+00  6.25892E+00  6.24370E+00  5.43188E+00  4.25884E+00  2.77125E+00  1.19795E+00  2.43582E-01  5.53484E-01  2.19398E+00
   4.72033E+00  7.50140E+00  9.96209E+00  1.16956E+01  1.19781E+01  1.10034E+01  8.32218E+00  3.88102E+00 -8.14219E-01 -3.97990E+00
  -4.65799E+00 -3.43789E+00 -5.79565E-01  4.06337E+00  9.70949E+00  1.43927E+01  1.62737E+01  1.53219E+01  1.19821E+01  7.29490E+00
   2.10114E+00 -2.43521E+00 -4.63637E+00 -3.88135E+00 -4.83133E-01  3.86907E+00  7.54988E+00  1.03016E+01  1.20889E+01  1.27639E+01
   1.23246E+01  1.13910E+01  1.06621E+01  1.04478E+01  1.07438E+01  1.19164E+01  1.38145E+01  1.56128E+01  1.68105E+01  1.68007E+01
   1.53337E+01  1.30575E+01  1.12323E+01  1.06516E+01  1.11534E+01  1.24558E+01  1.40829E+01  1.55458E+01  1.65087E+01  1.72760E+01
   1.83099E+01  1.92935E+01  2.07911E+01  2.35203E+01  2.86257E+01  3.42508E+01  3.79520E+01  4.78963E+01  6.95828E+01  9.62195E+01
   1.13926E+02  1.14601E+02  1.00792E+02  8.15578E+01  6.49113E+01  5.20137E+01  4.10216E+01  2.94365E+01  1.90706E+01  1.48257E+01
   1.29171E+01  1.17046E+01  1.10140E+01  1.06765E+01  1.03423E+01  9.93285E+00  9.44636E+00  8.91718E+00  8.36650E+00  7.82393E+00
   7.29824E+00  6.82552E+00  6.45245E+00  6.17222E+00  5.94258E+00  5.73769E+00  5.56167E+00  5.42595E+00  5.33871E+00  5.29539E+00
   5.31299E+00  5.40104E+00  5.55001E+00  5.74197E+00  5.97037E+00  6.23002E+00  6.51313E+00  6.81499E+00  7.13408E+00  7.46617E+00
   7.80988E+00  8.15694E+00  8.49500E+00  8.81319E+00  9.10296E+00  9.36008E+00  9.58455E+00  9.77564E+00  9.93917E+00  1.00817E+01
   1.02090E+01  1.03285E+01  1.04489E+01  1.05774E+01  1.07194E+01  1.08775E+01  1.10510E+01  1.12373E+01  1.14308E+01  1.16235E+01
   1.18040E+01  1.19590E+01  1.20740E+01  1.21353E+01  1.21307E+01  1.20494E+01  1.18825E+01  1.16242E+01  1.12725E+01  1.08299E+01
   1.03026E+01  9.69976E+00  9.03279E+00  8.31540E+00  7.56342E+00  6.79409E+00  6.02480E+00  5.27236E+00  4.55327E+00  3.88566E+00
   3.29552E+00  2.81447E+00  2.38346E+00  2.06733E+00  1.98978E+00  1.97070E+00  1.65505E+00  8.62574E-01 -2.38979E-01 -1.26435E+00
  -2.06755E+00 -2.62605E+00 -2.79421E+00 -2.45451E+00 -1.74299E+00 -8.82349E-01 -1.89566E-01  1.37638E-01  2.39153E-01  2.69576E-01
   2.84653E-01  2.67976E-01  1.32384E-01  2.80689E-03 -4.73353E-02 -6.35139E-02 -6.70410E-02 -6.65798E-02 -6.59798E-02 -6.69044E-02
  -6.99956E-02 -7.51816E-02 -8.15615E-02 -8.73827E-02 -9.03688E-02 -8.82098E-02 -7.87740E-02 -5.99237E-02 -2.92225E-02  1.60383E-02
   7.84916E-02  1.60342E-01  2.63395E-01  3.89393E-01  5.40236E-01  7.17840E-01  9.23746E-01  1.15892E+00  1.42391E+00  1.71915E+00
   2.04498E+00  2.40136E+00  2.78738E+00  3.20130E+00  3.64067E+00  4.10259E+00  4.58362E+00  5.07940E+00  5.58448E+00  6.09251E+00
   6.59668E+00  7.08999E+00  7.56525E+00  8.01495E+00  8.43146E+00  8.80752E+00  9.13683E+00  9.41420E+00  9.63555E+00  9.79779E+00
   9.89903E+00  9.93901E+00  9.91921E+00  9.84263E+00  9.71335E+00  9.53628E+00  9.31712E+00  9.06242E+00  8.77933E+00  8.47511E+00
   8.15664E+00  7.83028E+00  7.50196E+00  7.17727E+00  6.86121E+00  6.55788E+00  6.27035E+00  6.00083E+00  5.75100E+00  5.52218E+00
   5.31510E+00  5.12985E+00  4.96588E+00  4.82237E+00  4.69849E+00  4.59343E+00  4.50618E+00  4.43545E+00  4.37979E+00  4.33791E+00
   4.30880E+00  4.29157E+00  4.28521E+00  4.28858E+00  4.30057E+00  4.32036E+00  4.34741E+00  4.38117E+00  4.42094E+00  4.46594E+00
   4.51551E+00  4.56930E+00  4.62710E+00  4.68860E+00  4.75332E+00  4.82082E+00  4.89081E+00  4.96325E+00  5.03810E+00  5.11516E+00
   5.19404E+00  5.27447E+00  5.35640E+00  5.43992E+00  5.52501E+00  5.61144E+00  5.69892E+00  5.78732E+00  5.87671E+00  5.96722E+00
   6.05877E+00  6.15113E+00  6.24409E+00  6.33767E+00  6.43201E+00  6.52719E+00  6.62307E+00  6.71944E+00  6.81616E+00  6.91336E+00
   7.01119E+00  7.10965E+00  7.20857E+00  7.30776E+00  7.40721E+00  7.50709E+00  7.60753E+00  7.70844E+00  7.80963E+00  7.91097E+00
   8.01255E+00  8.11455E+00  8.21703E+00  8.31984E+00  8.42280E+00  8.52586E+00  8.62918E+00  8.73291E+00
 NY background values follow
    -2.718E-03    2.144E-02    4.540E-02    6.915E-02    9.270E-02    1.160E-01    1.392E-01    1.621E-01    1.849E-01    2.074E-01
     2.297E-01    2.518E-01    2.737E-01    2.954E-01    3.169E-01    3.381E-01    3.592E-01    3.800E-01    4.006E-01    4.210E-01
     4.412E-01    4.612E-01    4.810E-01    5.005E-01    5.198E-01    5.389E-01    5.578E-01    5.764E-01    5.949E-01    6.131E-01
     6.311E-01    6.488E-01    6.664E-01    6.837E-01    7.008E-01    7.176E-01    7.342E-01    7.506E-01    7.668E-01    7.827E-01
     7.984E-01    8.139E-01    8.291E-01    8.441E-01    8.589E-01    8.734E-01    8.877E-01    9.018E-01    9.156E-01    9.292E-01
     9.425E-01    9.557E-01    9.686E-01    9.812E-01    9.937E-01    1.006E+00    1.018E+00    1.030E+00    1.041E+00    1.053E+00
     1.064E+00    1.075E+00    1.085E+00    1.096E+00    1.106E+00    1.116E+00    1.126E+00    1.136E+00    1.145E+00    1.154E+00
     1.163E+00    1.172E+00    1.181E+00    1.189E+00    1.198E+00    1.206E+00    1.214E+00    1.221E+00    1.229E+00    1.236E+00
     1.243E+00    1.250E+00    1.257E+00    1.264E+00    1.270E+00    1.276E+00    1.282E+00    1.288E+00    1.294E+00    1.299E+00
     1.305E+00    1.310E+00    1.315E+00    1.320E+00    1.324E+00    1.329E+00    1.333E+00    1.337E+00    1.341E+00    1.345E+00
     1.348E+00    1.352E+00    1.355E+00    1.358E+00    1.360E+00    1.363E+00    1.365E+00    1.367E+00    1.369E+00    1.370E+00
     1.371E+00    1.372E+00    1.373E+00    1.373E+00    1.374E+00    1.374E+00    1.373E+00    1.373E+00    1.372E+00    1.371E+00
     1.369E+00    1.368E+00    1.366E+00    1.363E+00    1.361E+00    1.358E+00    1.355E+00    1.351E+00    1.347E+00    1.343E+00
     1.339E+00    1.334E+00    1.329E+00    1.323E+00    1.317E+00    1.311E+00    1.304E+00    1.298E+00    1.290E+00    1.283E+00
     1.275E+00    1.267E+00    1.259E+00    1.251E+00    1.243E+00    1.235E+00    1.227E+00    1.218E+00    1.210E+00    1.202E+00
     1.194E+00    1.187E+00    1.179E+00    1.172E+00    1.165E+00    1.158E+00    1.152E+00    1.146E+00    1.141E+00    1.136E+00
     1.132E+00    1.128E+00    1.125E+00    1.122E+00    1.120E+00    1.119E+00    1.118E+00    1.118E+00    1.120E+00    1.121E+00
     1.124E+00    1.128E+00    1.133E+00    1.138E+00    1.145E+00    1.153E+00    1.162E+00    1.172E+00    1.183E+00    1.195E+00
     1.209E+00    1.224E+00    1.240E+00    1.258E+00    1.276E+00    1.296E+00    1.317E+00    1.339E+00    1.362E+00    1.386E+00
     1.410E+00    1.435E+00    1.461E+00    1.488E+00    1.515E+00    1.543E+00    1.571E+00    1.600E+00    1.628E+00    1.658E+00
     1.687E+00    1.717E+00    1.746E+00    1.776E+00    1.806E+00    1.835E+00    1.865E+00    1.894E+00    1.923E+00    1.951E+00
     1.980E+00    2.007E+00    2.035E+00    2.061E+00    2.087E+00    2.113E+00    2.137E+00    2.161E+00    2.184E+00    2.206E+00
     2.227E+00    2.247E+00    2.266E+00    2.284E+00    2.300E+00    2.315E+00    2.329E+00    2.342E+00    2.353E+00    2.362E+00
     2.370E+00    2.377E+00    2.382E+00    2.386E+00    2.389E+00    2.390E+00    2.389E+00    2.387E+00    2.384E+00    2.379E+00
     2.372E+00    2.364E+00    2.355E+00    2.344E+00    2.331E+00    2.317E+00    2.302E+00    2.285E+00    2.266E+00    2.246E+00
     2.224E+00    2.201E+00    2.176E+00    2.150E+00    2.122E+00    2.093E+00    2.062E+00    2.029E+00    1.995E+00    1.959E+00
     1.921E+00    1.882E+00    1.841E+00    1.799E+00    1.755E+00    1.709E+00    1.662E+00    1.613E+00    1.563E+00    1.510E+00
     1.456E+00    1.401E+00    1.343E+00    1.285E+00    1.224E+00    1.162E+00    1.099E+00    1.034E+00    9.671E-01    8.994E-01
     8.304E-01    7.602E-01    6.887E-01    6.161E-01    5.424E-01    4.676E-01    3.918E-01    3.151E-01    2.375E-01    1.590E-01
     7.968E-02   -3.775E-04   -8.115E-02   -1.626E-01   -2.446E-01   -3.272E-01   -4.103E-01   -4.939E-01   -5.779E-01   -6.623E-01
    -7.470E-01   -8.320E-01   -9.172E-01   -1.003E+00   -1.088E+00   -1.174E+00   -1.259E+00   -1.345E+00   -1.430E+00   -1.516E+00
    -1.601E+00   -1.686E+00   -1.771E+00   -1.855E+00   -1.939E+00   -2.023E+00   -2.106E+00   -2.189E+00   -2.271E+00   -2.352E+00
    -2.433E+00   -2.513E+00   -2.593E+00   -2.671E+00   -2.749E+00   -2.826E+00   -2.902E+00   -2.977E+00   -3.050E+00   -3.123E+00
    -3.195E+00   -3.265E+00   -3.334E+00   -3.402E+00   -3.468E+00   -3.533E+00   -3.597E+00   -3.659E+00   -3.719E+00   -3.778E+00
    -3.835E+00   -3.891E+00   -3.944E+00   -3.996E+00   -4.047E+00   -4.095E+00   -4.141E+00   -4.185E+00   -4.227E+00   -4.267E+00
    -4.305E+00   -4.341E+00   -4.374E+00   -4.406E+00   -4.434E+00   -4.461E+00   -4.485E+00   -4.506E+00   -4.525E+00   -4.541E+00
    -4.555E+00   -4.566E+00   -4.574E+00   -4.580E+00   -4.582E+00   -4.582E+00   -4.579E+00   -4.574E+00   -4.566E+00   -4.556E+00
    -4.542E+00   -4.527E+00   -4.508E+00   -4.488E+00   -4.464E+00   -4.439E+00   -4.411E+00   -4.380E+00   -4.347E+00   -4.312E+00
    -4.274E+00   -4.235E+00   -4.192E+00   -4.148E+00   -4.102E+00   -4.053E+00   -4.002E+00   -3.949E+00   -3.894E+00   -3.836E+00
    -3.777E+00   -3.716E+00   -3.652E+00   -3.587E+00   -3.520E+00   -3.450E+00   -3.379E+00   -3.306E+00   -3.231E+00   -3.155E+00
    -3.076E+00   -2.996E+00   -2.914E+00   -2.830E+00   -2.745E+00   -2.657E+00   -2.569E+00   -2.478E+00   -2.386E+00   -2.293E+00
    -2.198E+00   -2.101E+00   -2.003E+00   -1.904E+00   -1.803E+00   -1.701E+00   -1.598E+00   -1.494E+00   -1.388E+00   -1.281E+00
    -1.173E+00   -1.065E+00   -9.548E-01   -8.440E-01   -7.323E-01   -6.198E-01   -5.064E-01   -3.922E-01   -2.772E-01   -1.616E-01
    -4.530E-02    7.161E-02    1.891E-01    3.071E-01    4.257E-01    5.446E-01    6.640E-01    7.837E-01    9.038E-01    1.024E+00
     1.145E+00    1.266E+00    1.386E+00    1.508E+00    1.629E+00    1.750E+00    1.871E+00    1.992E+00    2.113E+00    2.234E+00
     2.355E+00    2.475E+00    2.595E+00    2.715E+00    2.835E+00    2.954E+00    3.073E+00    3.192E+00    3.310E+00    3.428E+00
     3.546E+00    3.664E+00    3.782E+00    3.899E+00    4.016E+00    4.133E+00    4.250E+00    4.367E+00    4.483E+00    4.599E+00
     4.715E+00    4.831E+00    4.947E+00    5.063E+00    5.178E+00    5.294E+00    5.409E+00    5.524E+00    5.640E+00    5.755E+00
     5.870E+00    5.985E+00    6.100E+00    6.214E+00    6.329E+00    6.444E+00    6.559E+00    6.674E+00    6.788E+00    6.903E+00
     7.018E+00    7.133E+00    7.248E+00    7.363E+00    7.478E+00    7.593E+00    7.708E+00    7.823E+00
 Cr       Conc. = 1.02E+03
