 LCModel (Version 6.3-1L) Copyright: S.W. Provencher.          Ref.: Magn. Reson. Med. 30:672-679 (1993).                
 Slice#3 Row#4 Col#3  K_02_press_1_raw_act
 36 lines in following concentration table = NCONC+1
    Conc.  %SD /Cr+PCr  Metabolite                                         
  321.636  29%   0.671 Ala                                                 
    0.000 999%   0.000 Asp                                                 
    0.000 999%   0.000 Cr                                                  
  479.218   9%   1.000 PCr                                                 
   18.531 336% 3.9E-02 GABA                                                
   36.299 171% 7.6E-02 Glc                                                 
  807.917  24%   1.686 Gln                                                 
  531.448  40%   1.109 Glu                                                 
  118.986  14%   0.248 GPC                                                 
    0.000 999%   0.000 PCh                                                 
  216.030  28%   0.451 GSH                                                 
  603.623  37%   1.260 Ins                                                 
  304.619  33%   0.636 Lac                                                 
  780.585   7%   1.629 NAA                                                 
    0.000 999%   0.000 NAAG                                                
   12.293 136% 2.6E-02 Scyllo                                              
   39.536 257% 8.3E-02 Tau                                                 
    0.000 999%   0.000 -CrCH2                                              
  118.986  14%   0.248 GPC+PCh                                             
  780.585   7%   1.629 NAA+NAAG                                            
  479.218   9%   1.000 Cr+PCr                                              
 1.34E+03  23%   2.795 Glu+Gln                                             
    0.000 999%   0.000 Lip13a                                              
    0.000 999%   0.000 Lip13b                                              
    0.000 999%   0.000 Lip09                                               
 1.99E+03  11%   4.156 MM09                                                
   24.947 180% 5.2E-02 Lip20                                               
 2.99E+03  11%   6.238 MM20                                                
  597.502  11%   1.247 MM12                                                
 1.49E+03  11%   3.118 MM14                                                
  749.900  11%   1.565 MM17                                                
    0.000 999%   0.000 Lip13a+Lip13b                                       
 2.09E+03  11%   4.365 MM14+Lip13a+Lip13b+MM12                             
 1.99E+03  11%   4.156 MM09+Lip09                                          
 3.01E+03  11%   6.290 MM20+Lip20                                          
   6 lines in following misc. output table
  FWHM = 0.061 ppm    S/N =   6                                            
  Data shift = 0.038 ppm                                                   
  Ph:  18 deg     -18.3 deg/ppm                                            
  alphaB,S = 3.2E-01,   1.8E+02                                            
   14 spline knots.   Ns = 6(1)                                            
  ( 9) 2 infls.   ( 1) 1 extrs.                                            
  498 points on ppm-axis = NY
      4.000000     3.992357     3.984714     3.977070     3.969427     3.961784     3.954141     3.946497     3.938854     3.931211
      3.923568     3.915925     3.908281     3.900638     3.892995     3.885352     3.877708     3.870065     3.862422     3.854779
      3.847136     3.839492     3.831849     3.824206     3.816563     3.808919     3.801276     3.793633     3.785990     3.778347
      3.770703     3.763060     3.755417     3.747774     3.740130     3.732487     3.724844     3.717201     3.709558     3.701914
      3.694271     3.686628     3.678985     3.671341     3.663698     3.656055     3.648412     3.640769     3.633125     3.625482
      3.617839     3.610196     3.602552     3.594909     3.587266     3.579623     3.571980     3.564336     3.556693     3.549050
      3.541407     3.533763     3.526120     3.518477     3.510834     3.503191     3.495547     3.487904     3.480261     3.472618
      3.464974     3.457331     3.449688     3.442045     3.434402     3.426758     3.419115     3.411472     3.403829     3.396185
      3.388542     3.380899     3.373256     3.365613     3.357969     3.350326     3.342683     3.335040     3.327396     3.319753
      3.312110     3.304467     3.296824     3.289180     3.281537     3.273894     3.266251     3.258607     3.250964     3.243321
      3.235678     3.228034     3.220391     3.212748     3.205105     3.197462     3.189818     3.182175     3.174532     3.166889
      3.159245     3.151602     3.143959     3.136316     3.128673     3.121029     3.113386     3.105743     3.098100     3.090456
      3.082813     3.075170     3.067527     3.059884     3.052240     3.044597     3.036954     3.029311     3.021667     3.014024
      3.006381     2.998738     2.991095     2.983451     2.975808     2.968165     2.960522     2.952878     2.945235     2.937592
      2.929949     2.922306     2.914662     2.907019     2.899376     2.891733     2.884089     2.876446     2.868803     2.861160
      2.853517     2.845873     2.838230     2.830587     2.822944     2.815300     2.807657     2.800014     2.792371     2.784728
      2.777084     2.769441     2.761798     2.754155     2.746511     2.738868     2.731225     2.723582     2.715939     2.708295
      2.700652     2.693009     2.685366     2.677722     2.670079     2.662436     2.654793     2.647150     2.639506     2.631863
      2.624220     2.616577     2.608933     2.601290     2.593647     2.586004     2.578361     2.570717     2.563074     2.555431
      2.547788     2.540144     2.532501     2.524858     2.517215     2.509572     2.501928     2.494285     2.486642     2.478999
      2.471355     2.463712     2.456069     2.448426     2.440783     2.433139     2.425496     2.417853     2.410210     2.402566
      2.394923     2.387280     2.379637     2.371994     2.364350     2.356707     2.349064     2.341421     2.333777     2.326134
      2.318491     2.310848     2.303205     2.295561     2.287918     2.280275     2.272632     2.264988     2.257345     2.249702
      2.242059     2.234416     2.226772     2.219129     2.211486     2.203843     2.196199     2.188556     2.180913     2.173270
      2.165627     2.157983     2.150340     2.142697     2.135054     2.127410     2.119767     2.112124     2.104481     2.096838
      2.089194     2.081551     2.073908     2.066265     2.058621     2.050978     2.043335     2.035692     2.028049     2.020405
      2.012762     2.005119     1.997476     1.989833     1.982190     1.974546     1.966903     1.959260     1.951617     1.943974
      1.936331     1.928688     1.921045     1.913402     1.905759     1.898115     1.890472     1.882829     1.875186     1.867543
      1.859900     1.852257     1.844614     1.836971     1.829327     1.821684     1.814041     1.806398     1.798755     1.791112
      1.783469     1.775826     1.768183     1.760540     1.752896     1.745253     1.737610     1.729967     1.722324     1.714681
      1.707038     1.699395     1.691752     1.684108     1.676465     1.668822     1.661179     1.653536     1.645893     1.638250
      1.630607     1.622964     1.615321     1.607677     1.600034     1.592391     1.584748     1.577105     1.569462     1.561819
      1.554176     1.546533     1.538890     1.531246     1.523603     1.515960     1.508317     1.500674     1.493031     1.485388
      1.477745     1.470102     1.462458     1.454815     1.447172     1.439529     1.431886     1.424243     1.416600     1.408957
      1.401314     1.393671     1.386027     1.378384     1.370741     1.363098     1.355455     1.347812     1.340169     1.332526
      1.324883     1.317240     1.309596     1.301953     1.294310     1.286667     1.279024     1.271381     1.263738     1.256095
      1.248452     1.240808     1.233165     1.225522     1.217879     1.210236     1.202593     1.194950     1.187307     1.179664
      1.172021     1.164377     1.156734     1.149091     1.141448     1.133805     1.126162     1.118519     1.110876     1.103233
      1.095590     1.087946     1.080303     1.072660     1.065017     1.057374     1.049731     1.042088     1.034445     1.026802
      1.019158     1.011515     1.003872     0.996229     0.988586     0.980943     0.973300     0.965657     0.958014     0.950371
      0.942727     0.935084     0.927441     0.919798     0.912155     0.904512     0.896869     0.889226     0.881583     0.873940
      0.866296     0.858653     0.851010     0.843367     0.835724     0.828081     0.820438     0.812795     0.805152     0.797508
      0.789865     0.782222     0.774579     0.766936     0.759293     0.751650     0.744007     0.736364     0.728721     0.721077
      0.713434     0.705791     0.698148     0.690505     0.682862     0.675219     0.667576     0.659933     0.652290     0.644646
      0.637003     0.629360     0.621717     0.614074     0.606431     0.598788     0.591145     0.583502     0.575858     0.568215
      0.560572     0.552929     0.545286     0.537643     0.530000     0.522357     0.514714     0.507071     0.499427     0.491784
      0.484141     0.476498     0.468855     0.461212     0.453569     0.445925     0.438282     0.430639     0.422996     0.415353
      0.407710     0.400067     0.392424     0.384780     0.377137     0.369494     0.361851     0.354208     0.346565     0.338922
      0.331278     0.323635     0.315992     0.308349     0.300706     0.293063     0.285420     0.277777     0.270133     0.262490
      0.254847     0.247204     0.239561     0.231918     0.224275     0.216631     0.208988     0.201345
 NY phased data points follow
   2.07144E+01  2.16053E+01  2.16033E+01  2.57285E+01  2.20281E+01  2.39719E+01  2.87489E+01  3.53480E+01  3.36559E+01  3.21974E+01
   3.43195E+01  2.98847E+01  2.77156E+01  2.85477E+01  2.35338E+01  2.36025E+01  2.40213E+01  2.05993E+01  2.29421E+01  2.33019E+01
   2.19697E+01  2.55322E+01  2.24355E+01  1.70127E+01  2.22412E+01  2.40597E+01  1.97796E+01  2.37856E+01  2.35471E+01  2.71841E+01
   2.23878E+01  2.50224E+01  2.50622E+01  2.03920E+01  2.15675E+01  2.51537E+01  2.26582E+01  2.33354E+01  2.03944E+01  1.95307E+01
   2.37402E+01  1.97466E+01  2.00240E+01  2.27377E+01  2.35729E+01  2.45107E+01  2.57626E+01  2.54589E+01  2.31656E+01  1.82978E+01
   1.89301E+01  2.16221E+01  2.27057E+01  1.79949E+01  2.09584E+01  2.17067E+01  1.96065E+01  1.59119E+01  2.20550E+01  2.41659E+01
   1.89015E+01  1.90140E+01  1.88962E+01  1.72587E+01  1.80576E+01  1.67745E+01  1.44971E+01  1.67326E+01  1.93844E+01  1.75854E+01
   1.73810E+01  1.66281E+01  1.94021E+01  1.87390E+01  1.75677E+01  1.96889E+01  1.81579E+01  2.04462E+01  1.57534E+01  1.73153E+01
   1.72678E+01  1.95981E+01  1.68816E+01  1.72509E+01  1.68927E+01  1.85246E+01  1.65727E+01  2.00101E+01  1.56040E+01  1.34522E+01
   1.53863E+01  1.51071E+01  1.68363E+01  1.66871E+01  2.01175E+01  1.36959E+01  1.56819E+01  2.30900E+01  2.13314E+01  2.45243E+01
   2.54187E+01  2.72379E+01  2.59966E+01  3.04509E+01  2.84674E+01  2.84214E+01  2.15714E+01  1.98008E+01  2.50830E+01  2.10322E+01
   2.25132E+01  2.10242E+01  2.43324E+01  1.85644E+01  2.27607E+01  1.98795E+01  2.05151E+01  1.87255E+01  1.87971E+01  2.08114E+01
   1.92612E+01  2.29021E+01  2.73574E+01  2.67283E+01  3.33279E+01  3.87635E+01  3.78884E+01  3.46505E+01  3.48914E+01  3.35756E+01
   3.45633E+01  3.37974E+01  2.91435E+01  2.62156E+01  2.62498E+01  2.57811E+01  2.49789E+01  2.62299E+01  2.42443E+01  2.47710E+01
   2.74581E+01  2.56940E+01  2.57953E+01  2.35730E+01  3.18404E+01  2.73814E+01  2.65357E+01  2.86190E+01  2.72543E+01  2.54246E+01
   2.76558E+01  2.40206E+01  2.65199E+01  2.53528E+01  2.51570E+01  2.75333E+01  2.93476E+01  2.69709E+01  2.35833E+01  2.39457E+01
   2.56802E+01  2.46816E+01  2.28621E+01  2.76804E+01  2.52986E+01  2.51895E+01  2.49423E+01  2.55754E+01  2.73126E+01  2.53099E+01
   2.77630E+01  2.75853E+01  2.65536E+01  2.30563E+01  2.46595E+01  2.30913E+01  2.57397E+01  2.48035E+01  2.53055E+01  2.43385E+01
   2.38435E+01  2.21160E+01  2.22683E+01  2.87903E+01  2.50211E+01  2.78547E+01  2.44730E+01  3.24161E+01  3.13752E+01  3.20617E+01
   3.08565E+01  3.19614E+01  3.48362E+01  3.37742E+01  3.74074E+01  3.41892E+01  3.58621E+01  3.31710E+01  3.84076E+01  3.81012E+01
   3.43538E+01  3.51780E+01  3.88224E+01  3.90289E+01  4.08564E+01  3.90036E+01  3.59887E+01  4.03852E+01  3.89573E+01  3.57509E+01
   4.23287E+01  4.36101E+01  4.79914E+01  4.71988E+01  5.29637E+01  5.24893E+01  5.16830E+01  5.14761E+01  4.92993E+01  5.38510E+01
   5.37182E+01  5.02663E+01  5.52312E+01  5.49051E+01  5.43433E+01  5.96900E+01  6.37380E+01  6.08395E+01  6.38593E+01  6.54439E+01
   6.15124E+01  6.37647E+01  6.45789E+01  6.83710E+01  6.49100E+01  6.63218E+01  6.86047E+01  6.48093E+01  6.64252E+01  6.72093E+01
   6.58379E+01  6.40998E+01  6.21671E+01  6.01065E+01  6.35195E+01  6.91841E+01  6.59025E+01  6.66562E+01  6.81168E+01  6.87948E+01
   6.88579E+01  6.71823E+01  6.76187E+01  6.84955E+01  6.92036E+01  7.39233E+01  7.85089E+01  8.67317E+01  9.19081E+01  9.70573E+01
   9.45348E+01  9.33947E+01  8.77146E+01  8.26238E+01  7.78300E+01  7.57898E+01  7.15980E+01  6.99263E+01  6.80008E+01  6.86378E+01
   6.89165E+01  6.91003E+01  6.96063E+01  6.61832E+01  6.44308E+01  6.50824E+01  6.23324E+01  6.41142E+01  6.04851E+01  6.28503E+01
   5.82912E+01  5.97985E+01  6.10583E+01  6.29826E+01  6.44525E+01  6.19453E+01  5.79379E+01  6.17106E+01  5.89893E+01  6.09118E+01
   6.44204E+01  5.81418E+01  6.09412E+01  6.00364E+01  6.08333E+01  6.19863E+01  6.06991E+01  6.29602E+01  5.70558E+01  6.37561E+01
   6.28705E+01  6.04475E+01  6.24777E+01  6.16240E+01  6.23648E+01  6.17735E+01  6.38993E+01  6.22920E+01  6.13209E+01  6.67742E+01
   6.20584E+01  6.18928E+01  6.21498E+01  6.35622E+01  6.04619E+01  5.99148E+01  5.87072E+01  6.25730E+01  5.83032E+01  5.74188E+01
   5.43956E+01  5.67997E+01  5.68365E+01  5.00322E+01  5.25887E+01  4.98852E+01  5.18954E+01  5.06162E+01  4.80012E+01  4.40171E+01
   4.94063E+01  4.14038E+01  4.33148E+01  3.92703E+01  4.03346E+01  4.27445E+01  4.37985E+01  4.36148E+01  4.25522E+01  4.24145E+01
   4.78085E+01  4.23615E+01  4.38483E+01  4.73987E+01  4.08404E+01  3.89830E+01  3.46949E+01  3.26513E+01  3.51555E+01  3.20933E+01
   2.52844E+01  2.63824E+01  3.11436E+01  3.14501E+01  2.82223E+01  3.14482E+01  2.97718E+01  2.91221E+01  2.40605E+01  2.61797E+01
   2.89056E+01  3.06328E+01  2.99697E+01  2.49823E+01  2.94917E+01  2.78932E+01  2.94127E+01  2.92014E+01  2.87900E+01  2.42041E+01
   2.60579E+01  2.50104E+01  2.44619E+01  2.54086E+01  2.31284E+01  2.41718E+01  2.14551E+01  1.76732E+01  2.05036E+01  1.95386E+01
   2.27162E+01  2.05078E+01  1.91543E+01  1.78628E+01  2.12264E+01  1.78448E+01  2.19187E+01  2.00333E+01  1.60311E+01  1.61578E+01
   1.55135E+01  1.25025E+01  1.68372E+01  1.54039E+01  1.66786E+01  1.56367E+01  1.16159E+01  1.21548E+01  1.45808E+01  1.25293E+01
   1.68449E+01  1.62589E+01  1.23443E+01  1.45667E+01  1.27019E+01  1.52451E+01  1.34836E+01  1.40204E+01  1.38715E+01  1.85358E+01
   1.35183E+01  1.55074E+01  1.68622E+01  1.51563E+01  1.36141E+01  1.29267E+01  1.49394E+01  1.39819E+01  1.40214E+01  1.22591E+01
   1.38035E+01  1.25926E+01  1.53305E+01  1.28299E+01  1.32730E+01  1.39392E+01  1.56038E+01  1.46736E+01  1.58705E+01  1.10472E+01
   1.13269E+01  1.13903E+01  1.30239E+01  1.08412E+01  1.61059E+01  1.36539E+01  1.59396E+01  8.64582E+00  1.26243E+01  1.50871E+01
   1.38498E+01  8.55574E+00  1.35113E+01  9.67544E+00  9.57961E+00  1.64922E+01  1.54624E+01  1.34790E+01  1.09799E+01  1.09888E+01
   1.51355E+01  1.62873E+01  1.16751E+01  1.31081E+01  1.26306E+01  1.73198E+01  1.20684E+01  1.78311E+01  1.37998E+01  9.27598E+00
   1.40864E+01  1.31968E+01  1.44224E+01  9.55155E+00  1.26690E+01  1.27875E+01  9.66725E+00  1.16760E+01  1.32687E+01  1.32534E+01
   1.12747E+01  1.41375E+01  1.38351E+01  1.44473E+01  1.12159E+01  1.14365E+01  1.33178E+01  1.43761E+01  1.14018E+01  1.14590E+01
   1.08306E+01  1.34551E+01  7.67008E+00  1.04796E+01  1.11406E+01  1.31229E+01  1.15951E+01  1.03905E+01  1.38595E+01  1.26663E+01
   1.07314E+01  1.43922E+01  5.00249E+00  1.14805E+01  1.22166E+01  1.24815E+01  1.38986E+01  1.14442E+01
 NY points of the fit to the data follow
   2.23052E+01  2.20232E+01  2.19945E+01  2.27047E+01  2.43596E+01  2.65684E+01  2.88197E+01  3.06420E+01  3.16935E+01  3.18695E+01
   3.12842E+01  3.01692E+01  2.87536E+01  2.71974E+01  2.56144E+01  2.41258E+01  2.29569E+01  2.23938E+01  2.23057E+01  2.23974E+01
   2.24956E+01  2.24170E+01  2.20207E+01  2.13704E+01  2.08658E+01  2.09114E+01  2.16328E+01  2.28403E+01  2.42633E+01  2.55360E+01
   2.63124E+01  2.64311E+01  2.59860E+01  2.51841E+01  2.41999E+01  2.31052E+01  2.19737E+01  2.09775E+01  2.03022E+01  1.99478E+01
   1.98474E+01  2.00396E+01  2.06390E+01  2.15289E+01  2.24393E+01  2.31336E+01  2.34868E+01  2.34383E+01  2.30055E+01  2.22805E+01
   2.14259E+01  2.05764E+01  1.97826E+01  1.91215E+01  1.87146E+01  1.86504E+01  1.88946E+01  1.92591E+01  1.95596E+01  1.96898E+01
   1.96202E+01  1.93885E+01  1.90675E+01  1.87443E+01  1.84728E+01  1.82721E+01  1.81766E+01  1.82078E+01  1.83418E+01  1.85295E+01
   1.87263E+01  1.88762E+01  1.89476E+01  1.89331E+01  1.88423E+01  1.87016E+01  1.85362E+01  1.83699E+01  1.82139E+01  1.80923E+01
   1.80440E+01  1.80232E+01  1.79500E+01  1.77789E+01  1.75156E+01  1.71974E+01  1.68875E+01  1.66499E+01  1.65278E+01  1.65284E+01
   1.66447E+01  1.68398E+01  1.70584E+01  1.72684E+01  1.74516E+01  1.76077E+01  1.80002E+01  1.92322E+01  2.12717E+01  2.36869E+01
   2.59709E+01  2.76586E+01  2.84811E+01  2.84257E+01  2.76786E+01  2.64950E+01  2.51074E+01  2.36720E+01  2.22732E+01  2.10385E+01
   2.02220E+01  1.99886E+01  2.00168E+01  2.01136E+01  2.02327E+01  2.03553E+01  2.04815E+01  2.06149E+01  2.07735E+01  2.10143E+01
   2.16163E+01  2.33723E+01  2.63660E+01  2.99847E+01  3.34865E+01  3.61932E+01  3.76795E+01  3.79073E+01  3.71319E+01  3.56664E+01
   3.37765E+01  3.16347E+01  2.93360E+01  2.70692E+01  2.52491E+01  2.42963E+01  2.39587E+01  2.39131E+01  2.40419E+01  2.42566E+01
   2.44911E+01  2.47138E+01  2.48996E+01  2.50067E+01  2.50251E+01  2.49703E+01  2.48607E+01  2.47289E+01  2.46075E+01  2.45107E+01
   2.44582E+01  2.44431E+01  2.44627E+01  2.45171E+01  2.45972E+01  2.46547E+01  2.46603E+01  2.46326E+01  2.46125E+01  2.46674E+01
   2.48162E+01  2.50209E+01  2.52368E+01  2.54256E+01  2.55702E+01  2.56772E+01  2.57676E+01  2.58636E+01  2.59671E+01  2.60487E+01
   2.60852E+01  2.60838E+01  2.61190E+01  2.62542E+01  2.64866E+01  2.67668E+01  2.70642E+01  2.73785E+01  2.77152E+01  2.80653E+01
   2.84147E+01  2.87397E+01  2.90484E+01  2.93983E+01  2.98488E+01  3.04692E+01  3.13043E+01  3.22676E+01  3.32100E+01  3.39895E+01
   3.45204E+01  3.48268E+01  3.49322E+01  3.49277E+01  3.49843E+01  3.52961E+01  3.59917E+01  3.70749E+01  3.85060E+01  4.01597E+01
   4.18001E+01  4.31472E+01  4.39734E+01  4.40218E+01  4.32514E+01  4.20613E+01  4.08720E+01  4.00455E+01  3.98775E+01  4.05274E+01
   4.19782E+01  4.39573E+01  4.61663E+01  4.82878E+01  5.00460E+01  5.12363E+01  5.17113E+01  5.14823E+01  5.09165E+01  5.04826E+01
   5.03801E+01  5.06757E+01  5.13898E+01  5.24764E+01  5.37944E+01  5.50722E+01  5.61434E+01  5.69918E+01  5.76279E+01  5.79713E+01
   5.80473E+01  5.81270E+01  5.84908E+01  5.92382E+01  6.03511E+01  6.17283E+01  6.30545E+01  6.40661E+01  6.46390E+01  6.47748E+01
   6.46349E+01  6.44495E+01  6.43564E+01  6.43821E+01  6.46171E+01  6.51469E+01  6.59342E+01  6.69025E+01  6.79733E+01  6.90318E+01
   6.98945E+01  7.05204E+01  7.09201E+01  7.13024E+01  7.27099E+01  7.62256E+01  8.12047E+01  8.64777E+01  9.08740E+01  9.34494E+01
   9.38112E+01  9.21780E+01  8.91095E+01  8.52506E+01  8.11088E+01  7.69662E+01  7.29983E+01  6.96045E+01  6.74437E+01  6.65234E+01
   6.59962E+01  6.55927E+01  6.52531E+01  6.49317E+01  6.46085E+01  6.42752E+01  6.39263E+01  6.35627E+01  6.31886E+01  6.28102E+01
   6.24374E+01  6.20830E+01  6.17529E+01  6.14465E+01  6.11634E+01  6.09034E+01  6.06658E+01  6.04511E+01  6.02598E+01  6.00952E+01
   5.99628E+01  5.98669E+01  5.98114E+01  5.97998E+01  5.98343E+01  5.99147E+01  6.00387E+01  6.02025E+01  6.03997E+01  6.06209E+01
   6.08550E+01  6.10890E+01  6.13083E+01  6.14980E+01  6.16435E+01  6.17315E+01  6.17507E+01  6.16926E+01  6.15519E+01  6.13267E+01
   6.10192E+01  6.06348E+01  6.01821E+01  5.96723E+01  5.91180E+01  5.85334E+01  5.79334E+01  5.73340E+01  5.67535E+01  5.62156E+01
   5.57616E+01  5.54835E+01  5.54266E+01  5.53039E+01  5.48346E+01  5.38741E+01  5.24033E+01  5.05176E+01  4.83701E+01  4.61682E+01
   4.43457E+01  4.31881E+01  4.27113E+01  4.27858E+01  4.32206E+01  4.38143E+01  4.43283E+01  4.44946E+01  4.43074E+01  4.38843E+01
   4.33672E+01  4.29080E+01  4.23915E+01  4.16100E+01  4.05598E+01  3.91633E+01  3.73954E+01  3.53598E+01  3.32497E+01  3.14844E+01
   3.03640E+01  2.99175E+01  3.00177E+01  3.04702E+01  3.10878E+01  3.16979E+01  3.20499E+01  3.20355E+01  3.17333E+01  3.12192E+01
   3.05325E+01  2.97037E+01  2.88268E+01  2.80782E+01  2.74588E+01  2.68947E+01  2.63553E+01  2.58275E+01  2.53047E+01  2.47837E+01
   2.42635E+01  2.37444E+01  2.32276E+01  2.27149E+01  2.22087E+01  2.17114E+01  2.12258E+01  2.07545E+01  2.03000E+01  1.98648E+01
   1.94508E+01  1.90599E+01  1.86937E+01  1.83535E+01  1.80402E+01  1.77544E+01  1.74968E+01  1.72674E+01  1.70664E+01  1.68936E+01
   1.67486E+01  1.66308E+01  1.65395E+01  1.64737E+01  1.64323E+01  1.64137E+01  1.64161E+01  1.64377E+01  1.64760E+01  1.65285E+01
   1.65922E+01  1.66641E+01  1.67407E+01  1.68184E+01  1.68938E+01  1.69631E+01  1.70227E+01  1.70694E+01  1.70998E+01  1.71108E+01
   1.70995E+01  1.70639E+01  1.70023E+01  1.69139E+01  1.67985E+01  1.66565E+01  1.64891E+01  1.62979E+01  1.60853E+01  1.58539E+01
   1.56067E+01  1.53472E+01  1.50787E+01  1.48047E+01  1.45286E+01  1.42536E+01  1.39829E+01  1.37190E+01  1.34646E+01  1.32215E+01
   1.29915E+01  1.27759E+01  1.25757E+01  1.23915E+01  1.22236E+01  1.20720E+01  1.19366E+01  1.18170E+01  1.17125E+01  1.16226E+01
   1.15464E+01  1.14831E+01  1.14317E+01  1.13913E+01  1.13609E+01  1.13396E+01  1.13264E+01  1.13205E+01  1.13207E+01  1.13265E+01
   1.13367E+01  1.13508E+01  1.13679E+01  1.13873E+01  1.14087E+01  1.14318E+01  1.14564E+01  1.14821E+01  1.15088E+01  1.15363E+01
   1.15644E+01  1.15929E+01  1.16217E+01  1.16508E+01  1.16799E+01  1.17090E+01  1.17380E+01  1.17668E+01  1.17955E+01  1.18239E+01
   1.18519E+01  1.18797E+01  1.19071E+01  1.19341E+01  1.19607E+01  1.19869E+01  1.20128E+01  1.20382E+01  1.20632E+01  1.20879E+01
   1.21122E+01  1.21362E+01  1.21599E+01  1.21832E+01  1.22063E+01  1.22292E+01  1.22519E+01  1.22743E+01  1.22967E+01  1.23189E+01
   1.23411E+01  1.23633E+01  1.23856E+01  1.24079E+01  1.24303E+01  1.24530E+01  1.24759E+01  1.24991E+01
 NY background values follow
     2.185E+01    2.177E+01    2.168E+01    2.160E+01    2.152E+01    2.143E+01    2.135E+01    2.127E+01    2.118E+01    2.110E+01
     2.102E+01    2.093E+01    2.085E+01    2.077E+01    2.068E+01    2.060E+01    2.052E+01    2.043E+01    2.035E+01    2.027E+01
     2.019E+01    2.011E+01    2.002E+01    1.994E+01    1.986E+01    1.978E+01    1.970E+01    1.962E+01    1.954E+01    1.946E+01
     1.939E+01    1.931E+01    1.923E+01    1.915E+01    1.908E+01    1.900E+01    1.893E+01    1.885E+01    1.878E+01    1.871E+01
     1.864E+01    1.856E+01    1.849E+01    1.842E+01    1.835E+01    1.829E+01    1.822E+01    1.815E+01    1.809E+01    1.802E+01
     1.796E+01    1.790E+01    1.784E+01    1.778E+01    1.772E+01    1.766E+01    1.761E+01    1.755E+01    1.750E+01    1.745E+01
     1.740E+01    1.736E+01    1.731E+01    1.727E+01    1.723E+01    1.719E+01    1.715E+01    1.712E+01    1.709E+01    1.706E+01
     1.703E+01    1.701E+01    1.698E+01    1.696E+01    1.695E+01    1.693E+01    1.692E+01    1.692E+01    1.691E+01    1.691E+01
     1.691E+01    1.691E+01    1.692E+01    1.693E+01    1.695E+01    1.696E+01    1.699E+01    1.701E+01    1.704E+01    1.707E+01
     1.711E+01    1.715E+01    1.719E+01    1.724E+01    1.729E+01    1.734E+01    1.740E+01    1.746E+01    1.753E+01    1.759E+01
     1.767E+01    1.774E+01    1.782E+01    1.789E+01    1.798E+01    1.806E+01    1.815E+01    1.824E+01    1.833E+01    1.842E+01
     1.852E+01    1.861E+01    1.871E+01    1.881E+01    1.892E+01    1.902E+01    1.913E+01    1.923E+01    1.934E+01    1.945E+01
     1.956E+01    1.967E+01    1.978E+01    1.990E+01    2.001E+01    2.012E+01    2.024E+01    2.035E+01    2.047E+01    2.058E+01
     2.070E+01    2.081E+01    2.093E+01    2.104E+01    2.116E+01    2.127E+01    2.139E+01    2.150E+01    2.161E+01    2.172E+01
     2.184E+01    2.195E+01    2.206E+01    2.218E+01    2.230E+01    2.242E+01    2.254E+01    2.266E+01    2.278E+01    2.291E+01
     2.304E+01    2.318E+01    2.331E+01    2.345E+01    2.360E+01    2.375E+01    2.390E+01    2.406E+01    2.423E+01    2.440E+01
     2.457E+01    2.475E+01    2.494E+01    2.513E+01    2.533E+01    2.554E+01    2.575E+01    2.598E+01    2.620E+01    2.644E+01
     2.669E+01    2.694E+01    2.721E+01    2.748E+01    2.776E+01    2.805E+01    2.835E+01    2.867E+01    2.899E+01    2.932E+01
     2.966E+01    3.002E+01    3.039E+01    3.076E+01    3.115E+01    3.155E+01    3.195E+01    3.237E+01    3.280E+01    3.323E+01
     3.367E+01    3.412E+01    3.457E+01    3.503E+01    3.550E+01    3.597E+01    3.645E+01    3.693E+01    3.742E+01    3.791E+01
     3.840E+01    3.890E+01    3.940E+01    3.990E+01    4.040E+01    4.090E+01    4.140E+01    4.191E+01    4.241E+01    4.291E+01
     4.341E+01    4.391E+01    4.441E+01    4.490E+01    4.539E+01    4.588E+01    4.637E+01    4.685E+01    4.732E+01    4.779E+01
     4.825E+01    4.871E+01    4.916E+01    4.960E+01    5.004E+01    5.047E+01    5.089E+01    5.130E+01    5.170E+01    5.209E+01
     5.247E+01    5.285E+01    5.321E+01    5.357E+01    5.392E+01    5.425E+01    5.458E+01    5.490E+01    5.521E+01    5.551E+01
     5.580E+01    5.608E+01    5.635E+01    5.661E+01    5.686E+01    5.710E+01    5.733E+01    5.755E+01    5.776E+01    5.796E+01
     5.815E+01    5.832E+01    5.849E+01    5.865E+01    5.880E+01    5.894E+01    5.906E+01    5.918E+01    5.928E+01    5.938E+01
     5.946E+01    5.953E+01    5.959E+01    5.964E+01    5.968E+01    5.971E+01    5.973E+01    5.973E+01    5.973E+01    5.971E+01
     5.968E+01    5.964E+01    5.959E+01    5.953E+01    5.945E+01    5.936E+01    5.927E+01    5.916E+01    5.904E+01    5.891E+01
     5.877E+01    5.862E+01    5.845E+01    5.828E+01    5.810E+01    5.791E+01    5.770E+01    5.749E+01    5.727E+01    5.703E+01
     5.679E+01    5.654E+01    5.628E+01    5.601E+01    5.572E+01    5.544E+01    5.514E+01    5.483E+01    5.451E+01    5.419E+01
     5.386E+01    5.351E+01    5.316E+01    5.281E+01    5.244E+01    5.206E+01    5.168E+01    5.129E+01    5.089E+01    5.049E+01
     5.007E+01    4.965E+01    4.923E+01    4.879E+01    4.835E+01    4.790E+01    4.744E+01    4.698E+01    4.651E+01    4.604E+01
     4.556E+01    4.507E+01    4.458E+01    4.408E+01    4.358E+01    4.307E+01    4.256E+01    4.204E+01    4.152E+01    4.100E+01
     4.047E+01    3.994E+01    3.941E+01    3.887E+01    3.833E+01    3.779E+01    3.725E+01    3.670E+01    3.616E+01    3.561E+01
     3.507E+01    3.452E+01    3.397E+01    3.342E+01    3.287E+01    3.233E+01    3.178E+01    3.123E+01    3.069E+01    3.015E+01
     2.960E+01    2.906E+01    2.853E+01    2.799E+01    2.746E+01    2.693E+01    2.641E+01    2.588E+01    2.536E+01    2.485E+01
     2.434E+01    2.383E+01    2.333E+01    2.284E+01    2.235E+01    2.186E+01    2.138E+01    2.091E+01    2.044E+01    1.998E+01
     1.952E+01    1.907E+01    1.863E+01    1.819E+01    1.776E+01    1.734E+01    1.692E+01    1.651E+01    1.611E+01    1.572E+01
     1.533E+01    1.495E+01    1.458E+01    1.422E+01    1.386E+01    1.352E+01    1.318E+01    1.285E+01    1.253E+01    1.222E+01
     1.192E+01    1.163E+01    1.135E+01    1.108E+01    1.081E+01    1.056E+01    1.032E+01    1.009E+01    9.866E+00    9.655E+00
     9.455E+00    9.266E+00    9.089E+00    8.922E+00    8.767E+00    8.624E+00    8.492E+00    8.373E+00    8.265E+00    8.168E+00
     8.083E+00    8.009E+00    7.946E+00    7.892E+00    7.849E+00    7.815E+00    7.791E+00    7.775E+00    7.768E+00    7.769E+00
     7.779E+00    7.796E+00    7.820E+00    7.851E+00    7.889E+00    7.933E+00    7.983E+00    8.039E+00    8.100E+00    8.167E+00
     8.238E+00    8.313E+00    8.392E+00    8.475E+00    8.562E+00    8.652E+00    8.744E+00    8.839E+00    8.935E+00    9.034E+00
     9.134E+00    9.235E+00    9.337E+00    9.440E+00    9.542E+00    9.645E+00    9.747E+00    9.848E+00    9.948E+00    1.005E+01
     1.014E+01    1.024E+01    1.033E+01    1.042E+01    1.051E+01    1.059E+01    1.067E+01    1.075E+01    1.083E+01    1.090E+01
     1.097E+01    1.104E+01    1.111E+01    1.118E+01    1.124E+01    1.130E+01    1.136E+01    1.142E+01    1.148E+01    1.153E+01
     1.158E+01    1.163E+01    1.168E+01    1.173E+01    1.178E+01    1.182E+01    1.187E+01    1.191E+01    1.195E+01    1.199E+01
     1.203E+01    1.206E+01    1.210E+01    1.214E+01    1.217E+01    1.221E+01    1.224E+01    1.227E+01    1.230E+01    1.233E+01
     1.236E+01    1.239E+01    1.242E+01    1.245E+01    1.248E+01    1.251E+01    1.254E+01    1.257E+01
 Ala      Conc. = 3.22E+02
