 LCModel (Version 6.3-1L) Copyright: S.W. Provencher.          Ref.: Magn. Reson. Med. 30:672-679 (1993).                
 Slice#2 Row#6 Col#12  K_02_press_1_raw_act
 36 lines in following concentration table = NCONC+1
    Conc.  %SD /Cr+PCr  Metabolite                                         
  141.023  80%   0.215 Ala                                                 
    0.000 999%   0.000 Asp                                                 
   45.330 430% 6.9E-02 Cr                                                  
  610.118  32%   0.931 PCr                                                 
    4.734 999% 7.2E-03 GABA                                                
   55.421 217% 8.5E-02 Glc                                                 
  593.943  36%   0.906 Gln                                                 
 1.44E+03  18%   2.190 Glu                                                 
  144.529  13%   0.221 GPC                                                 
    0.000 999%   0.000 PCh                                                 
  117.431  57%   0.179 GSH                                                 
  282.757  81%   0.431 Ins                                                 
  184.094  83%   0.281 Lac                                                 
 2.63E+03   6%   4.015 NAA                                                 
  244.619  65%   0.373 NAAG                                                
   34.290  67% 5.2E-02 Scyllo                                              
  357.811  49%   0.546 Tau                                                 
  505.719  19%   0.772 -CrCH2                                              
  144.529  13%   0.221 GPC+PCh                                             
 2.88E+03   3%   4.388 NAA+NAAG                                            
  655.448   8%   1.000 Cr+PCr                                              
 2.03E+03  18%   3.096 Glu+Gln                                             
    0.000 999%   0.000 Lip13a                                              
  922.608  51%   1.408 Lip13b                                              
  235.862  54%   0.360 Lip09                                               
 1.28E+03  18%   1.956 MM09                                                
  139.869  51%   0.213 Lip20                                               
 2.83E+03  13%   4.315 MM20                                                
  369.055  32%   0.563 MM12                                                
 2.62E+03  15%   3.995+MM14                                                
 1.43E+03  16%   2.185+MM17                                                
  922.608  51%   1.408 Lip13a+Lip13b                                       
 3.91E+03  10%   5.965 MM14+Lip13a+Lip13b+MM12                             
 1.52E+03  14%   2.315 MM09+Lip09                                          
 2.97E+03  12%   4.529 MM20+Lip20                                          
   6 lines in following misc. output table
  FWHM = 0.054 ppm    S/N =  16                                            
  Data shift = 0.008 ppm                                                   
  Ph: -46 deg     -21.5 deg/ppm                                            
  alphaB,S = 3.7E-01,   9.7E+01                                            
   14 spline knots.   Ns = 8(1)                                            
  (11) 2 infls.   ( 5) 1 extrs.                                            
  498 points on ppm-axis = NY
      4.000000     3.992357     3.984714     3.977070     3.969427     3.961784     3.954141     3.946497     3.938854     3.931211
      3.923568     3.915925     3.908281     3.900638     3.892995     3.885352     3.877708     3.870065     3.862422     3.854779
      3.847136     3.839492     3.831849     3.824206     3.816563     3.808919     3.801276     3.793633     3.785990     3.778347
      3.770703     3.763060     3.755417     3.747774     3.740130     3.732487     3.724844     3.717201     3.709558     3.701914
      3.694271     3.686628     3.678985     3.671341     3.663698     3.656055     3.648412     3.640769     3.633125     3.625482
      3.617839     3.610196     3.602552     3.594909     3.587266     3.579623     3.571980     3.564336     3.556693     3.549050
      3.541407     3.533763     3.526120     3.518477     3.510834     3.503191     3.495547     3.487904     3.480261     3.472618
      3.464974     3.457331     3.449688     3.442045     3.434402     3.426758     3.419115     3.411472     3.403829     3.396185
      3.388542     3.380899     3.373256     3.365613     3.357969     3.350326     3.342683     3.335040     3.327396     3.319753
      3.312110     3.304467     3.296824     3.289180     3.281537     3.273894     3.266251     3.258607     3.250964     3.243321
      3.235678     3.228034     3.220391     3.212748     3.205105     3.197462     3.189818     3.182175     3.174532     3.166889
      3.159245     3.151602     3.143959     3.136316     3.128673     3.121029     3.113386     3.105743     3.098100     3.090456
      3.082813     3.075170     3.067527     3.059884     3.052240     3.044597     3.036954     3.029311     3.021667     3.014024
      3.006381     2.998738     2.991095     2.983451     2.975808     2.968165     2.960522     2.952878     2.945235     2.937592
      2.929949     2.922306     2.914662     2.907019     2.899376     2.891733     2.884089     2.876446     2.868803     2.861160
      2.853517     2.845873     2.838230     2.830587     2.822944     2.815300     2.807657     2.800014     2.792371     2.784728
      2.777084     2.769441     2.761798     2.754155     2.746511     2.738868     2.731225     2.723582     2.715939     2.708295
      2.700652     2.693009     2.685366     2.677722     2.670079     2.662436     2.654793     2.647150     2.639506     2.631863
      2.624220     2.616577     2.608933     2.601290     2.593647     2.586004     2.578361     2.570717     2.563074     2.555431
      2.547788     2.540144     2.532501     2.524858     2.517215     2.509572     2.501928     2.494285     2.486642     2.478999
      2.471355     2.463712     2.456069     2.448426     2.440783     2.433139     2.425496     2.417853     2.410210     2.402566
      2.394923     2.387280     2.379637     2.371994     2.364350     2.356707     2.349064     2.341421     2.333777     2.326134
      2.318491     2.310848     2.303205     2.295561     2.287918     2.280275     2.272632     2.264988     2.257345     2.249702
      2.242059     2.234416     2.226772     2.219129     2.211486     2.203843     2.196199     2.188556     2.180913     2.173270
      2.165627     2.157983     2.150340     2.142697     2.135054     2.127410     2.119767     2.112124     2.104481     2.096838
      2.089194     2.081551     2.073908     2.066265     2.058621     2.050978     2.043335     2.035692     2.028049     2.020405
      2.012762     2.005119     1.997476     1.989833     1.982190     1.974546     1.966903     1.959260     1.951617     1.943974
      1.936331     1.928688     1.921045     1.913402     1.905759     1.898115     1.890472     1.882829     1.875186     1.867543
      1.859900     1.852257     1.844614     1.836971     1.829327     1.821684     1.814041     1.806398     1.798755     1.791112
      1.783469     1.775826     1.768183     1.760540     1.752896     1.745253     1.737610     1.729967     1.722324     1.714681
      1.707038     1.699395     1.691752     1.684108     1.676465     1.668822     1.661179     1.653536     1.645893     1.638250
      1.630607     1.622964     1.615321     1.607677     1.600034     1.592391     1.584748     1.577105     1.569462     1.561819
      1.554176     1.546533     1.538890     1.531246     1.523603     1.515960     1.508317     1.500674     1.493031     1.485388
      1.477745     1.470102     1.462458     1.454815     1.447172     1.439529     1.431886     1.424243     1.416600     1.408957
      1.401314     1.393671     1.386027     1.378384     1.370741     1.363098     1.355455     1.347812     1.340169     1.332526
      1.324883     1.317240     1.309596     1.301953     1.294310     1.286667     1.279024     1.271381     1.263738     1.256095
      1.248452     1.240808     1.233165     1.225522     1.217879     1.210236     1.202593     1.194950     1.187307     1.179664
      1.172021     1.164377     1.156734     1.149091     1.141448     1.133805     1.126162     1.118519     1.110876     1.103233
      1.095590     1.087946     1.080303     1.072660     1.065017     1.057374     1.049731     1.042088     1.034445     1.026802
      1.019158     1.011515     1.003872     0.996229     0.988586     0.980943     0.973300     0.965657     0.958014     0.950371
      0.942727     0.935084     0.927441     0.919798     0.912155     0.904512     0.896869     0.889226     0.881583     0.873940
      0.866296     0.858653     0.851010     0.843367     0.835724     0.828081     0.820438     0.812795     0.805152     0.797508
      0.789865     0.782222     0.774579     0.766936     0.759293     0.751650     0.744007     0.736364     0.728721     0.721077
      0.713434     0.705791     0.698148     0.690505     0.682862     0.675219     0.667576     0.659933     0.652290     0.644646
      0.637003     0.629360     0.621717     0.614074     0.606431     0.598788     0.591145     0.583502     0.575858     0.568215
      0.560572     0.552929     0.545286     0.537643     0.530000     0.522357     0.514714     0.507071     0.499427     0.491784
      0.484141     0.476498     0.468855     0.461212     0.453569     0.445925     0.438282     0.430639     0.422996     0.415353
      0.407710     0.400067     0.392424     0.384780     0.377137     0.369494     0.361851     0.354208     0.346565     0.338922
      0.331278     0.323635     0.315992     0.308349     0.300706     0.293063     0.285420     0.277777     0.270133     0.262490
      0.254847     0.247204     0.239561     0.231918     0.224275     0.216631     0.208988     0.201345
 NY phased data points follow
   3.85695E+00  5.00629E+00  5.00228E+00  2.45094E+00  5.86806E+00  3.41978E+00  4.40727E+00  3.61160E+00  8.47069E+00  5.50539E+00
   4.60399E+00  4.58880E+00  7.87191E+00  2.54582E+00  3.77795E+00  5.71185E+00  2.64964E+00  5.95001E+00  5.46072E+00  2.34151E+00
   1.02746E+00  4.98559E+00  3.83007E+00  5.96630E+00  5.96196E+00  3.27347E+00  2.78967E+00  4.51875E+00  5.17396E+00  5.79995E+00
   5.33860E+00  4.23996E+00  5.74197E+00  3.09164E+00  4.55151E+00  7.15053E+00  6.86208E+00  6.19511E+00  5.55503E+00  9.17145E+00
   5.40107E+00  8.07545E+00  6.75336E+00  5.95647E+00  6.60503E+00  6.37859E+00  9.33750E+00  7.03663E+00  6.68629E+00  4.88637E+00
   6.73826E+00  2.40985E+00  8.03007E+00  6.98282E+00  2.76519E+00  3.77507E+00  6.80765E+00  5.75956E+00  3.77155E+00  8.73046E-01
   1.53267E+00  2.81700E+00  6.05025E+00  2.87103E+00  7.45575E+00  8.20420E+00  3.74388E+00  5.95747E+00  1.68955E+00  4.42937E+00
   4.02254E+00  4.45876E+00  6.67355E+00  6.98602E+00  4.16036E+00  4.21273E+00  5.67892E+00  3.60804E+00  6.90145E+00  2.66037E+00
   5.52345E+00  4.04357E+00  6.17435E+00  6.87280E+00  1.42428E+00  5.05288E+00  5.85019E+00  2.27162E+00  4.82320E+00  4.99962E+00
   1.01372E+01  5.03667E+00  4.82260E+00  5.38513E+00  6.19234E+00  6.68349E+00  6.39330E+00  9.40660E+00  1.03150E+01  1.28388E+01
   1.64707E+01  1.47081E+01  1.70824E+01  1.68279E+01  1.73900E+01  1.31445E+01  9.93916E+00  5.16030E+00  5.87958E+00  4.98986E+00
   4.91604E+00  7.61897E+00  5.40778E+00  5.13274E+00  6.36261E+00  7.09588E+00  6.78102E+00  8.83533E+00  4.49568E+00  5.10907E+00
   9.18871E+00  1.09951E+01  1.34428E+01  1.56265E+01  2.34871E+01  2.57950E+01  2.60792E+01  2.43075E+01  2.05585E+01  1.89541E+01
   1.56145E+01  1.28264E+01  9.60493E+00  8.30397E+00  6.35951E+00  3.28981E+00  2.99421E+00  4.28471E+00  7.18253E+00  9.51875E+00
   9.68922E+00  4.41169E+00  4.47471E+00  6.52075E+00  7.06470E+00  7.07159E+00  1.71348E+00  4.85046E+00  5.39334E+00  2.57062E+00
   2.26556E+00  1.19166E+00  3.97929E+00  4.58388E+00  4.73513E-01  3.42776E+00  2.45681E+00  3.27256E+00  5.31336E+00  2.13198E+00
  -1.62317E-01  3.91877E+00  1.97493E+00  2.88109E+00 -5.87041E-01  1.45186E+00 -1.16362E+00 -2.37446E+00 -3.85660E+00 -2.95729E+00
  -6.04944E+00 -7.51405E+00 -6.19321E+00 -3.28606E+00 -9.68884E+00 -8.76580E+00 -6.18689E+00 -7.01811E+00 -6.12016E+00 -2.65136E+00
  -3.72595E+00 -1.30476E+00 -6.31373E+00 -2.57408E+00 -5.15929E+00 -2.86444E+00 -5.94850E+00 -4.25209E+00 -3.18513E+00 -1.46357E+00
  -3.98935E-01  3.52274E+00  9.42013E-01  1.90814E+00 -1.48745E+00 -1.71997E+00 -3.04405E+00 -4.19445E+00 -6.09409E+00 -3.30178E+00
  -5.04969E+00 -1.30063E+00  2.55648E+00  5.02215E+00  5.64940E+00  6.59303E-01  2.88180E+00  2.02393E+00  1.52005E+00  9.46356E-01
   3.85454E+00  7.59296E+00  8.82134E+00  1.04807E+01  1.49321E+01  1.41393E+01  1.79582E+01  1.22293E+01  8.69729E+00  8.70982E+00
   2.60144E+00  2.65136E+00  8.81247E-01  5.32772E-01  6.67851E+00  7.29105E+00  8.68022E+00  1.19065E+01  8.58099E+00  8.22032E+00
   8.67473E+00  1.34125E+01  1.32204E+01  1.28061E+01  1.09879E+01  1.22173E+01  9.43345E+00  1.31417E+01  9.97271E+00  1.34412E+01
   1.05382E+01  7.69043E+00  7.75852E+00  9.07940E+00  1.23389E+01  1.34647E+01  1.37987E+01  1.30123E+01  1.69349E+01  2.13706E+01
   2.18560E+01  2.23569E+01  2.74317E+01  2.88554E+01  3.34542E+01  4.14025E+01  4.91091E+01  6.56999E+01  8.80201E+01  9.72225E+01
   1.01792E+02  9.88663E+01  8.73493E+01  6.98238E+01  5.74158E+01  4.39663E+01  3.61249E+01  2.53574E+01  1.96345E+01  2.14185E+01
   1.49643E+01  1.52845E+01  1.24994E+01  9.00638E+00  1.22471E+01  8.68152E+00  8.57146E+00  9.06666E+00  8.87173E+00  7.19500E+00
   6.35932E+00  8.55868E+00  7.78016E+00  5.40548E+00  9.05944E+00  8.20444E+00  6.64721E+00  2.60152E+00  9.57318E+00  7.18161E+00
   8.56981E+00  9.76600E+00  8.44819E+00  1.12251E+01  7.55411E+00  9.53481E+00  1.33700E+01  8.53297E+00  9.96329E+00  1.01485E+01
   8.66630E+00  1.07342E+01  9.30673E+00  9.03227E+00  1.36189E+01  1.37459E+01  1.37929E+01  1.47594E+01  1.35937E+01  1.42496E+01
   1.20070E+01  1.59732E+01  1.74462E+01  1.94352E+01  1.56142E+01  1.51641E+01  1.54456E+01  1.26016E+01  1.57499E+01  1.44403E+01
   1.67286E+01  1.23184E+01  1.25283E+01  1.59769E+01  1.08287E+01  1.20437E+01  1.58449E+01  1.63948E+01  1.50014E+01  1.66255E+01
   1.40960E+01  1.97302E+01  1.77894E+01  1.97467E+01  1.87393E+01  2.05937E+01  2.34892E+01  2.23386E+01  2.32408E+01  2.23382E+01
   2.45314E+01  2.54876E+01  2.52840E+01  2.56195E+01  2.29877E+01  2.28728E+01  2.52165E+01  2.06392E+01  2.08589E+01  2.06472E+01
   1.62485E+01  2.01935E+01  1.38536E+01  1.64424E+01  1.50910E+01  1.29069E+01  1.11228E+01  1.21816E+01  7.43121E+00  9.60467E+00
   9.09420E+00  7.10174E+00  7.50678E+00  1.88457E+00  1.83258E+00  4.03172E+00  3.58296E+00  6.15780E+00  1.99893E+00  2.11181E+00
   2.83010E+00  2.41592E+00  1.39164E+00  6.47646E-01 -6.06408E-01  1.43564E-01 -2.26852E+00 -2.04400E+00 -1.06042E+00 -6.37222E+00
  -1.76112E+00 -3.81187E+00 -4.75065E+00 -3.14966E+00 -4.63574E+00 -6.00807E+00 -1.02055E+01 -2.88182E+00 -4.18530E+00 -2.45826E+00
  -1.04959E+00 -2.41633E+00  5.48369E-01  1.53589E+00 -1.46297E+00 -1.99583E+00  5.97144E+00  3.93206E+00  6.27529E+00  1.19217E+00
   3.68932E+00  5.70992E+00  4.96743E+00  6.08512E+00  5.39560E+00  3.04781E+00  6.13605E+00  6.23454E+00  8.19044E+00  8.13413E+00
   8.10921E+00  9.68413E+00  1.24681E+01  6.56313E+00  4.35164E+00  5.82638E+00  5.27836E+00  2.96336E+00  4.54347E+00  2.21396E+00
   1.46006E+00  3.62767E+00  3.73773E+00  4.28176E+00  2.69534E+00  2.31731E+00 -5.92119E-01 -7.28734E-02 -2.46751E+00 -2.05070E+00
  -1.29998E-01  3.07728E+00  1.04539E+00 -2.75763E+00 -1.21324E+00  2.68698E-01 -2.45195E+00 -1.46220E+00 -5.81932E-01 -7.03443E-01
   1.54539E+00  1.52596E+00  1.03124E+00  1.68003E+00  1.04200E+00  1.01448E+00  2.35702E+00 -1.87468E-01  2.96187E-01  2.34145E+00
  -2.08429E+00  4.30686E-01  2.19876E+00  2.50535E+00  1.74682E-02  3.09745E+00  1.13127E+00  3.09910E+00  3.25387E+00  2.14961E+00
  -2.13747E-01  5.61603E-01  8.48665E-01  3.92566E+00  5.56726E-01  5.71222E+00  4.62179E+00  2.68108E+00  1.49725E+00  2.11539E+00
   3.05355E+00  8.94474E-01  2.21961E+00  2.25683E+00  3.70199E+00  2.22255E+00  9.96824E-01  1.14698E+00  1.00556E+00  9.46779E-01
   2.72144E+00  3.03214E+00  2.26190E+00  2.31753E+00  2.04445E+00 -3.75468E-01  1.65631E+00  3.23632E+00  1.80262E+00  2.28063E+00
   3.86271E+00  2.76252E+00  2.46598E+00  1.93112E+00  3.26644E-02  1.11894E+00  2.84010E+00  8.03487E-01
 NY points of the fit to the data follow
   2.89566E+00  3.02509E+00  3.25305E+00  3.72772E+00  4.46101E+00  5.24794E+00  5.84205E+00  6.15565E+00  6.21870E+00  6.06191E+00
   5.77001E+00  5.46630E+00  5.19118E+00  4.92932E+00  4.68904E+00  4.52137E+00  4.40411E+00  4.31143E+00  4.35956E+00  4.56522E+00
   4.74939E+00  4.86253E+00  4.92340E+00  4.85370E+00  4.60343E+00  4.24815E+00  4.07615E+00  4.34829E+00  5.06657E+00  6.12709E+00
   7.35354E+00  8.38573E+00  8.85087E+00  8.60326E+00  7.75498E+00  6.55242E+00  5.29199E+00  4.40559E+00  4.05598E+00  4.08402E+00
   4.37427E+00  4.78952E+00  5.22542E+00  5.63085E+00  6.03276E+00  6.44573E+00  6.72667E+00  6.75294E+00  6.54759E+00  6.15276E+00
   5.63902E+00  5.14562E+00  4.75267E+00  4.48501E+00  4.32187E+00  4.25187E+00  4.27463E+00  4.36359E+00  4.48987E+00  4.61111E+00
   4.67510E+00  4.68705E+00  4.67198E+00  4.65573E+00  4.65968E+00  4.66973E+00  4.65751E+00  4.63515E+00  4.63350E+00  4.66488E+00
   4.76519E+00  4.98254E+00  5.31117E+00  5.61688E+00  5.74589E+00  5.61486E+00  5.24688E+00  4.76865E+00  4.37192E+00  4.21163E+00
   4.26781E+00  4.48935E+00  4.86827E+00  5.31359E+00  5.62260E+00  5.69929E+00  5.58887E+00  5.33550E+00  5.01463E+00  4.68238E+00
   4.33399E+00  3.96506E+00  3.61378E+00  3.42216E+00  3.67044E+00  4.43495E+00  5.56140E+00  7.21210E+00  9.61102E+00  1.25825E+01
   1.53307E+01  1.70421E+01  1.74266E+01  1.65428E+01  1.47622E+01  1.26925E+01  1.07889E+01  9.15459E+00  7.79038E+00  6.77883E+00
   6.03435E+00  5.30006E+00  4.69810E+00  4.43996E+00  4.29910E+00  4.21280E+00  4.17595E+00  4.22899E+00  4.66080E+00  5.58402E+00
   6.91894E+00  9.09878E+00  1.26265E+01  1.72588E+01  2.17226E+01  2.46685E+01  2.54886E+01  2.42225E+01  2.14880E+01  1.82528E+01
   1.52426E+01  1.26690E+01  1.05090E+01  8.79704E+00  7.45690E+00  6.18171E+00  5.19198E+00  4.80033E+00  4.68896E+00  4.67342E+00
   4.66524E+00  4.61416E+00  4.49601E+00  4.32587E+00  4.14152E+00  3.95428E+00  3.76603E+00  3.58039E+00  3.39531E+00  3.20938E+00
   3.02201E+00  2.84252E+00  2.69784E+00  2.57837E+00  2.46267E+00  2.36135E+00  2.20713E+00  1.90513E+00  1.42126E+00  8.50459E-01
   4.38000E-01  3.47860E-01  5.48311E-01  8.18952E-01  9.00468E-01  6.76820E-01  1.92154E-01 -4.22380E-01 -1.03355E+00 -1.58683E+00
  -2.03139E+00 -2.44210E+00 -2.96232E+00 -3.55515E+00 -4.06942E+00 -4.24863E+00 -4.05703E+00 -3.75656E+00 -3.53679E+00 -3.44347E+00
  -3.41029E+00 -3.29934E+00 -3.10368E+00 -2.88264E+00 -2.62546E+00 -2.16971E+00 -1.37037E+00 -3.25801E-01  8.23913E-01  1.91129E+00
   2.74155E+00  3.21309E+00  3.37361E+00  3.42471E+00  3.48987E+00  3.58388E+00  3.81654E+00  4.20659E+00  4.64392E+00  5.19370E+00
   5.88040E+00  6.60636E+00  7.10766E+00  7.12461E+00  6.45510E+00  5.03414E+00  3.09722E+00  1.25661E+00  1.99092E-02 -4.54085E-01
  -1.91189E-01  9.73582E-01  3.04357E+00  5.57281E+00  7.86184E+00  9.20567E+00  9.26157E+00  8.06685E+00  5.84392E+00  3.11002E+00
   6.14742E-01 -8.38402E-01 -8.47422E-01  4.22247E-01  2.47701E+00  4.73826E+00  6.72606E+00  8.25444E+00  9.18188E+00  9.61992E+00
   9.73022E+00  9.73429E+00  9.85781E+00  1.01488E+01  1.06039E+01  1.12481E+01  1.19527E+01  1.24788E+01  1.26122E+01  1.23128E+01
   1.18288E+01  1.14887E+01  1.14943E+01  1.19147E+01  1.26940E+01  1.36466E+01  1.45792E+01  1.54417E+01  1.63160E+01  1.72367E+01
   1.84387E+01  2.02862E+01  2.34139E+01  2.86028E+01  3.46205E+01  4.18599E+01  5.26528E+01  6.80343E+01  8.47850E+01  9.72112E+01
   1.01713E+02  9.75735E+01  8.63383E+01  7.16142E+01  5.71133E+01  4.46549E+01  3.46635E+01  2.70899E+01  2.18362E+01  1.75592E+01
   1.34185E+01  1.12982E+01  1.05683E+01  1.01423E+01  9.79270E+00  9.47445E+00  9.12625E+00  8.75339E+00  8.38892E+00  8.05364E+00
   7.75785E+00  7.50955E+00  7.30133E+00  7.11498E+00  6.94659E+00  6.80165E+00  6.68226E+00  6.59186E+00  6.53990E+00  6.53727E+00
   6.58950E+00  6.68962E+00  6.83400E+00  7.02464E+00  7.26253E+00  7.54871E+00  7.88821E+00  8.28556E+00  8.74262E+00  9.25706E+00
   9.82047E+00  1.04193E+01  1.10390E+01  1.16621E+01  1.22701E+01  1.28442E+01  1.33662E+01  1.38200E+01  1.41916E+01  1.44681E+01
   1.46429E+01  1.47143E+01  1.46856E+01  1.45660E+01  1.43706E+01  1.41200E+01  1.38394E+01  1.35590E+01  1.33153E+01  1.31531E+01
   1.30846E+01  1.31162E+01  1.32921E+01  1.36037E+01  1.39506E+01  1.42001E+01  1.43119E+01  1.43747E+01  1.45144E+01  1.48082E+01
   1.53442E+01  1.61970E+01  1.73775E+01  1.87797E+01  2.02160E+01  2.14986E+01  2.24877E+01  2.31701E+01  2.35931E+01  2.38095E+01
   2.38754E+01  2.38090E+01  2.36974E+01  2.35725E+01  2.32972E+01  2.26929E+01  2.17490E+01  2.05821E+01  1.93344E+01  1.81168E+01
   1.70774E+01  1.63337E+01  1.58795E+01  1.55528E+01  1.51420E+01  1.44762E+01  1.34521E+01  1.21393E+01  1.06913E+01  9.19053E+00
   7.73737E+00  6.40090E+00  5.23612E+00  4.25878E+00  3.41123E+00  2.69530E+00  2.14237E+00  1.70960E+00  1.36395E+00  1.08320E+00
   8.51109E-01  6.55850E-01  4.89134E-01  3.45322E-01  2.20884E-01  1.13791E-01  2.32015E-02 -5.10132E-02 -1.08458E-01 -1.48498E-01
  -1.70236E-01 -1.72624E-01 -1.54402E-01 -1.14261E-01 -5.07928E-02  3.74068E-02  1.51862E-01  2.94134E-01  4.65842E-01  6.68458E-01
   9.03290E-01  1.17130E+00  1.47311E+00  1.80877E+00  2.17763E+00  2.57809E+00  3.00745E+00  3.46183E+00  3.93611E+00  4.42388E+00
   4.91743E+00  5.40785E+00  5.88524E+00  6.33903E+00  6.75842E+00  7.13266E+00  7.45162E+00  7.70611E+00  7.88849E+00  7.99291E+00
   8.01587E+00  7.95621E+00  7.81528E+00  7.59682E+00  7.30690E+00  6.95353E+00  6.54635E+00  6.09605E+00  5.61389E+00  5.11125E+00
   4.59918E+00  4.08801E+00  3.58700E+00  3.10410E+00  2.64575E+00  2.21692E+00  1.82119E+00  1.46073E+00  1.13654E+00  8.48505E-01
   5.95681E-01  3.76465E-01  1.88847E-01  3.04931E-02 -1.01094E-01 -2.08507E-01 -2.94263E-01 -3.60757E-01 -4.10178E-01 -4.44561E-01
  -4.65759E-01 -4.75468E-01 -4.75154E-01 -4.66097E-01 -4.49385E-01 -4.26005E-01 -3.96824E-01 -3.62623E-01 -3.24035E-01 -2.81602E-01
  -2.35785E-01 -1.87030E-01 -1.35739E-01 -8.22552E-02 -2.68050E-02  3.04194E-02  8.92486E-02  1.49490E-01  2.10979E-01  2.73577E-01
   3.37206E-01  4.01786E-01  4.67230E-01  5.33425E-01  6.00286E-01  6.67753E-01  7.35801E-01  8.04386E-01  8.73454E-01  9.42927E-01
   1.01277E+00  1.08296E+00  1.15350E+00  1.22435E+00  1.29548E+00  1.36683E+00  1.43839E+00  1.51016E+00  1.58214E+00  1.65431E+00
   1.72662E+00  1.79905E+00  1.87160E+00  1.94429E+00  2.01713E+00  2.09008E+00  2.16310E+00  2.23621E+00  2.30941E+00  2.38274E+00
   2.45618E+00  2.52971E+00  2.60332E+00  2.67703E+00  2.75088E+00  2.82490E+00  2.89908E+00  2.97341E+00
 NY background values follow
     2.821E+00    2.834E+00    2.847E+00    2.860E+00    2.873E+00    2.886E+00    2.900E+00    2.913E+00    2.927E+00    2.940E+00
     2.954E+00    2.967E+00    2.981E+00    2.994E+00    3.008E+00    3.022E+00    3.035E+00    3.049E+00    3.062E+00    3.076E+00
     3.090E+00    3.103E+00    3.116E+00    3.130E+00    3.143E+00    3.156E+00    3.169E+00    3.182E+00    3.195E+00    3.208E+00
     3.221E+00    3.233E+00    3.245E+00    3.257E+00    3.269E+00    3.281E+00    3.293E+00    3.304E+00    3.316E+00    3.327E+00
     3.337E+00    3.348E+00    3.358E+00    3.368E+00    3.378E+00    3.388E+00    3.397E+00    3.406E+00    3.414E+00    3.423E+00
     3.431E+00    3.439E+00    3.446E+00    3.453E+00    3.460E+00    3.466E+00    3.472E+00    3.478E+00    3.483E+00    3.488E+00
     3.492E+00    3.496E+00    3.499E+00    3.502E+00    3.505E+00    3.507E+00    3.509E+00    3.510E+00    3.511E+00    3.511E+00
     3.511E+00    3.510E+00    3.509E+00    3.507E+00    3.504E+00    3.501E+00    3.498E+00    3.494E+00    3.489E+00    3.484E+00
     3.478E+00    3.471E+00    3.464E+00    3.456E+00    3.448E+00    3.439E+00    3.429E+00    3.419E+00    3.407E+00    3.396E+00
     3.383E+00    3.370E+00    3.356E+00    3.341E+00    3.326E+00    3.310E+00    3.293E+00    3.276E+00    3.258E+00    3.240E+00
     3.220E+00    3.200E+00    3.180E+00    3.159E+00    3.137E+00    3.115E+00    3.092E+00    3.069E+00    3.045E+00    3.021E+00
     2.996E+00    2.970E+00    2.944E+00    2.918E+00    2.891E+00    2.863E+00    2.835E+00    2.807E+00    2.778E+00    2.749E+00
     2.719E+00    2.689E+00    2.659E+00    2.628E+00    2.597E+00    2.565E+00    2.533E+00    2.500E+00    2.468E+00    2.435E+00
     2.401E+00    2.368E+00    2.334E+00    2.300E+00    2.265E+00    2.230E+00    2.195E+00    2.160E+00    2.124E+00    2.089E+00
     2.053E+00    2.017E+00    1.982E+00    1.946E+00    1.911E+00    1.875E+00    1.840E+00    1.806E+00    1.771E+00    1.737E+00
     1.704E+00    1.671E+00    1.639E+00    1.607E+00    1.576E+00    1.545E+00    1.516E+00    1.487E+00    1.459E+00    1.432E+00
     1.406E+00    1.381E+00    1.357E+00    1.335E+00    1.313E+00    1.293E+00    1.274E+00    1.257E+00    1.241E+00    1.226E+00
     1.213E+00    1.201E+00    1.191E+00    1.183E+00    1.177E+00    1.172E+00    1.169E+00    1.168E+00    1.169E+00    1.172E+00
     1.177E+00    1.184E+00    1.194E+00    1.205E+00    1.219E+00    1.234E+00    1.251E+00    1.270E+00    1.291E+00    1.314E+00
     1.338E+00    1.364E+00    1.391E+00    1.420E+00    1.450E+00    1.482E+00    1.515E+00    1.549E+00    1.584E+00    1.621E+00
     1.658E+00    1.697E+00    1.736E+00    1.777E+00    1.818E+00    1.860E+00    1.903E+00    1.946E+00    1.990E+00    2.034E+00
     2.079E+00    2.125E+00    2.170E+00    2.216E+00    2.263E+00    2.309E+00    2.355E+00    2.402E+00    2.449E+00    2.495E+00
     2.541E+00    2.587E+00    2.633E+00    2.679E+00    2.724E+00    2.769E+00    2.813E+00    2.857E+00    2.900E+00    2.943E+00
     2.985E+00    3.026E+00    3.067E+00    3.107E+00    3.147E+00    3.185E+00    3.223E+00    3.261E+00    3.297E+00    3.333E+00
     3.367E+00    3.401E+00    3.435E+00    3.467E+00    3.498E+00    3.528E+00    3.558E+00    3.586E+00    3.614E+00    3.640E+00
     3.666E+00    3.690E+00    3.714E+00    3.736E+00    3.757E+00    3.777E+00    3.796E+00    3.813E+00    3.830E+00    3.845E+00
     3.859E+00    3.872E+00    3.883E+00    3.893E+00    3.902E+00    3.910E+00    3.916E+00    3.920E+00    3.924E+00    3.925E+00
     3.926E+00    3.925E+00    3.922E+00    3.918E+00    3.912E+00    3.905E+00    3.897E+00    3.887E+00    3.875E+00    3.862E+00
     3.848E+00    3.832E+00    3.814E+00    3.796E+00    3.775E+00    3.754E+00    3.730E+00    3.706E+00    3.680E+00    3.652E+00
     3.623E+00    3.593E+00    3.561E+00    3.528E+00    3.493E+00    3.457E+00    3.420E+00    3.381E+00    3.341E+00    3.299E+00
     3.256E+00    3.212E+00    3.166E+00    3.119E+00    3.070E+00    3.020E+00    2.969E+00    2.916E+00    2.862E+00    2.807E+00
     2.750E+00    2.692E+00    2.633E+00    2.572E+00    2.510E+00    2.447E+00    2.382E+00    2.316E+00    2.248E+00    2.180E+00
     2.110E+00    2.039E+00    1.967E+00    1.895E+00    1.821E+00    1.746E+00    1.671E+00    1.594E+00    1.517E+00    1.440E+00
     1.361E+00    1.283E+00    1.203E+00    1.123E+00    1.043E+00    9.630E-01    8.823E-01    8.014E-01    7.203E-01    6.392E-01
     5.580E-01    4.769E-01    3.958E-01    3.149E-01    2.341E-01    1.536E-01    7.342E-02   -6.423E-03   -8.585E-02   -1.648E-01
    -2.432E-01   -3.211E-01   -3.983E-01   -4.748E-01   -5.506E-01   -6.255E-01   -6.996E-01   -7.728E-01   -8.450E-01   -9.161E-01
    -9.862E-01   -1.055E+00   -1.123E+00   -1.189E+00   -1.254E+00   -1.318E+00   -1.381E+00   -1.442E+00   -1.502E+00   -1.560E+00
    -1.617E+00   -1.673E+00   -1.727E+00   -1.779E+00   -1.830E+00   -1.879E+00   -1.926E+00   -1.972E+00   -2.017E+00   -2.059E+00
    -2.100E+00   -2.139E+00   -2.176E+00   -2.211E+00   -2.244E+00   -2.276E+00   -2.305E+00   -2.333E+00   -2.358E+00   -2.382E+00
    -2.404E+00   -2.423E+00   -2.440E+00   -2.455E+00   -2.468E+00   -2.479E+00   -2.488E+00   -2.494E+00   -2.498E+00   -2.499E+00
    -2.499E+00   -2.495E+00   -2.490E+00   -2.482E+00   -2.471E+00   -2.459E+00   -2.443E+00   -2.425E+00   -2.404E+00   -2.381E+00
    -2.356E+00   -2.328E+00   -2.297E+00   -2.265E+00   -2.230E+00   -2.193E+00   -2.154E+00   -2.113E+00   -2.070E+00   -2.025E+00
    -1.978E+00   -1.930E+00   -1.879E+00   -1.827E+00   -1.773E+00   -1.718E+00   -1.661E+00   -1.603E+00   -1.543E+00   -1.482E+00
    -1.420E+00   -1.356E+00   -1.292E+00   -1.226E+00   -1.159E+00   -1.091E+00   -1.022E+00   -9.527E-01   -8.822E-01   -8.109E-01
    -7.389E-01   -6.662E-01   -5.930E-01   -5.192E-01   -4.449E-01   -3.702E-01   -2.951E-01   -2.198E-01   -1.442E-01   -6.835E-02
     7.591E-03    8.361E-02    1.597E-01    2.357E-01    3.117E-01    3.876E-01    4.636E-01    5.394E-01    6.153E-01    6.911E-01
     7.668E-01    8.425E-01    9.182E-01    9.938E-01    1.069E+00    1.145E+00    1.220E+00    1.296E+00    1.371E+00    1.446E+00
     1.521E+00    1.596E+00    1.671E+00    1.746E+00    1.821E+00    1.896E+00    1.970E+00    2.045E+00    2.119E+00    2.193E+00
     2.268E+00    2.342E+00    2.416E+00    2.490E+00    2.563E+00    2.637E+00    2.710E+00    2.784E+00    2.857E+00    2.930E+00
     3.003E+00    3.076E+00    3.149E+00    3.221E+00    3.294E+00    3.366E+00    3.438E+00    3.510E+00
 Ala      Conc. = 1.41E+02
