 LCModel (Version 6.3-1L) Copyright: S.W. Provencher.          Ref.: Magn. Reson. Med. 30:672-679 (1993).                
 Slice#1 Row#13 Col#9  K_02_press_1_raw_act
 36 lines in following concentration table = NCONC+1
    Conc.  %SD /Cr+PCr  Metabolite                                         
  184.080  31%   0.567 Ala                                                 
   40.849 179%   0.126 Asp                                                 
    0.000 999%   0.000 Cr                                                  
  324.390   8%   1.000 PCr                                                 
   25.913 178% 8.0E-02 GABA                                                
   42.565 107%   0.131 Glc                                                 
  138.928  83%   0.428 Gln                                                 
  545.645  24%   1.682 Glu                                                 
    0.000 999%   0.000 GPC                                                 
   92.904  11%   0.286 PCh                                                 
   75.026  49%   0.231 GSH                                                 
  330.054  37%   1.017 Ins                                                 
    0.000 999%   0.000 Lac                                                 
  812.238   6%   2.504 NAA                                                 
   76.301  70%   0.235 NAAG                                                
   34.127  32%   0.105 Scyllo                                              
  153.273  46%   0.472 Tau                                                 
  201.694  23%   0.622 -CrCH2                                              
   92.904  11%   0.286 GPC+PCh                                             
  888.539   4%   2.739 NAA+NAAG                                            
  324.390   8%   1.000 Cr+PCr                                              
  684.573  27%   2.110 Glu+Gln                                             
  500.314  31%   1.542 Lip13a                                              
    0.000 999%   0.000 Lip13b                                              
    4.369 999% 1.3E-02 Lip09                                               
  349.884  28%   1.079 MM09                                                
  119.413  57%   0.368 Lip20                                               
  713.905  23%   2.201 MM20                                                
  106.106  55%   0.327 MM12                                                
  303.125  41%   0.934 MM14                                                
  330.975  25%   1.020 MM17                                                
  500.314  31%   1.542 Lip13a+Lip13b                                       
  909.545  15%   2.804 MM14+Lip13a+Lip13b+MM12                             
  354.253  20%   1.092 MM09+Lip09                                          
  833.318  20%   2.569 MM20+Lip20                                          
   6 lines in following misc. output table
  FWHM = 0.061 ppm    S/N =   8                                            
  Data shift =-0.023 ppm                                                   
  Ph:-109 deg     -35.0 deg/ppm                                            
  alphaB,S = 1.2E+00,   8.6E+01                                            
   14 spline knots.   Ns = 7(1)                                            
  (10) 2 infls.   ( 5) 1 extrs.                                            
  498 points on ppm-axis = NY
      4.000000     3.992357     3.984714     3.977070     3.969427     3.961784     3.954141     3.946497     3.938854     3.931211
      3.923568     3.915925     3.908281     3.900638     3.892995     3.885352     3.877708     3.870065     3.862422     3.854779
      3.847136     3.839492     3.831849     3.824206     3.816563     3.808919     3.801276     3.793633     3.785990     3.778347
      3.770703     3.763060     3.755417     3.747774     3.740130     3.732487     3.724844     3.717201     3.709558     3.701914
      3.694271     3.686628     3.678985     3.671341     3.663698     3.656055     3.648412     3.640769     3.633125     3.625482
      3.617839     3.610196     3.602552     3.594909     3.587266     3.579623     3.571980     3.564336     3.556693     3.549050
      3.541407     3.533763     3.526120     3.518477     3.510834     3.503191     3.495547     3.487904     3.480261     3.472618
      3.464974     3.457331     3.449688     3.442045     3.434402     3.426758     3.419115     3.411472     3.403829     3.396185
      3.388542     3.380899     3.373256     3.365613     3.357969     3.350326     3.342683     3.335040     3.327396     3.319753
      3.312110     3.304467     3.296824     3.289180     3.281537     3.273894     3.266251     3.258607     3.250964     3.243321
      3.235678     3.228034     3.220391     3.212748     3.205105     3.197462     3.189818     3.182175     3.174532     3.166889
      3.159245     3.151602     3.143959     3.136316     3.128673     3.121029     3.113386     3.105743     3.098100     3.090456
      3.082813     3.075170     3.067527     3.059884     3.052240     3.044597     3.036954     3.029311     3.021667     3.014024
      3.006381     2.998738     2.991095     2.983451     2.975808     2.968165     2.960522     2.952878     2.945235     2.937592
      2.929949     2.922306     2.914662     2.907019     2.899376     2.891733     2.884089     2.876446     2.868803     2.861160
      2.853517     2.845873     2.838230     2.830587     2.822944     2.815300     2.807657     2.800014     2.792371     2.784728
      2.777084     2.769441     2.761798     2.754155     2.746511     2.738868     2.731225     2.723582     2.715939     2.708295
      2.700652     2.693009     2.685366     2.677722     2.670079     2.662436     2.654793     2.647150     2.639506     2.631863
      2.624220     2.616577     2.608933     2.601290     2.593647     2.586004     2.578361     2.570717     2.563074     2.555431
      2.547788     2.540144     2.532501     2.524858     2.517215     2.509572     2.501928     2.494285     2.486642     2.478999
      2.471355     2.463712     2.456069     2.448426     2.440783     2.433139     2.425496     2.417853     2.410210     2.402566
      2.394923     2.387280     2.379637     2.371994     2.364350     2.356707     2.349064     2.341421     2.333777     2.326134
      2.318491     2.310848     2.303205     2.295561     2.287918     2.280275     2.272632     2.264988     2.257345     2.249702
      2.242059     2.234416     2.226772     2.219129     2.211486     2.203843     2.196199     2.188556     2.180913     2.173270
      2.165627     2.157983     2.150340     2.142697     2.135054     2.127410     2.119767     2.112124     2.104481     2.096838
      2.089194     2.081551     2.073908     2.066265     2.058621     2.050978     2.043335     2.035692     2.028049     2.020405
      2.012762     2.005119     1.997476     1.989833     1.982190     1.974546     1.966903     1.959260     1.951617     1.943974
      1.936331     1.928688     1.921045     1.913402     1.905759     1.898115     1.890472     1.882829     1.875186     1.867543
      1.859900     1.852257     1.844614     1.836971     1.829327     1.821684     1.814041     1.806398     1.798755     1.791112
      1.783469     1.775826     1.768183     1.760540     1.752896     1.745253     1.737610     1.729967     1.722324     1.714681
      1.707038     1.699395     1.691752     1.684108     1.676465     1.668822     1.661179     1.653536     1.645893     1.638250
      1.630607     1.622964     1.615321     1.607677     1.600034     1.592391     1.584748     1.577105     1.569462     1.561819
      1.554176     1.546533     1.538890     1.531246     1.523603     1.515960     1.508317     1.500674     1.493031     1.485388
      1.477745     1.470102     1.462458     1.454815     1.447172     1.439529     1.431886     1.424243     1.416600     1.408957
      1.401314     1.393671     1.386027     1.378384     1.370741     1.363098     1.355455     1.347812     1.340169     1.332526
      1.324883     1.317240     1.309596     1.301953     1.294310     1.286667     1.279024     1.271381     1.263738     1.256095
      1.248452     1.240808     1.233165     1.225522     1.217879     1.210236     1.202593     1.194950     1.187307     1.179664
      1.172021     1.164377     1.156734     1.149091     1.141448     1.133805     1.126162     1.118519     1.110876     1.103233
      1.095590     1.087946     1.080303     1.072660     1.065017     1.057374     1.049731     1.042088     1.034445     1.026802
      1.019158     1.011515     1.003872     0.996229     0.988586     0.980943     0.973300     0.965657     0.958014     0.950371
      0.942727     0.935084     0.927441     0.919798     0.912155     0.904512     0.896869     0.889226     0.881583     0.873940
      0.866296     0.858653     0.851010     0.843367     0.835724     0.828081     0.820438     0.812795     0.805152     0.797508
      0.789865     0.782222     0.774579     0.766936     0.759293     0.751650     0.744007     0.736364     0.728721     0.721077
      0.713434     0.705791     0.698148     0.690505     0.682862     0.675219     0.667576     0.659933     0.652290     0.644646
      0.637003     0.629360     0.621717     0.614074     0.606431     0.598788     0.591145     0.583502     0.575858     0.568215
      0.560572     0.552929     0.545286     0.537643     0.530000     0.522357     0.514714     0.507071     0.499427     0.491784
      0.484141     0.476498     0.468855     0.461212     0.453569     0.445925     0.438282     0.430639     0.422996     0.415353
      0.407710     0.400067     0.392424     0.384780     0.377137     0.369494     0.361851     0.354208     0.346565     0.338922
      0.331278     0.323635     0.315992     0.308349     0.300706     0.293063     0.285420     0.277777     0.270133     0.262490
      0.254847     0.247204     0.239561     0.231918     0.224275     0.216631     0.208988     0.201345
 NY phased data points follow
  -1.52263E+01 -1.46792E+01 -1.43280E+01 -1.26251E+01 -1.17194E+01 -1.27865E+01 -1.00538E+01 -9.11579E+00 -7.95119E+00 -7.50251E+00
  -1.16858E+01 -1.03397E+01 -9.61182E+00 -9.17214E+00 -1.41055E+01 -1.35222E+01 -1.23458E+01 -1.36608E+01 -1.45506E+01 -1.24129E+01
  -1.12686E+01 -1.31896E+01 -1.29657E+01 -1.23541E+01 -1.23170E+01 -1.01565E+01 -1.01776E+01 -8.29443E+00 -9.44114E+00 -9.23997E+00
  -8.13757E+00 -1.08201E+01 -6.68972E+00 -1.00455E+01 -6.98649E+00 -1.21019E+01 -6.77226E+00 -8.51832E+00 -9.89016E+00 -1.01018E+01
  -9.03195E+00 -1.01870E+01 -7.84910E+00 -7.66289E+00 -4.93315E+00 -5.88682E+00 -7.14429E+00 -6.93120E+00 -5.38341E+00 -7.03481E+00
  -7.72006E+00 -1.00481E+01 -7.39121E+00 -6.76369E+00 -7.71809E+00 -7.09539E+00 -5.56411E+00 -8.08311E+00 -6.45031E+00 -7.94394E+00
  -6.08572E+00 -5.26337E+00 -5.66434E+00 -6.81245E+00 -6.03377E+00 -5.72009E+00 -7.82037E+00 -8.95944E+00 -7.32057E+00 -6.56649E+00
  -6.63625E+00 -7.62077E+00 -8.20965E+00 -4.44540E+00 -6.23543E+00 -5.42933E+00 -4.43572E+00 -5.28200E+00 -6.31288E+00 -5.98004E+00
  -6.68765E+00 -6.14796E+00 -6.79281E+00 -4.69494E+00 -5.44821E+00 -5.26570E+00 -4.26568E+00 -5.88475E+00 -3.52606E+00 -4.21708E+00
  -2.45748E+00 -3.86248E+00 -5.22094E+00 -3.82263E+00 -2.30013E+00 -3.99819E+00 -3.57787E+00 -3.91802E+00 -3.51198E+00 -2.66434E+00
  -5.59037E-02  3.63219E+00  3.84351E+00  2.90229E+00  2.85188E+00 -1.63530E-01  2.39770E+00 -1.57837E+00 -1.89382E+00 -4.76363E+00
  -7.16397E+00 -2.46017E+00 -4.28885E+00 -4.85771E+00 -2.68549E+00 -4.91270E+00 -2.30356E+00 -1.85185E+00 -2.44133E+00 -9.56253E-01
  -3.36685E+00 -2.03544E+00  1.17005E+00 -1.84096E-01  2.88338E+00  6.17438E+00  8.91723E+00  6.28306E+00  6.81688E+00  5.12252E+00
   3.17100E+00 -6.28326E-02  1.22036E+00 -5.38203E+00 -3.66764E+00 -3.41719E+00 -3.30997E+00 -2.59412E+00 -4.07668E+00 -1.74587E+00
  -2.72932E+00 -1.81767E-01 -2.91833E+00 -1.18318E+00 -3.21791E+00 -2.62533E+00 -1.44625E+00  9.11285E-02 -2.23055E+00 -3.84211E+00
  -1.07865E+00 -3.16041E-04 -7.18832E-01 -1.30697E+00 -1.64297E+00 -4.27732E-01 -4.25996E-02 -2.56388E+00 -8.96715E-01 -1.34166E+00
  -2.82938E+00 -4.76443E+00 -4.06578E+00 -1.60446E+00 -3.45538E+00 -4.30031E+00 -1.26503E+00 -1.66509E+00 -5.07789E+00 -3.25461E+00
  -2.62704E+00 -4.02353E+00 -5.76158E+00 -3.65742E+00 -7.51949E+00 -5.60900E+00 -3.76051E+00 -4.50090E+00 -5.09774E+00 -3.47231E+00
  -3.33474E+00 -3.44289E+00 -3.36409E+00 -1.57613E+00 -3.15260E+00  7.49510E-02 -1.95030E+00 -1.15207E+00 -1.04060E+00 -1.28692E+00
  -1.70186E+00 -1.96961E+00 -2.32103E+00 -3.43276E-01 -3.32371E+00 -4.64503E-01 -3.31551E+00 -2.58404E+00 -3.04428E-01 -3.21351E+00
  -1.26969E+00 -3.74982E-01  3.47436E+00 -1.41076E+00  1.58252E+00  2.12709E-01  1.06243E+00  2.14285E+00 -5.66241E-01 -4.22466E-01
   7.96881E-01  1.31725E+00 -3.57517E-01  2.32909E+00  4.86812E+00  2.66950E+00  4.44019E+00  1.45092E-01  2.77682E+00 -8.65894E-01
  -3.41255E-03 -8.94159E-01 -2.13849E+00  6.25895E-01 -1.08306E+00  5.14866E-01  1.81895E+00  4.69509E+00  3.27175E+00  6.71504E+00
   4.09588E+00  2.60946E+00  3.92365E-01  1.00855E+00  1.22923E+00  5.41143E+00  5.20017E+00  5.75010E+00  3.81499E-01  1.62350E+00
   1.73638E+00  1.42599E+00 -1.68774E-01  3.07194E+00 -1.37011E-01  6.42466E-01  1.37256E+00  3.70476E+00  2.93237E+00  6.74372E+00
   6.99518E+00  5.67881E+00  6.52075E+00  7.03233E+00  9.32989E+00  1.33981E+01  1.70736E+01  2.12784E+01  2.61017E+01  3.05889E+01
   3.15573E+01  3.27571E+01  2.19858E+01  2.53822E+01  1.83907E+01  1.38497E+01  9.42791E+00  7.27647E+00  4.82777E+00  8.52888E-01
   9.23161E-01  3.79278E+00  3.49631E+00  3.84569E+00  5.55048E+00  4.91887E+00  2.66221E+00  3.60864E+00  4.70353E+00  5.42908E+00
   3.77610E+00  3.67492E+00  3.86659E+00  5.57470E+00  6.48010E+00  4.00524E+00  4.60046E+00  3.17253E+00  4.50941E+00  2.83599E+00
   2.46208E+00  2.96905E-01  4.63659E+00  5.41399E+00  3.56140E+00  3.82878E+00  1.59507E+00  1.20228E+00  4.58629E+00  2.74869E+00
   2.86862E+00  4.39393E+00  4.75684E+00  3.67142E+00  3.38814E+00  4.87556E+00  5.25783E+00  2.43944E+00  4.81863E+00  6.80931E+00
   4.80907E+00  5.50670E+00  3.17223E+00  7.66474E+00  5.03626E+00  6.65104E+00  6.61532E+00  5.36577E+00  7.27604E+00  1.93124E+00
   7.42572E+00  5.85161E+00  7.47595E+00  5.10742E+00  2.15181E+00  1.10304E+00  1.15988E+00  2.75870E+00  2.28218E+00  2.45523E+00
   2.58165E+00  4.28726E-01  3.03915E+00  3.93368E+00  1.48966E+00  2.80682E+00  6.63447E+00  5.94668E+00  7.43341E+00  7.88371E+00
   7.17475E+00  2.81625E+00  4.78056E+00  8.15195E+00  7.83563E+00  7.42527E+00  8.43639E+00  8.08656E+00  8.03170E+00  6.48232E+00
   8.32916E+00  6.38608E+00  7.46319E+00  6.53688E+00  5.57306E+00  5.46712E+00  4.05893E+00  6.12678E+00  2.44302E+00  6.18931E+00
   2.08826E+00  3.92926E+00  4.97555E+00  3.12198E+00  1.83079E+00  5.43687E+00  7.85738E+00  4.54207E+00  5.05390E+00  4.71274E+00
   5.68556E+00  4.60718E+00  3.66519E+00  4.30608E+00  2.24410E+00  5.81386E+00  5.62823E+00  5.20734E+00  4.66942E+00  4.73482E+00
   6.04763E+00  2.28259E+00  5.03446E+00  6.23533E+00  3.46565E+00  5.87982E+00  2.04411E+00  4.01257E+00  3.50639E+00  5.04700E+00
   1.96495E+00  2.82924E+00  1.90452E-01  2.94817E+00  4.06886E+00  5.48173E+00  2.31875E+00  3.06752E+00  2.12495E+00  2.36930E+00
   4.51024E+00  6.21614E+00  3.62167E+00  3.68076E+00  6.29801E+00  3.50268E+00  4.42487E+00  5.51254E+00  3.85637E+00  5.57161E+00
   8.12975E+00  7.60395E+00  4.93244E+00  5.73162E+00  8.65162E+00  3.06495E+00  5.84049E+00  4.86972E+00  5.20433E+00  2.54156E+00
   5.61055E+00  6.31819E+00  3.85885E+00 -1.32963E+00  4.19323E+00  4.82486E+00  3.96071E+00  3.37903E+00  3.74195E+00  4.16023E+00
   2.96176E+00  3.59042E+00  1.23764E+00  9.23143E-01  2.22899E+00  5.22099E+00  3.50649E+00  2.24904E+00  1.71221E+00  4.06796E+00
   4.05808E+00  3.84594E+00  4.89814E+00  2.38363E+00  4.46230E-01  5.51452E+00  1.17115E+00  3.18628E+00  2.69737E+00 -2.10172E+00
   7.15424E-01  2.70621E+00  3.61241E+00  4.05164E+00  1.84886E+00  2.19131E+00  1.35131E+00  3.03279E+00  4.18780E+00  8.50720E-01
   2.78293E+00  1.77985E+00  2.63210E-02  4.82658E+00  3.64236E+00  1.01209E+00  2.69260E+00  2.73061E+00  4.09959E+00  2.29141E+00
   3.49980E+00  2.51233E-01  3.87149E+00  4.98177E-01  2.38477E+00  3.11462E+00  3.05212E+00  3.13393E+00  1.45924E+00  2.78157E+00
   2.29390E+00  4.68619E+00  3.00671E+00  9.72267E-01  6.19307E-01  3.22713E+00  8.52851E-01 -5.85226E-01  5.80194E+00  2.39583E+00
   4.48047E+00  3.80858E+00  3.30341E+00  3.05364E+00  3.96538E+00  2.45045E+00  1.73898E+00  2.11045E+00
 NY points of the fit to the data follow
  -1.19821E+01 -1.20145E+01 -1.18726E+01 -1.15600E+01 -1.11213E+01 -1.05920E+01 -1.00189E+01 -9.51457E+00 -9.21020E+00 -9.16323E+00
  -9.32211E+00 -9.60131E+00 -9.97778E+00 -1.04212E+01 -1.08395E+01 -1.11248E+01 -1.12077E+01 -1.11107E+01 -1.09125E+01 -1.06518E+01
  -1.03670E+01 -1.01287E+01 -9.97217E+00 -9.87647E+00 -9.85197E+00 -9.88247E+00 -9.86077E+00 -9.66301E+00 -9.26588E+00 -8.74749E+00
  -8.20555E+00 -7.71837E+00 -7.37378E+00 -7.27714E+00 -7.48051E+00 -7.92222E+00 -8.47993E+00 -9.00521E+00 -9.40623E+00 -9.63069E+00
  -9.59982E+00 -9.30027E+00 -8.80663E+00 -8.21928E+00 -7.62735E+00 -7.11720E+00 -6.79813E+00 -6.73860E+00 -6.90544E+00 -7.20590E+00
  -7.56742E+00 -7.95178E+00 -8.29580E+00 -8.50769E+00 -8.50931E+00 -8.30615E+00 -7.99419E+00 -7.67299E+00 -7.40235E+00 -7.21299E+00
  -7.11163E+00 -7.08925E+00 -7.10944E+00 -7.14519E+00 -7.17563E+00 -7.17684E+00 -7.12969E+00 -7.03212E+00 -6.88163E+00 -6.67367E+00
  -6.44493E+00 -6.23083E+00 -6.04999E+00 -5.91388E+00 -5.83676E+00 -5.84020E+00 -5.92953E+00 -6.06403E+00 -6.18940E+00 -6.23687E+00
  -6.15112E+00 -5.96190E+00 -5.69558E+00 -5.36398E+00 -5.02121E+00 -4.76943E+00 -4.68834E+00 -4.78427E+00 -4.98403E+00 -5.20740E+00
  -5.45097E+00 -5.70572E+00 -5.90385E+00 -5.98636E+00 -5.92885E+00 -5.70284E+00 -5.11850E+00 -4.12227E+00 -2.81659E+00 -1.26788E+00
   4.29463E-01  2.00402E+00  3.03527E+00  3.25903E+00  2.76241E+00  1.84580E+00  6.57467E-01 -7.58043E-01 -2.21563E+00 -3.40954E+00
  -4.10520E+00 -4.34077E+00 -4.40521E+00 -4.44812E+00 -4.47428E+00 -4.48257E+00 -4.47286E+00 -4.44721E+00 -4.37729E+00 -4.08966E+00
  -3.26140E+00 -1.93460E+00 -2.31579E-01  1.77298E+00  3.90230E+00  5.72233E+00  6.74002E+00  6.75623E+00  5.97859E+00  4.74446E+00
   3.13951E+00  1.26913E+00 -5.47113E-01 -1.93309E+00 -2.67871E+00 -2.93093E+00 -3.03337E+00 -3.06571E+00 -3.02887E+00 -2.93537E+00
  -2.80892E+00 -2.67667E+00 -2.56630E+00 -2.49816E+00 -2.47379E+00 -2.48821E+00 -2.52585E+00 -2.56669E+00 -2.60039E+00 -2.62351E+00
  -2.63733E+00 -2.64240E+00 -2.63281E+00 -2.60874E+00 -2.58970E+00 -2.59879E+00 -2.63804E+00 -2.70466E+00 -2.78099E+00 -2.84615E+00
  -2.88180E+00 -2.86271E+00 -2.78980E+00 -2.70247E+00 -2.64285E+00 -2.62275E+00 -2.63565E+00 -2.67621E+00 -2.76022E+00 -2.90768E+00
  -3.09797E+00 -3.26650E+00 -3.38153E+00 -3.44659E+00 -3.48767E+00 -3.50492E+00 -3.46757E+00 -3.38327E+00 -3.29271E+00 -3.21768E+00
  -3.14271E+00 -3.05229E+00 -2.94059E+00 -2.82813E+00 -2.70572E+00 -2.50566E+00 -2.17569E+00 -1.75252E+00 -1.31693E+00 -9.46556E-01
  -6.58750E-01 -4.45499E-01 -3.20122E-01 -2.88783E-01 -3.33510E-01 -4.14931E-01 -4.70480E-01 -4.27017E-01 -2.59984E-01  1.63642E-02
   3.44861E-01  6.61687E-01  9.09716E-01  9.94853E-01  8.67834E-01  5.35200E-01  3.45538E-02 -5.38741E-01 -1.03240E+00 -1.25949E+00
  -1.13868E+00 -6.92700E-01  1.16006E-02  8.56435E-01  1.62363E+00  2.01855E+00  1.87731E+00  1.27891E+00  4.30834E-01 -5.00562E-01
  -1.35715E+00 -1.90094E+00 -1.91601E+00 -1.38821E+00 -5.34084E-01  3.77221E-01  1.21965E+00  1.91986E+00  2.37233E+00  2.52711E+00
   2.47090E+00  2.37433E+00  2.35840E+00  2.42745E+00  2.55187E+00  2.71611E+00  2.85382E+00  2.91336E+00  2.88004E+00  2.78387E+00
   2.67772E+00  2.62670E+00  2.67436E+00  2.82596E+00  3.05077E+00  3.30424E+00  3.56156E+00  3.80790E+00  4.05110E+00  4.36076E+00
   4.77458E+00  5.30464E+00  6.03287E+00  7.36217E+00  9.91374E+00  1.34128E+01  1.74890E+01  2.19698E+01  2.64576E+01  2.99109E+01
   3.12042E+01  3.00240E+01  2.70684E+01  2.32236E+01  1.86934E+01  1.37298E+01  9.13442E+00  5.81165E+00  4.16058E+00  3.67143E+00
   3.46541E+00  3.34479E+00  3.29203E+00  3.26821E+00  3.24585E+00  3.21563E+00  3.16934E+00  3.10312E+00  3.01786E+00  2.92366E+00
   2.83694E+00  2.77355E+00  2.73790E+00  2.72433E+00  2.72720E+00  2.74326E+00  2.76940E+00  2.80269E+00  2.84238E+00  2.89042E+00
   2.94965E+00  3.02027E+00  3.10070E+00  3.18996E+00  3.28764E+00  3.39198E+00  3.50095E+00  3.61358E+00  3.72940E+00  3.84781E+00
   3.96717E+00  4.08413E+00  4.19526E+00  4.29764E+00  4.38845E+00  4.46531E+00  4.52649E+00  4.57134E+00  4.60042E+00  4.61481E+00
   4.61624E+00  4.60709E+00  4.59021E+00  4.56903E+00  4.54776E+00  4.53156E+00  4.52694E+00  4.54293E+00  4.59447E+00  4.71324E+00
   4.93128E+00  5.17686E+00  5.37516E+00  5.48323E+00  5.44205E+00  5.16539E+00  4.60642E+00  3.83458E+00  3.08140E+00  2.53743E+00
   2.24197E+00  2.24200E+00  2.62575E+00  3.39076E+00  4.36510E+00  5.27543E+00  5.93152E+00  6.35613E+00  6.58869E+00  6.61654E+00
   6.46410E+00  6.22089E+00  6.00991E+00  5.90832E+00  5.88028E+00  5.87756E+00  5.88700E+00  5.90202E+00  5.91820E+00  5.93245E+00
   5.94241E+00  5.94617E+00  5.94216E+00  5.92911E+00  5.90606E+00  5.87236E+00  5.82766E+00  5.77187E+00  5.70520E+00  5.62813E+00
   5.54144E+00  5.44615E+00  5.34347E+00  5.23474E+00  5.12140E+00  5.00492E+00  4.88685E+00  4.76866E+00  4.65176E+00  4.53741E+00
   4.42676E+00  4.32084E+00  4.22054E+00  4.12660E+00  4.03961E+00  3.96001E+00  3.88817E+00  3.82434E+00  3.76877E+00  3.72160E+00
   3.68295E+00  3.65292E+00  3.63166E+00  3.61934E+00  3.61619E+00  3.62245E+00  3.63839E+00  3.66432E+00  3.70060E+00  3.74757E+00
   3.80551E+00  3.87459E+00  3.95483E+00  4.04606E+00  4.14783E+00  4.25940E+00  4.37962E+00  4.50689E+00  4.63920E+00  4.77415E+00
   4.90892E+00  5.04037E+00  5.16515E+00  5.27975E+00  5.38076E+00  5.46496E+00  5.52952E+00  5.57209E+00  5.59098E+00  5.58521E+00
   5.55464E+00  5.49994E+00  5.42256E+00  5.32462E+00  5.20881E+00  5.07826E+00  4.93641E+00  4.78677E+00  4.63282E+00  4.47781E+00
   4.32467E+00  4.17596E+00  4.03379E+00  3.89978E+00  3.77506E+00  3.66034E+00  3.55590E+00  3.46173E+00  3.37754E+00  3.30282E+00
   3.23691E+00  3.17907E+00  3.12851E+00  3.08446E+00  3.04617E+00  3.01293E+00  2.98406E+00  2.95897E+00  2.93715E+00  2.91813E+00
   2.90153E+00  2.88700E+00  2.87423E+00  2.86299E+00  2.85305E+00  2.84426E+00  2.83647E+00  2.82954E+00  2.82335E+00  2.81781E+00
   2.81286E+00  2.80844E+00  2.80449E+00  2.80094E+00  2.79776E+00  2.79490E+00  2.79236E+00  2.79009E+00  2.78807E+00  2.78627E+00
   2.78467E+00  2.78325E+00  2.78202E+00  2.78095E+00  2.78003E+00  2.77923E+00  2.77856E+00  2.77801E+00  2.77758E+00  2.77725E+00
   2.77701E+00  2.77686E+00  2.77680E+00  2.77683E+00  2.77694E+00  2.77713E+00  2.77739E+00  2.77770E+00  2.77809E+00  2.77856E+00
   2.77909E+00  2.77967E+00  2.78032E+00  2.78102E+00  2.78179E+00  2.78263E+00  2.78353E+00  2.78449E+00  2.78551E+00  2.78659E+00
   2.78776E+00  2.78900E+00  2.79031E+00  2.79170E+00  2.79317E+00  2.79474E+00  2.79643E+00  2.79822E+00
 NY background values follow
    -1.245E+01   -1.238E+01   -1.231E+01   -1.225E+01   -1.218E+01   -1.211E+01   -1.204E+01   -1.198E+01   -1.191E+01   -1.184E+01
    -1.177E+01   -1.171E+01   -1.164E+01   -1.157E+01   -1.150E+01   -1.144E+01   -1.137E+01   -1.130E+01   -1.123E+01   -1.117E+01
    -1.110E+01   -1.103E+01   -1.096E+01   -1.090E+01   -1.083E+01   -1.076E+01   -1.069E+01   -1.063E+01   -1.056E+01   -1.049E+01
    -1.042E+01   -1.036E+01   -1.029E+01   -1.022E+01   -1.015E+01   -1.009E+01   -1.002E+01   -9.953E+00   -9.886E+00   -9.819E+00
    -9.752E+00   -9.685E+00   -9.618E+00   -9.551E+00   -9.485E+00   -9.418E+00   -9.351E+00   -9.285E+00   -9.218E+00   -9.152E+00
    -9.086E+00   -9.020E+00   -8.953E+00   -8.887E+00   -8.821E+00   -8.755E+00   -8.690E+00   -8.624E+00   -8.558E+00   -8.493E+00
    -8.427E+00   -8.362E+00   -8.297E+00   -8.232E+00   -8.167E+00   -8.102E+00   -8.037E+00   -7.972E+00   -7.908E+00   -7.843E+00
    -7.779E+00   -7.715E+00   -7.650E+00   -7.586E+00   -7.523E+00   -7.459E+00   -7.395E+00   -7.332E+00   -7.269E+00   -7.205E+00
    -7.142E+00   -7.079E+00   -7.017E+00   -6.954E+00   -6.892E+00   -6.829E+00   -6.767E+00   -6.705E+00   -6.644E+00   -6.582E+00
    -6.520E+00   -6.459E+00   -6.398E+00   -6.337E+00   -6.276E+00   -6.216E+00   -6.155E+00   -6.095E+00   -6.035E+00   -5.975E+00
    -5.915E+00   -5.856E+00   -5.796E+00   -5.737E+00   -5.678E+00   -5.619E+00   -5.560E+00   -5.502E+00   -5.444E+00   -5.385E+00
    -5.328E+00   -5.270E+00   -5.212E+00   -5.155E+00   -5.098E+00   -5.041E+00   -4.984E+00   -4.927E+00   -4.871E+00   -4.815E+00
    -4.759E+00   -4.703E+00   -4.647E+00   -4.592E+00   -4.537E+00   -4.482E+00   -4.427E+00   -4.373E+00   -4.318E+00   -4.264E+00
    -4.210E+00   -4.156E+00   -4.103E+00   -4.049E+00   -3.996E+00   -3.943E+00   -3.891E+00   -3.838E+00   -3.786E+00   -3.734E+00
    -3.682E+00   -3.630E+00   -3.579E+00   -3.528E+00   -3.477E+00   -3.426E+00   -3.375E+00   -3.325E+00   -3.275E+00   -3.225E+00
    -3.175E+00   -3.126E+00   -3.076E+00   -3.027E+00   -2.978E+00   -2.930E+00   -2.881E+00   -2.833E+00   -2.785E+00   -2.737E+00
    -2.689E+00   -2.642E+00   -2.595E+00   -2.548E+00   -2.501E+00   -2.455E+00   -2.408E+00   -2.362E+00   -2.316E+00   -2.270E+00
    -2.225E+00   -2.180E+00   -2.134E+00   -2.090E+00   -2.045E+00   -2.000E+00   -1.956E+00   -1.912E+00   -1.868E+00   -1.825E+00
    -1.781E+00   -1.738E+00   -1.695E+00   -1.652E+00   -1.610E+00   -1.567E+00   -1.525E+00   -1.483E+00   -1.441E+00   -1.400E+00
    -1.358E+00   -1.317E+00   -1.276E+00   -1.236E+00   -1.195E+00   -1.155E+00   -1.115E+00   -1.075E+00   -1.036E+00   -9.962E-01
    -9.571E-01   -9.181E-01   -8.794E-01   -8.409E-01   -8.026E-01   -7.645E-01   -7.267E-01   -6.891E-01   -6.517E-01   -6.145E-01
    -5.776E-01   -5.409E-01   -5.044E-01   -4.681E-01   -4.320E-01   -3.962E-01   -3.606E-01   -3.253E-01   -2.901E-01   -2.552E-01
    -2.206E-01   -1.861E-01   -1.519E-01   -1.179E-01   -8.417E-02   -5.065E-02   -1.737E-02    1.568E-02    4.850E-02    8.108E-02
     1.134E-01    1.456E-01    1.774E-01    2.091E-01    2.405E-01    2.717E-01    3.026E-01    3.334E-01    3.639E-01    3.941E-01
     4.242E-01    4.539E-01    4.835E-01    5.128E-01    5.419E-01    5.708E-01    5.995E-01    6.279E-01    6.561E-01    6.840E-01
     7.117E-01    7.392E-01    7.665E-01    7.935E-01    8.203E-01    8.469E-01    8.732E-01    8.993E-01    9.252E-01    9.509E-01
     9.763E-01    1.002E+00    1.026E+00    1.051E+00    1.076E+00    1.100E+00    1.124E+00    1.148E+00    1.172E+00    1.195E+00
     1.218E+00    1.241E+00    1.264E+00    1.286E+00    1.308E+00    1.330E+00    1.352E+00    1.374E+00    1.395E+00    1.416E+00
     1.437E+00    1.458E+00    1.478E+00    1.499E+00    1.519E+00    1.539E+00    1.558E+00    1.578E+00    1.597E+00    1.616E+00
     1.635E+00    1.653E+00    1.672E+00    1.690E+00    1.708E+00    1.726E+00    1.743E+00    1.761E+00    1.778E+00    1.795E+00
     1.811E+00    1.828E+00    1.844E+00    1.861E+00    1.877E+00    1.892E+00    1.908E+00    1.923E+00    1.939E+00    1.954E+00
     1.968E+00    1.983E+00    1.998E+00    2.012E+00    2.026E+00    2.040E+00    2.054E+00    2.067E+00    2.080E+00    2.094E+00
     2.107E+00    2.119E+00    2.132E+00    2.145E+00    2.157E+00    2.169E+00    2.181E+00    2.193E+00    2.205E+00    2.216E+00
     2.227E+00    2.239E+00    2.250E+00    2.260E+00    2.271E+00    2.282E+00    2.292E+00    2.302E+00    2.312E+00    2.322E+00
     2.332E+00    2.342E+00    2.351E+00    2.360E+00    2.370E+00    2.379E+00    2.388E+00    2.396E+00    2.405E+00    2.413E+00
     2.422E+00    2.430E+00    2.438E+00    2.446E+00    2.454E+00    2.462E+00    2.469E+00    2.477E+00    2.484E+00    2.491E+00
     2.498E+00    2.505E+00    2.512E+00    2.519E+00    2.525E+00    2.532E+00    2.538E+00    2.545E+00    2.551E+00    2.557E+00
     2.563E+00    2.569E+00    2.574E+00    2.580E+00    2.586E+00    2.591E+00    2.597E+00    2.602E+00    2.607E+00    2.612E+00
     2.617E+00    2.622E+00    2.627E+00    2.631E+00    2.636E+00    2.641E+00    2.645E+00    2.649E+00    2.654E+00    2.658E+00
     2.662E+00    2.666E+00    2.670E+00    2.674E+00    2.678E+00    2.681E+00    2.685E+00    2.689E+00    2.692E+00    2.696E+00
     2.699E+00    2.703E+00    2.706E+00    2.709E+00    2.712E+00    2.715E+00    2.718E+00    2.722E+00    2.724E+00    2.727E+00
     2.730E+00    2.733E+00    2.736E+00    2.738E+00    2.741E+00    2.744E+00    2.746E+00    2.749E+00    2.751E+00    2.754E+00
     2.756E+00    2.758E+00    2.761E+00    2.763E+00    2.765E+00    2.767E+00    2.770E+00    2.772E+00    2.774E+00    2.776E+00
     2.778E+00    2.780E+00    2.782E+00    2.784E+00    2.786E+00    2.788E+00    2.789E+00    2.791E+00    2.793E+00    2.795E+00
     2.797E+00    2.798E+00    2.800E+00    2.802E+00    2.803E+00    2.805E+00    2.807E+00    2.808E+00    2.810E+00    2.811E+00
     2.813E+00    2.815E+00    2.816E+00    2.818E+00    2.819E+00    2.821E+00    2.822E+00    2.824E+00    2.825E+00    2.827E+00
     2.828E+00    2.830E+00    2.831E+00    2.833E+00    2.834E+00    2.835E+00    2.837E+00    2.838E+00    2.840E+00    2.841E+00
     2.843E+00    2.844E+00    2.845E+00    2.847E+00    2.848E+00    2.850E+00    2.851E+00    2.852E+00    2.854E+00    2.855E+00
     2.856E+00    2.858E+00    2.859E+00    2.860E+00    2.862E+00    2.863E+00    2.865E+00    2.866E+00    2.867E+00    2.869E+00
     2.870E+00    2.871E+00    2.873E+00    2.874E+00    2.875E+00    2.877E+00    2.878E+00    2.879E+00
 Ala      Conc. = 1.84E+02
