 LCModel (Version 6.3-1L) Copyright: S.W. Provencher.          Ref.: Magn. Reson. Med. 30:672-679 (1993).                
 Slice#1 Row#1 Col#3  K_02_press_1_raw_act
 36 lines in following concentration table = NCONC+1
    Conc.  %SD /Cr+PCr  Metabolite                                         
  256.226  21%   2.502 Ala                                                 
    7.630 150% 7.5E-02 Asp                                                 
    0.000 999%   0.000 Cr                                                  
  102.389  24%   1.000 PCr                                                 
    5.971 115% 5.8E-02 GABA                                                
    5.453 126% 5.3E-02 Glc                                                 
   20.617 478%   0.201 Gln                                                 
   80.899 134%   0.790 Glu                                                 
    0.000 999%   0.000 GPC                                                 
   28.304  32%   0.276 PCh                                                 
   45.500  75%   0.444 GSH                                                 
    0.443 999% 4.3E-03 Ins                                                 
  189.591  30%   1.852 Lac                                                 
   10.785 235%   0.105 NAA                                                 
    0.000 999%   0.000 NAAG                                                
    2.290  99% 2.2E-02 Scyllo                                              
   10.420 109%   0.102 Tau                                                 
   64.005  46%   0.625 -CrCH2                                              
   28.304  32%   0.276 GPC+PCh                                             
   10.785 235%   0.105 NAA+NAAG                                            
  102.389  24%   1.000 Cr+PCr                                              
  101.516 142%   0.991 Glu+Gln                                             
 1.29E+03  16%  12.588 Lip13a                                              
    0.000 999%   0.000 Lip13b                                              
  336.682  18%   3.288 Lip09                                               
    0.000 999%   0.000 MM09                                                
  196.322  19%   1.917 Lip20                                               
    0.000 999%   0.000 MM20                                                
    0.000 999%   0.000 MM12                                                
   61.270 128%   0.598 MM14                                                
    0.000 999%   0.000 MM17                                                
 1.29E+03  16%  12.588 Lip13a+Lip13b                                       
 1.35E+03  14%  13.187 MM14+Lip13a+Lip13b+MM12                             
  336.682  18%   3.288 MM09+Lip09                                          
  196.322  19%   1.917 MM20+Lip20                                          
   6 lines in following misc. output table
  FWHM = 0.054 ppm    S/N =   2                                            
  Data shift = 0.015 ppm                                                   
  Ph:  29 deg     -74.5 deg/ppm                                            
  alphaB,S = 8.5E+01,   5.1E+01                                            
   14 spline knots.   Ns = 5(1)                                            
   2 inflections.     1 extrema                                            
  498 points on ppm-axis = NY
      4.000000     3.992357     3.984714     3.977070     3.969427     3.961784     3.954141     3.946497     3.938854     3.931211
      3.923568     3.915925     3.908281     3.900638     3.892995     3.885352     3.877708     3.870065     3.862422     3.854779
      3.847136     3.839492     3.831849     3.824206     3.816563     3.808919     3.801276     3.793633     3.785990     3.778347
      3.770703     3.763060     3.755417     3.747774     3.740130     3.732487     3.724844     3.717201     3.709558     3.701914
      3.694271     3.686628     3.678985     3.671341     3.663698     3.656055     3.648412     3.640769     3.633125     3.625482
      3.617839     3.610196     3.602552     3.594909     3.587266     3.579623     3.571980     3.564336     3.556693     3.549050
      3.541407     3.533763     3.526120     3.518477     3.510834     3.503191     3.495547     3.487904     3.480261     3.472618
      3.464974     3.457331     3.449688     3.442045     3.434402     3.426758     3.419115     3.411472     3.403829     3.396185
      3.388542     3.380899     3.373256     3.365613     3.357969     3.350326     3.342683     3.335040     3.327396     3.319753
      3.312110     3.304467     3.296824     3.289180     3.281537     3.273894     3.266251     3.258607     3.250964     3.243321
      3.235678     3.228034     3.220391     3.212748     3.205105     3.197462     3.189818     3.182175     3.174532     3.166889
      3.159245     3.151602     3.143959     3.136316     3.128673     3.121029     3.113386     3.105743     3.098100     3.090456
      3.082813     3.075170     3.067527     3.059884     3.052240     3.044597     3.036954     3.029311     3.021667     3.014024
      3.006381     2.998738     2.991095     2.983451     2.975808     2.968165     2.960522     2.952878     2.945235     2.937592
      2.929949     2.922306     2.914662     2.907019     2.899376     2.891733     2.884089     2.876446     2.868803     2.861160
      2.853517     2.845873     2.838230     2.830587     2.822944     2.815300     2.807657     2.800014     2.792371     2.784728
      2.777084     2.769441     2.761798     2.754155     2.746511     2.738868     2.731225     2.723582     2.715939     2.708295
      2.700652     2.693009     2.685366     2.677722     2.670079     2.662436     2.654793     2.647150     2.639506     2.631863
      2.624220     2.616577     2.608933     2.601290     2.593647     2.586004     2.578361     2.570717     2.563074     2.555431
      2.547788     2.540144     2.532501     2.524858     2.517215     2.509572     2.501928     2.494285     2.486642     2.478999
      2.471355     2.463712     2.456069     2.448426     2.440783     2.433139     2.425496     2.417853     2.410210     2.402566
      2.394923     2.387280     2.379637     2.371994     2.364350     2.356707     2.349064     2.341421     2.333777     2.326134
      2.318491     2.310848     2.303205     2.295561     2.287918     2.280275     2.272632     2.264988     2.257345     2.249702
      2.242059     2.234416     2.226772     2.219129     2.211486     2.203843     2.196199     2.188556     2.180913     2.173270
      2.165627     2.157983     2.150340     2.142697     2.135054     2.127410     2.119767     2.112124     2.104481     2.096838
      2.089194     2.081551     2.073908     2.066265     2.058621     2.050978     2.043335     2.035692     2.028049     2.020405
      2.012762     2.005119     1.997476     1.989833     1.982190     1.974546     1.966903     1.959260     1.951617     1.943974
      1.936331     1.928688     1.921045     1.913402     1.905759     1.898115     1.890472     1.882829     1.875186     1.867543
      1.859900     1.852257     1.844614     1.836971     1.829327     1.821684     1.814041     1.806398     1.798755     1.791112
      1.783469     1.775826     1.768183     1.760540     1.752896     1.745253     1.737610     1.729967     1.722324     1.714681
      1.707038     1.699395     1.691752     1.684108     1.676465     1.668822     1.661179     1.653536     1.645893     1.638250
      1.630607     1.622964     1.615321     1.607677     1.600034     1.592391     1.584748     1.577105     1.569462     1.561819
      1.554176     1.546533     1.538890     1.531246     1.523603     1.515960     1.508317     1.500674     1.493031     1.485388
      1.477745     1.470102     1.462458     1.454815     1.447172     1.439529     1.431886     1.424243     1.416600     1.408957
      1.401314     1.393671     1.386027     1.378384     1.370741     1.363098     1.355455     1.347812     1.340169     1.332526
      1.324883     1.317240     1.309596     1.301953     1.294310     1.286667     1.279024     1.271381     1.263738     1.256095
      1.248452     1.240808     1.233165     1.225522     1.217879     1.210236     1.202593     1.194950     1.187307     1.179664
      1.172021     1.164377     1.156734     1.149091     1.141448     1.133805     1.126162     1.118519     1.110876     1.103233
      1.095590     1.087946     1.080303     1.072660     1.065017     1.057374     1.049731     1.042088     1.034445     1.026802
      1.019158     1.011515     1.003872     0.996229     0.988586     0.980943     0.973300     0.965657     0.958014     0.950371
      0.942727     0.935084     0.927441     0.919798     0.912155     0.904512     0.896869     0.889226     0.881583     0.873940
      0.866296     0.858653     0.851010     0.843367     0.835724     0.828081     0.820438     0.812795     0.805152     0.797508
      0.789865     0.782222     0.774579     0.766936     0.759293     0.751650     0.744007     0.736364     0.728721     0.721077
      0.713434     0.705791     0.698148     0.690505     0.682862     0.675219     0.667576     0.659933     0.652290     0.644646
      0.637003     0.629360     0.621717     0.614074     0.606431     0.598788     0.591145     0.583502     0.575858     0.568215
      0.560572     0.552929     0.545286     0.537643     0.530000     0.522357     0.514714     0.507071     0.499427     0.491784
      0.484141     0.476498     0.468855     0.461212     0.453569     0.445925     0.438282     0.430639     0.422996     0.415353
      0.407710     0.400067     0.392424     0.384780     0.377137     0.369494     0.361851     0.354208     0.346565     0.338922
      0.331278     0.323635     0.315992     0.308349     0.300706     0.293063     0.285420     0.277777     0.270133     0.262490
      0.254847     0.247204     0.239561     0.231918     0.224275     0.216631     0.208988     0.201345
 NY phased data points follow
  -1.51515E+00 -3.90717E+00 -6.18152E+00 -4.19071E+00 -3.84535E+00 -5.02599E+00 -6.22292E+00 -4.77990E+00 -2.77558E+00 -4.16134E+00
  -8.15080E-01 -1.51909E+00 -1.18739E+00 -2.43487E+00 -5.74158E+00 -6.69393E+00 -4.41955E+00  3.66512E-01 -4.27260E+00 -2.77041E+00
  -2.24780E+00 -1.31218E+00  2.87958E-01 -5.93586E+00 -2.26160E+00 -2.47012E+00 -7.39567E-01 -5.05998E+00 -4.92721E-01 -1.72325E+00
  -1.63679E+00 -3.59583E+00 -2.80550E+00 -2.98872E+00 -1.26882E+00 -5.15680E+00 -3.69761E+00 -1.25862E+00 -2.18186E-01  6.03396E-01
  -2.01709E+00 -5.37597E-01 -1.87121E+00 -2.03655E+00  3.17020E+00 -2.13428E+00 -1.12439E+00 -1.59330E+00  1.82094E-01  6.54917E-01
  -4.69625E+00 -7.03620E-01 -2.71909E+00 -2.17753E+00  2.40786E+00 -6.36743E-01 -3.67063E+00 -3.01907E+00 -5.07205E+00 -1.86652E+00
  -2.63955E+00 -2.78065E+00 -2.47863E+00 -6.17081E-01  1.86801E-01 -2.22269E+00 -1.80926E+00 -1.55441E+00 -7.33684E-01 -2.22584E+00
  -3.37576E-02  2.52804E+00 -9.93749E-01  1.27951E+00  8.12471E-02  3.26074E-02 -1.49959E+00 -4.93222E+00 -3.74882E+00 -1.52697E+00
  -5.63359E-01  8.70183E-01  9.11922E-01  4.10138E+00  2.05428E+00 -5.97812E-01 -1.34906E+00 -2.33405E+00  3.54922E-01 -2.05512E+00
   4.70476E-01  1.37998E+00 -1.42765E+00  1.26822E+00  5.23493E-01 -1.83926E+00  4.96012E-01  2.21506E+00 -1.60860E+00 -1.00325E+00
   5.42108E-01  1.42317E+00  3.23118E+00  3.68345E+00  1.15581E+00  1.60176E+00  2.09045E+00  4.46358E+00  1.41288E+00 -3.74639E+00
   2.78057E+00 -5.56636E-03 -6.64309E-01 -3.20997E+00  9.50990E-01  1.11939E+00 -2.14095E+00 -1.48944E+00  2.14766E-01  4.10208E+00
  -3.91596E-01  1.86929E-02 -5.70236E-02  6.32343E-01  2.88628E+00  3.34044E+00  3.00783E+00  5.02958E+00  5.17108E+00  6.41915E+00
   3.48688E+00  1.78927E+00  2.59594E+00  3.37967E+00  1.17055E+00  4.52810E+00  4.67804E-01  4.73599E+00 -1.08892E+00  6.26864E-01
  -5.60575E-01  5.11951E+00  1.10982E+00  5.59239E-01  3.08699E+00  1.44327E+00  1.56049E+00  1.53323E+00  5.53618E+00  2.58626E+00
   3.79544E+00  3.27311E+00  2.42148E+00  2.35970E+00  4.11995E+00  3.07965E+00  2.74035E+00  2.15094E+00 -2.63974E-01  3.75857E+00
   4.53595E+00  2.68669E+00  2.52153E+00  8.87341E-01  3.62277E+00  2.04766E+00  1.03351E+00  3.90236E+00  3.09389E+00  3.20686E+00
   7.48872E-01  2.23463E+00  8.64058E-03  1.48835E+00  8.10546E-01 -1.29849E+00  2.37409E+00  3.41887E+00  1.45444E+00  3.14046E+00
   4.02206E+00  9.51735E-01  3.11367E+00 -2.31659E-01  3.34940E-01  2.98627E+00  4.27149E+00  4.28985E+00  3.25888E+00  1.69734E+00
   2.40507E+00  4.80031E+00  4.60529E-01  2.86065E+00  2.57972E+00  1.42388E+00  2.84526E+00 -1.33265E+00  3.62975E+00  2.47336E+00
   2.16745E+00  2.96991E+00  3.76622E+00  3.88100E+00  3.98722E+00  4.96204E+00  1.25152E+00  3.50166E+00  1.51971E+00 -6.50925E-01
   4.60479E-01  3.81701E+00  6.48296E-01  2.33792E+00  5.09084E+00  1.50373E+00  2.47970E+00  3.33922E+00  3.74434E+00  2.81744E+00
   2.49270E+00 -1.52619E-01 -5.50476E-01  5.05012E+00  1.46716E+00 -2.00985E+00  2.76070E+00  2.49135E-01 -1.76079E+00  4.83832E+00
   4.43825E+00  2.35950E+00  2.50043E+00  1.07785E+00  1.60099E+00  2.16427E+00  2.03644E+00  6.35005E+00  3.44507E+00  1.75990E-01
   1.89381E+00  2.57310E+00  3.06159E+00  1.15963E+00  3.43137E+00  4.73152E+00  5.31606E-01  2.98330E+00  6.59925E+00  2.77187E+00
   4.24384E+00  4.83235E+00  4.36413E+00  4.23441E-01  1.76785E+00  2.46276E+00  1.40992E+00  1.26804E+00  1.85140E+00  2.46811E+00
   7.57402E+00  7.44591E+00  4.06210E+00  8.64206E+00  5.95090E+00  2.91130E+00  3.90417E+00  2.71533E+00  3.78093E+00  5.47925E-01
   5.18849E+00  1.17635E+00  4.19734E+00  4.02044E+00  5.11353E+00  6.77638E+00  4.28498E+00  2.38325E+00  3.78597E+00  4.46201E+00
   2.47204E+00  2.31464E+00  3.32406E+00  5.03330E+00  1.65247E+00  4.36269E+00  3.05795E+00  4.38577E+00  3.79894E+00  6.25197E+00
   4.72892E+00  4.92401E+00  5.05177E+00  6.22963E+00  1.12789E+00  4.05369E+00  3.83824E+00  2.75471E+00  6.87474E+00  5.36719E+00
   7.00190E+00  3.84579E+00  5.39469E+00  7.21329E+00  6.19904E+00  3.36475E+00  3.36621E+00  5.65408E+00  6.14054E+00  5.13106E+00
   2.67391E+00  6.17873E+00  2.57962E+00  5.39085E+00  3.09502E+00  2.60091E+00  4.43867E+00  4.69516E+00  5.91570E+00  6.34696E+00
   4.98900E+00  6.49766E+00  7.26427E+00  7.78151E+00  9.50882E+00  8.74394E+00  5.76543E+00  6.78300E+00  8.11900E+00  4.59593E+00
   2.80811E+00  5.26147E+00  7.84001E+00  4.57109E+00  7.24667E+00  1.09530E+01  1.35791E+01  1.31208E+01  1.35584E+01  1.27130E+01
   1.26228E+01  1.23315E+01  1.39657E+01  1.11202E+01  1.21956E+01  9.29905E+00  8.25853E+00  6.44510E+00  4.10421E+00  4.60661E+00
   6.24081E+00  7.34082E+00  4.91784E+00  8.28912E+00  8.76596E+00  9.74396E+00  5.65807E+00  4.41634E+00  5.90254E+00  1.04233E+00
   4.10118E+00  5.07566E+00  4.51364E+00  7.01746E+00  4.63557E+00  4.46529E+00  6.88685E+00  4.86878E+00  5.52812E+00  3.42332E+00
   4.48120E+00  2.81035E+00  3.02245E+00  2.86897E+00  2.80166E+00  4.81984E+00  3.96131E+00  1.45101E+00  4.30336E+00  6.30786E+00
   2.64652E+00  2.68689E+00  4.33700E+00  2.78660E+00  1.04184E+00  4.36679E+00  4.25148E+00  3.69159E+00  4.55933E+00  4.75988E+00
   4.40852E+00  3.87960E+00  2.21526E+00  4.61169E-02 -8.68133E-02  5.74508E-01  6.18999E+00  4.66165E+00  5.21481E+00  2.80002E+00
   9.16969E-01  4.07309E+00  2.36028E+00  4.74536E+00  3.42516E+00  3.44532E+00  3.81599E+00  5.00479E+00  1.16550E+00  5.44106E+00
   4.59461E+00  2.79994E+00  3.20397E+00  3.54900E+00  4.85923E+00  1.46236E+00  2.96813E+00  4.98012E+00  1.08061E+00  1.58677E+00
   3.53613E+00  4.55225E+00  1.53036E+00  3.67773E+00 -5.90231E-01 -7.66259E-02  2.26474E+00  6.53205E+00  1.08451E+00  2.60763E+00
   1.44826E+00  3.84631E+00  1.97037E+00  3.77169E+00  1.81330E+00  2.61774E+00  1.68748E+00  1.88173E+00  3.65680E+00  5.78442E+00
   1.71278E+00  2.89897E+00  3.30583E+00  2.04821E+00  1.91530E+00  2.65866E+00  2.60051E+00  5.39539E+00  1.46619E+00  1.92924E+00
   2.85398E+00 -4.70166E-01  2.62592E+00  3.72492E-01  6.84504E-01  2.06774E+00  2.81852E+00  2.02327E-01  2.97635E+00  4.98380E+00
   8.53015E-01  3.71025E+00  4.11259E+00  3.32376E-01  1.97614E+00  4.25814E+00  4.40948E+00  4.60269E-01  1.29764E+00  2.03399E+00
  -1.28074E+00  3.23131E+00  5.40301E-01  1.80081E+00  3.53333E+00  4.64588E-01  2.02267E+00  3.23921E+00  1.88273E+00  3.85695E+00
   4.03830E+00 -8.13571E-01  2.00232E+00 -3.74649E-01  2.02009E+00  2.09765E+00  1.89951E+00  1.45415E+00  2.48409E+00  2.22454E+00
   6.96558E-01  2.44600E+00  7.78567E-01  1.71578E+00  3.16708E-01  3.50129E+00  9.74930E-01 -6.35639E-01
 NY points of the fit to the data follow
  -3.14388E+00 -3.09451E+00 -3.02665E+00 -2.96610E+00 -2.92625E+00 -2.83674E+00 -2.66973E+00 -2.44466E+00 -2.19032E+00 -1.95017E+00
  -1.78029E+00 -1.71878E+00 -1.76081E+00 -1.88704E+00 -2.09011E+00 -2.34352E+00 -2.55945E+00 -2.65058E+00 -2.65807E+00 -2.59162E+00
  -2.44107E+00 -2.20712E+00 -1.95355E+00 -1.76120E+00 -1.67609E+00 -1.68292E+00 -1.75597E+00 -1.86062E+00 -1.95613E+00 -1.98218E+00
  -1.92225E+00 -1.80030E+00 -1.61399E+00 -1.39594E+00 -1.25339E+00 -1.22811E+00 -1.28311E+00 -1.35403E+00 -1.46324E+00 -1.63263E+00
  -1.81738E+00 -1.93842E+00 -1.98901E+00 -1.99775E+00 -1.97701E+00 -1.93656E+00 -1.88210E+00 -1.82095E+00 -1.77412E+00 -1.74109E+00
  -1.71194E+00 -1.68194E+00 -1.65128E+00 -1.62152E+00 -1.59272E+00 -1.56666E+00 -1.54458E+00 -1.52560E+00 -1.51005E+00 -1.49478E+00
  -1.47585E+00 -1.45346E+00 -1.42803E+00 -1.40084E+00 -1.37295E+00 -1.34598E+00 -1.32147E+00 -1.29949E+00 -1.27918E+00 -1.25969E+00
  -1.23761E+00 -1.20852E+00 -1.17223E+00 -1.13152E+00 -1.09108E+00 -1.05672E+00 -1.03144E+00 -1.01552E+00 -1.00486E+00 -9.93704E-01
  -9.77194E-01 -9.46644E-01 -8.95545E-01 -8.29715E-01 -7.61491E-01 -7.00564E-01 -6.54692E-01 -6.27784E-01 -6.17550E-01 -6.18245E-01
  -6.25499E-01 -6.35154E-01 -6.39295E-01 -6.26466E-01 -5.94558E-01 -5.47317E-01 -4.82570E-01 -3.83406E-01 -1.63607E-01  2.83916E-01
   9.10544E-01  1.59617E+00  2.21237E+00  2.62193E+00  2.71699E+00  2.48703E+00  2.01902E+00  1.42217E+00  7.92825E-01  2.49567E-01
  -5.71837E-02 -1.22137E-01 -1.14151E-01 -9.00304E-02 -5.87657E-02 -2.35472E-02  1.34755E-02  5.28841E-02  9.67864E-02  1.50968E-01
   2.29659E-01  3.79919E-01  7.48483E-01  1.39521E+00  2.20531E+00  3.02162E+00  3.67909E+00  4.01738E+00  3.95643E+00  3.54641E+00
   2.90832E+00  2.15700E+00  1.39892E+00  7.87147E-01  4.75304E-01  3.62699E-01  3.11317E-01  3.15471E-01  3.76293E-01  4.85660E-01
   6.28238E-01  7.72366E-01  8.80511E-01  9.41701E-01  9.62665E-01  9.56079E-01  9.41049E-01  9.30923E-01  9.32126E-01  9.44243E-01
   9.58157E-01  9.72938E-01  9.90528E-01  1.01208E+00  1.03698E+00  1.06445E+00  1.09315E+00  1.11990E+00  1.14318E+00  1.16322E+00
   1.18081E+00  1.19635E+00  1.21128E+00  1.22829E+00  1.24753E+00  1.26779E+00  1.28776E+00  1.30645E+00  1.32393E+00  1.34050E+00
   1.35551E+00  1.36768E+00  1.37637E+00  1.38204E+00  1.38656E+00  1.39115E+00  1.39648E+00  1.40336E+00  1.41251E+00  1.42493E+00
   1.43883E+00  1.45224E+00  1.46486E+00  1.47853E+00  1.49933E+00  1.53690E+00  1.59809E+00  1.68159E+00  1.77525E+00  1.86192E+00
   1.92525E+00  1.95033E+00  1.92553E+00  1.85753E+00  1.77531E+00  1.71098E+00  1.69089E+00  1.73203E+00  1.83324E+00  1.97299E+00
   2.12068E+00  2.25268E+00  2.35175E+00  2.40439E+00  2.40442E+00  2.35773E+00  2.29210E+00  2.23056E+00  2.19190E+00  2.19452E+00
   2.25379E+00  2.38267E+00  2.56261E+00  2.74976E+00  2.90112E+00  2.98491E+00  2.97425E+00  2.85829E+00  2.67464E+00  2.48367E+00
   2.34007E+00  2.28318E+00  2.33850E+00  2.50308E+00  2.71975E+00  2.93214E+00  3.10029E+00  3.20124E+00  3.23168E+00  3.20423E+00
   3.15831E+00  3.14063E+00  3.17417E+00  3.25025E+00  3.34210E+00  3.41885E+00  3.45879E+00  3.44559E+00  3.37103E+00  3.26409E+00
   3.17518E+00  3.13579E+00  3.15491E+00  3.23420E+00  3.36492E+00  3.50911E+00  3.62295E+00  3.69160E+00  3.72228E+00  3.72429E+00
   3.70984E+00  3.70316E+00  3.71943E+00  3.75257E+00  3.79427E+00  3.85482E+00  3.93650E+00  4.02317E+00  4.10063E+00  4.15890E+00
   4.18455E+00  4.16537E+00  4.10570E+00  4.01870E+00  3.91654E+00  3.81087E+00  3.72525E+00  3.68010E+00  3.66547E+00  3.66341E+00
   3.67403E+00  3.69733E+00  3.72748E+00  3.76048E+00  3.79415E+00  3.82354E+00  3.84562E+00  3.86064E+00  3.87086E+00  3.87960E+00
   3.89193E+00  3.91096E+00  3.93658E+00  3.96778E+00  4.00307E+00  4.04079E+00  4.07947E+00  4.11793E+00  4.15586E+00  4.19386E+00
   4.23215E+00  4.27112E+00  4.31137E+00  4.35327E+00  4.39675E+00  4.44182E+00  4.48865E+00  4.53734E+00  4.58781E+00  4.64018E+00
   4.69457E+00  4.75103E+00  4.80971E+00  4.87081E+00  4.93454E+00  5.00120E+00  5.07109E+00  5.14461E+00  5.22214E+00  5.30422E+00
   5.39143E+00  5.48445E+00  5.58405E+00  5.69126E+00  5.80734E+00  5.93400E+00  6.07346E+00  6.22885E+00  6.40474E+00  6.60828E+00
   6.85161E+00  7.15783E+00  7.56382E+00  7.98886E+00  8.17244E+00  7.96382E+00  7.34394E+00  6.37480E+00  5.22217E+00  4.14766E+00
   3.47844E+00  3.54309E+00  4.39888E+00  5.92155E+00  7.85847E+00  9.70817E+00  1.09975E+01  1.16749E+01  1.18360E+01  1.16285E+01
   1.12000E+01  1.07371E+01  1.04193E+01  1.02175E+01  9.85048E+00  9.19831E+00  8.28670E+00  7.24469E+00  6.29064E+00  5.72007E+00
   5.70532E+00  6.20150E+00  7.08241E+00  8.12376E+00  8.92252E+00  9.20010E+00  9.00984E+00  8.47420E+00  7.71129E+00  6.82997E+00
   5.99066E+00  5.39022E+00  5.00271E+00  4.69242E+00  4.42089E+00  4.17879E+00  3.96295E+00  3.77206E+00  3.60529E+00  3.46186E+00
   3.34077E+00  3.24088E+00  3.16085E+00  3.09928E+00  3.05467E+00  3.02548E+00  3.01015E+00  3.00718E+00  3.01513E+00  3.03273E+00
   3.05874E+00  3.09206E+00  3.13162E+00  3.17649E+00  3.22576E+00  3.27866E+00  3.33435E+00  3.39207E+00  3.45096E+00  3.51022E+00
   3.56897E+00  3.62631E+00  3.68125E+00  3.73279E+00  3.77983E+00  3.82132E+00  3.85616E+00  3.88333E+00  3.90183E+00  3.91078E+00
   3.90940E+00  3.89717E+00  3.87373E+00  3.83899E+00  3.79307E+00  3.73640E+00  3.66966E+00  3.59379E+00  3.50996E+00  3.41952E+00
   3.32395E+00  3.22482E+00  3.12375E+00  3.02233E+00  2.92209E+00  2.82444E+00  2.73059E+00  2.64161E+00  2.55835E+00  2.48146E+00
   2.41137E+00  2.34831E+00  2.29230E+00  2.24325E+00  2.20089E+00  2.16489E+00  2.13479E+00  2.11011E+00  2.09030E+00  2.07486E+00
   2.06324E+00  2.05496E+00  2.04952E+00  2.04648E+00  2.04544E+00  2.04604E+00  2.04797E+00  2.05095E+00  2.05473E+00  2.05911E+00
   2.06390E+00  2.06898E+00  2.07421E+00  2.07950E+00  2.08474E+00  2.08988E+00  2.09485E+00  2.09963E+00  2.10415E+00  2.10841E+00
   2.11236E+00  2.11601E+00  2.11931E+00  2.12230E+00  2.12493E+00  2.12722E+00  2.12915E+00  2.13073E+00  2.13195E+00  2.13283E+00
   2.13335E+00  2.13353E+00  2.13335E+00  2.13284E+00  2.13199E+00  2.13081E+00  2.12930E+00  2.12746E+00  2.12529E+00  2.12282E+00
   2.12003E+00  2.11695E+00  2.11355E+00  2.10986E+00  2.10587E+00  2.10160E+00  2.09705E+00  2.09223E+00  2.08712E+00  2.08175E+00
   2.07611E+00  2.07022E+00  2.06408E+00  2.05769E+00  2.05105E+00  2.04418E+00  2.03708E+00  2.02976E+00  2.02221E+00  2.01446E+00
   2.00649E+00  1.99834E+00  1.98999E+00  1.98147E+00  1.97277E+00  1.96391E+00  1.95490E+00  1.94577E+00
 NY background values follow
    -2.786E+00   -2.766E+00   -2.746E+00   -2.726E+00   -2.705E+00   -2.685E+00   -2.665E+00   -2.644E+00   -2.624E+00   -2.603E+00
    -2.583E+00   -2.562E+00   -2.542E+00   -2.521E+00   -2.500E+00   -2.479E+00   -2.459E+00   -2.438E+00   -2.417E+00   -2.396E+00
    -2.375E+00   -2.353E+00   -2.332E+00   -2.311E+00   -2.290E+00   -2.269E+00   -2.247E+00   -2.226E+00   -2.204E+00   -2.183E+00
    -2.161E+00   -2.140E+00   -2.118E+00   -2.097E+00   -2.075E+00   -2.053E+00   -2.031E+00   -2.010E+00   -1.988E+00   -1.966E+00
    -1.944E+00   -1.922E+00   -1.900E+00   -1.878E+00   -1.856E+00   -1.834E+00   -1.812E+00   -1.790E+00   -1.767E+00   -1.745E+00
    -1.723E+00   -1.701E+00   -1.678E+00   -1.656E+00   -1.634E+00   -1.611E+00   -1.589E+00   -1.566E+00   -1.544E+00   -1.521E+00
    -1.499E+00   -1.476E+00   -1.454E+00   -1.431E+00   -1.408E+00   -1.386E+00   -1.363E+00   -1.340E+00   -1.318E+00   -1.295E+00
    -1.272E+00   -1.249E+00   -1.227E+00   -1.204E+00   -1.181E+00   -1.158E+00   -1.135E+00   -1.112E+00   -1.090E+00   -1.067E+00
    -1.044E+00   -1.021E+00   -9.980E-01   -9.751E-01   -9.521E-01   -9.292E-01   -9.062E-01   -8.833E-01   -8.603E-01   -8.373E-01
    -8.143E-01   -7.913E-01   -7.684E-01   -7.454E-01   -7.224E-01   -6.994E-01   -6.763E-01   -6.533E-01   -6.303E-01   -6.073E-01
    -5.843E-01   -5.613E-01   -5.383E-01   -5.153E-01   -4.923E-01   -4.693E-01   -4.463E-01   -4.233E-01   -4.003E-01   -3.774E-01
    -3.544E-01   -3.314E-01   -3.085E-01   -2.855E-01   -2.626E-01   -2.397E-01   -2.168E-01   -1.938E-01   -1.710E-01   -1.481E-01
    -1.252E-01   -1.023E-01   -7.951E-02   -5.668E-02   -3.387E-02   -1.108E-02    1.170E-02    3.446E-02    5.721E-02    7.993E-02
     1.026E-01    1.253E-01    1.480E-01    1.706E-01    1.933E-01    2.159E-01    2.384E-01    2.610E-01    2.835E-01    3.060E-01
     3.285E-01    3.510E-01    3.734E-01    3.958E-01    4.182E-01    4.405E-01    4.628E-01    4.851E-01    5.074E-01    5.296E-01
     5.518E-01    5.739E-01    5.961E-01    6.182E-01    6.402E-01    6.622E-01    6.842E-01    7.062E-01    7.281E-01    7.500E-01
     7.718E-01    7.936E-01    8.154E-01    8.371E-01    8.588E-01    8.805E-01    9.021E-01    9.236E-01    9.452E-01    9.666E-01
     9.881E-01    1.009E+00    1.031E+00    1.052E+00    1.073E+00    1.095E+00    1.116E+00    1.137E+00    1.158E+00    1.179E+00
     1.200E+00    1.221E+00    1.242E+00    1.262E+00    1.283E+00    1.304E+00    1.325E+00    1.345E+00    1.366E+00    1.386E+00
     1.407E+00    1.427E+00    1.447E+00    1.468E+00    1.488E+00    1.508E+00    1.528E+00    1.548E+00    1.568E+00    1.588E+00
     1.608E+00    1.628E+00    1.647E+00    1.667E+00    1.687E+00    1.706E+00    1.726E+00    1.745E+00    1.764E+00    1.784E+00
     1.803E+00    1.822E+00    1.841E+00    1.860E+00    1.879E+00    1.898E+00    1.917E+00    1.935E+00    1.954E+00    1.973E+00
     1.991E+00    2.010E+00    2.028E+00    2.046E+00    2.064E+00    2.083E+00    2.101E+00    2.119E+00    2.136E+00    2.154E+00
     2.172E+00    2.190E+00    2.207E+00    2.225E+00    2.242E+00    2.260E+00    2.277E+00    2.294E+00    2.311E+00    2.328E+00
     2.345E+00    2.362E+00    2.379E+00    2.395E+00    2.412E+00    2.429E+00    2.445E+00    2.461E+00    2.478E+00    2.494E+00
     2.510E+00    2.526E+00    2.542E+00    2.557E+00    2.573E+00    2.589E+00    2.604E+00    2.620E+00    2.635E+00    2.650E+00
     2.666E+00    2.681E+00    2.696E+00    2.710E+00    2.725E+00    2.740E+00    2.754E+00    2.769E+00    2.783E+00    2.798E+00
     2.812E+00    2.826E+00    2.840E+00    2.854E+00    2.868E+00    2.881E+00    2.895E+00    2.908E+00    2.922E+00    2.935E+00
     2.948E+00    2.961E+00    2.974E+00    2.987E+00    3.000E+00    3.013E+00    3.025E+00    3.038E+00    3.050E+00    3.062E+00
     3.074E+00    3.086E+00    3.098E+00    3.110E+00    3.122E+00    3.133E+00    3.145E+00    3.156E+00    3.167E+00    3.178E+00
     3.189E+00    3.200E+00    3.211E+00    3.222E+00    3.232E+00    3.243E+00    3.253E+00    3.263E+00    3.273E+00    3.283E+00
     3.293E+00    3.303E+00    3.313E+00    3.322E+00    3.332E+00    3.341E+00    3.350E+00    3.359E+00    3.368E+00    3.377E+00
     3.385E+00    3.394E+00    3.402E+00    3.411E+00    3.419E+00    3.427E+00    3.435E+00    3.443E+00    3.450E+00    3.458E+00
     3.465E+00    3.473E+00    3.480E+00    3.487E+00    3.494E+00    3.501E+00    3.508E+00    3.514E+00    3.521E+00    3.527E+00
     3.533E+00    3.539E+00    3.545E+00    3.551E+00    3.556E+00    3.562E+00    3.567E+00    3.573E+00    3.578E+00    3.583E+00
     3.588E+00    3.592E+00    3.597E+00    3.601E+00    3.606E+00    3.610E+00    3.614E+00    3.618E+00    3.622E+00    3.626E+00
     3.629E+00    3.632E+00    3.636E+00    3.639E+00    3.642E+00    3.645E+00    3.647E+00    3.650E+00    3.652E+00    3.655E+00
     3.657E+00    3.659E+00    3.661E+00    3.663E+00    3.664E+00    3.666E+00    3.667E+00    3.668E+00    3.669E+00    3.670E+00
     3.671E+00    3.672E+00    3.672E+00    3.672E+00    3.673E+00    3.673E+00    3.673E+00    3.672E+00    3.672E+00    3.672E+00
     3.671E+00    3.670E+00    3.669E+00    3.668E+00    3.667E+00    3.665E+00    3.664E+00    3.662E+00    3.660E+00    3.658E+00
     3.656E+00    3.654E+00    3.652E+00    3.649E+00    3.647E+00    3.644E+00    3.641E+00    3.638E+00    3.634E+00    3.631E+00
     3.627E+00    3.624E+00    3.620E+00    3.616E+00    3.611E+00    3.607E+00    3.603E+00    3.598E+00    3.593E+00    3.588E+00
     3.583E+00    3.578E+00    3.573E+00    3.567E+00    3.562E+00    3.556E+00    3.550E+00    3.544E+00    3.537E+00    3.531E+00
     3.524E+00    3.518E+00    3.511E+00    3.504E+00    3.497E+00    3.489E+00    3.482E+00    3.474E+00    3.466E+00    3.458E+00
     3.450E+00    3.442E+00    3.434E+00    3.425E+00    3.416E+00    3.407E+00    3.398E+00    3.389E+00    3.380E+00    3.370E+00
     3.361E+00    3.351E+00    3.341E+00    3.331E+00    3.321E+00    3.310E+00    3.300E+00    3.289E+00    3.278E+00    3.267E+00
     3.256E+00    3.244E+00    3.233E+00    3.221E+00    3.209E+00    3.198E+00    3.185E+00    3.173E+00    3.161E+00    3.148E+00
     3.135E+00    3.122E+00    3.109E+00    3.096E+00    3.083E+00    3.069E+00    3.056E+00    3.042E+00    3.028E+00    3.014E+00
     2.999E+00    2.985E+00    2.970E+00    2.955E+00    2.941E+00    2.925E+00    2.910E+00    2.895E+00    2.879E+00    2.864E+00
     2.848E+00    2.832E+00    2.815E+00    2.799E+00    2.783E+00    2.766E+00    2.749E+00    2.732E+00
 Ala      Conc. = 2.56E+02
