 LCModel (Version 6.3-1L) Copyright: S.W. Provencher.          Ref.: Magn. Reson. Med. 30:672-679 (1993).                
 Slice#2 Row#2 Col#4  K_02_press_1_raw_act
 36 lines in following concentration table = NCONC+1
    Conc.  %SD /Cr+PCr  Metabolite                                         
 6.40E+03  11%  49.103 Ala                                                 
    4.451 999% 3.4E-02 Asp                                                 
    0.000 999%   0.000 Cr                                                  
  130.257  53%   1.000 PCr                                                 
   10.357 479% 8.0E-02 GABA                                                
   26.067 189%   0.200 Glc                                                 
  570.257 131%   4.378 Gln                                                 
 2.55E+03  35%  19.569 Glu                                                 
    0.000 999%   0.000 GPC                                                 
   88.433  31%   0.679 PCh                                                 
   42.563 366%   0.327 GSH                                                 
    0.000 999%   0.000 Ins                                                 
 1.12E+04   9%  86.103 Lac                                                 
    0.000 999%   0.000 NAA                                                 
  177.705  61%   1.364 NAAG                                                
   23.177  66%   0.178 Scyllo                                              
   81.314  97%   0.624 Tau                                                 
  106.292  83%   0.816 -CrCH2                                              
   88.433  31%   0.679 GPC+PCh                                             
  177.705  61%   1.364 NAA+NAAG                                            
  130.257  53%   1.000 Cr+PCr                                              
 3.12E+03  45%  23.947 Glu+Gln                                             
 1.95E+03  43%  14.991 Lip13a                                              
    0.000 999%   0.000 Lip13b                                              
  200.478 113%   1.539 Lip09                                               
 1.47E+03  13%  11.262 MM09                                                
    0.000 999%   0.000 Lip20                                               
 2.05E+03  15%  15.755 MM20                                                
  432.051  17%   3.317 MM12                                                
 1.68E+03  12%  12.922 MM14                                                
  760.923  17%   5.842 MM17                                                
 1.95E+03  43%  14.991 Lip13a+Lip13b                                       
 4.07E+03  21%  31.230 MM14+Lip13a+Lip13b+MM12                             
 1.67E+03  12%  12.801 MM09+Lip09                                          
 2.05E+03  15%  15.755 MM20+Lip20                                          
   6 lines in following misc. output table
  FWHM = 0.168 ppm    S/N =  10                                            
  Data shift = 0.115 ppm                                                   
  Ph:   2 deg     -14.2 deg/ppm                                            
  alphaB,S = 8.5E+01,   4.1E+02                                            
    6 spline knots.   Ns = 9(2)                                            
   2 inflections.     1 extrema                                            
  498 points on ppm-axis = NY
      4.000000     3.992357     3.984714     3.977070     3.969427     3.961784     3.954141     3.946497     3.938854     3.931211
      3.923568     3.915925     3.908281     3.900638     3.892995     3.885352     3.877708     3.870065     3.862422     3.854779
      3.847136     3.839492     3.831849     3.824206     3.816563     3.808919     3.801276     3.793633     3.785990     3.778347
      3.770703     3.763060     3.755417     3.747774     3.740130     3.732487     3.724844     3.717201     3.709558     3.701914
      3.694271     3.686628     3.678985     3.671341     3.663698     3.656055     3.648412     3.640769     3.633125     3.625482
      3.617839     3.610196     3.602552     3.594909     3.587266     3.579623     3.571980     3.564336     3.556693     3.549050
      3.541407     3.533763     3.526120     3.518477     3.510834     3.503191     3.495547     3.487904     3.480261     3.472618
      3.464974     3.457331     3.449688     3.442045     3.434402     3.426758     3.419115     3.411472     3.403829     3.396185
      3.388542     3.380899     3.373256     3.365613     3.357969     3.350326     3.342683     3.335040     3.327396     3.319753
      3.312110     3.304467     3.296824     3.289180     3.281537     3.273894     3.266251     3.258607     3.250964     3.243321
      3.235678     3.228034     3.220391     3.212748     3.205105     3.197462     3.189818     3.182175     3.174532     3.166889
      3.159245     3.151602     3.143959     3.136316     3.128673     3.121029     3.113386     3.105743     3.098100     3.090456
      3.082813     3.075170     3.067527     3.059884     3.052240     3.044597     3.036954     3.029311     3.021667     3.014024
      3.006381     2.998738     2.991095     2.983451     2.975808     2.968165     2.960522     2.952878     2.945235     2.937592
      2.929949     2.922306     2.914662     2.907019     2.899376     2.891733     2.884089     2.876446     2.868803     2.861160
      2.853517     2.845873     2.838230     2.830587     2.822944     2.815300     2.807657     2.800014     2.792371     2.784728
      2.777084     2.769441     2.761798     2.754155     2.746511     2.738868     2.731225     2.723582     2.715939     2.708295
      2.700652     2.693009     2.685366     2.677722     2.670079     2.662436     2.654793     2.647150     2.639506     2.631863
      2.624220     2.616577     2.608933     2.601290     2.593647     2.586004     2.578361     2.570717     2.563074     2.555431
      2.547788     2.540144     2.532501     2.524858     2.517215     2.509572     2.501928     2.494285     2.486642     2.478999
      2.471355     2.463712     2.456069     2.448426     2.440783     2.433139     2.425496     2.417853     2.410210     2.402566
      2.394923     2.387280     2.379637     2.371994     2.364350     2.356707     2.349064     2.341421     2.333777     2.326134
      2.318491     2.310848     2.303205     2.295561     2.287918     2.280275     2.272632     2.264988     2.257345     2.249702
      2.242059     2.234416     2.226772     2.219129     2.211486     2.203843     2.196199     2.188556     2.180913     2.173270
      2.165627     2.157983     2.150340     2.142697     2.135054     2.127410     2.119767     2.112124     2.104481     2.096838
      2.089194     2.081551     2.073908     2.066265     2.058621     2.050978     2.043335     2.035692     2.028049     2.020405
      2.012762     2.005119     1.997476     1.989833     1.982190     1.974546     1.966903     1.959260     1.951617     1.943974
      1.936331     1.928688     1.921045     1.913402     1.905759     1.898115     1.890472     1.882829     1.875186     1.867543
      1.859900     1.852257     1.844614     1.836971     1.829327     1.821684     1.814041     1.806398     1.798755     1.791112
      1.783469     1.775826     1.768183     1.760540     1.752896     1.745253     1.737610     1.729967     1.722324     1.714681
      1.707038     1.699395     1.691752     1.684108     1.676465     1.668822     1.661179     1.653536     1.645893     1.638250
      1.630607     1.622964     1.615321     1.607677     1.600034     1.592391     1.584748     1.577105     1.569462     1.561819
      1.554176     1.546533     1.538890     1.531246     1.523603     1.515960     1.508317     1.500674     1.493031     1.485388
      1.477745     1.470102     1.462458     1.454815     1.447172     1.439529     1.431886     1.424243     1.416600     1.408957
      1.401314     1.393671     1.386027     1.378384     1.370741     1.363098     1.355455     1.347812     1.340169     1.332526
      1.324883     1.317240     1.309596     1.301953     1.294310     1.286667     1.279024     1.271381     1.263738     1.256095
      1.248452     1.240808     1.233165     1.225522     1.217879     1.210236     1.202593     1.194950     1.187307     1.179664
      1.172021     1.164377     1.156734     1.149091     1.141448     1.133805     1.126162     1.118519     1.110876     1.103233
      1.095590     1.087946     1.080303     1.072660     1.065017     1.057374     1.049731     1.042088     1.034445     1.026802
      1.019158     1.011515     1.003872     0.996229     0.988586     0.980943     0.973300     0.965657     0.958014     0.950371
      0.942727     0.935084     0.927441     0.919798     0.912155     0.904512     0.896869     0.889226     0.881583     0.873940
      0.866296     0.858653     0.851010     0.843367     0.835724     0.828081     0.820438     0.812795     0.805152     0.797508
      0.789865     0.782222     0.774579     0.766936     0.759293     0.751650     0.744007     0.736364     0.728721     0.721077
      0.713434     0.705791     0.698148     0.690505     0.682862     0.675219     0.667576     0.659933     0.652290     0.644646
      0.637003     0.629360     0.621717     0.614074     0.606431     0.598788     0.591145     0.583502     0.575858     0.568215
      0.560572     0.552929     0.545286     0.537643     0.530000     0.522357     0.514714     0.507071     0.499427     0.491784
      0.484141     0.476498     0.468855     0.461212     0.453569     0.445925     0.438282     0.430639     0.422996     0.415353
      0.407710     0.400067     0.392424     0.384780     0.377137     0.369494     0.361851     0.354208     0.346565     0.338922
      0.331278     0.323635     0.315992     0.308349     0.300706     0.293063     0.285420     0.277777     0.270133     0.262490
      0.254847     0.247204     0.239561     0.231918     0.224275     0.216631     0.208988     0.201345
 NY phased data points follow
  -2.19453E+00 -7.04491E+00  9.40289E-02 -3.35549E+00 -4.31400E+00 -1.41641E+00 -4.14585E+00 -4.74545E+00 -2.06077E+00 -2.16642E+00
  -1.79597E+00 -2.93980E-01 -2.68299E+00 -1.39459E+00 -4.93885E+00 -2.18397E+00 -3.08227E+00  2.96740E+00  4.28556E-01 -2.10720E+00
  -3.43447E+00 -8.14480E-01 -9.87200E-01 -1.09444E+00 -3.87010E+00 -1.41352E+00 -2.57023E+00 -2.41195E+00 -2.73669E+00  1.32196E-01
  -1.36435E+00 -4.47353E-01 -1.73216E+00  8.20104E-01  4.43231E-01  5.18519E-01  2.04598E+00  3.46634E-01 -2.41961E+00 -3.06898E+00
   7.16532E-01 -2.74596E+00 -3.18789E+00 -2.27300E+00 -2.01489E+00  6.31113E-01 -2.04191E+00  4.44757E+00  1.25296E+00 -2.68781E+00
  -4.42402E+00 -1.67479E+00 -5.16669E+00 -3.55677E+00  1.76363E+00 -2.38585E+00 -5.44934E+00  3.06253E+00 -4.64662E-01 -2.51551E+00
  -2.35203E+00  3.91579E-01 -4.94781E+00 -1.38653E+00 -1.42701E+00 -1.60812E+00  1.22199E+00 -1.53424E-01  2.92471E-01 -3.43928E+00
  -3.88107E+00 -3.35232E+00 -4.81839E-01  1.38838E+00  1.88492E+00 -1.54860E+00 -4.41301E+00 -1.06610E+00  7.72390E-01 -1.76288E+00
   2.05834E+00 -3.37912E+00  1.30896E+00 -4.67406E-01 -3.01013E+00 -2.84726E+00  8.24876E-01  7.81846E-01  4.85572E+00  4.65520E+00
   3.78884E+00  6.35649E+00  1.27622E+00  2.20463E+00 -8.47461E-02  3.79341E+00  1.39493E+00  1.70137E-01 -4.53123E-01  5.65845E+00
   1.54257E+00 -4.47287E-01  2.28335E+00  1.21359E+00 -1.34933E+00  3.22465E-01  8.62218E-01  1.67183E-01  1.84979E+00  2.20642E+00
   1.40827E+00 -3.25378E+00  2.33215E+00  2.76639E+00  7.31548E+00  8.71136E+00  6.96496E+00  3.81374E+00  3.04713E+00  2.54842E+00
   2.81178E+00  4.22804E+00  2.89463E+00  6.61614E-01  3.11134E+00  3.72386E+00  5.04880E+00  1.16104E+00  4.01450E-01  2.43169E+00
   1.46704E+00 -3.86088E+00  6.30393E-01 -1.05134E-01  7.84974E-01  6.93073E-01  1.99682E+00  3.57502E-01 -4.84487E-01  2.01044E+00
   5.32656E+00 -6.44660E-01  2.30159E+00  2.19697E+00 -1.30721E+00 -1.66829E+00  7.02423E-01  7.19529E-01 -7.39336E-01  1.89958E+00
  -1.51129E+00 -3.79688E+00  3.64991E+00  9.79935E-01  1.05931E-01 -3.02720E-01  1.09375E+00  1.41638E+00  6.30978E-01  5.58696E+00
   2.80209E+00 -1.13040E+00 -1.52435E+00  3.09949E+00  3.56342E-01 -8.41244E-01  6.06573E-01  4.06509E-01 -5.22240E+00 -3.74328E+00
   1.63998E+00  1.12319E+00  6.54964E-02 -3.21476E+00 -4.17258E-01 -7.81130E-01 -2.06683E+00 -6.30502E+00  1.17425E+00 -4.11972E+00
  -2.33191E+00 -8.07338E-01 -1.09921E+00  2.31447E+00 -4.52356E-01  1.24954E+00 -1.15450E+00 -3.64430E+00  2.04793E-01  6.27924E-01
   3.83016E-01  7.80197E-01 -5.42741E-01 -1.72327E+00  5.35072E-02  2.93418E+00  1.67528E+00  2.85107E+00  1.76718E+00 -2.76059E+00
   3.42746E+00  6.76171E+00  1.37167E+00  1.55337E+00  2.96197E+00  2.38118E+00  4.01803E+00  2.68312E+00  2.23331E+00  5.16115E+00
   2.26128E+00  3.08950E+00  4.12248E+00  1.48039E+00  4.21892E+00  2.22840E+00  3.55505E-01  2.21995E+00  1.28457E+00  2.92286E+00
   3.20431E+00  4.63406E+00  3.94375E+00  3.49605E+00  5.47731E+00  6.89213E-01  3.06461E+00  3.41054E+00  8.50392E+00  2.66791E+00
   3.98630E+00  5.09616E+00 -3.85862E-01  1.87668E+00  3.23523E+00  6.19304E+00  2.54174E+00  1.96429E+00  1.76062E+00  3.76718E+00
   5.59613E+00  7.16456E+00  1.01355E+01  6.34845E+00  6.20868E+00  8.94437E+00  1.29472E+01  1.23750E+01  1.83311E+01  1.33646E+01
   1.25344E+01  1.43857E+01  1.03655E+01  1.21015E+01  1.57493E+01  1.72712E+01  1.43660E+01  1.12377E+01  1.07665E+01  8.13617E+00
   1.21141E+01  9.31269E+00  1.35062E+01  1.01530E+01  1.03433E+01  1.11796E+01  9.55312E+00  1.11041E+01  8.18235E+00  9.50932E+00
   8.58615E+00  1.02628E+01  8.16054E+00  8.80149E+00  9.02944E+00  9.87000E+00  1.21522E+01  1.21771E+01  1.10768E+01  1.53895E+01
   9.33536E+00  1.11662E+01  6.93069E+00  1.17218E+01  1.17396E+01  1.11310E+01  1.27383E+01  1.04658E+01  1.29339E+01  9.48546E+00
   8.54826E+00  1.17556E+01  1.26551E+01  1.71704E+01  1.78087E+01  1.73106E+01  1.17325E+01  1.25720E+01  1.33576E+01  1.33947E+01
   1.51389E+01  1.47809E+01  1.51689E+01  1.44685E+01  1.48544E+01  1.51432E+01  1.42157E+01  1.22894E+01  1.34865E+01  1.78025E+01
   1.57992E+01  1.93746E+01  1.82398E+01  1.70597E+01  1.92434E+01  2.05300E+01  2.18896E+01  2.27491E+01  2.33378E+01  2.55880E+01
   2.54500E+01  2.64535E+01  2.65225E+01  2.72222E+01  2.41420E+01  3.01542E+01  2.90648E+01  2.83893E+01  3.03810E+01  3.28055E+01
   3.47966E+01  3.99365E+01  4.50159E+01  5.16779E+01  5.36665E+01  5.79929E+01  5.31370E+01  5.97669E+01  5.95354E+01  5.63339E+01
   5.45105E+01  5.61699E+01  4.89687E+01  4.84811E+01  4.99796E+01  4.85073E+01  5.19857E+01  5.18650E+01  4.87017E+01  4.75383E+01
   4.40411E+01  4.22877E+01  4.13407E+01  4.19158E+01  3.90063E+01  3.88137E+01  3.97630E+01  3.88775E+01  3.87414E+01  3.47929E+01
   3.37011E+01  3.65624E+01  3.30640E+01  3.48248E+01  3.39936E+01  3.08875E+01  3.35143E+01  3.18784E+01  2.91658E+01  2.88343E+01
   2.88757E+01  2.75922E+01  2.72224E+01  2.69806E+01  2.42120E+01  2.70001E+01  2.82284E+01  2.41920E+01  2.27719E+01  2.28186E+01
   2.00519E+01  2.18512E+01  1.99068E+01  1.96782E+01  2.18823E+01  1.95213E+01  1.58648E+01  1.77922E+01  1.91406E+01  1.77870E+01
   1.87720E+01  2.03925E+01  1.52128E+01  1.21592E+01  1.66508E+01  1.45913E+01  1.52031E+01  1.11378E+01  1.29224E+01  1.48643E+01
   1.50735E+01  1.32105E+01  1.10273E+01  1.25793E+01  1.21100E+01  1.17521E+01  1.51564E+01  1.02849E+01  1.19030E+01  1.05476E+01
   1.48125E+01  1.01420E+01  1.08318E+01  6.20907E+00  1.08612E+01  1.19921E+01  8.74549E+00  1.12305E+01  1.14616E+01  1.22367E+01
   8.37941E+00  7.27476E+00  4.39076E+00  9.78786E+00  6.20212E+00  6.72973E+00  6.52936E+00  1.18212E+01  6.09759E+00  7.67880E+00
   6.46320E+00  8.96216E+00  7.90993E+00  7.51796E+00  1.33803E+00  9.79797E+00  7.83068E+00  7.40042E+00  8.98340E+00  5.84590E+00
   6.29185E+00  4.84692E+00  6.14963E+00  6.12238E+00  7.74202E+00  6.93313E+00  5.78039E+00  7.37412E+00  7.06178E+00  4.24579E+00
   3.33788E+00  7.91886E+00  4.94914E+00  6.18983E+00  5.64244E+00  8.48678E+00  6.99184E+00  9.57597E+00  6.53988E+00  9.21591E+00
   5.72632E+00  6.16344E+00  6.47157E+00  8.89848E+00  7.34246E+00  6.28771E+00  6.95031E+00  6.06281E+00  3.80108E+00  9.11938E+00
   5.26484E+00  6.70545E+00  7.49088E+00  6.44854E+00  5.09112E+00  6.34753E+00  3.58592E+00  2.88299E+00  1.10285E+01  4.96140E+00
   6.93002E+00  3.76646E+00  7.23562E+00  5.71087E+00  5.57353E+00  7.35450E+00  6.79418E+00  3.58163E+00  5.64977E+00  6.86305E+00
   6.71810E+00  4.96194E+00  5.41706E+00  7.68217E+00  5.07787E+00  4.10754E+00  3.79576E+00  2.68707E+00
 NY points of the fit to the data follow
  -4.55028E+00 -2.59273E+00 -3.96580E+00 -2.34908E+00 -3.29967E+00 -1.75319E+00 -2.64269E+00 -1.36521E+00 -2.26175E+00 -1.22763E+00
  -2.18138E+00 -1.36048E+00 -2.40761E+00 -1.22367E+00 -2.34758E+00 -9.21821E-01 -2.17254E+00 -6.51521E-01 -2.04710E+00 -5.05346E-01
  -2.09347E+00 -3.85961E-01 -1.97390E+00 -2.21300E-01 -1.82994E+00 -2.47345E-01 -1.85712E+00 -5.27555E-01 -1.91027E+00 -7.39767E-01
  -1.64950E+00 -6.06213E-01 -1.14266E+00 -3.90647E-01 -7.41292E-01 -4.51289E-01 -7.24861E-01 -8.81364E-01 -9.71766E-01 -1.32039E+00
  -1.16639E+00 -1.53443E+00 -1.12423E+00 -1.51926E+00 -9.65805E-01 -1.40203E+00 -7.76067E-01 -1.13364E+00 -7.13259E-01 -1.19125E+00
  -9.72423E-01 -1.49865E+00 -1.40916E+00 -1.89759E+00 -1.85352E+00 -1.99180E+00 -1.80183E+00 -1.80825E+00 -1.66609E+00 -1.63366E+00
  -1.58149E+00 -1.53083E+00 -1.56148E+00 -1.53368E+00 -1.56741E+00 -1.53304E+00 -1.56145E+00 -1.52081E+00 -1.52744E+00 -1.48117E+00
  -1.46947E+00 -1.42093E+00 -1.38584E+00 -1.33830E+00 -1.27931E+00 -1.23848E+00 -1.16761E+00 -1.14116E+00 -1.07014E+00 -1.05782E+00
  -9.85094E-01 -9.77219E-01 -9.03009E-01 -8.93671E-01 -7.97515E-01 -6.95295E-01 -5.72821E-01 -4.06312E-01 -2.70398E-01 -3.02054E-02
   1.18724E-01  4.28264E-01  5.88735E-01  9.35866E-01  1.08594E+00  1.41044E+00  1.53052E+00  1.81354E+00  1.90022E+00  2.13033E+00
   2.18282E+00  2.35109E+00  2.36232E+00  2.43403E+00  2.39831E+00  2.35448E+00  2.28280E+00  2.17411E+00  2.15455E+00  2.05736E+00
   2.06978E+00  1.98005E+00  2.02534E+00  1.93683E+00  2.00718E+00  1.90706E+00  1.99248E+00  1.91039E+00  1.99413E+00  1.93400E+00
   2.00955E+00  1.96877E+00  2.03294E+00  2.02207E+00  2.09689E+00  2.18572E+00  2.23604E+00  2.29235E+00  2.27452E+00  2.28806E+00
   2.21970E+00  2.19846E+00  2.11252E+00  2.06365E+00  1.95889E+00  1.88244E+00  1.75295E+00  1.65047E+00  1.49675E+00  1.37781E+00
   1.22569E+00  1.10089E+00  9.55582E-01  8.30094E-01  6.92202E-01  5.74377E-01  4.57091E-01  3.66734E-01  3.13194E-01  2.49927E-01
   1.99046E-01  1.45259E-01  9.32323E-02  5.13121E-02  1.96389E-03 -2.52937E-02 -7.02716E-02 -8.89454E-02 -1.33304E-01 -1.43058E-01
  -1.86264E-01 -1.86132E-01 -2.23095E-01 -2.14264E-01 -2.43968E-01 -2.29259E-01 -2.50029E-01 -2.30312E-01 -2.42388E-01 -2.19047E-01
  -2.19545E-01 -1.93486E-01 -1.78164E-01 -1.48892E-01 -1.15521E-01 -8.63681E-02 -4.63005E-02 -1.72156E-02  2.27606E-02  4.98720E-02
   8.69181E-02  1.17621E-01  1.48842E-01  1.96882E-01  2.32421E-01  3.10145E-01  3.55434E-01  4.87365E-01  5.55211E-01  7.21463E-01
   7.88839E-01  9.65179E-01  9.35743E-01  1.13338E+00  1.00347E+00  1.23931E+00  1.02894E+00  1.36836E+00  1.21275E+00  1.65186E+00
   1.52080E+00  2.03202E+00  1.94876E+00  2.43465E+00  2.29441E+00  2.63349E+00  2.46255E+00  2.67432E+00  2.41410E+00  2.53504E+00
   2.24791E+00  2.34601E+00  2.13147E+00  2.23328E+00  2.11210E+00  2.22711E+00  2.07507E+00  2.18420E+00  1.93046E+00  2.09371E+00
   1.84348E+00  2.16999E+00  2.08057E+00  2.61148E+00  2.65351E+00  3.28244E+00  3.36249E+00  3.98095E+00  4.01653E+00  4.49551E+00
   4.56417E+00  4.92599E+00  5.02121E+00  5.32722E+00  5.58767E+00  5.89117E+00  6.35378E+00  6.65979E+00  7.45652E+00  7.63583E+00
   8.52157E+00  8.53128E+00  9.48080E+00  9.33992E+00  1.02593E+01  9.99815E+00  1.09991E+01  1.07448E+01  1.17134E+01  1.14456E+01
   1.23442E+01  1.20637E+01  1.28513E+01  1.25330E+01  1.31422E+01  1.27938E+01  1.31636E+01  1.27762E+01  1.28845E+01  1.25333E+01
   1.24534E+01  1.21885E+01  1.19726E+01  1.17619E+01  1.14157E+01  1.11877E+01  1.07764E+01  1.05855E+01  1.01479E+01  9.99813E+00
   9.61089E+00  9.50306E+00  9.14646E+00  9.06944E+00  8.77489E+00  8.78156E+00  8.59750E+00  8.71462E+00  8.70785E+00  8.88392E+00
   8.97595E+00  9.21191E+00  9.44374E+00  9.76661E+00  1.01186E+01  1.04979E+01  1.09329E+01  1.13208E+01  1.17607E+01  1.21320E+01
   1.25262E+01  1.28282E+01  1.31280E+01  1.33242E+01  1.34970E+01  1.35801E+01  1.36385E+01  1.36213E+01  1.35844E+01  1.35007E+01
   1.34190E+01  1.33310E+01  1.32752E+01  1.32615E+01  1.33299E+01  1.35052E+01  1.38420E+01  1.44187E+01  1.54263E+01  1.69367E+01
   1.78818E+01  1.97530E+01  2.03667E+01  2.24638E+01  2.23252E+01  2.42327E+01  2.28069E+01  2.50361E+01  2.27992E+01  2.50400E+01
   2.23546E+01  2.48686E+01  2.23288E+01  2.54265E+01  2.35073E+01  2.72353E+01  2.62063E+01  3.01701E+01  3.05848E+01  3.55445E+01
   3.69371E+01  4.18310E+01  4.41417E+01  4.88774E+01  5.11978E+01  5.41824E+01  5.53422E+01  5.68422E+01  5.66571E+01  5.59575E+01
   5.47505E+01  5.34492E+01  5.20901E+01  5.11900E+01  5.00419E+01  4.96966E+01  4.86749E+01  4.78283E+01  4.66576E+01  4.56376E+01
   4.38442E+01  4.27951E+01  4.14161E+01  4.15404E+01  4.03977E+01  4.05916E+01  3.91809E+01  3.91633E+01  3.79482E+01  3.67915E+01
   3.56766E+01  3.48723E+01  3.42328E+01  3.38658E+01  3.36170E+01  3.33104E+01  3.33833E+01  3.28746E+01  3.32643E+01  3.34840E+01
   3.29201E+01  3.16499E+01  3.04153E+01  2.81386E+01  2.64253E+01  2.35433E+01  2.17490E+01  2.06424E+01  1.98938E+01  1.93791E+01
   1.90203E+01  1.87811E+01  1.86219E+01  1.85262E+01  1.84657E+01  1.84310E+01  1.83990E+01  1.83643E+01  1.83080E+01  1.82287E+01
   1.81117E+01  1.79596E+01  1.77614E+01  1.75240E+01  1.72405E+01  1.69212E+01  1.65623E+01  1.61766E+01  1.57620E+01  1.53324E+01
   1.48865E+01  1.44381E+01  1.39849E+01  1.35397E+01  1.30989E+01  1.26735E+01  1.22586E+01  1.18634E+01  1.14815E+01  1.11210E+01
   1.07744E+01  1.04489E+01  1.01366E+01  9.84447E+00  9.56431E+00  9.30307E+00  9.05262E+00  8.82008E+00  8.59748E+00  8.39201E+00
   8.19575E+00  8.01592E+00  7.84465E+00  7.68916E+00  7.54155E+00  7.40889E+00  7.28314E+00  7.17133E+00  7.06539E+00  6.97230E+00
   6.88393E+00  6.80718E+00  6.73393E+00  6.67111E+00  6.61071E+00  6.55970E+00  6.51009E+00  6.46887E+00  6.42814E+00  6.39502E+00
   6.36170E+00  6.33533E+00  6.30815E+00  6.28735E+00  6.26524E+00  6.24911E+00  6.23132E+00  6.21914E+00  6.20497E+00  6.19611E+00
   6.18502E+00  6.17903E+00  6.17063E+00  6.16714E+00  6.16104E+00  6.15967E+00  6.15559E+00  6.15613E+00  6.15386E+00  6.15607E+00
   6.15536E+00  6.15903E+00  6.15972E+00  6.16474E+00  6.16671E+00  6.17291E+00  6.17599E+00  6.18325E+00  6.18737E+00  6.19563E+00
   6.20069E+00  6.20981E+00  6.21570E+00  6.22564E+00  6.23234E+00  6.24304E+00  6.25046E+00  6.26183E+00  6.26992E+00  6.28195E+00
   6.29069E+00  6.30334E+00  6.31267E+00  6.32589E+00  6.33579E+00  6.34960E+00  6.36008E+00  6.37445E+00  6.38549E+00  6.40042E+00
   6.41206E+00  6.42762E+00  6.43992E+00  6.45616E+00  6.46921E+00  6.48628E+00  6.50030E+00  6.51852E+00
 NY background values follow
    -3.788E+00   -3.768E+00   -3.748E+00   -3.728E+00   -3.708E+00   -3.688E+00   -3.668E+00   -3.648E+00   -3.628E+00   -3.608E+00
    -3.588E+00   -3.568E+00   -3.548E+00   -3.528E+00   -3.508E+00   -3.488E+00   -3.468E+00   -3.448E+00   -3.428E+00   -3.408E+00
    -3.388E+00   -3.368E+00   -3.348E+00   -3.328E+00   -3.308E+00   -3.288E+00   -3.268E+00   -3.248E+00   -3.228E+00   -3.209E+00
    -3.189E+00   -3.169E+00   -3.149E+00   -3.129E+00   -3.109E+00   -3.089E+00   -3.069E+00   -3.049E+00   -3.029E+00   -3.009E+00
    -2.989E+00   -2.969E+00   -2.949E+00   -2.929E+00   -2.909E+00   -2.889E+00   -2.869E+00   -2.849E+00   -2.829E+00   -2.810E+00
    -2.790E+00   -2.770E+00   -2.750E+00   -2.730E+00   -2.710E+00   -2.690E+00   -2.670E+00   -2.650E+00   -2.630E+00   -2.610E+00
    -2.590E+00   -2.570E+00   -2.550E+00   -2.530E+00   -2.510E+00   -2.490E+00   -2.471E+00   -2.451E+00   -2.431E+00   -2.411E+00
    -2.391E+00   -2.371E+00   -2.351E+00   -2.331E+00   -2.311E+00   -2.291E+00   -2.271E+00   -2.251E+00   -2.231E+00   -2.211E+00
    -2.191E+00   -2.171E+00   -2.152E+00   -2.132E+00   -2.112E+00   -2.092E+00   -2.072E+00   -2.052E+00   -2.032E+00   -2.012E+00
    -1.992E+00   -1.972E+00   -1.952E+00   -1.932E+00   -1.912E+00   -1.892E+00   -1.872E+00   -1.853E+00   -1.833E+00   -1.813E+00
    -1.793E+00   -1.773E+00   -1.753E+00   -1.733E+00   -1.713E+00   -1.693E+00   -1.673E+00   -1.653E+00   -1.633E+00   -1.613E+00
    -1.593E+00   -1.573E+00   -1.554E+00   -1.534E+00   -1.514E+00   -1.494E+00   -1.474E+00   -1.454E+00   -1.434E+00   -1.414E+00
    -1.394E+00   -1.374E+00   -1.354E+00   -1.334E+00   -1.314E+00   -1.294E+00   -1.274E+00   -1.255E+00   -1.235E+00   -1.215E+00
    -1.195E+00   -1.175E+00   -1.155E+00   -1.135E+00   -1.115E+00   -1.095E+00   -1.075E+00   -1.055E+00   -1.035E+00   -1.015E+00
    -9.953E-01   -9.754E-01   -9.554E-01   -9.355E-01   -9.155E-01   -8.956E-01   -8.757E-01   -8.557E-01   -8.358E-01   -8.158E-01
    -7.959E-01   -7.759E-01   -7.560E-01   -7.360E-01   -7.161E-01   -6.961E-01   -6.762E-01   -6.562E-01   -6.363E-01   -6.163E-01
    -5.964E-01   -5.764E-01   -5.565E-01   -5.365E-01   -5.166E-01   -4.966E-01   -4.767E-01   -4.567E-01   -4.368E-01   -4.168E-01
    -3.968E-01   -3.769E-01   -3.569E-01   -3.370E-01   -3.170E-01   -2.971E-01   -2.771E-01   -2.571E-01   -2.372E-01   -2.172E-01
    -1.972E-01   -1.773E-01   -1.573E-01   -1.373E-01   -1.174E-01   -9.741E-02   -7.745E-02   -5.748E-02   -3.751E-02   -1.754E-02
     2.424E-03    2.239E-02    4.236E-02    6.233E-02    8.230E-02    1.023E-01    1.222E-01    1.422E-01    1.622E-01    1.822E-01
     2.021E-01    2.221E-01    2.421E-01    2.621E-01    2.820E-01    3.020E-01    3.220E-01    3.419E-01    3.619E-01    3.819E-01
     4.019E-01    4.219E-01    4.418E-01    4.618E-01    4.818E-01    5.018E-01    5.217E-01    5.417E-01    5.617E-01    5.817E-01
     6.016E-01    6.216E-01    6.416E-01    6.616E-01    6.816E-01    7.015E-01    7.215E-01    7.415E-01    7.615E-01    7.815E-01
     8.014E-01    8.214E-01    8.414E-01    8.614E-01    8.813E-01    9.013E-01    9.213E-01    9.413E-01    9.613E-01    9.812E-01
     1.001E+00    1.021E+00    1.041E+00    1.061E+00    1.081E+00    1.101E+00    1.121E+00    1.141E+00    1.161E+00    1.181E+00
     1.201E+00    1.221E+00    1.241E+00    1.261E+00    1.281E+00    1.301E+00    1.321E+00    1.341E+00    1.361E+00    1.381E+00
     1.401E+00    1.421E+00    1.441E+00    1.461E+00    1.481E+00    1.501E+00    1.521E+00    1.541E+00    1.561E+00    1.581E+00
     1.601E+00    1.621E+00    1.641E+00    1.660E+00    1.680E+00    1.700E+00    1.720E+00    1.740E+00    1.760E+00    1.780E+00
     1.800E+00    1.820E+00    1.840E+00    1.860E+00    1.880E+00    1.900E+00    1.920E+00    1.940E+00    1.960E+00    1.980E+00
     2.000E+00    2.020E+00    2.040E+00    2.060E+00    2.080E+00    2.100E+00    2.120E+00    2.140E+00    2.160E+00    2.180E+00
     2.200E+00    2.220E+00    2.240E+00    2.260E+00    2.280E+00    2.299E+00    2.319E+00    2.339E+00    2.359E+00    2.379E+00
     2.399E+00    2.419E+00    2.439E+00    2.459E+00    2.479E+00    2.499E+00    2.519E+00    2.539E+00    2.559E+00    2.579E+00
     2.599E+00    2.619E+00    2.639E+00    2.659E+00    2.679E+00    2.699E+00    2.718E+00    2.738E+00    2.758E+00    2.778E+00
     2.798E+00    2.818E+00    2.838E+00    2.858E+00    2.878E+00    2.898E+00    2.918E+00    2.938E+00    2.958E+00    2.978E+00
     2.998E+00    3.018E+00    3.038E+00    3.057E+00    3.077E+00    3.097E+00    3.117E+00    3.137E+00    3.157E+00    3.177E+00
     3.197E+00    3.217E+00    3.237E+00    3.257E+00    3.277E+00    3.297E+00    3.316E+00    3.336E+00    3.356E+00    3.376E+00
     3.396E+00    3.416E+00    3.436E+00    3.456E+00    3.476E+00    3.496E+00    3.516E+00    3.536E+00    3.555E+00    3.575E+00
     3.595E+00    3.615E+00    3.635E+00    3.655E+00    3.675E+00    3.695E+00    3.715E+00    3.735E+00    3.755E+00    3.774E+00
     3.794E+00    3.814E+00    3.834E+00    3.854E+00    3.874E+00    3.894E+00    3.914E+00    3.934E+00    3.954E+00    3.973E+00
     3.993E+00    4.013E+00    4.033E+00    4.053E+00    4.073E+00    4.093E+00    4.113E+00    4.133E+00    4.152E+00    4.172E+00
     4.192E+00    4.212E+00    4.232E+00    4.252E+00    4.272E+00    4.292E+00    4.312E+00    4.331E+00    4.351E+00    4.371E+00
     4.391E+00    4.411E+00    4.431E+00    4.451E+00    4.471E+00    4.490E+00    4.510E+00    4.530E+00    4.550E+00    4.570E+00
     4.590E+00    4.610E+00    4.630E+00    4.649E+00    4.669E+00    4.689E+00    4.709E+00    4.729E+00    4.749E+00    4.769E+00
     4.789E+00    4.808E+00    4.828E+00    4.848E+00    4.868E+00    4.888E+00    4.908E+00    4.928E+00    4.947E+00    4.967E+00
     4.987E+00    5.007E+00    5.027E+00    5.047E+00    5.067E+00    5.086E+00    5.106E+00    5.126E+00    5.146E+00    5.166E+00
     5.186E+00    5.206E+00    5.225E+00    5.245E+00    5.265E+00    5.285E+00    5.305E+00    5.325E+00    5.345E+00    5.364E+00
     5.384E+00    5.404E+00    5.424E+00    5.444E+00    5.464E+00    5.483E+00    5.503E+00    5.523E+00    5.543E+00    5.563E+00
     5.583E+00    5.602E+00    5.622E+00    5.642E+00    5.662E+00    5.682E+00    5.702E+00    5.721E+00    5.741E+00    5.761E+00
     5.781E+00    5.801E+00    5.821E+00    5.840E+00    5.860E+00    5.880E+00    5.900E+00    5.920E+00    5.940E+00    5.959E+00
     5.979E+00    5.999E+00    6.019E+00    6.039E+00    6.059E+00    6.078E+00    6.098E+00    6.118E+00
 Ala      Conc. = 6.40E+03
