 LCModel (Version 6.3-1L) Copyright: S.W. Provencher.          Ref.: Magn. Reson. Med. 30:672-679 (1993).                
 Slice#3 Row#11 Col#2  K_02_press_1_raw_act
 36 lines in following concentration table = NCONC+1
    Conc.  %SD /Cr+PCr  Metabolite                                         
 1.49E+03  27%   6.750 Ala                                                 
    0.000 999%   0.000 Asp                                                 
    0.000 999%   0.000 Cr                                                  
  220.753  26%   1.000 PCr                                                 
   30.410 156%   0.138 GABA                                                
    3.935 999% 1.8E-02 Glc                                                 
    0.000 999%   0.000 Gln                                                 
    0.000 999%   0.000 Glu                                                 
    0.000 999%   0.000 GPC                                                 
  155.234  16%   0.703 PCh                                                 
    0.000 999%   0.000 GSH                                                 
 2.28E+03  12%  10.307 Ins                                                 
 2.55E+03  17%  11.547 Lac                                                 
    0.000 999%   0.000 NAA                                                 
   43.407 156%   0.197 NAAG                                                
   33.714  44%   0.153 Scyllo                                              
   44.614 174%   0.202 Tau                                                 
    0.000 999%   0.000 -CrCH2                                              
  155.234  16%   0.703 GPC+PCh                                             
   43.407 156%   0.197 NAA+NAAG                                            
  220.753  26%   1.000 Cr+PCr                                              
    0.000 999%   0.000 Glu+Gln                                             
    0.000 999%   0.000 Lip13a                                              
    0.000 999%   0.000 Lip13b                                              
    0.000 999%   0.000 Lip09                                               
  143.242  64%   0.649 MM09                                                
  416.723  32%   1.888 Lip20                                               
  316.856  57%   1.435 MM20                                                
   45.942 104%   0.208 MM12                                                
  249.711  54%   1.131 MM14                                                
    0.000 999%   0.000 MM17                                                
    0.000 999%   0.000 Lip13a+Lip13b                                       
  295.653  51%   1.339 MM14+Lip13a+Lip13b+MM12                             
  143.242  64%   0.649 MM09+Lip09                                          
  733.579  29%   3.323 MM20+Lip20                                          
   6 lines in following misc. output table
  FWHM = 0.168 ppm    S/N =   3                                            
  Data shift = 0.138 ppm                                                   
  Ph: 148 deg      12.3 deg/ppm                                            
  alphaB,S = 7.5E-01,   1.0E+02                                            
   13 spline knots.   Ns = 9(2)                                            
  (11) 7 infls.   ( 9) 1 extrs.                                            
  498 points on ppm-axis = NY
      4.000000     3.992357     3.984714     3.977070     3.969427     3.961784     3.954141     3.946497     3.938854     3.931211
      3.923568     3.915925     3.908281     3.900638     3.892995     3.885352     3.877708     3.870065     3.862422     3.854779
      3.847136     3.839492     3.831849     3.824206     3.816563     3.808919     3.801276     3.793633     3.785990     3.778347
      3.770703     3.763060     3.755417     3.747774     3.740130     3.732487     3.724844     3.717201     3.709558     3.701914
      3.694271     3.686628     3.678985     3.671341     3.663698     3.656055     3.648412     3.640769     3.633125     3.625482
      3.617839     3.610196     3.602552     3.594909     3.587266     3.579623     3.571980     3.564336     3.556693     3.549050
      3.541407     3.533763     3.526120     3.518477     3.510834     3.503191     3.495547     3.487904     3.480261     3.472618
      3.464974     3.457331     3.449688     3.442045     3.434402     3.426758     3.419115     3.411472     3.403829     3.396185
      3.388542     3.380899     3.373256     3.365613     3.357969     3.350326     3.342683     3.335040     3.327396     3.319753
      3.312110     3.304467     3.296824     3.289180     3.281537     3.273894     3.266251     3.258607     3.250964     3.243321
      3.235678     3.228034     3.220391     3.212748     3.205105     3.197462     3.189818     3.182175     3.174532     3.166889
      3.159245     3.151602     3.143959     3.136316     3.128673     3.121029     3.113386     3.105743     3.098100     3.090456
      3.082813     3.075170     3.067527     3.059884     3.052240     3.044597     3.036954     3.029311     3.021667     3.014024
      3.006381     2.998738     2.991095     2.983451     2.975808     2.968165     2.960522     2.952878     2.945235     2.937592
      2.929949     2.922306     2.914662     2.907019     2.899376     2.891733     2.884089     2.876446     2.868803     2.861160
      2.853517     2.845873     2.838230     2.830587     2.822944     2.815300     2.807657     2.800014     2.792371     2.784728
      2.777084     2.769441     2.761798     2.754155     2.746511     2.738868     2.731225     2.723582     2.715939     2.708295
      2.700652     2.693009     2.685366     2.677722     2.670079     2.662436     2.654793     2.647150     2.639506     2.631863
      2.624220     2.616577     2.608933     2.601290     2.593647     2.586004     2.578361     2.570717     2.563074     2.555431
      2.547788     2.540144     2.532501     2.524858     2.517215     2.509572     2.501928     2.494285     2.486642     2.478999
      2.471355     2.463712     2.456069     2.448426     2.440783     2.433139     2.425496     2.417853     2.410210     2.402566
      2.394923     2.387280     2.379637     2.371994     2.364350     2.356707     2.349064     2.341421     2.333777     2.326134
      2.318491     2.310848     2.303205     2.295561     2.287918     2.280275     2.272632     2.264988     2.257345     2.249702
      2.242059     2.234416     2.226772     2.219129     2.211486     2.203843     2.196199     2.188556     2.180913     2.173270
      2.165627     2.157983     2.150340     2.142697     2.135054     2.127410     2.119767     2.112124     2.104481     2.096838
      2.089194     2.081551     2.073908     2.066265     2.058621     2.050978     2.043335     2.035692     2.028049     2.020405
      2.012762     2.005119     1.997476     1.989833     1.982190     1.974546     1.966903     1.959260     1.951617     1.943974
      1.936331     1.928688     1.921045     1.913402     1.905759     1.898115     1.890472     1.882829     1.875186     1.867543
      1.859900     1.852257     1.844614     1.836971     1.829327     1.821684     1.814041     1.806398     1.798755     1.791112
      1.783469     1.775826     1.768183     1.760540     1.752896     1.745253     1.737610     1.729967     1.722324     1.714681
      1.707038     1.699395     1.691752     1.684108     1.676465     1.668822     1.661179     1.653536     1.645893     1.638250
      1.630607     1.622964     1.615321     1.607677     1.600034     1.592391     1.584748     1.577105     1.569462     1.561819
      1.554176     1.546533     1.538890     1.531246     1.523603     1.515960     1.508317     1.500674     1.493031     1.485388
      1.477745     1.470102     1.462458     1.454815     1.447172     1.439529     1.431886     1.424243     1.416600     1.408957
      1.401314     1.393671     1.386027     1.378384     1.370741     1.363098     1.355455     1.347812     1.340169     1.332526
      1.324883     1.317240     1.309596     1.301953     1.294310     1.286667     1.279024     1.271381     1.263738     1.256095
      1.248452     1.240808     1.233165     1.225522     1.217879     1.210236     1.202593     1.194950     1.187307     1.179664
      1.172021     1.164377     1.156734     1.149091     1.141448     1.133805     1.126162     1.118519     1.110876     1.103233
      1.095590     1.087946     1.080303     1.072660     1.065017     1.057374     1.049731     1.042088     1.034445     1.026802
      1.019158     1.011515     1.003872     0.996229     0.988586     0.980943     0.973300     0.965657     0.958014     0.950371
      0.942727     0.935084     0.927441     0.919798     0.912155     0.904512     0.896869     0.889226     0.881583     0.873940
      0.866296     0.858653     0.851010     0.843367     0.835724     0.828081     0.820438     0.812795     0.805152     0.797508
      0.789865     0.782222     0.774579     0.766936     0.759293     0.751650     0.744007     0.736364     0.728721     0.721077
      0.713434     0.705791     0.698148     0.690505     0.682862     0.675219     0.667576     0.659933     0.652290     0.644646
      0.637003     0.629360     0.621717     0.614074     0.606431     0.598788     0.591145     0.583502     0.575858     0.568215
      0.560572     0.552929     0.545286     0.537643     0.530000     0.522357     0.514714     0.507071     0.499427     0.491784
      0.484141     0.476498     0.468855     0.461212     0.453569     0.445925     0.438282     0.430639     0.422996     0.415353
      0.407710     0.400067     0.392424     0.384780     0.377137     0.369494     0.361851     0.354208     0.346565     0.338922
      0.331278     0.323635     0.315992     0.308349     0.300706     0.293063     0.285420     0.277777     0.270133     0.262490
      0.254847     0.247204     0.239561     0.231918     0.224275     0.216631     0.208988     0.201345
 NY phased data points follow
   2.19506E+02  2.15638E+02  2.12886E+02  2.11498E+02  2.09508E+02  2.08343E+02  2.05125E+02  2.03262E+02  2.02182E+02  1.98587E+02
   1.95579E+02  1.92870E+02  1.94186E+02  1.89127E+02  1.86361E+02  1.88708E+02  1.83455E+02  1.84825E+02  1.79919E+02  1.78922E+02
   1.75347E+02  1.76163E+02  1.71159E+02  1.73832E+02  1.70314E+02  1.69092E+02  1.67896E+02  1.62820E+02  1.63186E+02  1.63022E+02
   1.62955E+02  1.63091E+02  1.59317E+02  1.56631E+02  1.59232E+02  1.58085E+02  1.53994E+02  1.57075E+02  1.53274E+02  1.50453E+02
   1.50599E+02  1.50074E+02  1.48557E+02  1.50074E+02  1.50426E+02  1.45525E+02  1.45422E+02  1.43827E+02  1.42543E+02  1.42971E+02
   1.38790E+02  1.40641E+02  1.39389E+02  1.36771E+02  1.36233E+02  1.33369E+02  1.34953E+02  1.31931E+02  1.29247E+02  1.30283E+02
   1.28745E+02  1.29190E+02  1.26275E+02  1.25140E+02  1.26087E+02  1.25271E+02  1.23653E+02  1.23410E+02  1.21973E+02  1.20558E+02
   1.19735E+02  1.18364E+02  1.18634E+02  1.16223E+02  1.16956E+02  1.15025E+02  1.12156E+02  1.11503E+02  1.11149E+02  1.11956E+02
   1.10885E+02  1.10628E+02  1.09511E+02  1.06205E+02  1.06832E+02  1.06298E+02  1.06259E+02  1.06428E+02  1.07017E+02  1.04082E+02
   1.02669E+02  1.04079E+02  1.03732E+02  1.02531E+02  1.04129E+02  9.90909E+01  1.01326E+02  9.65551E+01  9.94755E+01  1.00809E+02
   9.96089E+01  9.87865E+01  9.99159E+01  9.75063E+01  9.65539E+01  9.29078E+01  9.35583E+01  9.52006E+01  9.58305E+01  9.38824E+01
   9.20199E+01  9.28775E+01  9.41111E+01  9.10487E+01  9.09379E+01  9.26406E+01  9.06997E+01  9.10283E+01  8.88516E+01  8.92418E+01
   9.05853E+01  8.85499E+01  8.89493E+01  8.73984E+01  9.20637E+01  8.61230E+01  8.53309E+01  8.79726E+01  8.82619E+01  8.59220E+01
   8.52401E+01  8.14184E+01  8.19586E+01  8.11136E+01  8.59448E+01  8.08064E+01  8.35263E+01  8.05905E+01  8.16217E+01  8.06245E+01
   7.89650E+01  8.08421E+01  8.01861E+01  7.95082E+01  7.83697E+01  8.04762E+01  7.58960E+01  7.86006E+01  8.09216E+01  7.70791E+01
   7.98190E+01  7.92094E+01  7.62828E+01  7.83895E+01  8.02817E+01  7.77705E+01  7.99535E+01  7.93448E+01  7.95302E+01  7.67864E+01
   7.52366E+01  7.85131E+01  7.92387E+01  7.86424E+01  7.85272E+01  7.72559E+01  7.50279E+01  7.63861E+01  7.64813E+01  7.67295E+01
   7.47678E+01  7.48658E+01  7.50316E+01  7.40193E+01  7.25122E+01  7.40873E+01  7.44829E+01  7.43486E+01  7.32622E+01  7.18171E+01
   7.34813E+01  7.21700E+01  7.37909E+01  7.16783E+01  6.96678E+01  7.14431E+01  6.97929E+01  6.84733E+01  7.02257E+01  7.17014E+01
   7.17682E+01  6.80258E+01  6.95420E+01  6.86595E+01  7.05241E+01  7.01235E+01  6.85468E+01  6.71657E+01  6.88451E+01  6.80057E+01
   6.97806E+01  6.97711E+01  6.91172E+01  6.84876E+01  6.84303E+01  6.67172E+01  7.02240E+01  6.78037E+01  6.92032E+01  7.04722E+01
   6.98789E+01  6.99791E+01  6.84723E+01  6.79951E+01  6.89314E+01  6.77799E+01  6.76323E+01  6.72988E+01  6.76745E+01  6.85013E+01
   6.91828E+01  6.75722E+01  6.90067E+01  6.72940E+01  6.76483E+01  6.80250E+01  6.49983E+01  6.81128E+01  6.91953E+01  6.77913E+01
   6.59416E+01  6.74855E+01  6.70645E+01  6.70820E+01  6.54084E+01  6.38517E+01  6.48506E+01  6.41915E+01  6.64820E+01  6.49673E+01
   6.43428E+01  6.40884E+01  6.49194E+01  6.39732E+01  6.59668E+01  6.73030E+01  6.67722E+01  6.54248E+01  6.60576E+01  6.54045E+01
   6.52702E+01  6.66032E+01  6.79383E+01  6.44685E+01  6.31127E+01  6.56283E+01  6.24866E+01  6.28588E+01  5.99394E+01  6.29747E+01
   6.05076E+01  5.93792E+01  6.24642E+01  6.13995E+01  6.04670E+01  6.18039E+01  5.98671E+01  5.99822E+01  5.74681E+01  6.19815E+01
   5.86702E+01  5.77890E+01  6.03923E+01  5.80398E+01  5.56284E+01  5.80663E+01  5.49154E+01  5.75672E+01  5.56811E+01  5.61758E+01
   5.63761E+01  5.56684E+01  5.55313E+01  5.57886E+01  5.26994E+01  5.48576E+01  5.26541E+01  5.19144E+01  5.34734E+01  5.06486E+01
   5.13543E+01  5.27406E+01  5.07475E+01  5.12996E+01  4.85835E+01  4.84863E+01  5.36181E+01  5.32826E+01  5.02976E+01  4.98663E+01
   5.04595E+01  5.19964E+01  5.25757E+01  4.99452E+01  4.90384E+01  5.14446E+01  4.87145E+01  5.24042E+01  5.12071E+01  5.23114E+01
   5.24577E+01  5.04859E+01  5.17068E+01  5.15357E+01  5.00081E+01  5.18610E+01  5.28217E+01  4.95612E+01  5.19256E+01  5.21061E+01
   5.06313E+01  5.07068E+01  4.96226E+01  5.21002E+01  5.17675E+01  5.33032E+01  5.46590E+01  5.27288E+01  5.28866E+01  5.29853E+01
   5.48175E+01  5.20717E+01  5.33958E+01  5.35856E+01  5.41359E+01  5.54559E+01  5.19986E+01  5.53878E+01  5.64203E+01  5.49028E+01
   5.30673E+01  5.54744E+01  5.35546E+01  5.49324E+01  5.62962E+01  5.58881E+01  5.61867E+01  5.39995E+01  5.54391E+01  5.20642E+01
   5.47188E+01  5.31763E+01  5.24426E+01  5.20471E+01  5.39833E+01  5.01528E+01  5.37541E+01  4.87856E+01  5.26442E+01  5.17826E+01
   5.20398E+01  5.01136E+01  5.14251E+01  5.03764E+01  4.78938E+01  4.91001E+01  4.85985E+01  4.92902E+01  4.69846E+01  4.87872E+01
   5.15197E+01  4.94139E+01  4.80360E+01  5.03720E+01  4.82224E+01  4.87919E+01  4.77181E+01  4.93849E+01  4.58966E+01  4.84986E+01
   4.83046E+01  4.88610E+01  4.67596E+01  4.65631E+01  4.58507E+01  4.45340E+01  4.58692E+01  4.34499E+01  4.29128E+01  4.36650E+01
   4.55224E+01  4.36786E+01  4.34888E+01  4.43625E+01  4.30547E+01  4.47996E+01  4.30103E+01  4.07326E+01  4.30298E+01  4.10986E+01
   4.14931E+01  4.21116E+01  4.08518E+01  4.11480E+01  4.08220E+01  4.26688E+01  4.11522E+01  3.87331E+01  4.14288E+01  3.84621E+01
   3.95748E+01  3.97085E+01  4.15888E+01  3.86338E+01  3.99191E+01  3.90904E+01  3.60834E+01  3.76826E+01  3.61165E+01  3.83449E+01
   3.45479E+01  3.56655E+01  3.85543E+01  3.75058E+01  3.64040E+01  3.83698E+01  3.61574E+01  3.70761E+01  3.55794E+01  3.29790E+01
   3.74088E+01  3.54294E+01  3.23599E+01  3.51832E+01  3.60086E+01  3.41053E+01  3.34177E+01  3.40771E+01  3.39729E+01  3.23407E+01
   3.34403E+01  3.40010E+01  3.27517E+01  3.45369E+01  3.40655E+01  3.16260E+01  3.29043E+01  3.36205E+01  3.20982E+01  3.27416E+01
   3.23062E+01  2.88659E+01  3.03999E+01  3.01728E+01  2.96000E+01  3.40418E+01  3.13631E+01  3.24622E+01  3.16332E+01  3.02546E+01
   3.04721E+01  3.14419E+01  3.15143E+01  2.86201E+01  3.00065E+01  2.87324E+01  3.00179E+01  2.88813E+01  2.81306E+01  2.87905E+01
   2.69913E+01  2.80181E+01  2.96938E+01  2.98989E+01  2.84614E+01  2.88083E+01  2.71130E+01  2.69767E+01  2.61549E+01  2.68087E+01
   2.86082E+01  2.75818E+01  2.71194E+01  2.58387E+01  2.54908E+01  2.47792E+01  2.38294E+01  2.66272E+01  2.37377E+01  2.53869E+01
   2.54619E+01  2.80325E+01  2.43891E+01  2.63895E+01  2.40317E+01  2.26275E+01  2.34744E+01  2.56241E+01
 NY points of the fit to the data follow
   2.14537E+02  2.13051E+02  2.10844E+02  2.09313E+02  2.07298E+02  2.05910E+02  2.03892E+02  2.02353E+02  2.00111E+02  1.98381E+02
   1.96062E+02  1.94179E+02  1.91849E+02  1.90120E+02  1.87739E+02  1.86371E+02  1.84182E+02  1.82834E+02  1.80853E+02  1.79657E+02
   1.77743E+02  1.76707E+02  1.74639E+02  1.73536E+02  1.71444E+02  1.70292E+02  1.68220E+02  1.67080E+02  1.65009E+02  1.64058E+02
   1.62571E+02  1.61868E+02  1.60398E+02  1.59495E+02  1.58154E+02  1.57303E+02  1.56121E+02  1.55224E+02  1.53965E+02  1.52801E+02
   1.51451E+02  1.50200E+02  1.49173E+02  1.48109E+02  1.47301E+02  1.46310E+02  1.45615E+02  1.44552E+02  1.43649E+02  1.42346E+02
   1.41356E+02  1.40017E+02  1.38940E+02  1.37489E+02  1.36375E+02  1.35108E+02  1.34123E+02  1.32938E+02  1.32007E+02  1.30906E+02
   1.30060E+02  1.29067E+02  1.28010E+02  1.26933E+02  1.25771E+02  1.24681E+02  1.23579E+02  1.22563E+02  1.21481E+02  1.20523E+02
   1.19606E+02  1.18869E+02  1.17956E+02  1.17174E+02  1.16227E+02  1.15360E+02  1.14301E+02  1.13378E+02  1.12268E+02  1.11423E+02
   1.10306E+02  1.09458E+02  1.08425E+02  1.07650E+02  1.06706E+02  1.06288E+02  1.05469E+02  1.04772E+02  1.03907E+02  1.03310E+02
   1.02658E+02  1.02231E+02  1.01804E+02  1.01241E+02  1.00912E+02  1.00230E+02  9.99243E+01  9.92834E+01  9.91373E+01  9.85598E+01
   9.85962E+01  9.79159E+01  9.80293E+01  9.70792E+01  9.71617E+01  9.60915E+01  9.61365E+01  9.51299E+01  9.54535E+01  9.43841E+01
   9.45212E+01  9.33459E+01  9.34404E+01  9.22746E+01  9.24027E+01  9.13270E+01  9.14308E+01  9.03615E+01  9.03683E+01  8.93668E+01
   8.93364E+01  8.84663E+01  8.84391E+01  8.75646E+01  8.74722E+01  8.69398E+01  8.68860E+01  8.63312E+01  8.62282E+01  8.56705E+01
   8.55354E+01  8.49790E+01  8.47965E+01  8.42488E+01  8.40172E+01  8.34900E+01  8.32126E+01  8.27284E+01  8.24556E+01  8.20091E+01
   8.17044E+01  8.12817E+01  8.09237E+01  8.05419E+01  8.01883E+01  7.98355E+01  7.94297E+01  7.91659E+01  7.89399E+01  7.87272E+01
   7.85179E+01  7.83148E+01  7.81117E+01  7.79153E+01  7.77163E+01  7.75210E+01  7.73189E+01  7.71209E+01  7.69160E+01  7.67152E+01
   7.65086E+01  7.63059E+01  7.60975E+01  7.58926E+01  7.56812E+01  7.54752E+01  7.52655E+01  7.50614E+01  7.48540E+01  7.46519E+01
   7.44490E+01  7.42500E+01  7.40527E+01  7.38588E+01  7.36691E+01  7.34811E+01  7.32962E+01  7.31136E+01  7.29363E+01  7.27594E+01
   7.25912E+01  7.24216E+01  7.22616E+01  7.20978E+01  7.19435E+01  7.17852E+01  7.16371E+01  7.14835E+01  7.13407E+01  7.11910E+01
   7.10514E+01  7.09028E+01  7.07647E+01  7.06198E+01  7.04850E+01  7.03434E+01  7.02126E+01  7.00719E+01  6.99430E+01  6.98042E+01
   6.96768E+01  6.95415E+01  6.94163E+01  6.92842E+01  6.91610E+01  6.90347E+01  6.89187E+01  6.87985E+01  6.86865E+01  6.85731E+01
   6.84667E+01  6.83608E+01  6.82573E+01  6.81556E+01  6.80595E+01  6.79663E+01  6.78724E+01  6.77855E+01  6.76956E+01  6.76125E+01
   6.75251E+01  6.74470E+01  6.73596E+01  6.72791E+01  6.71814E+01  6.70917E+01  6.69843E+01  6.68842E+01  6.67669E+01  6.66585E+01
   6.65327E+01  6.64166E+01  6.62841E+01  6.61618E+01  6.60254E+01  6.59003E+01  6.57652E+01  6.56553E+01  6.55671E+01  6.54537E+01
   6.53606E+01  6.52508E+01  6.51817E+01  6.50784E+01  6.50395E+01  6.49321E+01  6.48980E+01  6.47747E+01  6.47260E+01  6.45838E+01
   6.45293E+01  6.43616E+01  6.42933E+01  6.40840E+01  6.39862E+01  6.37235E+01  6.35671E+01  6.32560E+01  6.30486E+01  6.26977E+01
   6.24461E+01  6.20631E+01  6.17733E+01  6.13657E+01  6.10407E+01  6.06197E+01  6.02696E+01  5.98492E+01  5.94935E+01  5.90812E+01
   5.87207E+01  5.83204E+01  5.79565E+01  5.75755E+01  5.72219E+01  5.68601E+01  5.65066E+01  5.61782E+01  5.58709E+01  5.55665E+01
   5.52777E+01  5.49899E+01  5.47168E+01  5.44451E+01  5.41875E+01  5.39319E+01  5.36903E+01  5.34500E+01  5.32236E+01  5.29988E+01
   5.27874E+01  5.25771E+01  5.23792E+01  5.21846E+01  5.20022E+01  5.18250E+01  5.16601E+01  5.15029E+01  5.13595E+01  5.12252E+01
   5.11054E+01  5.09981E+01  5.09078E+01  5.08350E+01  5.07868E+01  5.07688E+01  5.07973E+01  5.09070E+01  5.12077E+01  5.17387E+01
   5.15780E+01  5.17618E+01  5.15978E+01  5.19308E+01  5.16186E+01  5.19132E+01  5.10690E+01  5.17023E+01  5.11079E+01  5.15224E+01
   5.08712E+01  5.15395E+01  5.09411E+01  5.20154E+01  5.14929E+01  5.25127E+01  5.18465E+01  5.25247E+01  5.20739E+01  5.34548E+01
   5.29564E+01  5.34680E+01  5.32881E+01  5.39846E+01  5.41844E+01  5.43197E+01  5.41978E+01  5.42881E+01  5.48536E+01  5.41479E+01
   5.46889E+01  5.40544E+01  5.48807E+01  5.45068E+01  5.58061E+01  5.48400E+01  5.59610E+01  5.38163E+01  5.50440E+01  5.31618E+01
   5.42807E+01  5.25978E+01  5.38391E+01  5.24243E+01  5.38756E+01  5.19665E+01  5.28964E+01  5.12073E+01  5.22260E+01  5.09059E+01
   5.18562E+01  5.05443E+01  5.13151E+01  4.99936E+01  5.06189E+01  4.95227E+01  4.98919E+01  4.90134E+01  4.96142E+01  4.97681E+01
   5.02178E+01  4.98657E+01  4.98925E+01  4.93576E+01  4.91532E+01  4.80582E+01  4.72716E+01  4.67208E+01  4.62851E+01  4.59184E+01
   4.55984E+01  4.53124E+01  4.50528E+01  4.48145E+01  4.45940E+01  4.43888E+01  4.41969E+01  4.40165E+01  4.38464E+01  4.36854E+01
   4.35322E+01  4.33857E+01  4.32444E+01  4.31069E+01  4.29719E+01  4.28377E+01  4.27029E+01  4.25657E+01  4.24245E+01  4.22780E+01
   4.21248E+01  4.19640E+01  4.17947E+01  4.16163E+01  4.14286E+01  4.12317E+01  4.10259E+01  4.08119E+01  4.05905E+01  4.03626E+01
   4.01295E+01  3.98923E+01  3.96522E+01  3.94104E+01  3.91680E+01  3.89258E+01  3.86847E+01  3.84455E+01  3.82086E+01  3.79743E+01
   3.77430E+01  3.75147E+01  3.72895E+01  3.70674E+01  3.68483E+01  3.66320E+01  3.64184E+01  3.62073E+01  3.59986E+01  3.57921E+01
   3.55876E+01  3.53850E+01  3.51842E+01  3.49851E+01  3.47876E+01  3.45917E+01  3.43973E+01  3.42043E+01  3.40126E+01  3.38225E+01
   3.36337E+01  3.34463E+01  3.32603E+01  3.30757E+01  3.28926E+01  3.27109E+01  3.25307E+01  3.23520E+01  3.21749E+01  3.19992E+01
   3.18250E+01  3.16522E+01  3.14807E+01  3.13104E+01  3.11413E+01  3.09733E+01  3.08064E+01  3.06404E+01  3.04754E+01  3.03113E+01
   3.01479E+01  2.99853E+01  2.98235E+01  2.96623E+01  2.95016E+01  2.93415E+01  2.91819E+01  2.90227E+01  2.88638E+01  2.87053E+01
   2.85470E+01  2.83889E+01  2.82310E+01  2.80732E+01  2.79154E+01  2.77576E+01  2.75997E+01  2.74417E+01  2.72835E+01  2.71251E+01
   2.69664E+01  2.68073E+01  2.66479E+01  2.64879E+01  2.63275E+01  2.61665E+01  2.60049E+01  2.58425E+01  2.56794E+01  2.55155E+01
   2.53507E+01  2.51850E+01  2.50182E+01  2.48503E+01  2.46813E+01  2.45110E+01  2.43393E+01  2.41662E+01
 NY background values follow
     2.076E+02    2.059E+02    2.043E+02    2.026E+02    2.010E+02    1.994E+02    1.977E+02    1.961E+02    1.945E+02    1.929E+02
     1.912E+02    1.896E+02    1.880E+02    1.864E+02    1.848E+02    1.833E+02    1.817E+02    1.801E+02    1.785E+02    1.770E+02
     1.754E+02    1.739E+02    1.724E+02    1.708E+02    1.693E+02    1.678E+02    1.663E+02    1.649E+02    1.634E+02    1.619E+02
     1.605E+02    1.590E+02    1.576E+02    1.562E+02    1.548E+02    1.534E+02    1.520E+02    1.506E+02    1.493E+02    1.480E+02
     1.466E+02    1.453E+02    1.440E+02    1.428E+02    1.415E+02    1.402E+02    1.390E+02    1.378E+02    1.366E+02    1.354E+02
     1.342E+02    1.331E+02    1.319E+02    1.308E+02    1.297E+02    1.286E+02    1.276E+02    1.265E+02    1.255E+02    1.245E+02
     1.235E+02    1.225E+02    1.215E+02    1.206E+02    1.196E+02    1.187E+02    1.178E+02    1.169E+02    1.160E+02    1.151E+02
     1.143E+02    1.134E+02    1.126E+02    1.118E+02    1.110E+02    1.102E+02    1.094E+02    1.086E+02    1.079E+02    1.072E+02
     1.064E+02    1.057E+02    1.050E+02    1.043E+02    1.037E+02    1.030E+02    1.023E+02    1.017E+02    1.011E+02    1.004E+02
     9.982E+01    9.922E+01    9.863E+01    9.805E+01    9.748E+01    9.692E+01    9.637E+01    9.583E+01    9.530E+01    9.477E+01
     9.426E+01    9.376E+01    9.326E+01    9.278E+01    9.230E+01    9.183E+01    9.137E+01    9.091E+01    9.047E+01    9.003E+01
     8.960E+01    8.918E+01    8.876E+01    8.836E+01    8.796E+01    8.757E+01    8.718E+01    8.680E+01    8.643E+01    8.607E+01
     8.571E+01    8.536E+01    8.501E+01    8.468E+01    8.434E+01    8.402E+01    8.370E+01    8.338E+01    8.307E+01    8.277E+01
     8.247E+01    8.218E+01    8.189E+01    8.161E+01    8.133E+01    8.106E+01    8.079E+01    8.053E+01    8.027E+01    8.001E+01
     7.976E+01    7.952E+01    7.928E+01    7.904E+01    7.880E+01    7.857E+01    7.835E+01    7.812E+01    7.790E+01    7.768E+01
     7.747E+01    7.726E+01    7.705E+01    7.684E+01    7.664E+01    7.644E+01    7.624E+01    7.605E+01    7.586E+01    7.567E+01
     7.548E+01    7.529E+01    7.511E+01    7.493E+01    7.475E+01    7.458E+01    7.441E+01    7.423E+01    7.407E+01    7.390E+01
     7.373E+01    7.357E+01    7.341E+01    7.325E+01    7.309E+01    7.293E+01    7.278E+01    7.263E+01    7.247E+01    7.232E+01
     7.217E+01    7.203E+01    7.188E+01    7.173E+01    7.159E+01    7.145E+01    7.131E+01    7.116E+01    7.102E+01    7.089E+01
     7.075E+01    7.061E+01    7.047E+01    7.034E+01    7.020E+01    7.007E+01    6.993E+01    6.980E+01    6.966E+01    6.953E+01
     6.940E+01    6.926E+01    6.913E+01    6.900E+01    6.887E+01    6.873E+01    6.860E+01    6.847E+01    6.833E+01    6.820E+01
     6.806E+01    6.793E+01    6.779E+01    6.766E+01    6.752E+01    6.738E+01    6.724E+01    6.710E+01    6.696E+01    6.682E+01
     6.667E+01    6.653E+01    6.638E+01    6.623E+01    6.608E+01    6.593E+01    6.578E+01    6.563E+01    6.547E+01    6.531E+01
     6.515E+01    6.499E+01    6.482E+01    6.466E+01    6.449E+01    6.432E+01    6.414E+01    6.397E+01    6.379E+01    6.360E+01
     6.342E+01    6.323E+01    6.304E+01    6.285E+01    6.265E+01    6.245E+01    6.225E+01    6.204E+01    6.183E+01    6.162E+01
     6.141E+01    6.119E+01    6.096E+01    6.074E+01    6.051E+01    6.028E+01    6.005E+01    5.981E+01    5.957E+01    5.934E+01
     5.910E+01    5.885E+01    5.861E+01    5.837E+01    5.812E+01    5.788E+01    5.763E+01    5.738E+01    5.714E+01    5.689E+01
     5.664E+01    5.640E+01    5.615E+01    5.591E+01    5.566E+01    5.542E+01    5.518E+01    5.494E+01    5.470E+01    5.446E+01
     5.423E+01    5.399E+01    5.376E+01    5.353E+01    5.331E+01    5.309E+01    5.287E+01    5.265E+01    5.244E+01    5.223E+01
     5.202E+01    5.182E+01    5.162E+01    5.143E+01    5.124E+01    5.105E+01    5.087E+01    5.070E+01    5.053E+01    5.036E+01
     5.021E+01    5.005E+01    4.990E+01    4.976E+01    4.962E+01    4.948E+01    4.935E+01    4.922E+01    4.910E+01    4.898E+01
     4.887E+01    4.876E+01    4.865E+01    4.855E+01    4.844E+01    4.835E+01    4.825E+01    4.816E+01    4.807E+01    4.798E+01
     4.790E+01    4.782E+01    4.774E+01    4.766E+01    4.758E+01    4.751E+01    4.744E+01    4.737E+01    4.730E+01    4.723E+01
     4.716E+01    4.709E+01    4.703E+01    4.696E+01    4.690E+01    4.683E+01    4.677E+01    4.670E+01    4.664E+01    4.657E+01
     4.651E+01    4.644E+01    4.638E+01    4.631E+01    4.624E+01    4.617E+01    4.610E+01    4.603E+01    4.596E+01    4.588E+01
     4.581E+01    4.573E+01    4.565E+01    4.557E+01    4.549E+01    4.540E+01    4.531E+01    4.523E+01    4.514E+01    4.505E+01
     4.496E+01    4.486E+01    4.477E+01    4.467E+01    4.457E+01    4.447E+01    4.437E+01    4.426E+01    4.416E+01    4.405E+01
     4.394E+01    4.383E+01    4.372E+01    4.361E+01    4.349E+01    4.337E+01    4.325E+01    4.313E+01    4.301E+01    4.289E+01
     4.276E+01    4.264E+01    4.251E+01    4.238E+01    4.224E+01    4.211E+01    4.197E+01    4.184E+01    4.170E+01    4.156E+01
     4.141E+01    4.127E+01    4.112E+01    4.098E+01    4.083E+01    4.068E+01    4.052E+01    4.037E+01    4.021E+01    4.006E+01
     3.990E+01    3.974E+01    3.957E+01    3.941E+01    3.924E+01    3.908E+01    3.891E+01    3.874E+01    3.857E+01    3.840E+01
     3.822E+01    3.805E+01    3.788E+01    3.770E+01    3.753E+01    3.735E+01    3.717E+01    3.699E+01    3.681E+01    3.663E+01
     3.646E+01    3.627E+01    3.609E+01    3.591E+01    3.573E+01    3.555E+01    3.537E+01    3.519E+01    3.501E+01    3.483E+01
     3.465E+01    3.447E+01    3.429E+01    3.411E+01    3.393E+01    3.375E+01    3.357E+01    3.339E+01    3.321E+01    3.304E+01
     3.286E+01    3.268E+01    3.251E+01    3.234E+01    3.216E+01    3.199E+01    3.182E+01    3.165E+01    3.148E+01    3.132E+01
     3.115E+01    3.099E+01    3.082E+01    3.066E+01    3.050E+01    3.034E+01    3.018E+01    3.002E+01    2.986E+01    2.971E+01
     2.955E+01    2.939E+01    2.924E+01    2.908E+01    2.893E+01    2.877E+01    2.862E+01    2.847E+01    2.831E+01    2.816E+01
     2.801E+01    2.785E+01    2.770E+01    2.755E+01    2.740E+01    2.724E+01    2.709E+01    2.694E+01    2.679E+01    2.663E+01
     2.648E+01    2.633E+01    2.617E+01    2.602E+01    2.586E+01    2.571E+01    2.555E+01    2.539E+01    2.523E+01    2.508E+01
     2.492E+01    2.476E+01    2.460E+01    2.443E+01    2.427E+01    2.411E+01    2.394E+01    2.378E+01
 Ala      Conc. = 1.49E+03
