 LCModel (Version 6.3-1L) Copyright: S.W. Provencher.          Ref.: Magn. Reson. Med. 30:672-679 (1993).                
 Slice#3 Row#7 Col#10  K_02_press_1_raw_act
 36 lines in following concentration table = NCONC+1
    Conc.  %SD /Cr+PCr  Metabolite                                         
    0.000 999%   0.000 Ala                                                 
    0.000 999%   0.000 Asp                                                 
 1.11E+03  14%   0.537 Cr                                                  
  957.345  17%   0.463 PCr                                                 
    0.000 999%   0.000 GABA                                                
    0.000 999%   0.000 Glc                                                 
  476.095  39%   0.230 Gln                                                 
 1.89E+03  11%   0.916 Glu                                                 
  672.295   4%   0.325 GPC                                                 
    0.000 999%   0.000 PCh                                                 
  604.636  11%   0.292 GSH                                                 
 1.35E+03  16%   0.654 Ins                                                 
    0.000 999%   0.000 Lac                                                 
 2.53E+03   4%   1.225 NAA                                                 
  588.627  15%   0.285 NAAG                                                
   51.190  52% 2.5E-02 Scyllo                                              
    0.000 999%   0.000 Tau                                                 
    0.000 999%   0.000 -CrCH2                                              
  672.295   4%   0.325 GPC+PCh                                             
 3.12E+03   3%   1.510 NAA+NAAG                                            
 2.07E+03   3%   1.000 Cr+PCr                                              
 2.37E+03  12%   1.147 Glu+Gln                                             
 1.19E+03  61%   0.576 Lip13a                                              
  137.891 214% 6.7E-02 Lip13b                                              
    0.000 999%   0.000 Lip09                                               
 2.40E+03  11%   1.163 MM09                                                
   61.691 357% 3.0E-02 Lip20                                               
 3.85E+03  11%   1.861 MM20                                                
 1.19E+03  22%   0.578 MM12                                                
 2.52E+03  19%   1.220 MM14                                                
 1.65E+03  22%   0.798 MM17                                                
 1.33E+03  41%   0.643 Lip13a+Lip13b                                       
 5.04E+03  10%   2.440 MM14+Lip13a+Lip13b+MM12                             
 2.40E+03  11%   1.163 MM09+Lip09                                          
 3.91E+03  11%   1.890 MM20+Lip20                                          
   6 lines in following misc. output table
  FWHM = 0.038 ppm    S/N =  16                                            
  Data shift = 0.008 ppm                                                   
  Ph: -18 deg      -3.7 deg/ppm                                            
  alphaB,S = 1.5E+01,   3.4E+01                                            
   14 spline knots.   Ns = 5(1)                                            
  ( 9) 3 infls.   ( 5) 1 extrs.                                            
  498 points on ppm-axis = NY
      4.000000     3.992357     3.984714     3.977070     3.969427     3.961784     3.954141     3.946497     3.938854     3.931211
      3.923568     3.915925     3.908281     3.900638     3.892995     3.885352     3.877708     3.870065     3.862422     3.854779
      3.847136     3.839492     3.831849     3.824206     3.816563     3.808919     3.801276     3.793633     3.785990     3.778347
      3.770703     3.763060     3.755417     3.747774     3.740130     3.732487     3.724844     3.717201     3.709558     3.701914
      3.694271     3.686628     3.678985     3.671341     3.663698     3.656055     3.648412     3.640769     3.633125     3.625482
      3.617839     3.610196     3.602552     3.594909     3.587266     3.579623     3.571980     3.564336     3.556693     3.549050
      3.541407     3.533763     3.526120     3.518477     3.510834     3.503191     3.495547     3.487904     3.480261     3.472618
      3.464974     3.457331     3.449688     3.442045     3.434402     3.426758     3.419115     3.411472     3.403829     3.396185
      3.388542     3.380899     3.373256     3.365613     3.357969     3.350326     3.342683     3.335040     3.327396     3.319753
      3.312110     3.304467     3.296824     3.289180     3.281537     3.273894     3.266251     3.258607     3.250964     3.243321
      3.235678     3.228034     3.220391     3.212748     3.205105     3.197462     3.189818     3.182175     3.174532     3.166889
      3.159245     3.151602     3.143959     3.136316     3.128673     3.121029     3.113386     3.105743     3.098100     3.090456
      3.082813     3.075170     3.067527     3.059884     3.052240     3.044597     3.036954     3.029311     3.021667     3.014024
      3.006381     2.998738     2.991095     2.983451     2.975808     2.968165     2.960522     2.952878     2.945235     2.937592
      2.929949     2.922306     2.914662     2.907019     2.899376     2.891733     2.884089     2.876446     2.868803     2.861160
      2.853517     2.845873     2.838230     2.830587     2.822944     2.815300     2.807657     2.800014     2.792371     2.784728
      2.777084     2.769441     2.761798     2.754155     2.746511     2.738868     2.731225     2.723582     2.715939     2.708295
      2.700652     2.693009     2.685366     2.677722     2.670079     2.662436     2.654793     2.647150     2.639506     2.631863
      2.624220     2.616577     2.608933     2.601290     2.593647     2.586004     2.578361     2.570717     2.563074     2.555431
      2.547788     2.540144     2.532501     2.524858     2.517215     2.509572     2.501928     2.494285     2.486642     2.478999
      2.471355     2.463712     2.456069     2.448426     2.440783     2.433139     2.425496     2.417853     2.410210     2.402566
      2.394923     2.387280     2.379637     2.371994     2.364350     2.356707     2.349064     2.341421     2.333777     2.326134
      2.318491     2.310848     2.303205     2.295561     2.287918     2.280275     2.272632     2.264988     2.257345     2.249702
      2.242059     2.234416     2.226772     2.219129     2.211486     2.203843     2.196199     2.188556     2.180913     2.173270
      2.165627     2.157983     2.150340     2.142697     2.135054     2.127410     2.119767     2.112124     2.104481     2.096838
      2.089194     2.081551     2.073908     2.066265     2.058621     2.050978     2.043335     2.035692     2.028049     2.020405
      2.012762     2.005119     1.997476     1.989833     1.982190     1.974546     1.966903     1.959260     1.951617     1.943974
      1.936331     1.928688     1.921045     1.913402     1.905759     1.898115     1.890472     1.882829     1.875186     1.867543
      1.859900     1.852257     1.844614     1.836971     1.829327     1.821684     1.814041     1.806398     1.798755     1.791112
      1.783469     1.775826     1.768183     1.760540     1.752896     1.745253     1.737610     1.729967     1.722324     1.714681
      1.707038     1.699395     1.691752     1.684108     1.676465     1.668822     1.661179     1.653536     1.645893     1.638250
      1.630607     1.622964     1.615321     1.607677     1.600034     1.592391     1.584748     1.577105     1.569462     1.561819
      1.554176     1.546533     1.538890     1.531246     1.523603     1.515960     1.508317     1.500674     1.493031     1.485388
      1.477745     1.470102     1.462458     1.454815     1.447172     1.439529     1.431886     1.424243     1.416600     1.408957
      1.401314     1.393671     1.386027     1.378384     1.370741     1.363098     1.355455     1.347812     1.340169     1.332526
      1.324883     1.317240     1.309596     1.301953     1.294310     1.286667     1.279024     1.271381     1.263738     1.256095
      1.248452     1.240808     1.233165     1.225522     1.217879     1.210236     1.202593     1.194950     1.187307     1.179664
      1.172021     1.164377     1.156734     1.149091     1.141448     1.133805     1.126162     1.118519     1.110876     1.103233
      1.095590     1.087946     1.080303     1.072660     1.065017     1.057374     1.049731     1.042088     1.034445     1.026802
      1.019158     1.011515     1.003872     0.996229     0.988586     0.980943     0.973300     0.965657     0.958014     0.950371
      0.942727     0.935084     0.927441     0.919798     0.912155     0.904512     0.896869     0.889226     0.881583     0.873940
      0.866296     0.858653     0.851010     0.843367     0.835724     0.828081     0.820438     0.812795     0.805152     0.797508
      0.789865     0.782222     0.774579     0.766936     0.759293     0.751650     0.744007     0.736364     0.728721     0.721077
      0.713434     0.705791     0.698148     0.690505     0.682862     0.675219     0.667576     0.659933     0.652290     0.644646
      0.637003     0.629360     0.621717     0.614074     0.606431     0.598788     0.591145     0.583502     0.575858     0.568215
      0.560572     0.552929     0.545286     0.537643     0.530000     0.522357     0.514714     0.507071     0.499427     0.491784
      0.484141     0.476498     0.468855     0.461212     0.453569     0.445925     0.438282     0.430639     0.422996     0.415353
      0.407710     0.400067     0.392424     0.384780     0.377137     0.369494     0.361851     0.354208     0.346565     0.338922
      0.331278     0.323635     0.315992     0.308349     0.300706     0.293063     0.285420     0.277777     0.270133     0.262490
      0.254847     0.247204     0.239561     0.231918     0.224275     0.216631     0.208988     0.201345
 NY phased data points follow
   2.60696E+00  1.03628E+00  5.57308E+00  4.14981E+00  1.18276E+01  1.73981E+01  2.83944E+01  3.29091E+01  4.53662E+01  5.64994E+01
   5.53506E+01  5.44194E+01  4.73238E+01  3.45016E+01  2.26245E+01  8.57475E+00  8.95763E+00  7.99162E+00  8.94368E+00  3.05793E+00
   1.00649E+01  1.14793E+01  8.80096E+00  1.15375E+01  8.97831E+00  1.29057E+01  1.11639E+01  1.20835E+01  1.88215E+01  2.22117E+01
   1.71593E+01  2.23173E+01  1.67931E+01  1.73672E+01  9.69267E+00  8.31243E+00  8.73299E+00  9.41565E+00  1.10092E+01  1.37226E+01
   8.45303E+00  1.15013E+01  1.18335E+01  3.90223E+00  1.47931E+01  1.70478E+01  2.62482E+01  2.11799E+01  2.40440E+01  2.20683E+01
   1.27213E+01  6.48799E+00  8.35360E+00  4.38588E+00  8.12442E+00  1.13645E+01  8.85373E+00  1.16601E+01  6.44558E+00  8.56697E+00
   2.02143E+00 -1.16466E+00 -6.43119E-01 -3.82522E+00 -4.20018E+00 -3.65950E+00 -1.05197E+01 -2.00315E+00 -5.34298E+00 -3.14966E+00
  -2.73828E+00 -3.83374E-01  1.36126E+00 -1.56021E+00 -5.96975E-01  6.82769E-01 -1.69232E+00 -1.35577E+00 -3.81103E-01  9.18439E-02
  -5.66961E-01 -1.11205E+00  5.40573E-01  3.21502E+00  5.32309E-01 -7.46913E-02  3.37574E+00  3.86387E+00  6.18154E+00  2.72782E+00
   2.14321E+00  4.14303E+00  9.53045E+00  9.26163E+00  3.64896E+00  1.10778E+01  1.32872E+01  8.26411E+00  1.79609E+01  2.34789E+01
   4.35906E+01  6.13084E+01  7.65995E+01  8.06110E+01  7.25448E+01  5.11389E+01  3.73740E+01  2.12902E+01  1.52437E+01  1.12270E+01
   1.12242E+01  7.19177E+00  7.77975E+00  4.16113E+00  2.52293E+00  7.39631E+00  7.48740E+00  3.74839E+00  6.82483E+00  8.85350E+00
   1.00896E+01  1.13281E+01  1.14412E+01  1.96515E+01  4.98251E+01  6.80916E+01  9.19193E+01  9.33526E+01  8.44214E+01  6.02953E+01
   4.33657E+01  3.15486E+01  1.77189E+01  2.03209E+01  1.47884E+01  7.97191E+00  1.06927E+01  3.85956E+00  5.67034E+00  9.28906E+00
   5.72310E+00  7.97113E+00  5.67058E+00  4.85168E+00  4.95894E+00  3.16394E+00  1.78447E+00  8.36243E+00  5.51269E+00 -1.45507E-01
   4.37214E+00  1.90887E+00  4.54037E+00  3.68965E+00 -8.51667E-01  5.00070E+00  8.14067E-01  5.59474E-01  5.23727E+00  3.48201E+00
   1.73861E+00 -3.68127E+00 -5.63444E+00 -1.87158E+00  5.01113E+00  3.72081E+00  3.44677E+00  2.20880E+00 -6.11639E+00 -5.49680E+00
  -6.88386E+00 -3.70464E+00 -6.64430E+00 -1.22296E+01 -1.58926E+01 -2.08049E+01 -1.58457E+01 -8.25928E+00 -1.15610E+01 -2.61865E+00
  -1.08392E+01 -1.04114E+01 -1.00251E+01 -8.47743E+00 -9.01588E+00 -8.63971E+00 -8.95483E+00 -1.20417E+01 -6.82786E+00  3.81566E+00
   5.33973E+00  9.56752E+00  7.77197E+00  9.10596E+00  8.98454E+00  9.49497E+00  5.82775E+00  1.07669E+00 -3.20423E+00 -2.04788E+00
  -7.02842E+00  6.22164E+00  4.53179E+00  9.02784E+00  9.55462E+00  9.21004E+00  6.74702E-01 -1.60082E+00 -1.07712E+00 -6.06044E+00
  -2.73206E+00 -4.95989E-01  5.18750E+00  1.15961E+01  1.83499E+01  2.72585E+01  2.27842E+01  2.19023E+01  1.19168E+01  9.76775E+00
  -1.27107E+00 -3.57117E+00 -3.39170E+00 -3.97806E+00  6.03347E+00  8.34885E+00  1.34375E+01  1.68490E+01  1.43369E+01  1.76509E+01
   1.54470E+01  1.37756E+01  1.03041E+01  1.19296E+01  1.05278E+01  9.68687E+00  1.20508E+01  1.31383E+01  9.96723E+00  1.36213E+01
   5.01155E+00 -1.22342E+00  4.58266E+00  7.42872E+00  1.30438E+01  1.95435E+01  1.66253E+01  1.85285E+01  2.17975E+01  2.22149E+01
   2.15206E+01  2.25315E+01  2.77522E+01  3.96918E+01  4.42595E+01  5.39258E+01  5.48121E+01  6.57892E+01  1.00261E+02  1.35282E+02
   1.47298E+02  1.29534E+02  9.52087E+01  6.08178E+01  4.02345E+01  2.87273E+01  2.30109E+01  2.07441E+01  1.72819E+01  1.29578E+01
   1.70947E+01  1.46873E+01  1.63957E+01  1.04849E+01  1.11419E+01  1.24810E+01  1.33476E+01  1.20392E+01  5.85830E+00  3.29136E+00
   3.61746E+00  9.04547E+00  9.37763E+00  7.70262E+00  1.11475E+01  1.08206E+01  1.07849E+01  1.06309E+01  1.39807E+01  1.35046E+01
   1.58568E+01  1.36871E+01  1.31665E+01  9.01037E+00  1.56890E+01  1.03784E+01  9.84895E+00  9.79707E+00  9.57093E+00  1.24331E+01
   9.91454E+00  1.26777E+01  1.17585E+01  1.44223E+01  1.42982E+01  1.90222E+01  2.38897E+01  2.01550E+01  1.77920E+01  1.58412E+01
   1.75423E+01  1.96472E+01  2.21397E+01  1.95970E+01  1.97784E+01  1.70309E+01  1.36882E+01  2.15503E+01  1.47248E+01  1.62671E+01
   1.42086E+01  1.33348E+01  1.42230E+01  2.24437E+01  2.21890E+01  2.11107E+01  2.29124E+01  2.53908E+01  2.36819E+01  2.40459E+01
   2.45500E+01  2.29339E+01  2.33591E+01  2.64292E+01  2.40361E+01  2.26498E+01  2.18706E+01  2.01179E+01  1.69795E+01  1.55095E+01
   1.30507E+01  1.70037E+01  8.40908E+00  1.47574E+01  1.43597E+01  1.85330E+01  1.23523E+01  1.58539E+01  1.40664E+01  1.21748E+01
   1.46276E+01  1.97566E+01  1.91969E+01  2.12001E+01  2.20837E+01  1.86732E+01  1.95650E+01  1.61821E+01  1.84398E+01  1.93941E+01
   1.68455E+01  1.89013E+01  1.82190E+01  2.26563E+01  2.19779E+01  2.35548E+01  1.92851E+01  2.12281E+01  1.95789E+01  1.82555E+01
   2.01251E+01  1.72998E+01  1.40916E+01  1.90266E+01  1.97229E+01  1.77572E+01  1.70943E+01  1.46268E+01  1.67736E+01  1.42596E+01
   1.55721E+01  1.79715E+01  1.94483E+01  1.24151E+01  1.81357E+01  2.29227E+01  1.72447E+01  1.59816E+01  1.63274E+01  1.45856E+01
   1.85491E+01  1.80859E+01  1.93685E+01  1.86687E+01  2.08668E+01  2.22451E+01  1.65494E+01  1.72360E+01  1.90639E+01  1.71196E+01
   1.78561E+01  2.13345E+01  1.98328E+01  2.06365E+01  1.77668E+01  1.84558E+01  1.98591E+01  1.84389E+01  1.74285E+01  1.86466E+01
   1.92883E+01  1.80814E+01  1.72272E+01  1.77797E+01  1.79907E+01  1.93440E+01  1.78639E+01  1.86224E+01  1.47497E+01  2.03183E+01
   1.49598E+01  9.67419E+00  1.05239E+01  1.10776E+01  1.42982E+01  1.14804E+01  1.47895E+01  9.44832E+00  1.06372E+01  1.15822E+01
   1.06983E+01  9.84800E+00  7.10954E+00  1.13512E+01  1.02463E+01  1.12901E+01  1.15899E+01  8.14774E+00  1.22059E+01  1.07592E+01
   1.10466E+01  6.47712E+00  9.90683E+00  9.62756E+00  9.59061E+00  1.27831E+01  7.29189E+00  9.48519E+00  7.28709E+00  6.24683E+00
   8.65725E+00  1.06636E+01  1.25149E+01  1.12802E+01  8.81001E+00  1.05999E+01  6.90239E+00  6.78367E+00  1.13413E+01  8.93537E+00
   7.93762E+00  8.54038E+00  4.83433E+00  6.98466E+00  6.66964E+00  6.70574E+00  8.43444E+00  6.94981E+00  9.78475E+00  6.96449E+00
   9.40026E+00  7.59900E+00  7.09554E+00  7.32393E+00  4.27498E+00  8.21307E+00  7.66784E+00  7.64408E+00  1.17945E+01  6.56416E+00
   5.81323E+00  1.06448E+01  1.11284E+01  4.09138E+00  1.01334E+01  7.44628E+00  1.08942E+01  5.66709E+00  7.18741E+00  4.67378E+00
   7.43098E+00  9.17205E+00  6.80391E+00  6.44873E+00  9.65847E+00  5.37442E+00  8.26462E+00  6.56759E+00
 NY points of the fit to the data follow
   4.49095E+00  4.71339E+00  5.36145E+00  6.83938E+00  1.00735E+01  1.54442E+01  2.40961E+01  3.56362E+01  4.63426E+01  5.40605E+01
   5.69296E+01  5.36216E+01  4.48574E+01  3.37025E+01  2.36743E+01  1.62174E+01  1.20959E+01  1.00142E+01  7.90045E+00  6.68970E+00
   6.19772E+00  5.80174E+00  5.35973E+00  4.80682E+00  4.53654E+00  5.05731E+00  6.50838E+00  1.01172E+01  1.57031E+01  2.09328E+01
   2.35966E+01  2.29725E+01  2.01677E+01  1.62642E+01  1.22244E+01  8.53476E+00  5.19540E+00  3.39993E+00  3.23851E+00  3.91124E+00
   4.93847E+00  6.06750E+00  7.38990E+00  8.95086E+00  1.12991E+01  1.47302E+01  1.79095E+01  1.89388E+01  1.70319E+01  1.30130E+01
   8.75986E+00  5.70349E+00  4.01557E+00  3.17719E+00  2.90912E+00  3.20921E+00  3.95607E+00  5.12907E+00  6.48614E+00  7.53838E+00
   7.69611E+00  6.71939E+00  4.97970E+00  3.19848E+00  2.04187E+00  1.69746E+00  2.00247E+00  2.76943E+00  3.59342E+00  4.41411E+00
   5.13626E+00  5.56726E+00  5.55184E+00  5.10147E+00  4.46999E+00  3.93370E+00  3.61316E+00  3.48773E+00  3.37865E+00  3.30700E+00
   3.28669E+00  3.36865E+00  3.60456E+00  3.96410E+00  4.36469E+00  4.33863E+00  3.47188E+00  2.01038E+00  7.30329E-01  2.95962E-01
   7.85172E-01  1.86007E+00  3.01941E+00  3.95612E+00  4.73693E+00  5.24063E+00  5.57836E+00  6.77347E+00  1.15522E+01  2.19692E+01
   3.97536E+01  6.30021E+01  8.13412E+01  8.47149E+01  7.21334E+01  5.15634E+01  3.26179E+01  2.02078E+01  1.36477E+01  8.91603E+00
   5.36939E+00  4.17826E+00  3.85748E+00  3.80348E+00  3.85770E+00  3.96606E+00  4.10737E+00  4.26214E+00  4.46665E+00  4.85938E+00
   5.71348E+00  7.85707E+00  1.37121E+01  2.53637E+01  4.46707E+01  7.01791E+01  9.11694E+01  9.62108E+01  8.34733E+01  6.14956E+01
   4.11055E+01  2.79556E+01  2.08045E+01  1.45489E+01  8.18883E+00  4.12434E+00  2.05165E+00  1.83894E+00  3.08916E+00  4.99576E+00
   6.64405E+00  7.54735E+00  7.51554E+00  6.80842E+00  5.94719E+00  5.20594E+00  4.67043E+00  4.30473E+00  3.92273E+00  3.52159E+00
   3.05532E+00  2.52622E+00  2.03293E+00  1.77418E+00  1.88651E+00  2.29730E+00  2.65504E+00  2.59636E+00  1.77195E+00  3.23136E-01
  -8.46776E-01 -1.03198E+00 -5.36699E-02  1.36995E+00  2.02015E+00  1.36627E+00 -1.14574E-01 -1.45603E+00 -2.15147E+00 -2.22603E+00
  -2.02172E+00 -2.14997E+00 -2.78627E+00 -3.79997E+00 -4.98787E+00 -5.42875E+00 -4.74795E+00 -3.51083E+00 -2.73530E+00 -3.01455E+00
  -3.77781E+00 -4.02565E+00 -3.57058E+00 -2.95048E+00 -2.91068E+00 -3.02174E+00 -2.17627E+00  3.16399E-01  3.84894E+00  7.04779E+00
   8.86989E+00  8.91996E+00  7.57655E+00  5.62545E+00  3.80511E+00  2.27325E+00  1.35223E+00  1.30883E+00  2.26209E+00  4.10103E+00
   6.28120E+00  8.49225E+00  1.04331E+01  1.14913E+01  1.13286E+01  9.34542E+00  6.05904E+00  2.26240E+00 -1.19426E+00 -3.26731E+00
  -3.66436E+00 -2.08542E+00  1.54443E+00  6.96394E+00  1.32888E+01  1.78039E+01  1.84996E+01  1.48825E+01  8.49902E+00  1.62981E+00
  -4.52181E+00 -8.73303E+00 -9.41709E+00 -6.04703E+00  1.55885E-01  6.35260E+00  1.06526E+01  1.26344E+01  1.28719E+01  1.20185E+01
   1.06154E+01  9.55916E+00  9.83768E+00  1.12759E+01  1.31769E+01  1.50471E+01  1.62566E+01  1.63020E+01  1.49254E+01  1.25153E+01
   9.94131E+00  8.26128E+00  8.31251E+00  1.02355E+01  1.33121E+01  1.64060E+01  1.84960E+01  1.92753E+01  1.90059E+01  1.84691E+01
   1.88790E+01  2.14606E+01  2.69140E+01  3.53394E+01  4.35472E+01  5.05019E+01  5.87987E+01  7.35854E+01  1.02261E+02  1.32488E+02
   1.44416E+02  1.29388E+02  9.73328E+01  6.58140E+01  4.45421E+01  3.38542E+01  2.66546E+01  1.89914E+01  1.60564E+01  1.47191E+01
   1.37928E+01  1.31741E+01  1.29483E+01  1.28463E+01  1.26326E+01  1.22027E+01  1.16204E+01  1.10241E+01  1.05239E+01  1.01229E+01
   9.81968E+00  9.63333E+00  9.56244E+00  9.52662E+00  9.45998E+00  9.36176E+00  9.27439E+00  9.24086E+00  9.28175E+00  9.43249E+00
   9.72611E+00  1.01227E+01  1.05589E+01  1.09912E+01  1.14092E+01  1.18233E+01  1.22425E+01  1.26751E+01  1.31394E+01  1.36492E+01
   1.41855E+01  1.47182E+01  1.52198E+01  1.56721E+01  1.60696E+01  1.64103E+01  1.66883E+01  1.69133E+01  1.70931E+01  1.72338E+01
   1.73416E+01  1.74259E+01  1.74986E+01  1.75731E+01  1.76614E+01  1.77727E+01  1.79141E+01  1.80910E+01  1.83076E+01  1.85646E+01
   1.88585E+01  1.91811E+01  1.95226E+01  1.98727E+01  2.02201E+01  2.05518E+01  2.08531E+01  2.11099E+01  2.13103E+01  2.14459E+01
   2.15106E+01  2.15000E+01  2.14115E+01  2.12460E+01  2.10088E+01  2.07088E+01  2.03563E+01  1.99625E+01  1.95394E+01  1.91010E+01
   1.86630E+01  1.82411E+01  1.78502E+01  1.75033E+01  1.72131E+01  1.69924E+01  1.68530E+01  1.68035E+01  1.68479E+01  1.69844E+01
   1.72057E+01  1.74983E+01  1.78428E+01  1.82132E+01  1.85799E+01  1.89140E+01  1.91913E+01  1.93956E+01  1.95191E+01  1.95614E+01
   1.95289E+01  1.94330E+01  1.92878E+01  1.91066E+01  1.88998E+01  1.86730E+01  1.84291E+01  1.81693E+01  1.78948E+01  1.76070E+01
   1.73074E+01  1.69983E+01  1.66839E+01  1.63707E+01  1.60667E+01  1.57797E+01  1.55170E+01  1.52855E+01  1.50922E+01  1.49441E+01
   1.48473E+01  1.48062E+01  1.48233E+01  1.49003E+01  1.50382E+01  1.52373E+01  1.54962E+01  1.58112E+01  1.61771E+01  1.65877E+01
   1.70362E+01  1.75147E+01  1.80135E+01  1.85212E+01  1.90258E+01  1.95154E+01  1.99786E+01  2.04039E+01  2.07798E+01  2.10954E+01
   2.13415E+01  2.15115E+01  2.16008E+01  2.16067E+01  2.15278E+01  2.13651E+01  2.11222E+01  2.08055E+01  2.04225E+01  1.99815E+01
   1.94912E+01  1.89614E+01  1.84024E+01  1.78246E+01  1.72376E+01  1.66496E+01  1.60675E+01  1.54979E+01  1.49467E+01  1.44186E+01
   1.39167E+01  1.34426E+01  1.29972E+01  1.25811E+01  1.21948E+01  1.18379E+01  1.15088E+01  1.12057E+01  1.09269E+01  1.06711E+01
   1.04372E+01  1.02234E+01  1.00275E+01  9.84768E+00  9.68247E+00  9.53110E+00  9.39261E+00  9.26556E+00  9.14837E+00  9.03990E+00
   8.93970E+00  8.84752E+00  8.76271E+00  8.68420E+00  8.61099E+00  8.54267E+00  8.47929E+00  8.42081E+00  8.36666E+00  8.31598E+00
   8.26826E+00  8.22353E+00  8.18208E+00  8.14380E+00  8.10810E+00  8.07434E+00  8.04239E+00  8.01253E+00  7.98501E+00  7.95957E+00
   7.93559E+00  7.91270E+00  7.89104E+00  7.87102E+00  7.85274E+00  7.83576E+00  7.81956E+00  7.80401E+00  7.78946E+00  7.77626E+00
   7.76429E+00  7.75305E+00  7.74216E+00  7.73177E+00  7.72232E+00  7.71398E+00  7.70644E+00  7.69920E+00  7.69210E+00  7.68547E+00
   7.67972E+00  7.67482E+00  7.67031E+00  7.66580E+00  7.66139E+00  7.65751E+00  7.65441E+00  7.65185E+00  7.64934E+00  7.64668E+00
   7.64415E+00  7.64218E+00  7.64081E+00  7.63963E+00  7.63822E+00  7.63659E+00  7.63516E+00  7.63423E+00
 NY background values follow
    -9.098E-01   -8.971E-01   -8.844E-01   -8.717E-01   -8.590E-01   -8.463E-01   -8.336E-01   -8.209E-01   -8.082E-01   -7.956E-01
    -7.829E-01   -7.702E-01   -7.575E-01   -7.448E-01   -7.321E-01   -7.194E-01   -7.067E-01   -6.940E-01   -6.813E-01   -6.686E-01
    -6.559E-01   -6.432E-01   -6.305E-01   -6.178E-01   -6.050E-01   -5.923E-01   -5.796E-01   -5.669E-01   -5.542E-01   -5.415E-01
    -5.288E-01   -5.161E-01   -5.033E-01   -4.906E-01   -4.779E-01   -4.652E-01   -4.525E-01   -4.397E-01   -4.270E-01   -4.143E-01
    -4.015E-01   -3.888E-01   -3.761E-01   -3.633E-01   -3.506E-01   -3.378E-01   -3.251E-01   -3.124E-01   -2.996E-01   -2.869E-01
    -2.741E-01   -2.613E-01   -2.486E-01   -2.358E-01   -2.231E-01   -2.103E-01   -1.975E-01   -1.848E-01   -1.720E-01   -1.592E-01
    -1.464E-01   -1.336E-01   -1.208E-01   -1.081E-01   -9.526E-02   -8.246E-02   -6.966E-02   -5.685E-02   -4.404E-02   -3.123E-02
    -1.841E-02   -5.585E-03    7.242E-03    2.007E-02    3.291E-02    4.575E-02    5.860E-02    7.145E-02    8.430E-02    9.716E-02
     1.100E-01    1.229E-01    1.358E-01    1.487E-01    1.615E-01    1.744E-01    1.873E-01    2.002E-01    2.131E-01    2.260E-01
     2.390E-01    2.519E-01    2.648E-01    2.778E-01    2.907E-01    3.037E-01    3.166E-01    3.296E-01    3.425E-01    3.555E-01
     3.685E-01    3.815E-01    3.945E-01    4.075E-01    4.205E-01    4.335E-01    4.465E-01    4.595E-01    4.726E-01    4.856E-01
     4.987E-01    5.117E-01    5.248E-01    5.378E-01    5.509E-01    5.640E-01    5.771E-01    5.902E-01    6.033E-01    6.164E-01
     6.295E-01    6.426E-01    6.557E-01    6.689E-01    6.820E-01    6.952E-01    7.083E-01    7.215E-01    7.347E-01    7.478E-01
     7.610E-01    7.742E-01    7.874E-01    8.006E-01    8.138E-01    8.271E-01    8.403E-01    8.535E-01    8.668E-01    8.801E-01
     8.933E-01    9.066E-01    9.199E-01    9.332E-01    9.465E-01    9.598E-01    9.731E-01    9.864E-01    9.998E-01    1.013E+00
     1.026E+00    1.040E+00    1.053E+00    1.067E+00    1.080E+00    1.093E+00    1.107E+00    1.120E+00    1.134E+00    1.147E+00
     1.161E+00    1.174E+00    1.188E+00    1.201E+00    1.215E+00    1.228E+00    1.242E+00    1.255E+00    1.269E+00    1.282E+00
     1.296E+00    1.310E+00    1.323E+00    1.337E+00    1.350E+00    1.364E+00    1.378E+00    1.391E+00    1.405E+00    1.419E+00
     1.433E+00    1.446E+00    1.460E+00    1.474E+00    1.488E+00    1.501E+00    1.515E+00    1.529E+00    1.543E+00    1.557E+00
     1.571E+00    1.584E+00    1.598E+00    1.612E+00    1.626E+00    1.640E+00    1.654E+00    1.668E+00    1.682E+00    1.696E+00
     1.710E+00    1.724E+00    1.738E+00    1.752E+00    1.766E+00    1.780E+00    1.794E+00    1.808E+00    1.822E+00    1.837E+00
     1.851E+00    1.865E+00    1.879E+00    1.893E+00    1.907E+00    1.922E+00    1.936E+00    1.950E+00    1.964E+00    1.978E+00
     1.993E+00    2.007E+00    2.021E+00    2.035E+00    2.050E+00    2.064E+00    2.078E+00    2.092E+00    2.107E+00    2.121E+00
     2.135E+00    2.150E+00    2.164E+00    2.178E+00    2.193E+00    2.207E+00    2.222E+00    2.236E+00    2.250E+00    2.265E+00
     2.279E+00    2.294E+00    2.308E+00    2.323E+00    2.337E+00    2.351E+00    2.366E+00    2.380E+00    2.395E+00    2.409E+00
     2.424E+00    2.438E+00    2.453E+00    2.468E+00    2.482E+00    2.497E+00    2.511E+00    2.526E+00    2.540E+00    2.555E+00
     2.570E+00    2.584E+00    2.599E+00    2.613E+00    2.628E+00    2.643E+00    2.657E+00    2.672E+00    2.687E+00    2.701E+00
     2.716E+00    2.731E+00    2.745E+00    2.760E+00    2.775E+00    2.789E+00    2.804E+00    2.819E+00    2.834E+00    2.848E+00
     2.863E+00    2.878E+00    2.893E+00    2.907E+00    2.922E+00    2.937E+00    2.952E+00    2.967E+00    2.981E+00    2.996E+00
     3.011E+00    3.026E+00    3.041E+00    3.055E+00    3.070E+00    3.085E+00    3.100E+00    3.115E+00    3.130E+00    3.145E+00
     3.159E+00    3.174E+00    3.189E+00    3.204E+00    3.219E+00    3.234E+00    3.249E+00    3.264E+00    3.279E+00    3.294E+00
     3.309E+00    3.323E+00    3.338E+00    3.353E+00    3.368E+00    3.383E+00    3.398E+00    3.413E+00    3.428E+00    3.443E+00
     3.458E+00    3.473E+00    3.488E+00    3.503E+00    3.518E+00    3.533E+00    3.548E+00    3.563E+00    3.578E+00    3.593E+00
     3.608E+00    3.623E+00    3.638E+00    3.653E+00    3.668E+00    3.683E+00    3.698E+00    3.713E+00    3.728E+00    3.743E+00
     3.758E+00    3.773E+00    3.788E+00    3.803E+00    3.818E+00    3.833E+00    3.849E+00    3.864E+00    3.879E+00    3.894E+00
     3.909E+00    3.924E+00    3.939E+00    3.954E+00    3.969E+00    3.984E+00    3.999E+00    4.014E+00    4.029E+00    4.044E+00
     4.059E+00    4.074E+00    4.090E+00    4.105E+00    4.120E+00    4.135E+00    4.150E+00    4.165E+00    4.180E+00    4.195E+00
     4.210E+00    4.225E+00    4.240E+00    4.255E+00    4.271E+00    4.286E+00    4.301E+00    4.316E+00    4.331E+00    4.346E+00
     4.361E+00    4.376E+00    4.391E+00    4.406E+00    4.421E+00    4.436E+00    4.451E+00    4.467E+00    4.482E+00    4.497E+00
     4.512E+00    4.527E+00    4.542E+00    4.557E+00    4.572E+00    4.587E+00    4.602E+00    4.617E+00    4.632E+00    4.647E+00
     4.663E+00    4.678E+00    4.693E+00    4.708E+00    4.723E+00    4.738E+00    4.753E+00    4.768E+00    4.783E+00    4.798E+00
     4.813E+00    4.828E+00    4.843E+00    4.858E+00    4.873E+00    4.888E+00    4.903E+00    4.919E+00    4.934E+00    4.949E+00
     4.964E+00    4.979E+00    4.994E+00    5.009E+00    5.024E+00    5.039E+00    5.054E+00    5.069E+00    5.084E+00    5.099E+00
     5.114E+00    5.129E+00    5.144E+00    5.159E+00    5.174E+00    5.189E+00    5.204E+00    5.219E+00    5.234E+00    5.249E+00
     5.264E+00    5.279E+00    5.294E+00    5.309E+00    5.324E+00    5.339E+00    5.354E+00    5.369E+00    5.384E+00    5.399E+00
     5.414E+00    5.429E+00    5.444E+00    5.459E+00    5.474E+00    5.489E+00    5.503E+00    5.518E+00    5.533E+00    5.548E+00
     5.563E+00    5.578E+00    5.593E+00    5.608E+00    5.623E+00    5.638E+00    5.653E+00    5.668E+00    5.682E+00    5.697E+00
     5.712E+00    5.727E+00    5.742E+00    5.757E+00    5.772E+00    5.787E+00    5.802E+00    5.816E+00    5.831E+00    5.846E+00
     5.861E+00    5.876E+00    5.891E+00    5.906E+00    5.920E+00    5.935E+00    5.950E+00    5.965E+00    5.980E+00    5.995E+00
     6.009E+00    6.024E+00    6.039E+00    6.054E+00    6.069E+00    6.083E+00    6.098E+00    6.113E+00
 Cr       Conc. = 1.11E+03
