 LCModel (Version 6.3-1L) Copyright: S.W. Provencher.          Ref.: Magn. Reson. Med. 30:672-679 (1993).                
 Slice#1 Row#7 Col#13  K_02_press_1_raw_act
 36 lines in following concentration table = NCONC+1
    Conc.  %SD /Cr+PCr  Metabolite                                         
  107.196  47%   6.426 Ala                                                 
    9.464 474%   0.567 Asp                                                 
    0.000 999%   0.000 Cr                                                  
   16.683 134%   1.000 PCr                                                 
    8.379 323%   0.502 GABA                                                
   19.462 140%   1.167 Glc                                                 
    0.000 999%   0.000 Gln                                                 
  192.549  57%  11.542 Glu                                                 
    0.000 999%   0.000 GPC                                                 
    0.000 999%   0.000 PCh                                                 
   11.266 295%   0.675 GSH                                                 
    0.000 999%   0.000 Ins                                                 
    0.000 999%   0.000 Lac                                                 
  538.813  13%  32.298 NAA                                                 
   83.906  86%   5.029 NAAG                                                
    3.274 232%   0.196 Scyllo                                              
    2.331 999%   0.140 Tau                                                 
    0.000 999%   0.000 -CrCH2                                              
    0.000 999%   0.000 GPC+PCh                                             
  622.719   8%  37.327 NAA+NAAG                                            
   16.683 134%   1.000 Cr+PCr                                              
  192.549  57%  11.542 Glu+Gln                                             
 1.60E+03  14%  95.609 Lip13a                                              
    0.000 999%   0.000 Lip13b                                              
  596.425  20%  35.751 Lip09                                               
 1.83E+03  10% 109.524 MM09                                                
  353.592  24%  21.195 Lip20                                               
 1.58E+03  13%  94.657 MM20                                                
    0.000 999%   0.000 MM12                                                
    0.000 999%   0.000 MM14                                                
  264.847  40%  15.875 MM17                                                
 1.60E+03  14%  95.609 Lip13a+Lip13b                                       
 1.60E+03  14%  95.609 MM14+Lip13a+Lip13b+MM12                             
 2.42E+03   6% 145.275 MM09+Lip09                                          
 1.93E+03  11% 115.852 MM20+Lip20                                          
   6 lines in following misc. output table
  FWHM = 0.038 ppm    S/N =   7                                            
  Data shift =-0.008 ppm                                                   
  Ph: -42 deg     -11.4 deg/ppm                                            
  alphaB,S = 5.1E+00,   4.3E+01                                            
   14 spline knots.   Ns = 7(1)                                            
  (10) 2 infls.   ( 7) 1 extrs.                                            
  498 points on ppm-axis = NY
      4.000000     3.992357     3.984714     3.977070     3.969427     3.961784     3.954141     3.946497     3.938854     3.931211
      3.923568     3.915925     3.908281     3.900638     3.892995     3.885352     3.877708     3.870065     3.862422     3.854779
      3.847136     3.839492     3.831849     3.824206     3.816563     3.808919     3.801276     3.793633     3.785990     3.778347
      3.770703     3.763060     3.755417     3.747774     3.740130     3.732487     3.724844     3.717201     3.709558     3.701914
      3.694271     3.686628     3.678985     3.671341     3.663698     3.656055     3.648412     3.640769     3.633125     3.625482
      3.617839     3.610196     3.602552     3.594909     3.587266     3.579623     3.571980     3.564336     3.556693     3.549050
      3.541407     3.533763     3.526120     3.518477     3.510834     3.503191     3.495547     3.487904     3.480261     3.472618
      3.464974     3.457331     3.449688     3.442045     3.434402     3.426758     3.419115     3.411472     3.403829     3.396185
      3.388542     3.380899     3.373256     3.365613     3.357969     3.350326     3.342683     3.335040     3.327396     3.319753
      3.312110     3.304467     3.296824     3.289180     3.281537     3.273894     3.266251     3.258607     3.250964     3.243321
      3.235678     3.228034     3.220391     3.212748     3.205105     3.197462     3.189818     3.182175     3.174532     3.166889
      3.159245     3.151602     3.143959     3.136316     3.128673     3.121029     3.113386     3.105743     3.098100     3.090456
      3.082813     3.075170     3.067527     3.059884     3.052240     3.044597     3.036954     3.029311     3.021667     3.014024
      3.006381     2.998738     2.991095     2.983451     2.975808     2.968165     2.960522     2.952878     2.945235     2.937592
      2.929949     2.922306     2.914662     2.907019     2.899376     2.891733     2.884089     2.876446     2.868803     2.861160
      2.853517     2.845873     2.838230     2.830587     2.822944     2.815300     2.807657     2.800014     2.792371     2.784728
      2.777084     2.769441     2.761798     2.754155     2.746511     2.738868     2.731225     2.723582     2.715939     2.708295
      2.700652     2.693009     2.685366     2.677722     2.670079     2.662436     2.654793     2.647150     2.639506     2.631863
      2.624220     2.616577     2.608933     2.601290     2.593647     2.586004     2.578361     2.570717     2.563074     2.555431
      2.547788     2.540144     2.532501     2.524858     2.517215     2.509572     2.501928     2.494285     2.486642     2.478999
      2.471355     2.463712     2.456069     2.448426     2.440783     2.433139     2.425496     2.417853     2.410210     2.402566
      2.394923     2.387280     2.379637     2.371994     2.364350     2.356707     2.349064     2.341421     2.333777     2.326134
      2.318491     2.310848     2.303205     2.295561     2.287918     2.280275     2.272632     2.264988     2.257345     2.249702
      2.242059     2.234416     2.226772     2.219129     2.211486     2.203843     2.196199     2.188556     2.180913     2.173270
      2.165627     2.157983     2.150340     2.142697     2.135054     2.127410     2.119767     2.112124     2.104481     2.096838
      2.089194     2.081551     2.073908     2.066265     2.058621     2.050978     2.043335     2.035692     2.028049     2.020405
      2.012762     2.005119     1.997476     1.989833     1.982190     1.974546     1.966903     1.959260     1.951617     1.943974
      1.936331     1.928688     1.921045     1.913402     1.905759     1.898115     1.890472     1.882829     1.875186     1.867543
      1.859900     1.852257     1.844614     1.836971     1.829327     1.821684     1.814041     1.806398     1.798755     1.791112
      1.783469     1.775826     1.768183     1.760540     1.752896     1.745253     1.737610     1.729967     1.722324     1.714681
      1.707038     1.699395     1.691752     1.684108     1.676465     1.668822     1.661179     1.653536     1.645893     1.638250
      1.630607     1.622964     1.615321     1.607677     1.600034     1.592391     1.584748     1.577105     1.569462     1.561819
      1.554176     1.546533     1.538890     1.531246     1.523603     1.515960     1.508317     1.500674     1.493031     1.485388
      1.477745     1.470102     1.462458     1.454815     1.447172     1.439529     1.431886     1.424243     1.416600     1.408957
      1.401314     1.393671     1.386027     1.378384     1.370741     1.363098     1.355455     1.347812     1.340169     1.332526
      1.324883     1.317240     1.309596     1.301953     1.294310     1.286667     1.279024     1.271381     1.263738     1.256095
      1.248452     1.240808     1.233165     1.225522     1.217879     1.210236     1.202593     1.194950     1.187307     1.179664
      1.172021     1.164377     1.156734     1.149091     1.141448     1.133805     1.126162     1.118519     1.110876     1.103233
      1.095590     1.087946     1.080303     1.072660     1.065017     1.057374     1.049731     1.042088     1.034445     1.026802
      1.019158     1.011515     1.003872     0.996229     0.988586     0.980943     0.973300     0.965657     0.958014     0.950371
      0.942727     0.935084     0.927441     0.919798     0.912155     0.904512     0.896869     0.889226     0.881583     0.873940
      0.866296     0.858653     0.851010     0.843367     0.835724     0.828081     0.820438     0.812795     0.805152     0.797508
      0.789865     0.782222     0.774579     0.766936     0.759293     0.751650     0.744007     0.736364     0.728721     0.721077
      0.713434     0.705791     0.698148     0.690505     0.682862     0.675219     0.667576     0.659933     0.652290     0.644646
      0.637003     0.629360     0.621717     0.614074     0.606431     0.598788     0.591145     0.583502     0.575858     0.568215
      0.560572     0.552929     0.545286     0.537643     0.530000     0.522357     0.514714     0.507071     0.499427     0.491784
      0.484141     0.476498     0.468855     0.461212     0.453569     0.445925     0.438282     0.430639     0.422996     0.415353
      0.407710     0.400067     0.392424     0.384780     0.377137     0.369494     0.361851     0.354208     0.346565     0.338922
      0.331278     0.323635     0.315992     0.308349     0.300706     0.293063     0.285420     0.277777     0.270133     0.262490
      0.254847     0.247204     0.239561     0.231918     0.224275     0.216631     0.208988     0.201345
 NY phased data points follow
  -6.71985E-02  7.58447E-02 -6.48825E-01 -3.81366E-01  5.45093E-02 -1.88525E-01  3.58606E+00 -2.85422E+00  3.62531E-01  2.82118E+00
   2.73739E+00  4.16666E+00  2.64650E+00  2.24785E+00  2.28490E+00  1.78466E+00 -2.21034E-01  7.95157E-01 -7.96556E-02  1.92237E+00
   1.28064E+00  5.56707E-01  1.52050E+00  3.31193E+00 -5.48359E-01  8.57864E-01  1.45012E+00  1.32553E-01  1.89112E+00 -4.95748E-01
   1.58604E+00  3.64498E+00 -2.25844E-01  3.21189E-01  2.65173E+00  1.58251E+00 -5.10823E-01 -1.08391E+00  1.31715E+00 -1.75783E+00
   1.48906E+00  4.12576E+00 -6.41414E-01  2.97911E+00  3.36605E+00  8.89468E-01  1.44263E+00  4.26669E+00  1.37038E+00  1.80792E+00
   1.70348E+00  3.67887E+00  1.36693E+00  2.97615E+00  3.68900E+00  3.72424E-01  1.19739E+00  2.81725E+00  2.95117E+00 -4.22016E-02
   1.42677E+00  1.89211E+00  1.50455E+00 -1.10375E+00  2.21342E+00 -1.09560E+00  9.61198E-01  7.46182E-01  3.70018E+00  2.42838E+00
   1.35448E+00  3.90507E+00 -3.91134E-01  3.36764E-01  2.74452E+00  1.84677E+00  4.12275E+00  4.21849E+00 -5.65541E-01  2.59470E+00
   3.12087E+00  1.49624E+00  4.84539E+00 -1.57548E+00  4.47615E+00  2.96804E+00 -1.70673E+00  2.87957E+00  4.72890E+00  6.60361E-01
   2.39680E+00  2.63291E+00  2.19636E+00 -1.94632E+00  9.56476E-01  3.80636E-01  1.32765E+00  2.55124E-01  3.17612E+00  6.29552E-01
   1.46482E+00 -2.13081E+00  4.30709E+00  2.86051E+00  3.59760E+00  2.82907E+00  6.28749E-01 -1.88602E+00 -2.71685E+00 -1.15022E+00
  -2.42422E+00  1.87957E+00  5.75285E-01 -1.57759E+00  1.87580E+00  3.15889E+00  2.15464E+00  2.23061E+00  4.49680E+00  1.74020E+00
   3.53620E+00  8.29737E-01 -6.83063E-01  2.19224E+00  1.39074E+00  3.15994E+00  5.06864E+00  4.15753E+00  4.79222E+00  1.08371E+00
  -4.17360E-02 -3.89595E+00  2.56763E+00  6.05311E-01  1.42733E+00  1.97723E+00  5.49591E-01  2.04941E+00  1.18424E+00  2.15070E+00
   5.63571E+00  4.93655E+00  3.34078E+00  3.48774E+00  2.95114E+00  2.43538E+00  4.82760E+00  3.64948E+00  4.13729E+00  1.47218E+00
   4.16694E+00  5.87040E+00  1.35287E+00  3.17561E+00  5.37749E+00  1.09282E+00  2.99167E+00  4.02552E-01  5.26728E+00  4.60311E+00
   5.09382E+00  2.87217E+00  4.83041E+00  3.34513E+00  4.03327E+00  2.32960E+00  2.57741E+00  4.95565E+00  3.04921E+00  5.26253E+00
   7.15794E-01  2.85746E+00  4.51001E+00  9.25432E-01  1.73631E+00  6.53764E+00  2.73689E+00  3.28719E+00  1.59020E+00  3.22876E+00
   3.97843E+00  5.84942E+00  3.63773E+00  3.21468E+00  5.23804E-01  3.34703E+00  3.22837E+00  2.02735E-01  3.27986E+00  2.61073E+00
   2.46956E+00  1.71469E+00  5.84502E+00  1.48812E+00  2.13356E+00  3.08705E+00  3.61286E+00  8.71279E-01 -6.83635E-01  1.96202E+00
   2.60928E+00  6.09014E-03 -1.83651E+00  1.62936E+00  3.08991E+00  1.06186E+00  2.93357E+00  5.12353E+00  2.78896E+00  4.18252E+00
   3.32910E+00 -2.48944E-01  1.69863E+00  3.27597E+00  4.51053E+00  3.18523E+00  7.15694E+00  5.22266E+00  5.50131E+00  2.89047E+00
   2.49313E+00  2.75378E+00  1.03961E+00  2.55162E+00  1.85781E+00  3.15919E+00  5.75581E+00  4.77352E+00  1.95062E+00  5.95662E+00
   6.56990E+00  2.43131E+00  3.90245E+00  5.09730E+00  6.72778E+00  2.85372E+00  6.32833E+00  6.42273E+00  4.31370E+00  7.28991E+00
   2.21135E+00  4.32855E+00  6.02032E+00  6.01261E+00  4.40361E+00  4.60476E+00  8.18789E+00  9.02746E+00  8.14533E+00  8.40358E+00
   6.96183E+00  9.97003E+00  9.53422E+00  1.06392E+01  1.50838E+01  1.43694E+01  1.79601E+01  2.24461E+01  2.50841E+01  3.16458E+01
   3.39912E+01  2.78313E+01  2.71503E+01  2.00906E+01  1.49596E+01  1.34205E+01  1.06795E+01  8.02221E+00  8.73778E+00  6.96728E+00
   7.40441E+00  3.76437E+00  1.86617E+00  1.62646E+00  2.55955E+00  4.71437E+00  3.78789E+00  1.01799E+00  3.45021E+00  4.44799E+00
   6.13915E-01  1.96577E+00  5.88047E+00  4.46705E+00  8.33757E-01  7.26823E+00  5.68687E+00  3.71362E+00  6.22273E+00  2.59828E+00
   4.89454E+00  4.57241E+00  5.35123E+00  4.95494E+00  3.99046E+00  4.36322E+00  5.21102E+00  1.35923E+00  2.19077E+00  6.39453E+00
   3.35228E+00  2.03384E+00  2.71819E+00  5.10997E+00  3.32454E+00  4.89059E+00  3.32460E+00  3.05889E+00  3.44769E+00  5.65715E+00
   3.21867E+00  2.71730E+00  4.85049E+00  5.67837E+00  6.66783E+00  5.94300E+00  4.32082E+00  2.96396E+00  1.20208E+00  3.59094E-01
   3.58483E+00  1.16759E+00  3.66217E+00  1.36125E+00  2.89469E+00  2.75045E+00  2.30532E+00  1.71457E+00  2.69486E-01  1.18078E+00
   1.07317E+00  2.35639E+00  8.50148E-01  2.91704E+00  4.36961E+00  4.43037E+00  5.94142E+00  5.40415E+00  8.73628E+00  6.69707E+00
   8.60020E+00  1.08872E+01  8.32449E+00  9.79003E+00  8.11791E+00  1.08625E+01  8.16284E+00  6.22949E+00  9.05959E+00  9.53365E+00
   9.98465E+00  1.03892E+01  8.87961E+00  8.65685E+00  8.75746E+00  7.83317E+00  5.24301E+00  5.44306E+00  4.33296E+00  2.86443E+00
   4.22916E+00  3.01665E+00  3.33589E+00  5.98682E+00  5.65166E+00  8.55073E+00  3.78620E+00  4.02720E+00  4.49585E+00  4.80810E+00
   2.34226E+00  4.77390E+00  3.92857E+00  3.78696E+00  5.79936E+00  6.19924E+00  4.35479E+00  1.05082E+01  2.12968E+00  4.85054E+00
   5.50986E+00  5.26457E+00  5.41472E+00  6.60671E+00  5.88582E+00  6.22587E+00  6.08180E+00  7.46579E+00  6.87988E+00  9.63808E+00
   1.02266E+01  9.93638E+00  1.07986E+01  1.20308E+01  1.05193E+01  1.61923E+01  1.25671E+01  1.64686E+01  1.30499E+01  1.67502E+01
   1.47046E+01  1.22141E+01  1.44758E+01  1.30852E+01  1.43434E+01  1.22017E+01  1.21489E+01  1.10625E+01  1.00735E+01  1.00593E+01
   1.01276E+01  9.44984E+00  7.04228E+00  9.01520E+00  5.93178E+00  6.82157E+00  6.52735E+00  6.24601E+00  5.63981E+00  4.53993E+00
   3.65710E+00  1.42065E+00  4.23366E+00  1.93756E+00  6.64402E+00  3.31031E+00 -3.84976E-01  2.47268E-01  3.60611E+00  4.47285E-01
   2.35013E+00 -3.37734E+00 -7.19595E-02  1.02587E+00  1.52108E+00 -1.19139E+00 -1.71156E+00 -1.61874E+00  7.23016E-02 -1.68047E+00
  -2.06519E+00 -1.66682E+00  1.41133E+00 -3.30621E-01  8.98780E-01 -1.13545E+00 -2.34807E+00 -5.34296E+00 -5.48285E+00 -5.75604E+00
   1.69436E-01 -5.21750E+00 -9.80360E-01 -3.92308E+00 -9.33093E-01 -3.34760E+00 -4.43586E+00 -5.43133E+00 -3.74754E+00 -2.03958E+00
  -1.57695E+00 -4.17215E+00 -3.59613E+00 -3.74426E+00 -3.30137E+00 -3.26767E+00 -1.62114E+00 -7.19311E+00 -1.07835E+00 -6.10419E+00
  -5.85622E+00 -2.47680E+00 -5.15387E+00 -3.21355E+00 -7.07299E+00 -6.33352E+00 -5.61761E+00 -2.78111E+00 -4.61162E+00 -3.89440E+00
  -4.87510E+00 -5.02056E+00 -5.50273E+00 -2.24499E+00 -5.24814E+00 -5.96242E+00 -7.18900E+00 -6.53671E+00 -5.32656E+00 -4.52700E+00
  -5.46976E+00 -6.85215E+00 -4.28993E+00 -4.81698E+00 -3.58508E+00 -7.14675E+00 -6.48975E+00 -2.26060E+00
 NY points of the fit to the data follow
   8.27623E-01  8.25436E-01  8.28004E-01  8.44281E-01  8.74241E-01  9.27318E-01  1.01378E+00  1.13300E+00  1.26671E+00  1.38102E+00
   1.45039E+00  1.46665E+00  1.43606E+00  1.37766E+00  1.30450E+00  1.22131E+00  1.13640E+00  1.06900E+00  1.04170E+00  1.07222E+00
   1.16761E+00  1.31611E+00  1.49209E+00  1.67071E+00  1.80359E+00  1.81867E+00  1.69112E+00  1.47467E+00  1.25866E+00  1.12084E+00
   1.12045E+00  1.28374E+00  1.57937E+00  1.92047E+00  2.18713E+00  2.28779E+00  2.21031E+00  2.01854E+00  1.81131E+00  1.65502E+00
   1.57245E+00  1.57010E+00  1.62746E+00  1.69802E+00  1.74793E+00  1.77274E+00  1.77615E+00  1.76747E+00  1.76247E+00  1.76480E+00
   1.77128E+00  1.77913E+00  1.78619E+00  1.79182E+00  1.79552E+00  1.79549E+00  1.79129E+00  1.78524E+00  1.77967E+00  1.77600E+00
   1.77492E+00  1.77524E+00  1.77591E+00  1.77678E+00  1.77740E+00  1.77719E+00  1.77459E+00  1.76933E+00  1.76284E+00  1.75756E+00
   1.75536E+00  1.75852E+00  1.76922E+00  1.78826E+00  1.81297E+00  1.83708E+00  1.85342E+00  1.85773E+00  1.84884E+00  1.83342E+00
   1.82147E+00  1.81589E+00  1.82469E+00  1.85622E+00  1.91013E+00  1.97299E+00  2.02149E+00  2.03850E+00  2.02301E+00  1.98391E+00
   1.93434E+00  1.88505E+00  1.84113E+00  1.80616E+00  1.78459E+00  1.77420E+00  1.76881E+00  1.76834E+00  1.77189E+00  1.77768E+00
   1.78370E+00  1.78792E+00  1.78892E+00  1.78727E+00  1.78488E+00  1.78346E+00  1.78442E+00  1.78871E+00  1.79690E+00  1.81043E+00
   1.83007E+00  1.85514E+00  1.88480E+00  1.91769E+00  1.95280E+00  1.98974E+00  2.02674E+00  2.06139E+00  2.09246E+00  2.12356E+00
   2.17531E+00  2.25339E+00  2.36272E+00  2.52270E+00  2.74260E+00  3.00292E+00  3.25230E+00  3.43346E+00  3.52254E+00  3.53412E+00
   3.50009E+00  3.45067E+00  3.40223E+00  3.35968E+00  3.32842E+00  3.31302E+00  3.30131E+00  3.29618E+00  3.30794E+00  3.33541E+00
   3.37020E+00  3.40296E+00  3.42672E+00  3.43825E+00  3.43955E+00  3.43363E+00  3.42324E+00  3.41049E+00  3.39541E+00  3.37943E+00
   3.36236E+00  3.34318E+00  3.32734E+00  3.32055E+00  3.31519E+00  3.30799E+00  3.29537E+00  3.25176E+00  3.16119E+00  3.02034E+00
   2.86548E+00  2.77602E+00  2.79088E+00  2.87781E+00  2.95997E+00  2.96025E+00  2.85757E+00  2.68471E+00  2.47982E+00  2.26865E+00
   2.07583E+00  1.91986E+00  1.77370E+00  1.61325E+00  1.42849E+00  1.26542E+00  1.19418E+00  1.20545E+00  1.22990E+00  1.21286E+00
   1.13964E+00  1.05160E+00  1.00099E+00  9.73975E-01  9.51316E-01  9.61596E-01  1.05775E+00  1.25396E+00  1.51911E+00  1.79043E+00
   2.03245E+00  2.20950E+00  2.30776E+00  2.35330E+00  2.35972E+00  2.32659E+00  2.26212E+00  2.18238E+00  2.09135E+00  2.02719E+00
   2.03418E+00  2.13128E+00  2.30138E+00  2.47358E+00  2.57283E+00  2.55112E+00  2.37659E+00  2.09543E+00  1.78634E+00  1.51679E+00
   1.34548E+00  1.32330E+00  1.51179E+00  1.90577E+00  2.40748E+00  2.83403E+00  3.01586E+00  2.90504E+00  2.55818E+00  2.07752E+00
   1.59997E+00  1.27958E+00  1.25334E+00  1.55707E+00  2.08789E+00  2.67295E+00  3.18044E+00  3.55002E+00  3.77008E+00  3.86674E+00
   3.89059E+00  3.91985E+00  4.02281E+00  4.20215E+00  4.41590E+00  4.62803E+00  4.80052E+00  4.92349E+00  5.00599E+00  5.07016E+00
   5.15909E+00  5.32461E+00  5.59535E+00  5.96015E+00  6.36454E+00  6.74220E+00  7.04467E+00  7.24627E+00  7.36894E+00  7.53205E+00
   7.78674E+00  8.17432E+00  8.82380E+00  1.01323E+01  1.23146E+01  1.49239E+01  1.80813E+01  2.20253E+01  2.63762E+01  2.99207E+01
   3.11177E+01  2.93468E+01  2.53510E+01  2.04290E+01  1.58054E+01  1.21354E+01  9.55955E+00  8.10790E+00  7.67208E+00  7.60287E+00
   7.32311E+00  7.00071E+00  6.70810E+00  6.43502E+00  6.16423E+00  5.89024E+00  5.61247E+00  5.33951E+00  5.08157E+00  4.84816E+00
   4.64454E+00  4.47246E+00  4.32829E+00  4.20345E+00  4.09043E+00  3.98765E+00  3.89674E+00  3.81997E+00  3.76022E+00  3.72077E+00
   3.70431E+00  3.70865E+00  3.72699E+00  3.75361E+00  3.78503E+00  3.81806E+00  3.85149E+00  3.88523E+00  3.91958E+00  3.95479E+00
   3.98941E+00  4.01932E+00  4.04051E+00  4.04987E+00  4.04553E+00  4.02682E+00  3.99394E+00  3.94823E+00  3.89221E+00  3.82802E+00
   3.75793E+00  3.68461E+00  3.61091E+00  3.53997E+00  3.47517E+00  3.42014E+00  3.37904E+00  3.35709E+00  3.36231E+00  3.41086E+00
   3.52995E+00  3.69005E+00  3.85704E+00  4.02619E+00  4.13326E+00  4.06928E+00  3.74401E+00  3.17094E+00  2.54349E+00  2.08587E+00
   1.90281E+00  2.06665E+00  2.59761E+00  3.44255E+00  4.46021E+00  5.41041E+00  6.08180E+00  6.45599E+00  6.62491E+00  6.68879E+00
   6.73542E+00  6.81128E+00  6.94915E+00  7.17209E+00  7.43649E+00  7.68108E+00  7.90060E+00  8.09232E+00  8.25134E+00  8.37300E+00
   8.45354E+00  8.49035E+00  8.48208E+00  8.42867E+00  8.33134E+00  8.19254E+00  8.01587E+00  7.80593E+00  7.56811E+00  7.30835E+00
   7.03291E+00  6.74819E+00  6.46051E+00  6.17594E+00  5.90014E+00  5.63818E+00  5.39454E+00  5.17307E+00  4.97703E+00  4.80906E+00
   4.67127E+00  4.56532E+00  4.49249E+00  4.45383E+00  4.45022E+00  4.48244E+00  4.55123E+00  4.65732E+00  4.80146E+00  4.98446E+00
   5.20709E+00  5.46999E+00  5.77361E+00  6.11803E+00  6.50284E+00  6.92698E+00  7.38853E+00  7.88452E+00  8.41074E+00  8.96169E+00
   9.53047E+00  1.01088E+01  1.06869E+01  1.12541E+01  1.17986E+01  1.23078E+01  1.27694E+01  1.31710E+01  1.35012E+01  1.37498E+01
   1.39082E+01  1.39702E+01  1.39321E+01  1.37925E+01  1.35530E+01  1.32176E+01  1.27928E+01  1.22870E+01  1.17105E+01  1.10746E+01
   1.03911E+01  9.67239E+00  8.93028E+00  8.17612E+00  7.42028E+00  6.67197E+00  5.93912E+00  5.22832E+00  4.54483E+00  3.89268E+00
   3.27474E+00  2.69284E+00  2.14792E+00  1.64022E+00  1.16936E+00  7.34492E-01  3.34401E-01 -3.24302E-02 -3.67710E-01 -6.73268E-01
  -9.51004E-01 -1.20286E+00 -1.43080E+00 -1.63674E+00 -1.82257E+00 -1.99008E+00 -2.14095E+00 -2.27681E+00 -2.39917E+00 -2.50944E+00
  -2.60889E+00 -2.69870E+00 -2.77990E+00 -2.85348E+00 -2.92029E+00 -2.98112E+00 -3.03663E+00 -3.08742E+00 -3.13402E+00 -3.17691E+00
  -3.21651E+00 -3.25318E+00 -3.28724E+00 -3.31895E+00 -3.34856E+00 -3.37630E+00 -3.40237E+00 -3.42693E+00 -3.45011E+00 -3.47204E+00
  -3.49285E+00 -3.51263E+00 -3.53150E+00 -3.54950E+00 -3.56672E+00 -3.58321E+00 -3.59904E+00 -3.61426E+00 -3.62892E+00 -3.64305E+00
  -3.65667E+00 -3.66983E+00 -3.68255E+00 -3.69488E+00 -3.70683E+00 -3.71841E+00 -3.72963E+00 -3.74053E+00 -3.75111E+00 -3.76141E+00
  -3.77141E+00 -3.78113E+00 -3.79057E+00 -3.79974E+00 -3.80867E+00 -3.81735E+00 -3.82578E+00 -3.83395E+00 -3.84188E+00 -3.84958E+00
  -3.85704E+00 -3.86425E+00 -3.87122E+00 -3.87793E+00 -3.88438E+00 -3.89058E+00 -3.89652E+00 -3.90218E+00
 NY background values follow
     2.946E+00    2.966E+00    2.987E+00    3.007E+00    3.027E+00    3.047E+00    3.066E+00    3.085E+00    3.105E+00    3.124E+00
     3.142E+00    3.161E+00    3.179E+00    3.198E+00    3.216E+00    3.233E+00    3.251E+00    3.269E+00    3.286E+00    3.303E+00
     3.320E+00    3.336E+00    3.353E+00    3.369E+00    3.385E+00    3.401E+00    3.417E+00    3.433E+00    3.448E+00    3.463E+00
     3.478E+00    3.493E+00    3.507E+00    3.522E+00    3.536E+00    3.550E+00    3.564E+00    3.578E+00    3.591E+00    3.604E+00
     3.617E+00    3.630E+00    3.643E+00    3.655E+00    3.668E+00    3.680E+00    3.692E+00    3.704E+00    3.715E+00    3.726E+00
     3.738E+00    3.749E+00    3.759E+00    3.770E+00    3.780E+00    3.791E+00    3.801E+00    3.811E+00    3.820E+00    3.830E+00
     3.839E+00    3.848E+00    3.857E+00    3.866E+00    3.874E+00    3.883E+00    3.891E+00    3.899E+00    3.907E+00    3.914E+00
     3.922E+00    3.929E+00    3.936E+00    3.943E+00    3.950E+00    3.956E+00    3.963E+00    3.969E+00    3.975E+00    3.981E+00
     3.986E+00    3.992E+00    3.997E+00    4.002E+00    4.007E+00    4.012E+00    4.016E+00    4.020E+00    4.025E+00    4.029E+00
     4.032E+00    4.036E+00    4.039E+00    4.043E+00    4.046E+00    4.049E+00    4.051E+00    4.054E+00    4.056E+00    4.059E+00
     4.061E+00    4.062E+00    4.064E+00    4.066E+00    4.067E+00    4.068E+00    4.069E+00    4.070E+00    4.071E+00    4.071E+00
     4.071E+00    4.071E+00    4.071E+00    4.071E+00    4.071E+00    4.070E+00    4.070E+00    4.069E+00    4.068E+00    4.066E+00
     4.065E+00    4.063E+00    4.062E+00    4.060E+00    4.058E+00    4.055E+00    4.053E+00    4.050E+00    4.048E+00    4.045E+00
     4.042E+00    4.038E+00    4.035E+00    4.031E+00    4.028E+00    4.024E+00    4.020E+00    4.016E+00    4.011E+00    4.007E+00
     4.002E+00    3.997E+00    3.992E+00    3.987E+00    3.982E+00    3.976E+00    3.970E+00    3.965E+00    3.959E+00    3.953E+00
     3.946E+00    3.940E+00    3.933E+00    3.927E+00    3.920E+00    3.913E+00    3.906E+00    3.898E+00    3.891E+00    3.883E+00
     3.875E+00    3.867E+00    3.859E+00    3.851E+00    3.843E+00    3.834E+00    3.825E+00    3.817E+00    3.808E+00    3.799E+00
     3.789E+00    3.780E+00    3.770E+00    3.761E+00    3.751E+00    3.741E+00    3.731E+00    3.720E+00    3.710E+00    3.699E+00
     3.689E+00    3.678E+00    3.667E+00    3.656E+00    3.645E+00    3.633E+00    3.622E+00    3.610E+00    3.598E+00    3.586E+00
     3.574E+00    3.562E+00    3.550E+00    3.537E+00    3.525E+00    3.512E+00    3.499E+00    3.486E+00    3.473E+00    3.460E+00
     3.447E+00    3.433E+00    3.419E+00    3.406E+00    3.392E+00    3.378E+00    3.364E+00    3.350E+00    3.335E+00    3.321E+00
     3.306E+00    3.292E+00    3.277E+00    3.262E+00    3.247E+00    3.232E+00    3.216E+00    3.201E+00    3.185E+00    3.170E+00
     3.154E+00    3.138E+00    3.122E+00    3.106E+00    3.090E+00    3.074E+00    3.057E+00    3.041E+00    3.024E+00    3.008E+00
     2.991E+00    2.974E+00    2.957E+00    2.940E+00    2.922E+00    2.905E+00    2.888E+00    2.870E+00    2.853E+00    2.835E+00
     2.817E+00    2.799E+00    2.781E+00    2.763E+00    2.745E+00    2.727E+00    2.708E+00    2.690E+00    2.671E+00    2.653E+00
     2.634E+00    2.615E+00    2.596E+00    2.577E+00    2.558E+00    2.539E+00    2.520E+00    2.501E+00    2.481E+00    2.462E+00
     2.442E+00    2.423E+00    2.403E+00    2.383E+00    2.363E+00    2.343E+00    2.323E+00    2.303E+00    2.283E+00    2.263E+00
     2.243E+00    2.222E+00    2.202E+00    2.182E+00    2.161E+00    2.140E+00    2.120E+00    2.099E+00    2.078E+00    2.058E+00
     2.037E+00    2.016E+00    1.995E+00    1.974E+00    1.952E+00    1.931E+00    1.910E+00    1.889E+00    1.867E+00    1.846E+00
     1.825E+00    1.803E+00    1.782E+00    1.760E+00    1.738E+00    1.717E+00    1.695E+00    1.673E+00    1.651E+00    1.630E+00
     1.608E+00    1.586E+00    1.564E+00    1.542E+00    1.520E+00    1.498E+00    1.476E+00    1.453E+00    1.431E+00    1.409E+00
     1.387E+00    1.365E+00    1.342E+00    1.320E+00    1.298E+00    1.275E+00    1.253E+00    1.230E+00    1.208E+00    1.185E+00
     1.163E+00    1.140E+00    1.118E+00    1.095E+00    1.073E+00    1.050E+00    1.028E+00    1.005E+00    9.823E-01    9.596E-01
     9.370E-01    9.143E-01    8.916E-01    8.689E-01    8.462E-01    8.235E-01    8.008E-01    7.781E-01    7.553E-01    7.326E-01
     7.099E-01    6.871E-01    6.644E-01    6.417E-01    6.189E-01    5.962E-01    5.734E-01    5.507E-01    5.280E-01    5.053E-01
     4.826E-01    4.599E-01    4.372E-01    4.145E-01    3.918E-01    3.691E-01    3.465E-01    3.238E-01    3.012E-01    2.786E-01
     2.560E-01    2.334E-01    2.109E-01    1.883E-01    1.658E-01    1.433E-01    1.208E-01    9.837E-02    7.593E-02    5.352E-02
     3.114E-02    8.781E-03   -1.355E-02   -3.585E-02   -5.813E-02   -8.037E-02   -1.026E-01   -1.248E-01   -1.469E-01   -1.690E-01
    -1.911E-01   -2.132E-01   -2.352E-01   -2.572E-01   -2.791E-01   -3.010E-01   -3.229E-01   -3.447E-01   -3.665E-01   -3.882E-01
    -4.099E-01   -4.315E-01   -4.531E-01   -4.747E-01   -4.962E-01   -5.177E-01   -5.391E-01   -5.605E-01   -5.818E-01   -6.030E-01
    -6.242E-01   -6.454E-01   -6.665E-01   -6.876E-01   -7.086E-01   -7.295E-01   -7.504E-01   -7.712E-01   -7.920E-01   -8.127E-01
    -8.333E-01   -8.539E-01   -8.744E-01   -8.949E-01   -9.153E-01   -9.356E-01   -9.559E-01   -9.761E-01   -9.962E-01   -1.016E+00
    -1.036E+00   -1.056E+00   -1.076E+00   -1.096E+00   -1.116E+00   -1.135E+00   -1.155E+00   -1.174E+00   -1.194E+00   -1.213E+00
    -1.232E+00   -1.251E+00   -1.270E+00   -1.289E+00   -1.308E+00   -1.327E+00   -1.346E+00   -1.365E+00   -1.383E+00   -1.402E+00
    -1.420E+00   -1.438E+00   -1.457E+00   -1.475E+00   -1.493E+00   -1.511E+00   -1.529E+00   -1.546E+00   -1.564E+00   -1.582E+00
    -1.599E+00   -1.617E+00   -1.634E+00   -1.651E+00   -1.668E+00   -1.685E+00   -1.702E+00   -1.719E+00   -1.736E+00   -1.752E+00
    -1.769E+00   -1.785E+00   -1.801E+00   -1.817E+00   -1.833E+00   -1.849E+00   -1.865E+00   -1.881E+00   -1.897E+00   -1.912E+00
    -1.928E+00   -1.943E+00   -1.958E+00   -1.973E+00   -1.988E+00   -2.003E+00   -2.017E+00   -2.032E+00   -2.047E+00   -2.061E+00
    -2.075E+00   -2.089E+00   -2.103E+00   -2.117E+00   -2.131E+00   -2.144E+00   -2.158E+00   -2.171E+00   -2.184E+00   -2.198E+00
    -2.211E+00   -2.223E+00   -2.236E+00   -2.249E+00   -2.261E+00   -2.273E+00   -2.286E+00   -2.298E+00
 Ala      Conc. = 1.07E+02
