 LCModel (Version 6.3-1L) Copyright: S.W. Provencher.          Ref.: Magn. Reson. Med. 30:672-679 (1993).                
 Slice#1 Row#8 Col#13  K_02_press_1_raw_act
 36 lines in following concentration table = NCONC+1
    Conc.  %SD /Cr+PCr  Metabolite                                         
  116.322  41%  69.365 Ala                                                 
   37.951  96%  22.631 Asp                                                 
    1.677 814%   1.000 Cr                                                  
    0.000 999%   0.000 PCr                                                 
   20.894 106%  12.460 GABA                                                
   30.668  72%  18.288 Glc                                                 
    0.000 999%   0.000 Gln                                                 
  368.628  29% 219.818 Glu                                                 
    0.000 999%   0.000 GPC                                                 
    0.000 999%   0.000 PCh                                                 
   34.355  90%  20.487 GSH                                                 
  170.550  54% 101.702 Ins                                                 
   39.255 130%  23.408 Lac                                                 
  650.610  10% 387.968 NAA                                                 
  138.504  50%  82.592 NAAG                                                
    5.205 123%   3.104 Scyllo                                              
   30.006 117%  17.893 Tau                                                 
    0.000 999%   0.000 -CrCH2                                              
    0.000 999%   0.000 GPC+PCh                                             
  789.114   4% 470.560 NAA+NAAG                                            
    1.677 814%   1.000 Cr+PCr                                              
  368.628  29% 219.818 Glu+Gln                                             
 3.11E+03  11% 1.9E+03 Lip13a                                              
    0.000 999%   0.000 Lip13b                                              
  610.574  23% 364.094 Lip09                                               
   70.169 185%  41.843 MM09                                                
  479.551  23% 285.963 Lip20                                               
    0.000 999%   0.000 MM20                                                
   16.762 431%   9.995 MM12                                                
  488.808  44% 291.483 MM14                                                
  514.465  21% 306.783 MM17                                                
 3.11E+03  11% 1.9E+03 Lip13a+Lip13b                                       
 3.61E+03   6% 2.2E+03 MM14+Lip13a+Lip13b+MM12                             
  680.742  14% 405.937 MM09+Lip09                                          
  479.551  23% 285.963 MM20+Lip20                                          
   6 lines in following misc. output table
  FWHM = 0.046 ppm    S/N =   7                                            
  Data shift =-0.015 ppm                                                   
  Ph: -20 deg     -17.2 deg/ppm                                            
  alphaB,S = 8.5E+01,   2.6E+01                                            
   14 spline knots.   Ns = 6(1)                                            
   2 inflections.     1 extrema                                            
  498 points on ppm-axis = NY
      4.000000     3.992357     3.984714     3.977070     3.969427     3.961784     3.954141     3.946497     3.938854     3.931211
      3.923568     3.915925     3.908281     3.900638     3.892995     3.885352     3.877708     3.870065     3.862422     3.854779
      3.847136     3.839492     3.831849     3.824206     3.816563     3.808919     3.801276     3.793633     3.785990     3.778347
      3.770703     3.763060     3.755417     3.747774     3.740130     3.732487     3.724844     3.717201     3.709558     3.701914
      3.694271     3.686628     3.678985     3.671341     3.663698     3.656055     3.648412     3.640769     3.633125     3.625482
      3.617839     3.610196     3.602552     3.594909     3.587266     3.579623     3.571980     3.564336     3.556693     3.549050
      3.541407     3.533763     3.526120     3.518477     3.510834     3.503191     3.495547     3.487904     3.480261     3.472618
      3.464974     3.457331     3.449688     3.442045     3.434402     3.426758     3.419115     3.411472     3.403829     3.396185
      3.388542     3.380899     3.373256     3.365613     3.357969     3.350326     3.342683     3.335040     3.327396     3.319753
      3.312110     3.304467     3.296824     3.289180     3.281537     3.273894     3.266251     3.258607     3.250964     3.243321
      3.235678     3.228034     3.220391     3.212748     3.205105     3.197462     3.189818     3.182175     3.174532     3.166889
      3.159245     3.151602     3.143959     3.136316     3.128673     3.121029     3.113386     3.105743     3.098100     3.090456
      3.082813     3.075170     3.067527     3.059884     3.052240     3.044597     3.036954     3.029311     3.021667     3.014024
      3.006381     2.998738     2.991095     2.983451     2.975808     2.968165     2.960522     2.952878     2.945235     2.937592
      2.929949     2.922306     2.914662     2.907019     2.899376     2.891733     2.884089     2.876446     2.868803     2.861160
      2.853517     2.845873     2.838230     2.830587     2.822944     2.815300     2.807657     2.800014     2.792371     2.784728
      2.777084     2.769441     2.761798     2.754155     2.746511     2.738868     2.731225     2.723582     2.715939     2.708295
      2.700652     2.693009     2.685366     2.677722     2.670079     2.662436     2.654793     2.647150     2.639506     2.631863
      2.624220     2.616577     2.608933     2.601290     2.593647     2.586004     2.578361     2.570717     2.563074     2.555431
      2.547788     2.540144     2.532501     2.524858     2.517215     2.509572     2.501928     2.494285     2.486642     2.478999
      2.471355     2.463712     2.456069     2.448426     2.440783     2.433139     2.425496     2.417853     2.410210     2.402566
      2.394923     2.387280     2.379637     2.371994     2.364350     2.356707     2.349064     2.341421     2.333777     2.326134
      2.318491     2.310848     2.303205     2.295561     2.287918     2.280275     2.272632     2.264988     2.257345     2.249702
      2.242059     2.234416     2.226772     2.219129     2.211486     2.203843     2.196199     2.188556     2.180913     2.173270
      2.165627     2.157983     2.150340     2.142697     2.135054     2.127410     2.119767     2.112124     2.104481     2.096838
      2.089194     2.081551     2.073908     2.066265     2.058621     2.050978     2.043335     2.035692     2.028049     2.020405
      2.012762     2.005119     1.997476     1.989833     1.982190     1.974546     1.966903     1.959260     1.951617     1.943974
      1.936331     1.928688     1.921045     1.913402     1.905759     1.898115     1.890472     1.882829     1.875186     1.867543
      1.859900     1.852257     1.844614     1.836971     1.829327     1.821684     1.814041     1.806398     1.798755     1.791112
      1.783469     1.775826     1.768183     1.760540     1.752896     1.745253     1.737610     1.729967     1.722324     1.714681
      1.707038     1.699395     1.691752     1.684108     1.676465     1.668822     1.661179     1.653536     1.645893     1.638250
      1.630607     1.622964     1.615321     1.607677     1.600034     1.592391     1.584748     1.577105     1.569462     1.561819
      1.554176     1.546533     1.538890     1.531246     1.523603     1.515960     1.508317     1.500674     1.493031     1.485388
      1.477745     1.470102     1.462458     1.454815     1.447172     1.439529     1.431886     1.424243     1.416600     1.408957
      1.401314     1.393671     1.386027     1.378384     1.370741     1.363098     1.355455     1.347812     1.340169     1.332526
      1.324883     1.317240     1.309596     1.301953     1.294310     1.286667     1.279024     1.271381     1.263738     1.256095
      1.248452     1.240808     1.233165     1.225522     1.217879     1.210236     1.202593     1.194950     1.187307     1.179664
      1.172021     1.164377     1.156734     1.149091     1.141448     1.133805     1.126162     1.118519     1.110876     1.103233
      1.095590     1.087946     1.080303     1.072660     1.065017     1.057374     1.049731     1.042088     1.034445     1.026802
      1.019158     1.011515     1.003872     0.996229     0.988586     0.980943     0.973300     0.965657     0.958014     0.950371
      0.942727     0.935084     0.927441     0.919798     0.912155     0.904512     0.896869     0.889226     0.881583     0.873940
      0.866296     0.858653     0.851010     0.843367     0.835724     0.828081     0.820438     0.812795     0.805152     0.797508
      0.789865     0.782222     0.774579     0.766936     0.759293     0.751650     0.744007     0.736364     0.728721     0.721077
      0.713434     0.705791     0.698148     0.690505     0.682862     0.675219     0.667576     0.659933     0.652290     0.644646
      0.637003     0.629360     0.621717     0.614074     0.606431     0.598788     0.591145     0.583502     0.575858     0.568215
      0.560572     0.552929     0.545286     0.537643     0.530000     0.522357     0.514714     0.507071     0.499427     0.491784
      0.484141     0.476498     0.468855     0.461212     0.453569     0.445925     0.438282     0.430639     0.422996     0.415353
      0.407710     0.400067     0.392424     0.384780     0.377137     0.369494     0.361851     0.354208     0.346565     0.338922
      0.331278     0.323635     0.315992     0.308349     0.300706     0.293063     0.285420     0.277777     0.270133     0.262490
      0.254847     0.247204     0.239561     0.231918     0.224275     0.216631     0.208988     0.201345
 NY phased data points follow
   6.35428E+00  2.87884E+00  2.41938E+00  6.50161E+00  3.12079E+00  3.81179E+00  6.75236E+00  5.09505E+00  2.91882E+00  3.58094E+00
   4.62894E+00  5.37043E+00  3.89242E+00  5.72081E+00  5.68055E+00  4.56358E+00  1.94477E+00  2.87994E+00  3.76953E+00  4.24526E+00
   5.77148E+00  5.03279E+00  5.76241E+00  3.78779E+00  6.77055E+00  3.22606E+00  4.56870E+00  3.62410E+00  6.70848E+00  3.36416E+00
   3.84633E+00  4.40108E+00  5.20895E+00  5.04222E+00  3.45001E+00  3.92853E+00  3.45357E+00  3.72120E+00  4.85901E+00  4.48544E+00
   4.47554E+00  3.95871E+00  5.76319E+00  1.07428E+00  6.69718E+00  2.94779E+00  3.53226E+00  1.49921E+00  5.95203E+00  2.34804E+00
   2.60902E+00  1.03428E+00  4.75982E+00  2.21085E+00  3.57602E+00  3.46630E+00  3.44565E+00  1.54293E+00  4.89278E+00  3.49640E+00
   3.56540E+00  2.95656E+00  3.13972E+00  5.24468E+00  1.51786E+00  2.59429E+00  2.55958E+00  3.26160E+00  5.89265E+00  5.25864E+00
   2.25287E+00  6.39022E+00  4.90796E+00  8.48343E-01  4.07375E+00  5.12300E+00  4.82171E+00  3.78809E+00  6.29023E+00  1.55186E+00
   3.34539E+00  3.36808E+00  2.53846E+00  4.02217E+00  3.97644E-01  2.21892E+00  1.80630E+00  2.91879E+00  3.47258E+00  4.40209E+00
   1.22154E+00  3.61437E+00  4.46492E+00  4.07135E+00  1.69086E+00  3.03249E+00  3.09108E+00  3.25245E+00  4.29589E+00  3.25328E+00
   1.45464E+00  9.39008E-01 -2.91458E-01  1.49117E+00  2.30227E+00  4.06500E+00  3.34611E+00  3.31187E+00  8.39558E-01  7.56962E-01
   1.14629E+00 -6.88826E-01  1.66753E+00  2.27023E+00  7.39878E-01  1.79189E+00  6.49161E+00  2.83588E+00  1.96248E+00  2.34585E+00
   4.87050E+00  4.65428E+00  4.82862E-01  3.44338E+00 -9.14205E-01  3.81503E+00  3.50512E+00  3.01204E+00  1.09037E+00  3.30651E+00
   8.78640E-01  1.44837E+00  4.71933E-02  1.57928E+00  2.02538E+00  5.97652E-01  3.03290E+00  1.94245E-02  1.42169E+00  3.29750E+00
   2.59556E+00  3.45487E+00  2.94822E+00  2.10896E+00  2.09780E+00  6.06581E+00  1.02116E+00  4.68889E+00  3.91688E+00  3.46974E+00
   1.58141E+00  4.30140E+00  3.59242E+00  5.50117E+00  2.34708E-01  4.06598E+00  3.29441E+00  1.70838E+00  2.78090E+00  5.02377E+00
   5.00323E+00  6.65831E+00  3.14720E+00  2.58837E+00  5.06235E+00  1.86175E+00  2.54793E+00  1.78410E+00  4.37386E+00  3.00689E+00
   4.22453E+00  8.85372E-01  5.50798E+00  4.28808E+00  7.95994E-01  1.25058E+00  4.23266E+00  3.78971E+00 -1.52321E+00  1.62054E+00
   8.20545E-01  4.01324E+00  7.16861E+00  4.03961E+00  3.31011E+00  1.02286E+00  3.63130E+00  3.04060E+00 -2.40918E+00  2.56961E+00
   3.90251E+00  1.09214E-01  4.11846E+00  4.57630E+00  2.28720E+00  3.37055E+00  2.05660E+00  1.93891E+00  3.47799E+00  3.43413E+00
   3.73766E-01  2.83728E+00  3.83377E+00 -2.01237E+00  2.50947E+00  1.79936E+00  1.39636E+00  2.83428E+00  3.52956E+00 -1.05962E+00
   3.25640E+00  3.57535E+00  1.53682E+00  3.54309E+00  2.74186E+00  3.76800E+00  3.29917E+00  3.99604E+00  4.41682E+00  1.81173E+00
   9.87871E-01  2.04704E+00 -1.87677E-01  1.56726E+00  5.61371E-01  1.99175E+00  1.14902E+00  5.81681E+00  3.31650E+00  1.70779E+00
   5.84814E+00  4.78375E+00  4.02255E+00  4.00981E+00  4.80298E+00  6.15731E+00  4.04621E+00  5.12046E+00  5.01358E+00  2.09271E+00
   4.40004E+00  3.90333E+00  2.73365E+00  2.52828E+00  2.42598E+00  2.69198E+00  5.10849E+00  7.77303E+00  8.92288E+00  4.75148E+00
   8.58453E+00  4.85357E+00  9.75974E+00  9.98457E+00  1.25767E+01  1.36846E+01  1.74542E+01  2.31855E+01  2.83785E+01  2.88141E+01
   2.82725E+01  2.71421E+01  2.51240E+01  1.71436E+01  1.01612E+01  7.10005E+00  5.99021E+00  1.89723E+00  2.57413E+00  3.33712E+00
   4.27138E+00  3.96318E+00  3.75298E+00  3.66774E+00 -9.69466E-01  2.46691E-01  3.37126E+00  5.30533E+00  3.73628E+00  2.47240E+00
   3.09889E+00  2.22724E+00  3.44363E+00  4.45326E+00  4.87290E+00  2.39948E+00  4.12844E+00  4.95702E+00  5.87928E+00  6.29516E+00
   4.63975E+00  2.09690E+00  4.92369E+00  4.47525E+00  6.63070E+00  4.29631E+00  5.20771E+00  5.02511E+00  5.32639E+00  5.19317E+00
   4.98230E+00  8.11558E+00  7.95869E+00  6.13293E+00  6.26351E+00  6.70271E+00  6.86316E+00  7.24472E+00  5.49582E+00  4.38298E+00
   9.43706E+00  6.43163E+00  2.63138E+00  6.18447E+00  4.59271E+00  8.59279E+00  9.91420E+00  5.01350E+00  4.25703E+00  5.02955E+00
   3.05743E+00  5.85145E+00  6.48363E+00  8.32696E+00  5.54892E+00  8.19994E+00  6.98180E+00  6.90073E+00  5.23656E+00  5.02030E+00
   5.77028E+00  7.32222E+00  9.91586E+00  9.24526E+00  6.32116E+00  1.15006E+01  9.72089E+00  1.21316E+01  1.42140E+01  1.28403E+01
   1.40190E+01  1.40411E+01  1.46016E+01  1.55237E+01  1.78748E+01  1.60070E+01  1.70005E+01  1.49922E+01  1.44078E+01  1.49586E+01
   1.66364E+01  1.48786E+01  1.28030E+01  1.44031E+01  1.52910E+01  1.39556E+01  1.22552E+01  1.36131E+01  1.03534E+01  1.18482E+01
   9.19513E+00  8.43528E+00  1.27334E+01  1.07534E+01  9.45577E+00  8.61650E+00  1.10827E+01  1.07196E+01  7.50926E+00  6.87612E+00
   7.95129E+00  4.86603E+00  3.97670E+00  6.00076E+00  3.82518E+00  4.93465E+00  6.59601E+00  2.73855E+00  5.56038E+00  3.29273E+00
   2.79281E+00  1.32449E+00 -1.24753E-01  1.99497E+00  5.78485E-01  2.25086E+00  2.13435E+00  2.36679E+00  1.61052E+00  1.55613E-01
   1.62568E+00  2.20949E+00  4.07236E+00  5.12643E+00  4.84332E+00  6.32951E+00  6.08868E+00  6.17663E+00  5.72216E+00  6.79089E+00
   1.55289E+00  9.38966E+00  4.05660E+00  4.09045E+00  5.74269E+00  7.73787E+00  8.93122E+00  5.72259E+00  3.88759E+00  4.03443E+00
   4.76925E+00  7.81481E+00  5.34792E+00  3.98121E+00  3.45361E+00  2.38926E+00  2.84110E+00  4.10596E+00  1.94936E+00  2.27048E+00
   1.02902E+00  3.60118E+00  6.94376E-01  1.84265E+00 -1.25200E+00  2.68824E+00  3.10371E+00  1.79706E+00 -1.09093E+00 -8.72417E-02
   3.01273E+00  3.55877E+00  1.07970E+00 -5.21327E-01  9.57779E-01 -9.75228E-01 -3.55785E-01  1.64600E+00  1.08365E-01 -2.66773E+00
   7.78656E-01  6.50568E-01 -1.90375E+00  3.39337E-01  6.16397E-01  6.53490E-01  1.44257E+00  1.56014E+00  1.58157E+00  7.02910E-01
  -2.20389E+00 -1.75668E+00 -3.45439E-01 -2.90146E+00  1.20674E+00 -5.64768E-01  2.56265E+00 -4.99257E-01 -7.35864E-01 -1.87293E+00
  -1.12849E+00  3.59411E-01  1.97077E+00  8.79221E-01  2.01334E+00 -1.43534E+00 -1.55424E+00  1.51912E+00  1.22943E+00 -5.44455E-01
   3.41513E+00 -1.51951E+00  2.74806E-01  1.22913E+00 -2.54394E-01  1.15353E+00  3.19841E-01 -2.90586E-01  3.10528E+00  5.30651E-01
  -4.76452E-01 -1.05706E+00  8.42759E-01 -2.10503E-01 -1.06448E+00  2.87417E+00 -2.22934E-01 -1.12058E+00 -1.31122E+00 -1.03608E+00
   8.11759E-01  1.27368E+00 -1.11899E+00  7.87491E-01  4.58540E-01 -2.04748E-01  1.98886E+00 -1.49065E+00
 NY points of the fit to the data follow
   3.64234E+00  3.58937E+00  3.56131E+00  3.54310E+00  3.52466E+00  3.49905E+00  3.47305E+00  3.45457E+00  3.44376E+00  3.43471E+00
   3.43119E+00  3.43774E+00  3.44719E+00  3.44329E+00  3.40839E+00  3.36115E+00  3.34152E+00  3.36878E+00  3.43790E+00  3.55164E+00
   3.71140E+00  3.90781E+00  4.07364E+00  4.15298E+00  4.11288E+00  3.96119E+00  3.81513E+00  3.75171E+00  3.73909E+00  3.82231E+00
   4.10817E+00  4.53950E+00  4.83972E+00  4.87279E+00  4.76150E+00  4.51618E+00  4.07151E+00  3.57222E+00  3.22736E+00  3.06696E+00
   3.04453E+00  3.18174E+00  3.46914E+00  3.81837E+00  4.16500E+00  4.45281E+00  4.59446E+00  4.57804E+00  4.45382E+00  4.21256E+00
   3.84173E+00  3.44748E+00  3.18123E+00  3.08066E+00  3.08643E+00  3.16917E+00  3.31975E+00  3.48929E+00  3.61962E+00  3.68635E+00
   3.69926E+00  3.65936E+00  3.55996E+00  3.43605E+00  3.33015E+00  3.27212E+00  3.27182E+00  3.31659E+00  3.39310E+00  3.48130E+00
   3.55402E+00  3.60401E+00  3.64837E+00  3.68020E+00  3.66573E+00  3.60296E+00  3.52933E+00  3.45416E+00  3.36495E+00  3.28337E+00
   3.24009E+00  3.22575E+00  3.22774E+00  3.22673E+00  3.18230E+00  3.08490E+00  2.97654E+00  2.88635E+00  2.80541E+00  2.73983E+00
   2.72917E+00  2.77563E+00  2.84112E+00  2.89417E+00  2.91813E+00  2.91488E+00  2.89296E+00  2.85548E+00  2.80344E+00  2.74593E+00
   2.69222E+00  2.64935E+00  2.62912E+00  2.63547E+00  2.65888E+00  2.69075E+00  2.73210E+00  2.77131E+00  2.79509E+00  2.80769E+00
   2.81386E+00  2.81313E+00  2.81030E+00  2.80786E+00  2.80104E+00  2.78941E+00  2.77222E+00  2.75048E+00  2.73121E+00  2.71670E+00
   2.70664E+00  2.70900E+00  2.73267E+00  2.77623E+00  2.82911E+00  2.88302E+00  2.93754E+00  2.99174E+00  3.03886E+00  3.07049E+00
   3.08580E+00  3.07662E+00  3.03505E+00  2.96975E+00  2.90014E+00  2.84195E+00  2.80821E+00  2.81765E+00  2.88001E+00  2.97505E+00
   3.08192E+00  3.18451E+00  3.26309E+00  3.30698E+00  3.32111E+00  3.32057E+00  3.31856E+00  3.31473E+00  3.30038E+00  3.27841E+00
   3.25525E+00  3.23044E+00  3.21364E+00  3.21813E+00  3.23344E+00  3.23064E+00  3.19472E+00  3.09591E+00  2.94520E+00  2.81778E+00
   2.74753E+00  2.72756E+00  2.73051E+00  2.75703E+00  2.79775E+00  2.79627E+00  2.69685E+00  2.49885E+00  2.27431E+00  2.10510E+00
   1.97984E+00  1.84744E+00  1.70770E+00  1.57996E+00  1.51197E+00  1.50874E+00  1.52442E+00  1.51936E+00  1.55073E+00  1.66233E+00
   1.77035E+00  1.78820E+00  1.77210E+00  1.80542E+00  1.93569E+00  2.17509E+00  2.46420E+00  2.74036E+00  3.01600E+00  3.32232E+00
   3.60130E+00  3.75188E+00  3.76787E+00  3.73721E+00  3.65713E+00  3.51645E+00  3.38973E+00  3.32299E+00  3.28473E+00  3.25710E+00
   3.32819E+00  3.50827E+00  3.67649E+00  3.75892E+00  3.75855E+00  3.65888E+00  3.38973E+00  2.97607E+00  2.55866E+00  2.22883E+00
   2.09582E+00  2.25619E+00  2.72182E+00  3.37419E+00  3.95586E+00  4.31175E+00  4.40186E+00  4.13519E+00  3.41776E+00  2.39158E+00
   1.48970E+00  1.09382E+00  1.17602E+00  1.55640E+00  2.20177E+00  3.06606E+00  3.90660E+00  4.42475E+00  4.57815E+00  4.55364E+00
   4.47526E+00  4.38503E+00  4.33694E+00  4.37159E+00  4.46872E+00  4.55174E+00  4.54906E+00  4.42703E+00  4.21784E+00  3.97698E+00
   3.79198E+00  3.74403E+00  3.86945E+00  4.13081E+00  4.46305E+00  4.81987E+00  5.13428E+00  5.31821E+00  5.38112E+00  5.50846E+00
   5.92216E+00  6.66342E+00  7.88858E+00  9.57735E+00  1.17641E+01  1.45079E+01  1.83525E+01  2.33416E+01  2.72250E+01  2.84502E+01
   2.80144E+01  2.68391E+01  2.36185E+01  1.77000E+01  1.15263E+01  7.45076E+00  5.06128E+00  3.46924E+00  2.71628E+00  2.54526E+00
   2.52371E+00  2.55654E+00  2.62953E+00  2.70741E+00  2.76926E+00  2.81630E+00  2.83972E+00  2.82834E+00  2.80095E+00  2.79400E+00
   2.82291E+00  2.87748E+00  2.95128E+00  3.04863E+00  3.16581E+00  3.28881E+00  3.41333E+00  3.54722E+00  3.69831E+00  3.86819E+00
   4.05583E+00  4.25868E+00  4.47317E+00  4.69438E+00  4.91265E+00  5.11706E+00  5.30708E+00  5.48653E+00  5.65305E+00  5.80176E+00
   5.93056E+00  6.03863E+00  6.12233E+00  6.17584E+00  6.19711E+00  6.18839E+00  6.15231E+00  6.09276E+00  6.01562E+00  5.92701E+00
   5.83301E+00  5.73992E+00  5.65402E+00  5.58137E+00  5.52769E+00  5.49841E+00  5.49891E+00  5.53458E+00  5.61142E+00  5.73797E+00
   5.93082E+00  6.21295E+00  6.55691E+00  6.94336E+00  7.26121E+00  7.35337E+00  7.23897E+00  7.04993E+00  6.81285E+00  6.52002E+00
   6.33814E+00  6.57929E+00  7.34388E+00  8.37205E+00  9.42322E+00  1.04506E+01  1.14520E+01  1.22959E+01  1.28152E+01  1.30881E+01
   1.33402E+01  1.36460E+01  1.39727E+01  1.43287E+01  1.46802E+01  1.49363E+01  1.50713E+01  1.51176E+01  1.50868E+01  1.49697E+01
   1.48025E+01  1.46992E+01  1.47006E+01  1.47081E+01  1.46375E+01  1.44880E+01  1.42605E+01  1.39045E+01  1.33843E+01  1.27543E+01
   1.20939E+01  1.14239E+01  1.07484E+01  1.00845E+01  9.43834E+00  8.81028E+00  8.20397E+00  7.62387E+00  7.07401E+00  6.55762E+00
   6.07705E+00  5.63381E+00  5.22866E+00  4.86164E+00  4.53224E+00  4.23952E+00  3.98228E+00  3.75915E+00  3.56874E+00  3.40964E+00
   3.28056E+00  3.18038E+00  3.10817E+00  3.06324E+00  3.04507E+00  3.05330E+00  3.08763E+00  3.14783E+00  3.23362E+00  3.34452E+00
   3.47973E+00  3.63801E+00  3.81753E+00  4.01583E+00  4.22969E+00  4.45505E+00  4.68705E+00  4.92005E+00  5.14776E+00  5.36349E+00
   5.56030E+00  5.73130E+00  5.86998E+00  5.97051E+00  6.02809E+00  6.03921E+00  6.00183E+00  5.91552E+00  5.78148E+00  5.60249E+00
   5.38283E+00  5.12795E+00  4.84423E+00  4.53861E+00  4.21828E+00  3.89033E+00  3.56150E+00  3.23785E+00  2.92463E+00  2.62611E+00
   2.34556E+00  2.08528E+00  1.84664E+00  1.63019E+00  1.43571E+00  1.26245E+00  1.10921E+00  9.74532E-01  8.56766E-01  7.54179E-01
   6.65028E-01  5.87643E-01  5.20478E-01  4.62131E-01  4.11341E-01  3.66984E-01  3.28078E-01  2.93783E-01  2.63401E-01  2.36347E-01
   2.12120E-01  1.90285E-01  1.70477E-01  1.52406E-01  1.35838E-01  1.20577E-01  1.06442E-01  9.32760E-02  8.09481E-02  6.93627E-02
   5.84444E-02  4.81205E-02  3.83146E-02  2.89584E-02  2.00035E-02  1.14193E-02  3.17829E-03 -4.75612E-03 -1.24262E-02 -1.98661E-02
  -2.70925E-02 -3.41119E-02 -4.09368E-02 -4.75920E-02 -5.41046E-02 -6.04891E-02 -6.67463E-02 -7.28756E-02 -7.88873E-02 -8.48020E-02
  -9.06368E-02 -9.63935E-02 -1.02064E-01 -1.07648E-01 -1.13157E-01 -1.18609E-01 -1.24012E-01 -1.29359E-01 -1.34644E-01 -1.39867E-01
  -1.45043E-01 -1.50183E-01 -1.55288E-01 -1.60346E-01 -1.65350E-01 -1.70306E-01 -1.75226E-01 -1.80119E-01 -1.84974E-01 -1.89779E-01
  -1.94531E-01 -1.99238E-01 -2.03910E-01 -2.08543E-01 -2.13124E-01 -2.17639E-01 -2.22086E-01 -2.26471E-01
 NY background values follow
     3.090E+00    3.084E+00    3.078E+00    3.072E+00    3.065E+00    3.059E+00    3.053E+00    3.047E+00    3.041E+00    3.034E+00
     3.028E+00    3.022E+00    3.016E+00    3.009E+00    3.003E+00    2.997E+00    2.991E+00    2.984E+00    2.978E+00    2.972E+00
     2.966E+00    2.959E+00    2.953E+00    2.947E+00    2.941E+00    2.935E+00    2.928E+00    2.922E+00    2.916E+00    2.910E+00
     2.903E+00    2.897E+00    2.891E+00    2.885E+00    2.878E+00    2.872E+00    2.866E+00    2.860E+00    2.854E+00    2.847E+00
     2.841E+00    2.835E+00    2.829E+00    2.822E+00    2.816E+00    2.810E+00    2.804E+00    2.797E+00    2.791E+00    2.785E+00
     2.779E+00    2.773E+00    2.766E+00    2.760E+00    2.754E+00    2.748E+00    2.741E+00    2.735E+00    2.729E+00    2.723E+00
     2.717E+00    2.710E+00    2.704E+00    2.698E+00    2.692E+00    2.685E+00    2.679E+00    2.673E+00    2.667E+00    2.660E+00
     2.654E+00    2.648E+00    2.642E+00    2.636E+00    2.629E+00    2.623E+00    2.617E+00    2.611E+00    2.604E+00    2.598E+00
     2.592E+00    2.586E+00    2.580E+00    2.573E+00    2.567E+00    2.561E+00    2.555E+00    2.548E+00    2.542E+00    2.536E+00
     2.530E+00    2.524E+00    2.517E+00    2.511E+00    2.505E+00    2.499E+00    2.492E+00    2.486E+00    2.480E+00    2.474E+00
     2.468E+00    2.461E+00    2.455E+00    2.449E+00    2.443E+00    2.436E+00    2.430E+00    2.424E+00    2.418E+00    2.412E+00
     2.405E+00    2.399E+00    2.393E+00    2.387E+00    2.381E+00    2.374E+00    2.368E+00    2.362E+00    2.356E+00    2.349E+00
     2.343E+00    2.337E+00    2.331E+00    2.325E+00    2.318E+00    2.312E+00    2.306E+00    2.300E+00    2.293E+00    2.287E+00
     2.281E+00    2.275E+00    2.269E+00    2.262E+00    2.256E+00    2.250E+00    2.244E+00    2.238E+00    2.231E+00    2.225E+00
     2.219E+00    2.213E+00    2.207E+00    2.200E+00    2.194E+00    2.188E+00    2.182E+00    2.175E+00    2.169E+00    2.163E+00
     2.157E+00    2.151E+00    2.144E+00    2.138E+00    2.132E+00    2.126E+00    2.120E+00    2.113E+00    2.107E+00    2.101E+00
     2.095E+00    2.089E+00    2.082E+00    2.076E+00    2.070E+00    2.064E+00    2.057E+00    2.051E+00    2.045E+00    2.039E+00
     2.033E+00    2.026E+00    2.020E+00    2.014E+00    2.008E+00    2.002E+00    1.995E+00    1.989E+00    1.983E+00    1.977E+00
     1.971E+00    1.964E+00    1.958E+00    1.952E+00    1.946E+00    1.940E+00    1.933E+00    1.927E+00    1.921E+00    1.915E+00
     1.909E+00    1.902E+00    1.896E+00    1.890E+00    1.884E+00    1.878E+00    1.871E+00    1.865E+00    1.859E+00    1.853E+00
     1.847E+00    1.840E+00    1.834E+00    1.828E+00    1.822E+00    1.816E+00    1.809E+00    1.803E+00    1.797E+00    1.791E+00
     1.785E+00    1.778E+00    1.772E+00    1.766E+00    1.760E+00    1.754E+00    1.747E+00    1.741E+00    1.735E+00    1.729E+00
     1.723E+00    1.716E+00    1.710E+00    1.704E+00    1.698E+00    1.692E+00    1.685E+00    1.679E+00    1.673E+00    1.667E+00
     1.661E+00    1.655E+00    1.648E+00    1.642E+00    1.636E+00    1.630E+00    1.624E+00    1.617E+00    1.611E+00    1.605E+00
     1.599E+00    1.593E+00    1.586E+00    1.580E+00    1.574E+00    1.568E+00    1.562E+00    1.555E+00    1.549E+00    1.543E+00
     1.537E+00    1.531E+00    1.525E+00    1.518E+00    1.512E+00    1.506E+00    1.500E+00    1.494E+00    1.487E+00    1.481E+00
     1.475E+00    1.469E+00    1.463E+00    1.456E+00    1.450E+00    1.444E+00    1.438E+00    1.432E+00    1.426E+00    1.419E+00
     1.413E+00    1.407E+00    1.401E+00    1.395E+00    1.388E+00    1.382E+00    1.376E+00    1.370E+00    1.364E+00    1.358E+00
     1.351E+00    1.345E+00    1.339E+00    1.333E+00    1.327E+00    1.320E+00    1.314E+00    1.308E+00    1.302E+00    1.296E+00
     1.290E+00    1.283E+00    1.277E+00    1.271E+00    1.265E+00    1.259E+00    1.253E+00    1.246E+00    1.240E+00    1.234E+00
     1.228E+00    1.222E+00    1.215E+00    1.209E+00    1.203E+00    1.197E+00    1.191E+00    1.185E+00    1.178E+00    1.172E+00
     1.166E+00    1.160E+00    1.154E+00    1.148E+00    1.141E+00    1.135E+00    1.129E+00    1.123E+00    1.117E+00    1.111E+00
     1.104E+00    1.098E+00    1.092E+00    1.086E+00    1.080E+00    1.073E+00    1.067E+00    1.061E+00    1.055E+00    1.049E+00
     1.043E+00    1.036E+00    1.030E+00    1.024E+00    1.018E+00    1.012E+00    1.006E+00    9.995E-01    9.933E-01    9.871E-01
     9.810E-01    9.748E-01    9.686E-01    9.625E-01    9.563E-01    9.501E-01    9.440E-01    9.378E-01    9.316E-01    9.255E-01
     9.193E-01    9.131E-01    9.070E-01    9.008E-01    8.947E-01    8.885E-01    8.823E-01    8.762E-01    8.700E-01    8.638E-01
     8.577E-01    8.515E-01    8.454E-01    8.392E-01    8.330E-01    8.269E-01    8.207E-01    8.146E-01    8.084E-01    8.022E-01
     7.961E-01    7.899E-01    7.838E-01    7.776E-01    7.714E-01    7.653E-01    7.591E-01    7.530E-01    7.468E-01    7.407E-01
     7.345E-01    7.284E-01    7.222E-01    7.160E-01    7.099E-01    7.037E-01    6.976E-01    6.914E-01    6.853E-01    6.791E-01
     6.730E-01    6.668E-01    6.607E-01    6.545E-01    6.483E-01    6.422E-01    6.360E-01    6.299E-01    6.237E-01    6.176E-01
     6.114E-01    6.053E-01    5.991E-01    5.930E-01    5.868E-01    5.807E-01    5.745E-01    5.684E-01    5.622E-01    5.561E-01
     5.499E-01    5.438E-01    5.376E-01    5.315E-01    5.254E-01    5.192E-01    5.131E-01    5.069E-01    5.008E-01    4.946E-01
     4.885E-01    4.823E-01    4.762E-01    4.700E-01    4.639E-01    4.578E-01    4.516E-01    4.455E-01    4.393E-01    4.332E-01
     4.270E-01    4.209E-01    4.147E-01    4.086E-01    4.025E-01    3.963E-01    3.902E-01    3.840E-01    3.779E-01    3.718E-01
     3.656E-01    3.595E-01    3.533E-01    3.472E-01    3.411E-01    3.349E-01    3.288E-01    3.226E-01    3.165E-01    3.104E-01
     3.042E-01    2.981E-01    2.920E-01    2.858E-01    2.797E-01    2.736E-01    2.674E-01    2.613E-01    2.551E-01    2.490E-01
     2.429E-01    2.367E-01    2.306E-01    2.245E-01    2.183E-01    2.122E-01    2.061E-01    1.999E-01    1.938E-01    1.877E-01
     1.815E-01    1.754E-01    1.693E-01    1.631E-01    1.570E-01    1.509E-01    1.448E-01    1.386E-01    1.325E-01    1.264E-01
     1.202E-01    1.141E-01    1.080E-01    1.019E-01    9.572E-02    8.960E-02    8.347E-02    7.734E-02    7.122E-02    6.509E-02
     5.896E-02    5.284E-02    4.671E-02    4.059E-02    3.446E-02    2.834E-02    2.221E-02    1.609E-02
 Ala      Conc. = 1.16E+02
