 LCModel (Version 6.3-1L) Copyright: S.W. Provencher.          Ref.: Magn. Reson. Med. 30:672-679 (1993).                
 Slice#1 Row#14 Col#11  K_02_press_1_raw_act
 36 lines in following concentration table = NCONC+1
    Conc.  %SD /Cr+PCr  Metabolite                                         
   16.456  65%   1.322 Ala                                                 
    2.063 115%   0.166 Asp                                                 
    2.876 394%   0.231 Cr                                                  
    9.575 125%   0.769 PCr                                                 
    1.448  98%   0.116 GABA                                                
    1.395 102%   0.112 Glc                                                 
   12.283 137%   0.987 Gln                                                 
   17.014 110%   1.367 Glu                                                 
    4.067  65%   0.327 GPC                                                 
    0.000 999%   0.000 PCh                                                 
    8.583  90%   0.689 GSH                                                 
    0.000 999%   0.000 Ins                                                 
   16.586  70%   1.332 Lac                                                 
   21.467  47%   1.724 NAA                                                 
    0.000 999%   0.000 NAAG                                                
    0.482  98% 3.9E-02 Scyllo                                              
    2.669  88%   0.214 Tau                                                 
    2.287 132%   0.184 -CrCH2                                              
    4.067  65%   0.327 GPC+PCh                                             
   21.467  47%   1.724 NAA+NAAG                                            
   12.450  58%   1.000 Cr+PCr                                              
   29.297  81%   2.353 Glu+Gln                                             
    0.000 999%   0.000 Lip13a                                              
   22.980 319%   1.846 Lip13b                                              
    2.896 925%   0.233 Lip09                                               
  202.455  22%  16.261 MM09                                                
    3.407 453%   0.274 Lip20                                               
  295.513  22%  23.736 MM20                                                
   60.845  24%   4.887 MM12                                                
  221.132  18%  17.761 MM14                                                
  101.836  24%   8.179 MM17                                                
   22.980 423%   1.846 Lip13a+Lip13b                                       
  304.957  27%  24.494 MM14+Lip13a+Lip13b+MM12                             
  205.351  18%  16.494 MM09+Lip09                                          
  298.920  20%  24.009 MM20+Lip20                                          
   6 lines in following misc. output table
  FWHM = 0.031 ppm    S/N =   1                                            
  Data shift = 0.015 ppm                                                   
  Ph:  52 deg     -48.7 deg/ppm                                            
  alphaB,S = 8.5E+01,   6.4E+00                                            
   14 spline knots.   Ns = 5(1)                                            
   2 inflections.     2 extrema                                            
  498 points on ppm-axis = NY
      4.000000     3.992357     3.984714     3.977070     3.969427     3.961784     3.954141     3.946497     3.938854     3.931211
      3.923568     3.915925     3.908281     3.900638     3.892995     3.885352     3.877708     3.870065     3.862422     3.854779
      3.847136     3.839492     3.831849     3.824206     3.816563     3.808919     3.801276     3.793633     3.785990     3.778347
      3.770703     3.763060     3.755417     3.747774     3.740130     3.732487     3.724844     3.717201     3.709558     3.701914
      3.694271     3.686628     3.678985     3.671341     3.663698     3.656055     3.648412     3.640769     3.633125     3.625482
      3.617839     3.610196     3.602552     3.594909     3.587266     3.579623     3.571980     3.564336     3.556693     3.549050
      3.541407     3.533763     3.526120     3.518477     3.510834     3.503191     3.495547     3.487904     3.480261     3.472618
      3.464974     3.457331     3.449688     3.442045     3.434402     3.426758     3.419115     3.411472     3.403829     3.396185
      3.388542     3.380899     3.373256     3.365613     3.357969     3.350326     3.342683     3.335040     3.327396     3.319753
      3.312110     3.304467     3.296824     3.289180     3.281537     3.273894     3.266251     3.258607     3.250964     3.243321
      3.235678     3.228034     3.220391     3.212748     3.205105     3.197462     3.189818     3.182175     3.174532     3.166889
      3.159245     3.151602     3.143959     3.136316     3.128673     3.121029     3.113386     3.105743     3.098100     3.090456
      3.082813     3.075170     3.067527     3.059884     3.052240     3.044597     3.036954     3.029311     3.021667     3.014024
      3.006381     2.998738     2.991095     2.983451     2.975808     2.968165     2.960522     2.952878     2.945235     2.937592
      2.929949     2.922306     2.914662     2.907019     2.899376     2.891733     2.884089     2.876446     2.868803     2.861160
      2.853517     2.845873     2.838230     2.830587     2.822944     2.815300     2.807657     2.800014     2.792371     2.784728
      2.777084     2.769441     2.761798     2.754155     2.746511     2.738868     2.731225     2.723582     2.715939     2.708295
      2.700652     2.693009     2.685366     2.677722     2.670079     2.662436     2.654793     2.647150     2.639506     2.631863
      2.624220     2.616577     2.608933     2.601290     2.593647     2.586004     2.578361     2.570717     2.563074     2.555431
      2.547788     2.540144     2.532501     2.524858     2.517215     2.509572     2.501928     2.494285     2.486642     2.478999
      2.471355     2.463712     2.456069     2.448426     2.440783     2.433139     2.425496     2.417853     2.410210     2.402566
      2.394923     2.387280     2.379637     2.371994     2.364350     2.356707     2.349064     2.341421     2.333777     2.326134
      2.318491     2.310848     2.303205     2.295561     2.287918     2.280275     2.272632     2.264988     2.257345     2.249702
      2.242059     2.234416     2.226772     2.219129     2.211486     2.203843     2.196199     2.188556     2.180913     2.173270
      2.165627     2.157983     2.150340     2.142697     2.135054     2.127410     2.119767     2.112124     2.104481     2.096838
      2.089194     2.081551     2.073908     2.066265     2.058621     2.050978     2.043335     2.035692     2.028049     2.020405
      2.012762     2.005119     1.997476     1.989833     1.982190     1.974546     1.966903     1.959260     1.951617     1.943974
      1.936331     1.928688     1.921045     1.913402     1.905759     1.898115     1.890472     1.882829     1.875186     1.867543
      1.859900     1.852257     1.844614     1.836971     1.829327     1.821684     1.814041     1.806398     1.798755     1.791112
      1.783469     1.775826     1.768183     1.760540     1.752896     1.745253     1.737610     1.729967     1.722324     1.714681
      1.707038     1.699395     1.691752     1.684108     1.676465     1.668822     1.661179     1.653536     1.645893     1.638250
      1.630607     1.622964     1.615321     1.607677     1.600034     1.592391     1.584748     1.577105     1.569462     1.561819
      1.554176     1.546533     1.538890     1.531246     1.523603     1.515960     1.508317     1.500674     1.493031     1.485388
      1.477745     1.470102     1.462458     1.454815     1.447172     1.439529     1.431886     1.424243     1.416600     1.408957
      1.401314     1.393671     1.386027     1.378384     1.370741     1.363098     1.355455     1.347812     1.340169     1.332526
      1.324883     1.317240     1.309596     1.301953     1.294310     1.286667     1.279024     1.271381     1.263738     1.256095
      1.248452     1.240808     1.233165     1.225522     1.217879     1.210236     1.202593     1.194950     1.187307     1.179664
      1.172021     1.164377     1.156734     1.149091     1.141448     1.133805     1.126162     1.118519     1.110876     1.103233
      1.095590     1.087946     1.080303     1.072660     1.065017     1.057374     1.049731     1.042088     1.034445     1.026802
      1.019158     1.011515     1.003872     0.996229     0.988586     0.980943     0.973300     0.965657     0.958014     0.950371
      0.942727     0.935084     0.927441     0.919798     0.912155     0.904512     0.896869     0.889226     0.881583     0.873940
      0.866296     0.858653     0.851010     0.843367     0.835724     0.828081     0.820438     0.812795     0.805152     0.797508
      0.789865     0.782222     0.774579     0.766936     0.759293     0.751650     0.744007     0.736364     0.728721     0.721077
      0.713434     0.705791     0.698148     0.690505     0.682862     0.675219     0.667576     0.659933     0.652290     0.644646
      0.637003     0.629360     0.621717     0.614074     0.606431     0.598788     0.591145     0.583502     0.575858     0.568215
      0.560572     0.552929     0.545286     0.537643     0.530000     0.522357     0.514714     0.507071     0.499427     0.491784
      0.484141     0.476498     0.468855     0.461212     0.453569     0.445925     0.438282     0.430639     0.422996     0.415353
      0.407710     0.400067     0.392424     0.384780     0.377137     0.369494     0.361851     0.354208     0.346565     0.338922
      0.331278     0.323635     0.315992     0.308349     0.300706     0.293063     0.285420     0.277777     0.270133     0.262490
      0.254847     0.247204     0.239561     0.231918     0.224275     0.216631     0.208988     0.201345
 NY phased data points follow
  -3.33132E+00  1.66582E-01 -1.89492E+00 -7.58300E-01 -1.65758E+00 -1.52875E+00 -1.95031E+00 -1.61774E+00 -1.18992E+00 -1.20319E+00
  -1.54411E+00 -1.66579E+00 -9.19926E-02  4.47900E-02 -2.96907E+00 -1.48963E+00 -7.88185E-01 -3.37863E-01 -1.00322E+00 -6.04784E-01
  -1.22701E+00 -5.93617E-01 -9.33916E-01  2.59669E-01 -1.88506E+00 -1.63452E+00 -1.56661E+00 -5.50212E-01 -8.95747E-01  3.50511E-01
  -1.20652E+00  6.94581E-01 -8.20304E-01 -1.80697E+00  6.05786E-01  6.22825E-01  7.15285E-01 -9.27122E-01 -4.63431E-01 -1.14073E+00
  -2.60190E-01 -2.81410E-01  5.85478E-01  1.82450E+00 -6.75165E-01 -1.06239E+00 -1.33483E+00 -2.47574E+00 -7.05846E-01 -5.88689E-01
  -7.76449E-01 -1.71490E+00  7.50674E-01 -1.74474E+00 -1.03685E+00 -3.99663E-01 -1.18886E-01 -8.74157E-01  9.50305E-01  3.81572E-01
  -1.18822E+00 -1.64124E+00 -1.40211E+00 -1.06228E+00 -1.20310E-01 -1.22172E+00  4.38328E-01 -1.99402E+00  6.59077E-01 -2.50695E-01
  -2.81138E-01 -1.44576E+00 -1.59581E+00 -5.76473E-02  1.60046E-01 -3.68904E-01 -1.37593E+00  1.35186E+00  1.61958E-01  1.91057E-01
  -2.91270E-01 -3.24374E-02 -1.90955E+00 -1.17556E+00 -6.23399E-01 -7.71272E-01  1.15587E+00 -1.81985E+00  3.51510E-01  4.55749E-01
  -1.43799E+00 -1.01173E-01 -1.70801E-01  7.15486E-01 -1.30031E-02 -8.23214E-01 -4.67988E-01  1.15657E+00  9.30452E-01 -2.14897E+00
  -2.09903E-01  1.86621E+00 -2.06812E-01  1.50981E+00  1.44929E+00 -2.82949E-02  1.15005E+00  1.74852E+00 -1.16343E-01  8.87904E-01
  -8.35892E-01  1.30652E+00  1.04634E+00  4.57112E-01 -1.29271E+00  5.63732E-01  2.13547E+00 -1.21526E+00  2.31673E-01  1.25618E+00
  -1.78015E+00 -1.29806E+00 -1.11079E+00 -7.37302E-01  6.92979E-01 -2.18146E+00 -6.21776E-01  1.12916E+00  1.29816E+00  1.37802E+00
   6.56028E-01  7.74211E-01  2.19941E+00  1.74835E+00  6.13759E-01  2.52961E-02 -1.98717E+00  8.82893E-01  4.20026E-01  1.24080E+00
  -4.08850E-01 -6.95243E-02  9.86048E-01  3.82189E-01 -3.42312E-01  6.10992E-01 -6.03344E-01  6.86401E-01 -2.48678E+00 -1.67789E+00
  -3.68914E-01  1.43535E+00  2.68668E-01 -5.32964E-01  1.77655E+00  1.06642E+00 -4.50273E-01 -8.31681E-01  2.15086E+00  1.36341E-01
  -7.18077E-02 -9.98123E-01 -4.80019E-01  1.71257E+00  1.01394E+00  7.12040E-02  2.08426E+00  6.34087E-01  1.73979E+00 -7.62965E-01
   8.39685E-01 -8.73062E-01  1.41822E+00  1.34723E-01  3.65427E-01 -9.90133E-02  1.36420E-01  3.81047E-02  4.33302E-01  1.81273E+00
  -8.72779E-01  4.84722E-01  1.27039E+00  1.53644E+00  1.37453E+00  2.53908E-01 -6.95629E-02 -3.32050E+00 -4.30639E-01  6.09729E-01
   1.28570E+00  4.89984E-01  3.57081E-02 -3.63118E-01  3.20278E-01  9.29605E-01  3.30920E-01 -3.13122E-01  1.43896E+00  9.88440E-01
  -7.72197E-01  1.33457E+00 -1.13105E+00  1.39208E+00  1.11011E+00  1.19001E+00  3.10261E-01  3.17645E+00  1.22406E+00 -1.02372E+00
   1.34543E-01  5.80720E-01  2.80773E-01 -4.71075E-01  2.58856E-01  3.27488E-01  6.35774E-02  1.36842E+00  2.33661E+00 -5.36869E-01
   1.73713E-03 -3.79588E-01  3.58062E-01 -7.85137E-01 -1.21930E+00  7.96783E-01  2.51027E+00  1.48853E+00 -4.75378E-02  5.72581E-01
   1.73682E+00  9.30563E-01  1.41398E+00  8.62088E-01 -2.47532E-01  1.97345E+00  2.86777E-01  2.10153E+00 -7.64998E-02  1.18514E+00
   3.25909E-01  1.41618E+00  1.13127E+00  9.93787E-01 -6.13660E-01  1.26383E+00  1.18877E+00 -1.57180E+00  1.66303E+00  1.81912E+00
   1.66524E+00  1.17624E+00  8.04054E-01  1.08018E+00  2.81133E+00  1.63752E+00  6.61753E-01 -2.09318E+00 -1.18860E+00  5.91122E-01
  -4.39460E-01  1.23983E+00  2.44459E+00  2.64543E+00  3.26785E+00  1.42594E+00  1.05135E+00  1.63615E+00  1.67033E+00  3.56679E-01
   2.20671E+00  2.81240E+00  1.81747E+00  1.40787E+00  1.37880E+00 -1.61880E-01  1.54546E+00  1.33908E+00  8.07802E-01  7.71974E-01
   1.92902E-01  1.51888E+00  7.22609E-01  1.24703E+00  1.13870E+00  1.46755E+00  9.60142E-01  2.35667E+00  6.60577E-01 -3.07221E-01
   6.44538E-01  1.72016E+00  2.45748E+00 -6.93298E-01 -1.43719E-01  6.37852E-01 -1.22187E+00  2.20090E+00  3.09428E-01 -1.68676E+00
  -1.42489E+00  9.37014E-01  2.05401E+00  1.02619E+00  3.30314E+00  3.22624E-01  1.90277E+00  1.47095E+00  6.24169E-01  1.74775E+00
   1.94646E+00  2.86432E+00  2.54667E+00  2.90448E+00  4.66311E-01 -1.65151E-01  2.66531E+00  3.31197E+00  4.69406E+00  2.93374E+00
   3.68552E+00  4.26083E+00  2.22871E+00  3.12112E+00  3.02733E+00  4.17513E+00  2.61492E+00  3.93044E+00  4.32222E+00  4.47560E+00
   1.81342E+00  4.56394E+00  2.90444E+00  2.58158E+00  2.59464E+00  1.26644E+00  1.32074E+00  9.83291E-01  2.38155E+00  2.46482E+00
   2.92562E+00  2.44448E+00  6.40584E-01  7.05028E-01  1.58351E+00  1.71192E+00  1.74376E+00  3.54782E+00  4.45105E+00  2.71023E+00
   2.03335E+00  2.13197E+00  2.10077E+00  2.66707E+00  7.84185E-01  1.54017E+00  1.22247E-01  5.78722E-01  9.91925E-01  4.08216E-01
   5.99324E-01  1.37070E+00  1.85571E+00 -2.44978E-01  1.72829E+00  2.33444E+00  3.51822E-01  2.29356E+00  1.40580E+00  1.63943E+00
   1.67524E-01  7.12273E-01  4.83222E-01  3.84502E-01  2.64612E+00  3.35668E-01  9.59974E-01 -7.79258E-02  2.04920E+00  1.22101E+00
   2.19900E+00  7.70184E-01  2.57400E+00  1.56678E+00  3.85059E+00  1.51615E+00  1.80583E+00  1.88629E+00 -8.49599E-02  1.05093E+00
   2.04059E+00  1.09456E+00  1.18165E+00  1.69754E+00  3.21532E-01  1.68323E+00  4.24249E-01  4.33488E-01  1.01628E+00  1.15399E+00
   1.33142E+00  5.09781E-01  3.23267E+00  2.32632E+00  2.14708E+00  2.05790E+00  2.43121E+00  2.27966E+00  6.13109E-02  9.77801E-01
   7.00664E-01  1.21924E+00  1.95832E+00  1.70131E+00  1.36591E+00  9.58180E-01  3.66440E+00  6.74990E-01  1.45745E+00  3.77749E-01
   1.78898E+00  2.22716E+00 -7.92962E-02  3.83565E-01  1.77129E+00  2.82661E+00  3.28344E-01  5.05947E-02  2.24931E+00  3.12155E+00
   1.20527E+00  2.27890E+00  1.14975E+00  1.08223E+00  1.08754E+00  2.47025E+00  8.73297E-01  1.34913E+00  7.47948E-01  1.79919E+00
   1.06661E+00  2.34850E-01  1.16797E+00  1.32301E+00  1.54221E+00  6.22178E-01  7.28945E-01  1.78155E+00  8.50410E-01  1.05730E+00
   7.39875E-01  6.71256E-01  9.30554E-01  3.41951E-01  2.46192E-01  7.18270E-01 -8.01591E-01  3.26252E+00  4.04846E-01  4.92691E-01
   5.96363E-01  1.48535E+00  1.54647E+00  2.06574E+00  5.81938E-01  2.52931E+00 -9.68490E-01  1.83583E+00 -1.02318E+00  1.69031E+00
  -7.84414E-03  1.16399E+00  2.87557E+00  7.47712E-01  1.58183E+00 -1.70341E-01 -5.38375E-02  2.74050E+00  3.00253E+00  1.81768E+00
  -6.19489E-01  4.09884E-01  1.41175E-01  1.55691E+00  1.16931E+00 -2.54739E-01 -2.74400E-01  1.10476E+00  2.61875E+00  1.84524E-01
   2.86793E+00  2.35153E-01  2.33184E+00  4.80971E-01  1.69621E-01  6.31718E-01  1.91737E+00  4.09160E-01
 NY points of the fit to the data follow
  -7.29158E-01 -7.48462E-01 -7.54900E-01 -7.57715E-01 -7.95466E-01 -8.64626E-01 -9.07323E-01 -8.79686E-01 -7.61303E-01 -5.65060E-01
  -3.45613E-01 -1.69317E-01 -7.59266E-02 -7.60455E-02 -1.63815E-01 -3.02279E-01 -4.17415E-01 -5.11140E-01 -5.87086E-01 -6.28752E-01
  -6.55943E-01 -6.62823E-01 -6.13901E-01 -5.05234E-01 -4.05996E-01 -4.26061E-01 -5.49277E-01 -6.87763E-01 -7.72848E-01 -7.69660E-01
  -6.64403E-01 -4.75929E-01 -2.39168E-01 -2.59968E-02  5.60514E-02 -3.45116E-02 -2.08466E-01 -3.38912E-01 -4.49750E-01 -5.37517E-01
  -5.75705E-01 -5.57226E-01 -5.15286E-01 -4.74193E-01 -4.47028E-01 -4.46962E-01 -4.53189E-01 -4.52702E-01 -4.60068E-01 -4.64905E-01
  -4.57612E-01 -4.47330E-01 -4.37817E-01 -4.24128E-01 -4.13212E-01 -4.12976E-01 -4.19486E-01 -4.24219E-01 -4.27347E-01 -4.29721E-01
  -4.32194E-01 -4.34450E-01 -4.35070E-01 -4.32163E-01 -4.26581E-01 -4.18956E-01 -4.08876E-01 -3.98688E-01 -3.91673E-01 -3.89060E-01
  -3.93592E-01 -4.06296E-01 -4.17759E-01 -4.16761E-01 -4.00519E-01 -3.73855E-01 -3.42827E-01 -3.21227E-01 -3.16730E-01 -3.25972E-01
  -3.44916E-01 -3.74289E-01 -4.00558E-01 -4.04544E-01 -3.84578E-01 -3.47058E-01 -3.02498E-01 -2.64912E-01 -2.42005E-01 -2.30655E-01
  -2.29170E-01 -2.39711E-01 -2.58849E-01 -2.75905E-01 -2.93976E-01 -3.16194E-01 -3.41692E-01 -4.14145E-01 -6.03793E-01 -7.94783E-01
  -8.14891E-01 -6.05259E-01 -2.11750E-01  2.54305E-01  6.45159E-01  8.55156E-01  8.59892E-01  6.66105E-01  3.29799E-01  2.02440E-02
  -9.09059E-02 -1.09267E-01 -1.10237E-01 -1.06851E-01 -1.01040E-01 -8.90651E-02 -7.33033E-02 -5.81157E-02 -4.59285E-02 -4.00222E-02
  -4.81330E-02 -1.04086E-01 -2.88593E-01 -5.21348E-01 -6.08374E-01 -4.50003E-01 -7.63471E-02  4.03832E-01  8.34464E-01  1.08794E+00
   1.14082E+00  1.01654E+00  7.53243E-01  4.73304E-01  3.47887E-01  2.91405E-01  2.00465E-01  7.97318E-02 -3.41535E-02 -1.02756E-01
  -9.84681E-02 -3.26641E-02  4.86367E-02  1.15555E-01  1.50623E-01  1.48463E-01  1.25152E-01  9.54908E-02  7.18842E-02  6.02374E-02
   5.15321E-02  4.08708E-02  2.69766E-02  1.23454E-02 -8.73557E-04 -8.69813E-03 -3.02085E-03  1.34658E-02  2.78914E-02  2.91465E-02
   1.11045E-02 -1.93977E-02 -4.60361E-02 -5.53875E-02 -4.54773E-02 -2.15426E-02  8.16441E-03  3.22799E-02  3.87193E-02  2.95007E-02
   1.65440E-02  1.22637E-02  2.43609E-02  3.33242E-02  2.47239E-02  4.61774E-03 -1.26170E-02 -1.76224E-02 -1.30128E-02 -5.10840E-03
   5.66301E-03  2.06371E-02  3.83951E-02  4.62027E-02  2.95845E-02 -4.24639E-03 -4.54288E-02 -7.91149E-02 -8.85583E-02 -5.47533E-02
   2.59754E-02  1.35660E-01  2.44652E-01  3.24338E-01  3.39953E-01  2.85243E-01  1.84965E-01  6.97220E-02 -2.45178E-02 -7.12877E-02
  -6.58610E-02 -1.00223E-02  1.00146E-01  2.43666E-01  3.89938E-01  5.22763E-01  6.13866E-01  6.13793E-01  5.19978E-01  3.62006E-01
   1.70285E-01 -1.29809E-02 -1.12338E-01 -8.32053E-02  6.42702E-02  2.97658E-01  5.49220E-01  7.40139E-01  8.46750E-01  8.47587E-01
   7.22285E-01  5.17159E-01  3.19438E-01  2.10007E-01  1.93971E-01  2.63406E-01  4.07648E-01  5.95119E-01  7.59463E-01  8.36038E-01
   8.29447E-01  7.95991E-01  7.58059E-01  7.17672E-01  7.05271E-01  7.43621E-01  8.28107E-01  9.42284E-01  1.06639E+00  1.17129E+00
   1.23758E+00  1.25872E+00  1.23539E+00  1.17498E+00  1.13065E+00  1.13923E+00  1.18256E+00  1.24142E+00  1.31051E+00  1.36751E+00
   1.38313E+00  1.37594E+00  1.37171E+00  1.37590E+00  1.35954E+00  1.19292E+00  7.84731E-01  4.04489E-01  3.55885E-01  7.19021E-01
   1.40143E+00  2.19207E+00  2.82026E+00  3.10562E+00  3.00851E+00  2.55151E+00  1.87421E+00  1.33390E+00  1.13766E+00  1.04972E+00
   9.82149E-01  9.28133E-01  8.82528E-01  8.46598E-01  8.24464E-01  8.13582E-01  8.08563E-01  8.03211E-01  7.92586E-01  7.74463E-01
   7.51755E-01  7.28157E-01  7.05368E-01  6.85854E-01  6.71474E-01  6.62077E-01  6.57120E-01  6.55492E-01  6.55927E-01  6.58412E-01
   6.62820E-01  6.68800E-01  6.76777E-01  6.87589E-01  7.01479E-01  7.18422E-01  7.38977E-01  7.63717E-01  7.92640E-01  8.25797E-01
   8.63432E-01  9.05367E-01  9.51433E-01  1.00138E+00  1.05484E+00  1.11129E+00  1.17019E+00  1.23090E+00  1.29277E+00  1.35519E+00
   1.41763E+00  1.47957E+00  1.54056E+00  1.60028E+00  1.65847E+00  1.71495E+00  1.76955E+00  1.82200E+00  1.87172E+00  1.91743E+00
   1.95613E+00  1.97948E+00  1.96698E+00  1.95077E+00  2.04644E+00  2.28507E+00  2.59217E+00  2.86642E+00  3.02233E+00  3.01575E+00
   2.83257E+00  2.44002E+00  1.91327E+00  1.44225E+00  1.21906E+00  1.26841E+00  1.45975E+00  1.71882E+00  1.96662E+00  2.13875E+00
   2.17769E+00  2.03735E+00  1.76385E+00  1.53074E+00  1.45877E+00  1.57275E+00  1.79885E+00  2.03077E+00  2.17520E+00  2.17267E+00
   1.97564E+00  1.56396E+00  1.04693E+00  6.18367E-01  4.62809E-01  6.08781E-01  8.93555E-01  1.21690E+00  1.50345E+00  1.69724E+00
   1.74852E+00  1.63857E+00  1.47424E+00  1.37610E+00  1.31862E+00  1.28029E+00  1.25342E+00  1.23433E+00  1.22077E+00  1.21125E+00
   1.20470E+00  1.20040E+00  1.19792E+00  1.19705E+00  1.19777E+00  1.20018E+00  1.20445E+00  1.21083E+00  1.21959E+00  1.23102E+00
   1.24543E+00  1.26313E+00  1.28439E+00  1.30947E+00  1.33860E+00  1.37193E+00  1.40960E+00  1.45164E+00  1.49798E+00  1.54845E+00
   1.60275E+00  1.66045E+00  1.72096E+00  1.78353E+00  1.84729E+00  1.91119E+00  1.97409E+00  2.03476E+00  2.09192E+00  2.14429E+00
   2.19063E+00  2.22981E+00  2.26082E+00  2.28289E+00  2.29545E+00  2.29821E+00  2.29113E+00  2.27447E+00  2.24874E+00  2.21468E+00
   2.17325E+00  2.12554E+00  2.07274E+00  2.01611E+00  1.95689E+00  1.89628E+00  1.83541E+00  1.77525E+00  1.71667E+00  1.66038E+00
   1.60693E+00  1.55673E+00  1.51005E+00  1.46701E+00  1.42766E+00  1.39194E+00  1.35972E+00  1.33083E+00  1.30506E+00  1.28217E+00
   1.26192E+00  1.24408E+00  1.22840E+00  1.21467E+00  1.20268E+00  1.19223E+00  1.18317E+00  1.17532E+00  1.16856E+00  1.16276E+00
   1.15781E+00  1.15362E+00  1.15011E+00  1.14720E+00  1.14483E+00  1.14294E+00  1.14148E+00  1.14042E+00  1.13971E+00  1.13931E+00
   1.13921E+00  1.13937E+00  1.13977E+00  1.14038E+00  1.14120E+00  1.14220E+00  1.14337E+00  1.14469E+00  1.14616E+00  1.14776E+00
   1.14948E+00  1.15132E+00  1.15326E+00  1.15530E+00  1.15743E+00  1.15965E+00  1.16195E+00  1.16432E+00  1.16676E+00  1.16926E+00
   1.17183E+00  1.17445E+00  1.17713E+00  1.17986E+00  1.18263E+00  1.18545E+00  1.18832E+00  1.19122E+00  1.19416E+00  1.19714E+00
   1.20015E+00  1.20320E+00  1.20627E+00  1.20938E+00  1.21251E+00  1.21567E+00  1.21885E+00  1.22206E+00  1.22529E+00  1.22854E+00
   1.23181E+00  1.23510E+00  1.23841E+00  1.24174E+00  1.24509E+00  1.24845E+00  1.25183E+00  1.25522E+00
 NY background values follow
    -6.951E-01   -6.912E-01   -6.873E-01   -6.835E-01   -6.796E-01   -6.757E-01   -6.718E-01   -6.680E-01   -6.641E-01   -6.602E-01
    -6.563E-01   -6.525E-01   -6.486E-01   -6.447E-01   -6.408E-01   -6.370E-01   -6.331E-01   -6.292E-01   -6.253E-01   -6.215E-01
    -6.176E-01   -6.137E-01   -6.099E-01   -6.060E-01   -6.021E-01   -5.982E-01   -5.944E-01   -5.905E-01   -5.866E-01   -5.827E-01
    -5.789E-01   -5.750E-01   -5.711E-01   -5.672E-01   -5.634E-01   -5.595E-01   -5.556E-01   -5.517E-01   -5.479E-01   -5.440E-01
    -5.401E-01   -5.362E-01   -5.324E-01   -5.285E-01   -5.246E-01   -5.207E-01   -5.169E-01   -5.130E-01   -5.091E-01   -5.053E-01
    -5.014E-01   -4.975E-01   -4.936E-01   -4.898E-01   -4.859E-01   -4.820E-01   -4.781E-01   -4.743E-01   -4.704E-01   -4.665E-01
    -4.626E-01   -4.588E-01   -4.549E-01   -4.510E-01   -4.471E-01   -4.433E-01   -4.394E-01   -4.355E-01   -4.316E-01   -4.278E-01
    -4.239E-01   -4.200E-01   -4.161E-01   -4.123E-01   -4.084E-01   -4.045E-01   -4.007E-01   -3.968E-01   -3.929E-01   -3.890E-01
    -3.852E-01   -3.813E-01   -3.774E-01   -3.735E-01   -3.697E-01   -3.658E-01   -3.619E-01   -3.580E-01   -3.542E-01   -3.503E-01
    -3.464E-01   -3.425E-01   -3.387E-01   -3.348E-01   -3.309E-01   -3.270E-01   -3.232E-01   -3.193E-01   -3.154E-01   -3.115E-01
    -3.077E-01   -3.038E-01   -2.999E-01   -2.961E-01   -2.922E-01   -2.883E-01   -2.844E-01   -2.806E-01   -2.767E-01   -2.728E-01
    -2.689E-01   -2.651E-01   -2.612E-01   -2.573E-01   -2.534E-01   -2.496E-01   -2.457E-01   -2.418E-01   -2.379E-01   -2.341E-01
    -2.302E-01   -2.263E-01   -2.224E-01   -2.186E-01   -2.147E-01   -2.108E-01   -2.070E-01   -2.031E-01   -1.992E-01   -1.953E-01
    -1.915E-01   -1.876E-01   -1.837E-01   -1.798E-01   -1.760E-01   -1.721E-01   -1.682E-01   -1.643E-01   -1.605E-01   -1.566E-01
    -1.527E-01   -1.488E-01   -1.450E-01   -1.411E-01   -1.372E-01   -1.333E-01   -1.295E-01   -1.256E-01   -1.217E-01   -1.179E-01
    -1.140E-01   -1.101E-01   -1.062E-01   -1.024E-01   -9.848E-02   -9.461E-02   -9.074E-02   -8.686E-02   -8.299E-02   -7.912E-02
    -7.524E-02   -7.137E-02   -6.749E-02   -6.362E-02   -5.975E-02   -5.587E-02   -5.200E-02   -4.812E-02   -4.425E-02   -4.038E-02
    -3.650E-02   -3.263E-02   -2.876E-02   -2.488E-02   -2.101E-02   -1.713E-02   -1.326E-02   -9.387E-03   -5.513E-03   -1.640E-03
     2.234E-03    6.108E-03    9.982E-03    1.386E-02    1.773E-02    2.160E-02    2.548E-02    2.935E-02    3.322E-02    3.710E-02
     4.097E-02    4.485E-02    4.872E-02    5.259E-02    5.647E-02    6.034E-02    6.421E-02    6.809E-02    7.196E-02    7.584E-02
     7.971E-02    8.358E-02    8.746E-02    9.133E-02    9.520E-02    9.908E-02    1.030E-01    1.068E-01    1.107E-01    1.146E-01
     1.184E-01    1.223E-01    1.262E-01    1.301E-01    1.339E-01    1.378E-01    1.417E-01    1.456E-01    1.494E-01    1.533E-01
     1.572E-01    1.611E-01    1.649E-01    1.688E-01    1.727E-01    1.766E-01    1.804E-01    1.843E-01    1.882E-01    1.920E-01
     1.959E-01    1.998E-01    2.037E-01    2.075E-01    2.114E-01    2.153E-01    2.192E-01    2.230E-01    2.269E-01    2.308E-01
     2.347E-01    2.385E-01    2.424E-01    2.463E-01    2.501E-01    2.540E-01    2.579E-01    2.618E-01    2.656E-01    2.695E-01
     2.734E-01    2.773E-01    2.811E-01    2.850E-01    2.889E-01    2.928E-01    2.966E-01    3.005E-01    3.044E-01    3.083E-01
     3.121E-01    3.160E-01    3.199E-01    3.237E-01    3.276E-01    3.315E-01    3.354E-01    3.392E-01    3.431E-01    3.470E-01
     3.509E-01    3.547E-01    3.586E-01    3.625E-01    3.664E-01    3.702E-01    3.741E-01    3.780E-01    3.818E-01    3.857E-01
     3.896E-01    3.935E-01    3.973E-01    4.012E-01    4.051E-01    4.090E-01    4.128E-01    4.167E-01    4.206E-01    4.245E-01
     4.283E-01    4.322E-01    4.361E-01    4.399E-01    4.438E-01    4.477E-01    4.516E-01    4.554E-01    4.593E-01    4.632E-01
     4.671E-01    4.709E-01    4.748E-01    4.787E-01    4.826E-01    4.864E-01    4.903E-01    4.942E-01    4.980E-01    5.019E-01
     5.058E-01    5.097E-01    5.135E-01    5.174E-01    5.213E-01    5.252E-01    5.290E-01    5.329E-01    5.368E-01    5.407E-01
     5.445E-01    5.484E-01    5.523E-01    5.561E-01    5.600E-01    5.639E-01    5.678E-01    5.716E-01    5.755E-01    5.794E-01
     5.833E-01    5.871E-01    5.910E-01    5.949E-01    5.987E-01    6.026E-01    6.065E-01    6.104E-01    6.142E-01    6.181E-01
     6.220E-01    6.259E-01    6.297E-01    6.336E-01    6.375E-01    6.414E-01    6.452E-01    6.491E-01    6.530E-01    6.568E-01
     6.607E-01    6.646E-01    6.685E-01    6.723E-01    6.762E-01    6.801E-01    6.840E-01    6.878E-01    6.917E-01    6.956E-01
     6.995E-01    7.033E-01    7.072E-01    7.111E-01    7.149E-01    7.188E-01    7.227E-01    7.266E-01    7.304E-01    7.343E-01
     7.382E-01    7.421E-01    7.459E-01    7.498E-01    7.537E-01    7.575E-01    7.614E-01    7.653E-01    7.692E-01    7.730E-01
     7.769E-01    7.808E-01    7.847E-01    7.885E-01    7.924E-01    7.963E-01    8.002E-01    8.040E-01    8.079E-01    8.118E-01
     8.156E-01    8.195E-01    8.234E-01    8.273E-01    8.311E-01    8.350E-01    8.389E-01    8.428E-01    8.466E-01    8.505E-01
     8.544E-01    8.582E-01    8.621E-01    8.660E-01    8.699E-01    8.737E-01    8.776E-01    8.815E-01    8.854E-01    8.892E-01
     8.931E-01    8.970E-01    9.008E-01    9.047E-01    9.086E-01    9.125E-01    9.163E-01    9.202E-01    9.241E-01    9.280E-01
     9.318E-01    9.357E-01    9.396E-01    9.435E-01    9.473E-01    9.512E-01    9.551E-01    9.589E-01    9.628E-01    9.667E-01
     9.706E-01    9.744E-01    9.783E-01    9.822E-01    9.861E-01    9.899E-01    9.938E-01    9.977E-01    1.002E+00    1.005E+00
     1.009E+00    1.013E+00    1.017E+00    1.021E+00    1.025E+00    1.029E+00    1.033E+00    1.036E+00    1.040E+00    1.044E+00
     1.048E+00    1.052E+00    1.056E+00    1.060E+00    1.064E+00    1.067E+00    1.071E+00    1.075E+00    1.079E+00    1.083E+00
     1.087E+00    1.091E+00    1.094E+00    1.098E+00    1.102E+00    1.106E+00    1.110E+00    1.114E+00    1.118E+00    1.122E+00
     1.125E+00    1.129E+00    1.133E+00    1.137E+00    1.141E+00    1.145E+00    1.149E+00    1.153E+00    1.156E+00    1.160E+00
     1.164E+00    1.168E+00    1.172E+00    1.176E+00    1.180E+00    1.184E+00    1.187E+00    1.191E+00    1.195E+00    1.199E+00
     1.203E+00    1.207E+00    1.211E+00    1.215E+00    1.218E+00    1.222E+00    1.226E+00    1.230E+00
 Ala      Conc. = 1.65E+01
