 LCModel (Version 6.3-1L) Copyright: S.W. Provencher.          Ref.: Magn. Reson. Med. 30:672-679 (1993).                
 Slice#3 Row#10 Col#8  K_02_press_1_raw_act
 36 lines in following concentration table = NCONC+1
    Conc.  %SD /Cr+PCr  Metabolite                                         
   34.390 367% 1.8E-02 Ala                                                 
    0.000 999%   0.000 Asp                                                 
 1.27E+03  20%   0.657 Cr                                                  
  661.887  39%   0.343 PCr                                                 
    0.000 999%   0.000 GABA                                                
    0.000 999%   0.000 Glc                                                 
  928.321  30%   0.481 Gln                                                 
 1.90E+03  16%   0.983 Glu                                                 
  455.205   5%   0.236 GPC                                                 
    0.000 999%   0.000 PCh                                                 
  716.944  11%   0.372 GSH                                                 
 1.31E+03  20%   0.680 Ins                                                 
    6.787 999% 3.5E-03 Lac                                                 
 1.81E+03   7%   0.940 NAA                                                 
  329.814  42%   0.171 NAAG                                                
    0.000 999%   0.000 Scyllo                                              
    0.000 999%   0.000 Tau                                                 
    0.000 999%   0.000 -CrCH2                                              
  455.205   5%   0.236 GPC+PCh                                             
 2.14E+03   4%   1.111 NAA+NAAG                                            
 1.93E+03   3%   1.000 Cr+PCr                                              
 2.82E+03  16%   1.464 Glu+Gln                                             
 2.93E+03  24%   1.519 Lip13a                                              
    0.000 999%   0.000 Lip13b                                              
  597.856  56%   0.310 Lip09                                               
 1.41E+03  26%   0.733 MM09                                                
  383.461  61%   0.199 Lip20                                               
 2.99E+03  15%   1.550 MM20                                                
  537.194  47%   0.278 MM12                                                
 1.28E+03  33%   0.665 MM14                                                
  519.884  47%   0.269 MM17                                                
 2.93E+03  24%   1.519 Lip13a+Lip13b                                       
 4.75E+03  11%   2.462 MM14+Lip13a+Lip13b+MM12                             
 2.01E+03  11%   1.042 MM09+Lip09                                          
 3.37E+03  13%   1.748 MM20+Lip20                                          
   6 lines in following misc. output table
  FWHM = 0.054 ppm    S/N =  10                                            
  Data shift = 0.031 ppm                                                   
  Ph:  16 deg       1.2 deg/ppm                                            
  alphaB,S = 2.5E+00,   1.0E+02                                            
   14 spline knots.   Ns = 7(1)                                            
  (12) 3 infls.   ( 9) 1 extrs.                                            
  498 points on ppm-axis = NY
      4.000000     3.992357     3.984714     3.977070     3.969427     3.961784     3.954141     3.946497     3.938854     3.931211
      3.923568     3.915925     3.908281     3.900638     3.892995     3.885352     3.877708     3.870065     3.862422     3.854779
      3.847136     3.839492     3.831849     3.824206     3.816563     3.808919     3.801276     3.793633     3.785990     3.778347
      3.770703     3.763060     3.755417     3.747774     3.740130     3.732487     3.724844     3.717201     3.709558     3.701914
      3.694271     3.686628     3.678985     3.671341     3.663698     3.656055     3.648412     3.640769     3.633125     3.625482
      3.617839     3.610196     3.602552     3.594909     3.587266     3.579623     3.571980     3.564336     3.556693     3.549050
      3.541407     3.533763     3.526120     3.518477     3.510834     3.503191     3.495547     3.487904     3.480261     3.472618
      3.464974     3.457331     3.449688     3.442045     3.434402     3.426758     3.419115     3.411472     3.403829     3.396185
      3.388542     3.380899     3.373256     3.365613     3.357969     3.350326     3.342683     3.335040     3.327396     3.319753
      3.312110     3.304467     3.296824     3.289180     3.281537     3.273894     3.266251     3.258607     3.250964     3.243321
      3.235678     3.228034     3.220391     3.212748     3.205105     3.197462     3.189818     3.182175     3.174532     3.166889
      3.159245     3.151602     3.143959     3.136316     3.128673     3.121029     3.113386     3.105743     3.098100     3.090456
      3.082813     3.075170     3.067527     3.059884     3.052240     3.044597     3.036954     3.029311     3.021667     3.014024
      3.006381     2.998738     2.991095     2.983451     2.975808     2.968165     2.960522     2.952878     2.945235     2.937592
      2.929949     2.922306     2.914662     2.907019     2.899376     2.891733     2.884089     2.876446     2.868803     2.861160
      2.853517     2.845873     2.838230     2.830587     2.822944     2.815300     2.807657     2.800014     2.792371     2.784728
      2.777084     2.769441     2.761798     2.754155     2.746511     2.738868     2.731225     2.723582     2.715939     2.708295
      2.700652     2.693009     2.685366     2.677722     2.670079     2.662436     2.654793     2.647150     2.639506     2.631863
      2.624220     2.616577     2.608933     2.601290     2.593647     2.586004     2.578361     2.570717     2.563074     2.555431
      2.547788     2.540144     2.532501     2.524858     2.517215     2.509572     2.501928     2.494285     2.486642     2.478999
      2.471355     2.463712     2.456069     2.448426     2.440783     2.433139     2.425496     2.417853     2.410210     2.402566
      2.394923     2.387280     2.379637     2.371994     2.364350     2.356707     2.349064     2.341421     2.333777     2.326134
      2.318491     2.310848     2.303205     2.295561     2.287918     2.280275     2.272632     2.264988     2.257345     2.249702
      2.242059     2.234416     2.226772     2.219129     2.211486     2.203843     2.196199     2.188556     2.180913     2.173270
      2.165627     2.157983     2.150340     2.142697     2.135054     2.127410     2.119767     2.112124     2.104481     2.096838
      2.089194     2.081551     2.073908     2.066265     2.058621     2.050978     2.043335     2.035692     2.028049     2.020405
      2.012762     2.005119     1.997476     1.989833     1.982190     1.974546     1.966903     1.959260     1.951617     1.943974
      1.936331     1.928688     1.921045     1.913402     1.905759     1.898115     1.890472     1.882829     1.875186     1.867543
      1.859900     1.852257     1.844614     1.836971     1.829327     1.821684     1.814041     1.806398     1.798755     1.791112
      1.783469     1.775826     1.768183     1.760540     1.752896     1.745253     1.737610     1.729967     1.722324     1.714681
      1.707038     1.699395     1.691752     1.684108     1.676465     1.668822     1.661179     1.653536     1.645893     1.638250
      1.630607     1.622964     1.615321     1.607677     1.600034     1.592391     1.584748     1.577105     1.569462     1.561819
      1.554176     1.546533     1.538890     1.531246     1.523603     1.515960     1.508317     1.500674     1.493031     1.485388
      1.477745     1.470102     1.462458     1.454815     1.447172     1.439529     1.431886     1.424243     1.416600     1.408957
      1.401314     1.393671     1.386027     1.378384     1.370741     1.363098     1.355455     1.347812     1.340169     1.332526
      1.324883     1.317240     1.309596     1.301953     1.294310     1.286667     1.279024     1.271381     1.263738     1.256095
      1.248452     1.240808     1.233165     1.225522     1.217879     1.210236     1.202593     1.194950     1.187307     1.179664
      1.172021     1.164377     1.156734     1.149091     1.141448     1.133805     1.126162     1.118519     1.110876     1.103233
      1.095590     1.087946     1.080303     1.072660     1.065017     1.057374     1.049731     1.042088     1.034445     1.026802
      1.019158     1.011515     1.003872     0.996229     0.988586     0.980943     0.973300     0.965657     0.958014     0.950371
      0.942727     0.935084     0.927441     0.919798     0.912155     0.904512     0.896869     0.889226     0.881583     0.873940
      0.866296     0.858653     0.851010     0.843367     0.835724     0.828081     0.820438     0.812795     0.805152     0.797508
      0.789865     0.782222     0.774579     0.766936     0.759293     0.751650     0.744007     0.736364     0.728721     0.721077
      0.713434     0.705791     0.698148     0.690505     0.682862     0.675219     0.667576     0.659933     0.652290     0.644646
      0.637003     0.629360     0.621717     0.614074     0.606431     0.598788     0.591145     0.583502     0.575858     0.568215
      0.560572     0.552929     0.545286     0.537643     0.530000     0.522357     0.514714     0.507071     0.499427     0.491784
      0.484141     0.476498     0.468855     0.461212     0.453569     0.445925     0.438282     0.430639     0.422996     0.415353
      0.407710     0.400067     0.392424     0.384780     0.377137     0.369494     0.361851     0.354208     0.346565     0.338922
      0.331278     0.323635     0.315992     0.308349     0.300706     0.293063     0.285420     0.277777     0.270133     0.262490
      0.254847     0.247204     0.239561     0.231918     0.224275     0.216631     0.208988     0.201345
 NY phased data points follow
   2.90275E+01  3.44752E+01  3.31675E+01  3.60457E+01  3.69655E+01  4.41937E+01  4.52150E+01  5.50397E+01  5.62994E+01  6.52534E+01
   7.22553E+01  7.21720E+01  6.53533E+01  6.46519E+01  5.88810E+01  5.55404E+01  5.01487E+01  3.75122E+01  3.71602E+01  3.43615E+01
   2.89619E+01  3.17322E+01  3.34390E+01  2.87276E+01  3.11959E+01  3.69283E+01  3.47696E+01  3.75146E+01  3.81664E+01  4.17609E+01
   4.02138E+01  4.00736E+01  4.28727E+01  4.13029E+01  3.64809E+01  3.28378E+01  3.18855E+01  2.92427E+01  2.60682E+01  3.02994E+01
   3.74726E+01  2.89293E+01  2.81159E+01  2.85043E+01  3.21303E+01  3.13073E+01  3.67171E+01  3.71837E+01  3.82791E+01  3.14675E+01
   3.13976E+01  2.33585E+01  2.69049E+01  2.55989E+01  2.79836E+01  2.68579E+01  2.58529E+01  2.72627E+01  2.31545E+01  2.81654E+01
   2.22141E+01  2.42900E+01  2.78979E+01  1.82067E+01  1.35136E+01  1.60974E+01  1.75359E+01  1.19398E+01  1.33836E+01  1.17313E+01
   1.10272E+01  1.92507E+01  1.63166E+01  1.62086E+01  1.35840E+01  9.42519E+00  1.30182E+01  1.81101E+01  1.53276E+01  1.31427E+01
   2.27314E+01  1.41712E+01  1.41651E+01  1.21116E+01  9.94681E+00  9.74373E+00  6.97798E+00  1.63445E+01  1.54428E+01  1.68115E+01
   1.70385E+01  1.11318E+01  1.28476E+01  1.73824E+01  1.40898E+01  1.79419E+01  1.93988E+01  2.37584E+01  1.99728E+01  2.32812E+01
   3.24687E+01  4.35345E+01  5.21131E+01  5.47064E+01  4.68378E+01  5.45377E+01  4.39501E+01  3.40385E+01  3.19108E+01  2.44538E+01
   2.33207E+01  2.05136E+01  1.67700E+01  1.78686E+01  1.56619E+01  1.32641E+01  1.82003E+01  2.13817E+01  1.90369E+01  1.36328E+01
   2.08864E+01  2.33371E+01  2.51624E+01  3.16698E+01  4.13985E+01  5.42869E+01  6.65810E+01  7.11043E+01  7.08967E+01  6.68575E+01
   5.41062E+01  5.07036E+01  4.08906E+01  3.50905E+01  2.74164E+01  2.04193E+01  1.97976E+01  1.69180E+01  2.10897E+01  2.00207E+01
   8.71346E+00  1.75807E+01  1.63089E+01  1.59931E+01  1.13036E+01  8.67566E+00  9.36588E+00  9.04883E+00  9.46536E+00  1.29862E+01
   1.18508E+01  9.86808E+00  6.53812E+00  1.06719E+01  1.19755E+01  8.54335E+00  8.17778E+00  8.75321E+00  7.60513E+00  1.03836E+01
   1.12400E+01  8.52732E+00  4.84130E+00  3.71551E+00  1.08729E+01  9.60533E+00  1.25931E+01  2.52835E+00  8.19705E+00  3.73235E+00
   3.09196E+00  9.26413E+00  4.52128E-01  2.70056E+00 -1.61609E+00 -3.03978E+00 -3.57482E+00 -1.37166E+00  1.95787E+00 -1.94958E+00
   1.55379E+00 -6.61766E+00 -2.72218E+00 -3.58149E+00 -3.72954E+00 -6.16851E+00  1.39991E-01  1.29302E+00  2.97218E+00  4.56715E+00
   2.56653E+00  8.87840E+00  1.21900E+01  1.38639E+01  1.32369E+01  1.00698E+01  1.53593E+01  9.72286E+00  8.22029E+00  6.62307E+00
   9.08869E+00  1.05894E+01  1.52635E+01  1.01279E+01  1.01822E+01  7.66329E+00  9.03874E+00  3.61157E+00  5.42749E-01  2.53882E+00
   1.38638E+00  3.80260E+00  9.30979E+00  9.41973E+00  7.78870E+00  1.61427E+01  1.80167E+01  1.29554E+01  7.51101E+00  8.50500E+00
   4.93904E+00  2.87778E-01  3.83897E+00  3.80959E+00  4.22107E+00  1.25616E+01  1.43028E+01  1.53406E+01  1.35647E+01  1.40636E+01
   6.42541E+00  1.58998E+01  1.58188E+01  1.37649E+01  1.37769E+01  1.10896E+01  8.55691E+00  1.03214E+01  9.97189E+00  1.39917E+01
   8.23333E+00  9.08631E+00  9.22514E+00  8.13951E+00  1.11314E+01  8.48378E+00  1.63421E+01  1.64059E+01  2.10169E+01  2.04448E+01
   2.27635E+01  2.45954E+01  3.28313E+01  3.35526E+01  3.33106E+01  3.53471E+01  4.25684E+01  4.92821E+01  6.78640E+01  7.61368E+01
   8.34864E+01  7.53470E+01  6.83447E+01  5.37121E+01  4.97558E+01  3.53159E+01  2.83195E+01  2.37223E+01  1.27037E+01  1.84073E+01
   1.26771E+01  1.13039E+01  1.08141E+01  1.23285E+01  1.17747E+01  1.28564E+01  1.17610E+01  1.10551E+01  1.39685E+01  1.06069E+01
   9.84666E+00  1.12363E+01  8.17208E+00  9.25663E+00  9.64890E+00  7.08934E+00  1.11258E+01  6.58795E+00  5.77228E+00  8.22341E+00
   4.20101E+00  7.91376E+00  7.58765E+00  8.36773E+00  1.23715E+01  3.61413E+00  9.90285E+00  3.12330E+00  4.89329E+00  1.10946E+01
   2.67159E+00  3.90235E+00  6.52224E+00  1.03681E+01  6.42420E+00  8.21858E+00  5.34152E+00  9.34294E+00  1.05349E+01  1.44485E+01
   4.57632E+00  1.68824E+01  6.01733E+00  9.53233E+00  8.70553E+00  7.38627E+00  1.18817E+01  6.69031E+00  7.82683E+00  1.31456E+01
   8.37401E+00  8.41945E+00  1.08339E+01  8.53477E+00  1.02661E+01  1.05250E+01  8.45156E+00  1.16543E+01  1.78561E+01  1.62750E+01
   7.63210E+00  9.23653E+00  1.28933E+01  1.03062E+01  1.57020E+01  1.64588E+01  1.27273E+01  1.73655E+01  1.76938E+01  1.43106E+01
   1.39245E+01  1.56474E+01  1.23822E+01  1.20258E+01  1.82840E+01  1.86691E+01  1.77000E+01  1.58025E+01  1.78098E+01  1.49652E+01
   1.80501E+01  1.67149E+01  2.02349E+01  2.13720E+01  1.80438E+01  2.06941E+01  1.76206E+01  1.76502E+01  1.93258E+01  2.04955E+01
   2.13287E+01  1.73981E+01  2.08219E+01  1.95462E+01  2.10804E+01  1.70191E+01  2.31211E+01  1.29454E+01  1.60043E+01  2.11133E+01
   1.68959E+01  1.50042E+01  1.29650E+01  1.15839E+01  8.59690E+00  1.38752E+01  1.37522E+01  1.39989E+01  1.70505E+01  1.31868E+01
   1.14083E+01  8.59997E+00  1.38853E+01  1.57582E+01  1.13601E+01  1.33676E+01  9.37898E+00  1.31192E+01  1.22670E+01  1.66169E+01
   1.41966E+01  1.60442E+01  1.62787E+01  1.55736E+01  1.54342E+01  1.57885E+01  1.73478E+01  1.18080E+01  1.69747E+01  1.43620E+01
   1.80834E+01  8.83686E+00  1.85060E+01  1.96570E+01  1.90982E+01  1.53681E+01  1.66278E+01  2.23985E+01  1.93443E+01  2.02832E+01
   1.63496E+01  1.41923E+01  1.51070E+01  1.68380E+01  2.14916E+01  1.73190E+01  1.38691E+01  1.44496E+01  1.28876E+01  1.20897E+01
   1.35281E+01  1.02032E+01  1.20509E+01  1.02743E+01  1.57444E+01  7.46102E+00  4.05944E+00  1.17000E+01  6.71085E+00  9.71720E+00
   7.66453E+00  1.04508E+01  5.08695E+00  1.03032E+01  7.18527E+00  9.92502E+00  2.26099E+00  5.18709E+00  4.58740E+00  6.76998E+00
   8.43134E+00  5.47667E+00  3.52581E+00  7.51630E+00  6.22398E+00  1.16846E+01  9.50018E+00  4.86756E+00  6.97853E+00  4.67835E+00
   8.76131E+00  2.30753E+00  5.67322E+00  2.73410E+00  8.28471E+00  8.53195E+00  3.68650E+00  6.27637E+00  8.01215E+00  2.84057E+00
   1.17208E+01  9.59490E+00  5.62289E+00  9.12013E+00  4.56817E+00  7.83487E+00  8.10640E+00  3.15016E+00  7.15090E+00  7.03262E+00
   1.05648E+01  6.60643E+00  3.08980E+00  8.93368E+00  3.81700E+00  1.25066E+01  5.48657E+00  8.26537E+00  3.00865E+00  4.64459E+00
   2.35488E+00  7.24949E+00  1.03282E+01  3.04231E+00  5.49521E+00  3.69631E+00  2.93837E+00  6.69804E+00  7.06094E+00  6.64972E+00
   7.77032E+00  3.90053E+00  4.29731E+00  6.49864E+00  1.21586E+01  8.04559E+00 -1.82575E+00  7.89125E+00
 NY points of the fit to the data follow
   3.17998E+01  3.15453E+01  3.21031E+01  3.34662E+01  3.56857E+01  3.94407E+01  4.40486E+01  4.95814E+01  5.60329E+01  6.23483E+01
   6.67903E+01  6.79883E+01  6.58018E+01  6.12405E+01  5.55969E+01  4.99454E+01  4.47563E+01  4.00971E+01  3.62570E+01  3.32348E+01
   3.09973E+01  2.98698E+01  2.94903E+01  2.97540E+01  2.99264E+01  3.03544E+01  3.18306E+01  3.47351E+01  3.83994E+01  4.17030E+01
   4.37318E+01  4.39534E+01  4.23821E+01  3.95771E+01  3.61342E+01  3.26907E+01  2.97384E+01  2.73828E+01  2.58019E+01  2.53712E+01
   2.58286E+01  2.67305E+01  2.77238E+01  2.90163E+01  3.07089E+01  3.23823E+01  3.33969E+01  3.32725E+01  3.20896E+01  3.03208E+01
   2.83145E+01  2.64097E+01  2.49259E+01  2.38590E+01  2.30287E+01  2.24966E+01  2.25048E+01  2.29749E+01  2.34999E+01  2.37674E+01
   2.36706E+01  2.31676E+01  2.23891E+01  2.15212E+01  2.08163E+01  2.04176E+01  2.02240E+01  2.01715E+01  2.02897E+01  2.05367E+01
   2.08057E+01  2.09664E+01  2.09325E+01  2.07131E+01  2.03598E+01  1.99466E+01  1.95420E+01  1.91670E+01  1.88218E+01  1.84336E+01
   1.79915E+01  1.75345E+01  1.70304E+01  1.64188E+01  1.56477E+01  1.47705E+01  1.39555E+01  1.33893E+01  1.31694E+01  1.33264E+01
   1.37405E+01  1.42821E+01  1.48684E+01  1.54376E+01  1.59461E+01  1.65297E+01  1.82425E+01  2.12331E+01  2.40833E+01  2.80749E+01
   3.46275E+01  4.29970E+01  5.04766E+01  5.43996E+01  5.38722E+01  4.97975E+01  4.38290E+01  3.75611E+01  3.18062E+01  2.67264E+01
   2.21299E+01  1.79515E+01  1.52402E+01  1.44495E+01  1.42745E+01  1.42539E+01  1.43020E+01  1.44274E+01  1.47152E+01  1.55067E+01
   1.82781E+01  2.31779E+01  2.81374E+01  3.46307E+01  4.45010E+01  5.67593E+01  6.77717E+01  7.38017E+01  7.34416E+01  6.79809E+01
   5.98250E+01  5.10484E+01  4.25880E+01  3.45235E+01  2.67347E+01  1.94895E+01  1.45382E+01  1.28330E+01  1.26552E+01  1.30875E+01
   1.36549E+01  1.40689E+01  1.42978E+01  1.43412E+01  1.41434E+01  1.37712E+01  1.32856E+01  1.26856E+01  1.20419E+01  1.14255E+01
   1.08824E+01  1.04365E+01  1.00637E+01  9.74963E+00  9.46406E+00  9.27320E+00  9.14122E+00  8.95789E+00  8.67296E+00  8.23946E+00
   7.82584E+00  7.62417E+00  7.62395E+00  7.63956E+00  7.50700E+00  7.18799E+00  6.73467E+00  6.24573E+00  5.80890E+00  5.40991E+00
   5.03457E+00  4.69826E+00  4.26903E+00  3.73851E+00  3.24336E+00  2.95398E+00  2.91632E+00  2.99160E+00  2.95375E+00  2.76144E+00
   2.51058E+00  2.40612E+00  2.48454E+00  2.66704E+00  2.93286E+00  3.36388E+00  4.10845E+00  5.27777E+00  6.76563E+00  8.18020E+00
   9.06616E+00  9.17398E+00  8.71434E+00  7.87397E+00  6.82288E+00  5.81171E+00  5.16115E+00  5.24146E+00  6.11348E+00  7.53130E+00
   9.15638E+00  1.07581E+01  1.18280E+01  1.20164E+01  1.15006E+01  1.01451E+01  7.86934E+00  5.21281E+00  3.15287E+00  2.39846E+00
   2.76690E+00  4.28200E+00  6.89288E+00  1.00509E+01  1.27357E+01  1.39847E+01  1.36421E+01  1.21252E+01  9.47018E+00  6.01812E+00
   2.92396E+00  1.08342E+00  8.31391E-01  1.99370E+00  4.08407E+00  6.67142E+00  9.09232E+00  1.09067E+01  1.19181E+01  1.22954E+01
   1.24460E+01  1.24141E+01  1.22750E+01  1.24107E+01  1.30316E+01  1.37767E+01  1.43365E+01  1.45895E+01  1.44432E+01  1.37962E+01
   1.27316E+01  1.17204E+01  1.12249E+01  1.14115E+01  1.21123E+01  1.30561E+01  1.41224E+01  1.51386E+01  1.61427E+01  1.74644E+01
   1.89205E+01  2.04843E+01  2.29496E+01  2.81719E+01  3.46932E+01  4.02202E+01  4.66259E+01  5.57709E+01  6.63672E+01  7.48639E+01
   7.81280E+01  7.53956E+01  6.80387E+01  5.83514E+01  4.85746E+01  3.99354E+01  3.23479E+01  2.52257E+01  1.87170E+01  1.46728E+01
   1.30926E+01  1.22799E+01  1.17838E+01  1.14443E+01  1.11018E+01  1.07208E+01  1.03188E+01  9.89747E+00  9.47213E+00  9.07133E+00
   8.70605E+00  8.37808E+00  8.10266E+00  7.88216E+00  7.70000E+00  7.54312E+00  7.40040E+00  7.27671E+00  7.18223E+00  7.11836E+00
   7.08762E+00  7.09094E+00  7.12335E+00  7.17962E+00  7.24971E+00  7.32756E+00  7.41070E+00  7.49858E+00  7.59462E+00  7.69921E+00
   7.81045E+00  7.92871E+00  8.04904E+00  8.16539E+00  8.27343E+00  8.37061E+00  8.45619E+00  8.52905E+00  8.58784E+00  8.63574E+00
   8.67600E+00  8.71164E+00  8.74683E+00  8.78562E+00  8.83235E+00  8.89140E+00  8.96685E+00  9.06276E+00  9.18369E+00  9.33629E+00
   9.52901E+00  9.74446E+00  9.97520E+00  1.02379E+01  1.05248E+01  1.08021E+01  1.10364E+01  1.12199E+01  1.13887E+01  1.15791E+01
   1.17922E+01  1.20430E+01  1.23535E+01  1.27322E+01  1.31595E+01  1.36035E+01  1.40415E+01  1.44451E+01  1.48012E+01  1.51256E+01
   1.54350E+01  1.57360E+01  1.60280E+01  1.63120E+01  1.66023E+01  1.69085E+01  1.72163E+01  1.75172E+01  1.78142E+01  1.81074E+01
   1.83927E+01  1.86688E+01  1.89337E+01  1.91811E+01  1.93989E+01  1.95740E+01  1.96970E+01  1.97591E+01  1.97542E+01  1.96829E+01
   1.95468E+01  1.93479E+01  1.90882E+01  1.87713E+01  1.84062E+01  1.80008E+01  1.75607E+01  1.70925E+01  1.66042E+01  1.61037E+01
   1.55993E+01  1.50987E+01  1.46093E+01  1.41379E+01  1.36912E+01  1.32750E+01  1.28945E+01  1.25543E+01  1.22584E+01  1.20102E+01
   1.18129E+01  1.16691E+01  1.15811E+01  1.15505E+01  1.15786E+01  1.16662E+01  1.18139E+01  1.20211E+01  1.22865E+01  1.26077E+01
   1.29813E+01  1.34026E+01  1.38656E+01  1.43628E+01  1.48851E+01  1.54221E+01  1.59624E+01  1.64936E+01  1.70029E+01  1.74771E+01
   1.79036E+01  1.82703E+01  1.85668E+01  1.87844E+01  1.89165E+01  1.89587E+01  1.89095E+01  1.87698E+01  1.85432E+01  1.82357E+01
   1.78549E+01  1.74103E+01  1.69123E+01  1.63722E+01  1.58013E+01  1.52109E+01  1.46115E+01  1.40124E+01  1.34221E+01  1.28478E+01
   1.22954E+01  1.17694E+01  1.12727E+01  1.08075E+01  1.03747E+01  9.97458E+00  9.60655E+00  9.26945E+00  8.96169E+00  8.68147E+00
   8.42692E+00  8.19609E+00  7.98697E+00  7.79751E+00  7.62580E+00  7.47013E+00  7.32896E+00  7.20086E+00  7.08447E+00  6.97850E+00
   6.88186E+00  6.79366E+00  6.71311E+00  6.63947E+00  6.57200E+00  6.51005E+00  6.45310E+00  6.40076E+00  6.35266E+00  6.30841E+00
   6.26760E+00  6.22990E+00  6.19510E+00  6.16305E+00  6.13354E+00  6.10632E+00  6.08117E+00  6.05793E+00  6.03652E+00  6.01686E+00
   5.99882E+00  5.98222E+00  5.96693E+00  5.95289E+00  5.94009E+00  5.92848E+00  5.91793E+00  5.90832E+00  5.89958E+00  5.89171E+00
   5.88473E+00  5.87857E+00  5.87312E+00  5.86830E+00  5.86410E+00  5.86054E+00  5.85763E+00  5.85528E+00  5.85341E+00  5.85197E+00
   5.85097E+00  5.85046E+00  5.85040E+00  5.85072E+00  5.85135E+00  5.85227E+00  5.85353E+00  5.85514E+00  5.85705E+00  5.85919E+00
   5.86150E+00  5.86401E+00  5.86675E+00  5.86972E+00  5.87285E+00  5.87606E+00  5.87934E+00  5.88271E+00
 NY background values follow
     2.632E+01    2.618E+01    2.604E+01    2.590E+01    2.576E+01    2.562E+01    2.548E+01    2.535E+01    2.521E+01    2.507E+01
     2.493E+01    2.479E+01    2.465E+01    2.451E+01    2.437E+01    2.423E+01    2.410E+01    2.396E+01    2.382E+01    2.368E+01
     2.354E+01    2.340E+01    2.326E+01    2.312E+01    2.299E+01    2.285E+01    2.271E+01    2.257E+01    2.243E+01    2.230E+01
     2.216E+01    2.202E+01    2.188E+01    2.175E+01    2.161E+01    2.147E+01    2.133E+01    2.120E+01    2.106E+01    2.092E+01
     2.079E+01    2.065E+01    2.052E+01    2.038E+01    2.024E+01    2.011E+01    1.997E+01    1.984E+01    1.970E+01    1.957E+01
     1.944E+01    1.930E+01    1.917E+01    1.904E+01    1.890E+01    1.877E+01    1.864E+01    1.850E+01    1.837E+01    1.824E+01
     1.811E+01    1.798E+01    1.785E+01    1.772E+01    1.759E+01    1.746E+01    1.733E+01    1.720E+01    1.707E+01    1.695E+01
     1.682E+01    1.669E+01    1.656E+01    1.644E+01    1.631E+01    1.619E+01    1.606E+01    1.594E+01    1.581E+01    1.569E+01
     1.557E+01    1.545E+01    1.532E+01    1.520E+01    1.508E+01    1.496E+01    1.484E+01    1.472E+01    1.460E+01    1.449E+01
     1.437E+01    1.425E+01    1.414E+01    1.402E+01    1.391E+01    1.379E+01    1.368E+01    1.356E+01    1.345E+01    1.334E+01
     1.323E+01    1.312E+01    1.301E+01    1.290E+01    1.279E+01    1.268E+01    1.257E+01    1.247E+01    1.236E+01    1.225E+01
     1.215E+01    1.204E+01    1.194E+01    1.184E+01    1.173E+01    1.163E+01    1.153E+01    1.143E+01    1.133E+01    1.123E+01
     1.113E+01    1.103E+01    1.093E+01    1.083E+01    1.074E+01    1.064E+01    1.054E+01    1.045E+01    1.035E+01    1.026E+01
     1.017E+01    1.007E+01    9.983E+00    9.891E+00    9.801E+00    9.710E+00    9.621E+00    9.532E+00    9.443E+00    9.356E+00
     9.268E+00    9.182E+00    9.096E+00    9.011E+00    8.926E+00    8.842E+00    8.759E+00    8.676E+00    8.594E+00    8.512E+00
     8.431E+00    8.351E+00    8.271E+00    8.192E+00    8.114E+00    8.036E+00    7.959E+00    7.883E+00    7.807E+00    7.732E+00
     7.658E+00    7.584E+00    7.511E+00    7.438E+00    7.366E+00    7.295E+00    7.224E+00    7.155E+00    7.085E+00    7.017E+00
     6.949E+00    6.882E+00    6.815E+00    6.749E+00    6.684E+00    6.619E+00    6.555E+00    6.492E+00    6.430E+00    6.368E+00
     6.307E+00    6.246E+00    6.186E+00    6.127E+00    6.069E+00    6.011E+00    5.954E+00    5.897E+00    5.842E+00    5.786E+00
     5.732E+00    5.678E+00    5.625E+00    5.572E+00    5.520E+00    5.469E+00    5.418E+00    5.368E+00    5.318E+00    5.269E+00
     5.221E+00    5.173E+00    5.126E+00    5.080E+00    5.034E+00    4.988E+00    4.944E+00    4.899E+00    4.856E+00    4.812E+00
     4.770E+00    4.728E+00    4.686E+00    4.645E+00    4.605E+00    4.565E+00    4.526E+00    4.487E+00    4.449E+00    4.411E+00
     4.373E+00    4.337E+00    4.300E+00    4.264E+00    4.229E+00    4.194E+00    4.160E+00    4.126E+00    4.092E+00    4.060E+00
     4.027E+00    3.995E+00    3.963E+00    3.932E+00    3.902E+00    3.871E+00    3.842E+00    3.812E+00    3.784E+00    3.755E+00
     3.727E+00    3.700E+00    3.672E+00    3.646E+00    3.620E+00    3.594E+00    3.568E+00    3.543E+00    3.519E+00    3.495E+00
     3.471E+00    3.448E+00    3.425E+00    3.402E+00    3.380E+00    3.358E+00    3.337E+00    3.316E+00    3.296E+00    3.276E+00
     3.256E+00    3.236E+00    3.217E+00    3.199E+00    3.181E+00    3.163E+00    3.145E+00    3.128E+00    3.112E+00    3.095E+00
     3.079E+00    3.063E+00    3.048E+00    3.033E+00    3.019E+00    3.004E+00    2.990E+00    2.977E+00    2.964E+00    2.951E+00
     2.938E+00    2.926E+00    2.914E+00    2.903E+00    2.891E+00    2.881E+00    2.870E+00    2.860E+00    2.850E+00    2.840E+00
     2.831E+00    2.822E+00    2.813E+00    2.805E+00    2.797E+00    2.789E+00    2.782E+00    2.775E+00    2.768E+00    2.761E+00
     2.755E+00    2.749E+00    2.743E+00    2.738E+00    2.733E+00    2.728E+00    2.723E+00    2.719E+00    2.715E+00    2.711E+00
     2.708E+00    2.704E+00    2.701E+00    2.699E+00    2.696E+00    2.694E+00    2.692E+00    2.690E+00    2.689E+00    2.688E+00
     2.687E+00    2.686E+00    2.686E+00    2.686E+00    2.686E+00    2.686E+00    2.686E+00    2.687E+00    2.688E+00    2.689E+00
     2.691E+00    2.692E+00    2.694E+00    2.696E+00    2.698E+00    2.701E+00    2.704E+00    2.707E+00    2.710E+00    2.713E+00
     2.717E+00    2.720E+00    2.724E+00    2.728E+00    2.733E+00    2.737E+00    2.742E+00    2.747E+00    2.752E+00    2.757E+00
     2.763E+00    2.768E+00    2.774E+00    2.780E+00    2.786E+00    2.793E+00    2.799E+00    2.806E+00    2.813E+00    2.820E+00
     2.827E+00    2.834E+00    2.842E+00    2.849E+00    2.857E+00    2.865E+00    2.873E+00    2.881E+00    2.890E+00    2.898E+00
     2.907E+00    2.916E+00    2.925E+00    2.934E+00    2.943E+00    2.953E+00    2.962E+00    2.972E+00    2.982E+00    2.992E+00
     3.002E+00    3.012E+00    3.023E+00    3.033E+00    3.044E+00    3.054E+00    3.065E+00    3.076E+00    3.087E+00    3.099E+00
     3.110E+00    3.122E+00    3.133E+00    3.145E+00    3.157E+00    3.169E+00    3.181E+00    3.193E+00    3.205E+00    3.218E+00
     3.230E+00    3.243E+00    3.256E+00    3.268E+00    3.281E+00    3.294E+00    3.307E+00    3.321E+00    3.334E+00    3.347E+00
     3.361E+00    3.375E+00    3.388E+00    3.402E+00    3.416E+00    3.430E+00    3.444E+00    3.458E+00    3.472E+00    3.487E+00
     3.501E+00    3.516E+00    3.530E+00    3.545E+00    3.559E+00    3.574E+00    3.589E+00    3.604E+00    3.619E+00    3.634E+00
     3.649E+00    3.664E+00    3.679E+00    3.694E+00    3.710E+00    3.725E+00    3.740E+00    3.756E+00    3.771E+00    3.787E+00
     3.803E+00    3.818E+00    3.834E+00    3.850E+00    3.865E+00    3.881E+00    3.897E+00    3.913E+00    3.929E+00    3.945E+00
     3.961E+00    3.977E+00    3.993E+00    4.009E+00    4.025E+00    4.041E+00    4.057E+00    4.073E+00    4.089E+00    4.105E+00
     4.122E+00    4.138E+00    4.154E+00    4.170E+00    4.186E+00    4.203E+00    4.219E+00    4.235E+00    4.252E+00    4.268E+00
     4.284E+00    4.300E+00    4.317E+00    4.333E+00    4.349E+00    4.366E+00    4.382E+00    4.399E+00    4.415E+00    4.431E+00
     4.448E+00    4.464E+00    4.480E+00    4.497E+00    4.513E+00    4.530E+00    4.546E+00    4.562E+00    4.579E+00    4.595E+00
     4.611E+00    4.628E+00    4.644E+00    4.660E+00    4.677E+00    4.693E+00    4.709E+00    4.725E+00
 Ala      Conc. = 3.44E+01
