 LCModel (Version 6.3-1L) Copyright: S.W. Provencher.          Ref.: Magn. Reson. Med. 30:672-679 (1993).                
 Slice#3 Row#2 Col#1  K_02_press_1_raw_act
 36 lines in following concentration table = NCONC+1
    Conc.  %SD /Cr+PCr  Metabolite                                         
  434.478  75%   3.632 Ala                                                 
   13.968  34%   0.117 Asp                                                 
    0.000 999%   0.000 Cr                                                  
  119.617  29%   1.000 PCr                                                 
    8.321  35% 7.0E-02 GABA                                                
    8.373  35% 7.0E-02 Glc                                                 
 1.04E+03  29%   8.696 Gln                                                 
 1.67E+03  24%  13.993 Glu                                                 
    0.000 999%   0.000 GPC                                                 
   51.868  26%   0.434 PCh                                                 
    0.000 999%   0.000 GSH                                                 
  541.750  27%   4.529 Ins                                                 
 2.16E+03  18%  18.080 Lac                                                 
    3.050 999% 2.5E-02 NAA                                                 
    0.000 999%   0.000 NAAG                                                
    2.821  34% 2.4E-02 Scyllo                                              
   14.058  34%   0.118 Tau                                                 
   11.774  41% 9.8E-02 -CrCH2                                              
   51.868  26%   0.434 GPC+PCh                                             
    3.050 999% 2.5E-02 NAA+NAAG                                            
  119.617  29%   1.000 Cr+PCr                                              
 2.71E+03  19%  22.689 Glu+Gln                                             
 2.21E+03  17%  18.459 Lip13a                                              
    0.000 999%   0.000 Lip13b                                              
  663.365  16%   5.546 Lip09                                               
   21.491 212%   0.180 MM09                                                
  253.931  34%   2.123 Lip20                                               
    0.000 999%   0.000 MM20                                                
    2.139 999% 1.8E-02 MM12                                                
  122.893  72%   1.027 MM14                                                
  108.608  45%   0.908 MM17                                                
 2.21E+03  17%  18.459 Lip13a+Lip13b                                       
 2.33E+03  16%  19.504 MM14+Lip13a+Lip13b+MM12                             
  684.856  15%   5.725 MM09+Lip09                                          
  253.931  34%   2.123 MM20+Lip20                                          
   6 lines in following misc. output table
  FWHM = 0.153 ppm    S/N =   4                                            
  Data shift = 0.084 ppm                                                   
  Ph: 127 deg     -59.7 deg/ppm                                            
  alphaB,S = 8.5E+01,   4.1E+02                                            
   13 spline knots.   Ns = 9(2)                                            
   2 inflections.     1 extrema                                            
  498 points on ppm-axis = NY
      4.000000     3.992357     3.984714     3.977070     3.969427     3.961784     3.954141     3.946497     3.938854     3.931211
      3.923568     3.915925     3.908281     3.900638     3.892995     3.885352     3.877708     3.870065     3.862422     3.854779
      3.847136     3.839492     3.831849     3.824206     3.816563     3.808919     3.801276     3.793633     3.785990     3.778347
      3.770703     3.763060     3.755417     3.747774     3.740130     3.732487     3.724844     3.717201     3.709558     3.701914
      3.694271     3.686628     3.678985     3.671341     3.663698     3.656055     3.648412     3.640769     3.633125     3.625482
      3.617839     3.610196     3.602552     3.594909     3.587266     3.579623     3.571980     3.564336     3.556693     3.549050
      3.541407     3.533763     3.526120     3.518477     3.510834     3.503191     3.495547     3.487904     3.480261     3.472618
      3.464974     3.457331     3.449688     3.442045     3.434402     3.426758     3.419115     3.411472     3.403829     3.396185
      3.388542     3.380899     3.373256     3.365613     3.357969     3.350326     3.342683     3.335040     3.327396     3.319753
      3.312110     3.304467     3.296824     3.289180     3.281537     3.273894     3.266251     3.258607     3.250964     3.243321
      3.235678     3.228034     3.220391     3.212748     3.205105     3.197462     3.189818     3.182175     3.174532     3.166889
      3.159245     3.151602     3.143959     3.136316     3.128673     3.121029     3.113386     3.105743     3.098100     3.090456
      3.082813     3.075170     3.067527     3.059884     3.052240     3.044597     3.036954     3.029311     3.021667     3.014024
      3.006381     2.998738     2.991095     2.983451     2.975808     2.968165     2.960522     2.952878     2.945235     2.937592
      2.929949     2.922306     2.914662     2.907019     2.899376     2.891733     2.884089     2.876446     2.868803     2.861160
      2.853517     2.845873     2.838230     2.830587     2.822944     2.815300     2.807657     2.800014     2.792371     2.784728
      2.777084     2.769441     2.761798     2.754155     2.746511     2.738868     2.731225     2.723582     2.715939     2.708295
      2.700652     2.693009     2.685366     2.677722     2.670079     2.662436     2.654793     2.647150     2.639506     2.631863
      2.624220     2.616577     2.608933     2.601290     2.593647     2.586004     2.578361     2.570717     2.563074     2.555431
      2.547788     2.540144     2.532501     2.524858     2.517215     2.509572     2.501928     2.494285     2.486642     2.478999
      2.471355     2.463712     2.456069     2.448426     2.440783     2.433139     2.425496     2.417853     2.410210     2.402566
      2.394923     2.387280     2.379637     2.371994     2.364350     2.356707     2.349064     2.341421     2.333777     2.326134
      2.318491     2.310848     2.303205     2.295561     2.287918     2.280275     2.272632     2.264988     2.257345     2.249702
      2.242059     2.234416     2.226772     2.219129     2.211486     2.203843     2.196199     2.188556     2.180913     2.173270
      2.165627     2.157983     2.150340     2.142697     2.135054     2.127410     2.119767     2.112124     2.104481     2.096838
      2.089194     2.081551     2.073908     2.066265     2.058621     2.050978     2.043335     2.035692     2.028049     2.020405
      2.012762     2.005119     1.997476     1.989833     1.982190     1.974546     1.966903     1.959260     1.951617     1.943974
      1.936331     1.928688     1.921045     1.913402     1.905759     1.898115     1.890472     1.882829     1.875186     1.867543
      1.859900     1.852257     1.844614     1.836971     1.829327     1.821684     1.814041     1.806398     1.798755     1.791112
      1.783469     1.775826     1.768183     1.760540     1.752896     1.745253     1.737610     1.729967     1.722324     1.714681
      1.707038     1.699395     1.691752     1.684108     1.676465     1.668822     1.661179     1.653536     1.645893     1.638250
      1.630607     1.622964     1.615321     1.607677     1.600034     1.592391     1.584748     1.577105     1.569462     1.561819
      1.554176     1.546533     1.538890     1.531246     1.523603     1.515960     1.508317     1.500674     1.493031     1.485388
      1.477745     1.470102     1.462458     1.454815     1.447172     1.439529     1.431886     1.424243     1.416600     1.408957
      1.401314     1.393671     1.386027     1.378384     1.370741     1.363098     1.355455     1.347812     1.340169     1.332526
      1.324883     1.317240     1.309596     1.301953     1.294310     1.286667     1.279024     1.271381     1.263738     1.256095
      1.248452     1.240808     1.233165     1.225522     1.217879     1.210236     1.202593     1.194950     1.187307     1.179664
      1.172021     1.164377     1.156734     1.149091     1.141448     1.133805     1.126162     1.118519     1.110876     1.103233
      1.095590     1.087946     1.080303     1.072660     1.065017     1.057374     1.049731     1.042088     1.034445     1.026802
      1.019158     1.011515     1.003872     0.996229     0.988586     0.980943     0.973300     0.965657     0.958014     0.950371
      0.942727     0.935084     0.927441     0.919798     0.912155     0.904512     0.896869     0.889226     0.881583     0.873940
      0.866296     0.858653     0.851010     0.843367     0.835724     0.828081     0.820438     0.812795     0.805152     0.797508
      0.789865     0.782222     0.774579     0.766936     0.759293     0.751650     0.744007     0.736364     0.728721     0.721077
      0.713434     0.705791     0.698148     0.690505     0.682862     0.675219     0.667576     0.659933     0.652290     0.644646
      0.637003     0.629360     0.621717     0.614074     0.606431     0.598788     0.591145     0.583502     0.575858     0.568215
      0.560572     0.552929     0.545286     0.537643     0.530000     0.522357     0.514714     0.507071     0.499427     0.491784
      0.484141     0.476498     0.468855     0.461212     0.453569     0.445925     0.438282     0.430639     0.422996     0.415353
      0.407710     0.400067     0.392424     0.384780     0.377137     0.369494     0.361851     0.354208     0.346565     0.338922
      0.331278     0.323635     0.315992     0.308349     0.300706     0.293063     0.285420     0.277777     0.270133     0.262490
      0.254847     0.247204     0.239561     0.231918     0.224275     0.216631     0.208988     0.201345
 NY phased data points follow
  -1.75447E+00  3.01473E+00  3.26083E+00  3.01974E+00  1.74260E+00  2.15253E+00  2.24456E+00  2.99349E+00  1.85008E+00  1.41117E+00
   2.25006E+00  6.02399E-01  1.37336E+00  2.30495E+00  1.72900E+00  1.70486E+00  1.76454E+00  2.01902E+00  1.57790E+00  2.20853E+00
   1.72420E+00  4.13786E-01  1.58356E+00  2.41430E+00  1.20441E+00  8.72448E-01  2.14495E+00 -5.74060E-01  2.84956E+00  8.48339E-01
   2.65178E+00  1.68847E+00  1.72021E+00  3.58678E+00  2.60828E+00  1.57447E+00  2.31020E+00  1.48871E+00  1.88741E+00  8.04813E-01
   2.44292E+00  3.97277E+00  2.03093E+00  3.13650E+00  1.81368E+00  1.15506E+00  1.33561E+00  1.28748E+00  1.99241E+00  1.01052E+00
   1.73681E+00  3.66305E+00  1.13665E+00  5.80885E-01  1.69443E+00  2.04165E+00  1.14663E+00  2.27253E+00  1.23377E+00  2.83197E+00
   1.64923E+00  1.66293E-02 -4.61881E-01  9.90481E-01  2.11529E+00  4.80922E+00  3.14141E-01  2.01632E+00 -1.01809E-01  3.65804E+00
   9.11139E-01  5.56465E-01  1.81329E+00  2.00501E+00 -7.87177E-01  2.78209E+00  1.35764E+00  8.56938E-01  1.45311E+00  1.61969E+00
   2.39856E+00 -7.17172E-01 -9.87257E-01  1.57102E+00 -1.98095E-01  1.24040E+00  1.02530E+00 -2.69411E-03 -1.02295E-01  3.27514E+00
  -2.76716E+00  1.29162E+00  6.86526E-01  2.12779E+00 -5.87864E-01  2.26154E+00  2.33090E+00  2.42113E+00  1.52096E+00  1.90356E+00
   6.77098E-01  3.41384E-02  2.54974E+00 -1.23184E+00  2.49826E+00  3.66645E+00  3.60891E+00  5.49527E-01  1.01925E-01  2.77917E-01
  -4.81300E-01 -7.58111E-01  2.24090E+00  8.88934E-02  9.21220E-01  1.39004E+00 -1.41179E-01  9.54583E-01  2.57259E+00  5.95681E-01
   3.20375E+00 -7.58415E-03  6.51692E-01 -7.98778E-01  1.94967E+00  3.28320E+00  1.45163E+00  1.94845E-01  9.59876E-01  8.81629E-01
   2.00075E+00  2.17884E+00  7.09688E-01 -2.08785E-01  4.06889E-01  1.53021E+00  1.65131E+00  8.77903E-01  2.34541E+00  5.51950E-02
  -1.80805E-01 -1.41902E+00  1.68888E+00  5.23297E-01  1.12262E+00 -1.44066E+00  5.19760E-02 -6.03614E-01 -2.38482E-01  2.67277E+00
  -3.71168E-01 -8.86028E-01  1.47202E+00 -2.23956E-01 -1.01341E+00 -1.18934E+00  5.93090E-01  9.55494E-01 -1.09313E+00  1.96991E+00
  -1.25237E+00 -1.54036E+00 -2.76480E-01  1.59391E+00 -1.37192E+00  2.22568E+00  2.79703E-02 -8.78943E-01 -8.75967E-03  1.15143E+00
   1.88666E+00  4.82060E-01 -3.41050E-01  3.14302E-01  1.24155E+00 -2.97106E-01  2.48062E+00  4.89224E-01 -2.31252E+00 -4.63991E-01
   4.30098E-01 -1.62979E+00  3.76275E-01 -1.90909E-01 -1.75093E+00  1.94204E+00  2.37245E+00  1.02288E+00  1.24142E+00  9.27982E-01
   3.33080E-01  9.01128E-01 -1.14410E+00 -1.84773E+00 -4.54475E-01 -3.23928E-01 -9.12825E-01  1.21279E+00 -1.89065E+00 -8.05233E-01
   2.10995E+00  2.49118E+00  2.25266E-01  1.59058E+00  7.90414E-02 -9.73362E-02  1.80343E+00  2.63524E+00  7.53829E-02  2.40511E+00
  -7.94248E-01  9.54655E-01  6.28555E-01  4.84764E-01  1.29853E+00  8.90183E-01  1.97999E+00  2.21327E-01  9.63402E-01  1.18124E-01
   1.34782E+00  9.57428E-01  1.29261E+00  1.57053E+00 -4.22084E-01  1.92812E+00  1.63877E+00 -9.44691E-02  1.07998E+00 -7.60614E-01
   4.50396E-01  1.08660E+00  1.29471E+00  2.84501E+00  2.20053E+00  1.25978E+00  3.49627E+00  5.63266E-01  1.50292E+00  2.35694E+00
   2.02495E+00  1.29804E+00  7.49165E-01 -1.17379E-02  2.06015E+00  1.49181E+00  9.80947E-01  8.37993E-01  4.36386E-01 -7.83791E-01
   9.20595E-01 -4.44274E-02  1.43370E-01  1.44705E+00  2.19585E+00  5.16603E+00  3.42726E-01  3.80714E+00  2.26962E+00  1.88226E+00
   3.13470E+00  2.68322E+00  2.08666E+00  1.16068E+00  4.27779E+00  2.80425E+00  5.07022E+00  2.35819E+00  8.80722E-01  3.77763E+00
   2.55691E+00  1.39151E+00  2.14250E+00  3.07882E+00  2.33256E+00  4.44529E+00  2.35156E+00  3.77208E+00  5.57545E+00  8.16735E-01
   6.19228E-01  2.92388E+00  2.51326E+00  1.44803E+00  1.41591E+00  1.31861E+00  2.67519E+00  4.18892E+00  3.48306E+00  2.69839E+00
   3.18812E+00  3.78501E+00  3.27650E+00  5.47201E+00  4.69257E+00  4.95440E+00  3.84610E+00  6.65355E+00  3.85814E+00  4.51395E+00
   6.42625E+00  1.41168E+00  4.03134E+00  4.53187E+00  5.13825E+00  4.81592E+00  5.04716E+00  3.04902E+00  2.30582E+00  2.30310E+00
   4.59052E+00  2.96668E+00  3.51697E+00  6.58392E+00  5.98640E+00  3.21368E+00  2.34906E+00  4.18773E+00  4.70342E+00  5.11716E+00
   3.23921E+00  4.79508E+00  4.51505E+00  5.79756E+00  6.32200E+00  5.13773E+00  7.87153E+00  8.73948E+00  8.43606E+00  7.74760E+00
   7.63336E+00  8.59160E+00  7.82560E+00  1.18565E+01  1.22841E+01  9.29649E+00  9.94014E+00  1.12530E+01  1.14106E+01  1.13906E+01
   1.42027E+01  1.26112E+01  1.52632E+01  1.45337E+01  1.40915E+01  1.50808E+01  1.20197E+01  1.23553E+01  1.28297E+01  1.40139E+01
   1.02857E+01  1.09360E+01  1.34030E+01  1.18381E+01  1.10287E+01  1.24033E+01  1.08669E+01  9.74080E+00  1.17656E+01  9.76223E+00
   9.14048E+00  1.01186E+01  1.18131E+01  8.39580E+00  1.06319E+01  7.31604E+00  1.24840E+01  9.16046E+00  9.58744E+00  7.99081E+00
   1.02569E+01  8.13943E+00  9.47536E+00  1.00754E+01  8.40697E+00  8.58455E+00  8.97319E+00  7.05042E+00  7.40009E+00  8.27997E+00
   7.45775E+00  8.89059E+00  8.02362E+00  6.03775E+00  6.80295E+00  7.54217E+00  6.20760E+00  8.26148E+00  6.59123E+00  4.52144E+00
   7.46165E+00  6.06685E+00  5.28777E+00  5.06953E+00  6.15698E+00  6.54434E+00  5.53100E+00  5.26530E+00  7.30626E+00  5.92697E+00
   7.18615E+00  4.94339E+00  5.94597E+00  6.84424E+00  2.97855E+00  3.94022E+00  3.70927E+00  6.88961E+00  5.51066E+00  4.31449E+00
   5.80578E+00  5.79988E+00  4.12317E+00  4.54187E+00  3.28847E+00  4.58742E+00  6.61069E+00  3.45508E+00  5.05918E+00  5.12123E+00
   5.99483E+00  3.50416E+00  3.69811E+00  4.25043E+00  4.75746E+00  5.16907E+00  2.50339E+00  5.11759E+00  2.87813E+00  4.58541E+00
   6.12333E+00  5.14410E+00  4.37699E+00  3.97046E+00  1.50374E+00  2.13569E+00  1.85398E+00  4.04202E+00  2.83440E+00  1.28133E+00
   3.79390E+00  4.31190E+00  3.70757E+00  4.35448E+00  3.75304E+00  2.71253E+00  4.06760E+00  2.81565E+00  3.54317E+00  2.06211E+00
   2.42899E+00  4.29202E+00  2.69229E+00  5.21200E+00  2.90559E+00  2.68562E-01  3.75811E+00  3.47449E+00  2.76771E+00  2.27287E+00
   2.12573E+00  4.18411E+00  2.85365E+00  1.18835E+00  9.12867E-01  4.16022E+00  1.23716E+00  4.81992E+00  4.01361E+00  2.06607E+00
   1.76284E+00  4.09714E+00  7.26126E-01  2.19005E+00  1.90455E+00  1.29047E+00  1.11219E+00  1.63535E+00  1.54306E+00  2.85010E-01
   2.42259E-01  1.59223E+00  1.68443E+00  6.98869E-01  5.49968E-01  1.84372E+00 -1.28376E-02  2.08167E+00  2.57850E+00  2.79631E+00
   3.58564E+00  1.75459E+00  1.46499E+00  1.79302E+00  1.97180E+00  3.15096E+00 -1.47385E+00  1.90860E+00
 NY points of the fit to the data follow
   1.28847E+00  1.68986E+00  1.39992E+00  1.71405E+00  1.52321E+00  1.78824E+00  1.64381E+00  1.79607E+00  1.68264E+00  1.70178E+00
   1.56088E+00  1.49585E+00  1.33581E+00  1.37441E+00  1.32090E+00  1.46380E+00  1.51520E+00  1.67446E+00  1.72307E+00  1.82035E+00
   1.74911E+00  1.82728E+00  1.70182E+00  1.78885E+00  1.66702E+00  1.76853E+00  1.68844E+00  1.78225E+00  1.75243E+00  1.83520E+00
   1.88726E+00  1.96417E+00  2.06862E+00  2.06946E+00  2.19714E+00  2.12455E+00  2.28042E+00  2.15346E+00  2.35460E+00  2.19705E+00
   2.42027E+00  2.23749E+00  2.46599E+00  2.26952E+00  2.49218E+00  2.30495E+00  2.51365E+00  2.33497E+00  2.45963E+00  2.23954E+00
   2.25606E+00  2.03930E+00  2.02339E+00  1.86913E+00  1.92362E+00  1.82612E+00  1.88534E+00  1.76551E+00  1.76244E+00  1.61237E+00
   1.56171E+00  1.43835E+00  1.39940E+00  1.30067E+00  1.27204E+00  1.19344E+00  1.17362E+00  1.11765E+00  1.11450E+00  1.08592E+00
   1.10025E+00  1.07774E+00  1.06031E+00  1.01393E+00  9.69479E-01  9.12334E-01  8.53331E-01  7.94545E-01  7.25066E-01  6.72973E-01
   5.88986E-01  5.41407E-01  4.52081E-01  4.14218E-01  3.27334E-01  3.52139E-01  2.91141E-01  3.47340E-01  3.14597E-01  3.86757E-01
   3.85385E-01  4.60577E-01  4.90979E-01  5.72176E-01  6.39678E-01  7.31523E-01  8.33736E-01  9.18250E-01  1.05195E+00  1.10877E+00
   1.26447E+00  1.26926E+00  1.43011E+00  1.37122E+00  1.52416E+00  1.40383E+00  1.54169E+00  1.37089E+00  1.50080E+00  1.33966E+00
   1.45772E+00  1.29071E+00  1.38913E+00  1.22289E+00  1.29985E+00  1.14434E+00  1.20494E+00  1.09229E+00  1.14530E+00  1.08426E+00
   1.12842E+00  1.10694E+00  1.14415E+00  1.16488E+00  1.20719E+00  1.27510E+00  1.32557E+00  1.35672E+00  1.39044E+00  1.38043E+00
   1.39457E+00  1.34601E+00  1.34211E+00  1.26434E+00  1.24426E+00  1.13877E+00  1.10398E+00  9.78478E-01  9.33179E-01  7.99844E-01
   7.51494E-01  6.28876E-01  5.83603E-01  4.77492E-01  4.38507E-01  3.53164E-01  3.25439E-01  2.75802E-01  2.69329E-01  2.78867E-01
   2.87114E-01  2.99534E-01  3.06971E-01  3.18414E-01  3.23276E-01  3.32592E-01  3.34363E-01  3.41402E-01  3.40217E-01  3.44890E-01
   3.40618E-01  3.43164E-01  3.36139E-01  3.36506E-01  3.27475E-01  3.26229E-01  3.17047E-01  3.15133E-01  3.06147E-01  3.04365E-01
   2.96055E-01  2.94148E-01  2.87281E-01  2.85506E-01  2.80730E-01  2.74418E-01  2.59290E-01  2.50058E-01  2.03902E-01  1.94636E-01
   1.20722E-01  1.20224E-01  3.21145E-02  7.70522E-02  3.19191E-03  1.01053E-01  3.26104E-02  2.03499E-01  1.18288E-01  3.19723E-01
   1.85779E-01  3.52374E-01  7.80220E-02  2.82433E-01 -7.08632E-02  2.30422E-01 -1.31850E-01  3.30977E-01  7.31048E-02  5.86974E-01
   3.67712E-01  8.36143E-01  5.89825E-01  9.30165E-01  5.79722E-01  7.99592E-01  4.80455E-01  6.66442E-01  4.71634E-01  6.42252E-01
   5.98229E-01  7.13525E-01  7.74884E-01  7.59820E-01  8.66222E-01  7.19524E-01  8.44007E-01  6.09414E-01  7.30896E-01  5.16802E-01
   6.86130E-01  5.73193E-01  7.93345E-01  8.17466E-01  1.00047E+00  1.08725E+00  1.19203E+00  1.32980E+00  1.32122E+00  1.46989E+00
   1.36798E+00  1.52356E+00  1.28983E+00  1.53506E+00  1.30256E+00  1.61578E+00  1.44246E+00  1.77464E+00  1.70968E+00  1.91498E+00
   1.84426E+00  1.89039E+00  1.80630E+00  1.71564E+00  1.62162E+00  1.48275E+00  1.51274E+00  1.40779E+00  1.51755E+00  1.45021E+00
   1.60086E+00  1.56830E+00  1.72415E+00  1.72105E+00  1.85751E+00  1.90094E+00  2.00671E+00  2.08256E+00  2.13496E+00  2.28222E+00
   2.31133E+00  2.51377E+00  2.49837E+00  2.71465E+00  2.63228E+00  2.79083E+00  2.69550E+00  2.82181E+00  2.72080E+00  2.81589E+00
   2.73140E+00  2.79036E+00  2.71030E+00  2.74930E+00  2.69237E+00  2.73308E+00  2.69951E+00  2.73441E+00  2.70671E+00  2.72717E+00
   2.69582E+00  2.71407E+00  2.71065E+00  2.74382E+00  2.76449E+00  2.80517E+00  2.84981E+00  2.88733E+00  2.94213E+00  2.98801E+00
   3.04821E+00  3.09758E+00  3.15869E+00  3.20996E+00  3.26934E+00  3.32711E+00  3.38976E+00  3.44889E+00  3.50784E+00  3.56330E+00
   3.61502E+00  3.66437E+00  3.70798E+00  3.75242E+00  3.79547E+00  3.84363E+00  3.89750E+00  3.96684E+00  4.06440E+00  4.20597E+00
   4.28974E+00  4.44310E+00  4.49503E+00  4.63935E+00  4.65329E+00  4.77247E+00  4.74694E+00  4.92567E+00  4.94172E+00  5.17964E+00
   5.24002E+00  5.50874E+00  5.60766E+00  5.87903E+00  6.01280E+00  6.29266E+00  6.51083E+00  6.86738E+00  7.33113E+00  8.02867E+00
   8.56569E+00  9.18133E+00  9.70386E+00  1.00558E+01  1.04980E+01  1.04413E+01  1.07875E+01  1.08374E+01  1.13247E+01  1.14875E+01
   1.20601E+01  1.21851E+01  1.27373E+01  1.26206E+01  1.30343E+01  1.26325E+01  1.29268E+01  1.23807E+01  1.26413E+01  1.20978E+01
   1.23383E+01  1.18001E+01  1.20838E+01  1.15683E+01  1.18528E+01  1.12943E+01  1.15715E+01  1.10454E+01  1.13834E+01  1.08915E+01
   1.12576E+01  1.08925E+01  1.12490E+01  1.09139E+01  1.12033E+01  1.08524E+01  1.10679E+01  1.07591E+01  1.08919E+01  1.07193E+01
   1.05759E+01  1.00597E+01  9.71610E+00  8.99811E+00  8.52005E+00  7.77944E+00  7.28541E+00  6.93858E+00  6.66973E+00  6.45344E+00
   6.27609E+00  6.13068E+00  6.01166E+00  5.91618E+00  5.84098E+00  5.78455E+00  5.74441E+00  5.71950E+00  5.70764E+00  5.70793E+00
   5.71817E+00  5.73735E+00  5.76314E+00  5.79440E+00  5.82871E+00  5.86482E+00  5.90022E+00  5.93363E+00  5.96259E+00  5.98595E+00
   6.00150E+00  6.00841E+00  6.00483E+00  5.99039E+00  5.96376E+00  5.92519E+00  5.87395E+00  5.81089E+00  5.73585E+00  5.65021E+00
   5.55431E+00  5.44994E+00  5.33778E+00  5.21982E+00  5.09686E+00  4.97092E+00  4.84278E+00  4.71435E+00  4.58621E+00  4.46004E+00
   4.33614E+00  4.21591E+00  4.09937E+00  3.98766E+00  3.88051E+00  3.77878E+00  3.68199E+00  3.59081E+00  3.50460E+00  3.42388E+00
   3.34788E+00  3.27703E+00  3.21051E+00  3.14871E+00  3.09077E+00  3.03706E+00  2.98673E+00  2.94014E+00  2.89645E+00  2.85606E+00
   2.81815E+00  2.78313E+00  2.75019E+00  2.71979E+00  2.69114E+00  2.66472E+00  2.63976E+00  2.61678E+00  2.59500E+00  2.57496E+00
   2.55593E+00  2.53846E+00  2.52183E+00  2.50658E+00  2.49202E+00  2.47870E+00  2.46595E+00  2.45435E+00  2.44319E+00  2.43308E+00
   2.42332E+00  2.41452E+00  2.40601E+00  2.39838E+00  2.39098E+00  2.38438E+00  2.37796E+00  2.37229E+00  2.36675E+00  2.36193E+00
   2.35718E+00  2.35310E+00  2.34906E+00  2.34566E+00  2.34227E+00  2.33949E+00  2.33669E+00  2.33446E+00  2.33219E+00  2.33049E+00
   2.32871E+00  2.32748E+00  2.32615E+00  2.32535E+00  2.32445E+00  2.32406E+00  2.32355E+00  2.32354E+00  2.32340E+00  2.32375E+00
   2.32398E+00  2.32469E+00  2.32527E+00  2.32633E+00  2.32727E+00  2.32872E+00  2.33006E+00  2.33195E+00
 NY background values follow
    -7.000E-01   -6.944E-01   -6.889E-01   -6.834E-01   -6.778E-01   -6.723E-01   -6.667E-01   -6.612E-01   -6.557E-01   -6.501E-01
    -6.446E-01   -6.390E-01   -6.335E-01   -6.280E-01   -6.224E-01   -6.169E-01   -6.113E-01   -6.058E-01   -6.003E-01   -5.947E-01
    -5.892E-01   -5.836E-01   -5.781E-01   -5.726E-01   -5.670E-01   -5.615E-01   -5.559E-01   -5.504E-01   -5.449E-01   -5.393E-01
    -5.338E-01   -5.282E-01   -5.227E-01   -5.172E-01   -5.116E-01   -5.061E-01   -5.005E-01   -4.950E-01   -4.895E-01   -4.839E-01
    -4.784E-01   -4.728E-01   -4.673E-01   -4.618E-01   -4.562E-01   -4.507E-01   -4.451E-01   -4.396E-01   -4.340E-01   -4.285E-01
    -4.230E-01   -4.174E-01   -4.119E-01   -4.063E-01   -4.008E-01   -3.953E-01   -3.897E-01   -3.842E-01   -3.786E-01   -3.731E-01
    -3.676E-01   -3.620E-01   -3.565E-01   -3.509E-01   -3.454E-01   -3.399E-01   -3.343E-01   -3.288E-01   -3.232E-01   -3.177E-01
    -3.122E-01   -3.066E-01   -3.011E-01   -2.955E-01   -2.900E-01   -2.845E-01   -2.789E-01   -2.734E-01   -2.678E-01   -2.623E-01
    -2.568E-01   -2.512E-01   -2.457E-01   -2.401E-01   -2.346E-01   -2.291E-01   -2.235E-01   -2.180E-01   -2.124E-01   -2.069E-01
    -2.014E-01   -1.958E-01   -1.903E-01   -1.847E-01   -1.792E-01   -1.737E-01   -1.681E-01   -1.626E-01   -1.570E-01   -1.515E-01
    -1.460E-01   -1.404E-01   -1.349E-01   -1.293E-01   -1.238E-01   -1.183E-01   -1.127E-01   -1.072E-01   -1.016E-01   -9.609E-02
    -9.055E-02   -8.501E-02   -7.947E-02   -7.393E-02   -6.839E-02   -6.285E-02   -5.731E-02   -5.177E-02   -4.623E-02   -4.069E-02
    -3.515E-02   -2.961E-02   -2.407E-02   -1.853E-02   -1.299E-02   -7.446E-03   -1.905E-03    3.635E-03    9.176E-03    1.472E-02
     2.026E-02    2.580E-02    3.134E-02    3.688E-02    4.242E-02    4.796E-02    5.350E-02    5.904E-02    6.458E-02    7.012E-02
     7.566E-02    8.120E-02    8.674E-02    9.228E-02    9.782E-02    1.034E-01    1.089E-01    1.144E-01    1.200E-01    1.255E-01
     1.311E-01    1.366E-01    1.421E-01    1.477E-01    1.532E-01    1.588E-01    1.643E-01    1.699E-01    1.754E-01    1.809E-01
     1.865E-01    1.920E-01    1.976E-01    2.031E-01    2.086E-01    2.142E-01    2.197E-01    2.253E-01    2.308E-01    2.363E-01
     2.419E-01    2.474E-01    2.530E-01    2.585E-01    2.640E-01    2.696E-01    2.751E-01    2.807E-01    2.862E-01    2.917E-01
     2.973E-01    3.028E-01    3.084E-01    3.139E-01    3.194E-01    3.250E-01    3.305E-01    3.361E-01    3.416E-01    3.472E-01
     3.527E-01    3.582E-01    3.638E-01    3.693E-01    3.749E-01    3.804E-01    3.859E-01    3.915E-01    3.970E-01    4.026E-01
     4.081E-01    4.136E-01    4.192E-01    4.247E-01    4.303E-01    4.358E-01    4.413E-01    4.469E-01    4.524E-01    4.580E-01
     4.635E-01    4.691E-01    4.746E-01    4.801E-01    4.857E-01    4.912E-01    4.968E-01    5.023E-01    5.078E-01    5.134E-01
     5.189E-01    5.245E-01    5.300E-01    5.355E-01    5.411E-01    5.466E-01    5.522E-01    5.577E-01    5.632E-01    5.688E-01
     5.743E-01    5.799E-01    5.854E-01    5.909E-01    5.965E-01    6.020E-01    6.076E-01    6.131E-01    6.187E-01    6.242E-01
     6.297E-01    6.353E-01    6.408E-01    6.464E-01    6.519E-01    6.574E-01    6.630E-01    6.685E-01    6.741E-01    6.796E-01
     6.851E-01    6.907E-01    6.962E-01    7.018E-01    7.073E-01    7.128E-01    7.184E-01    7.239E-01    7.295E-01    7.350E-01
     7.406E-01    7.461E-01    7.516E-01    7.572E-01    7.627E-01    7.683E-01    7.738E-01    7.793E-01    7.849E-01    7.904E-01
     7.960E-01    8.015E-01    8.070E-01    8.126E-01    8.181E-01    8.237E-01    8.292E-01    8.347E-01    8.403E-01    8.458E-01
     8.514E-01    8.569E-01    8.624E-01    8.680E-01    8.735E-01    8.791E-01    8.846E-01    8.902E-01    8.957E-01    9.012E-01
     9.068E-01    9.123E-01    9.179E-01    9.234E-01    9.289E-01    9.345E-01    9.400E-01    9.456E-01    9.511E-01    9.566E-01
     9.622E-01    9.677E-01    9.733E-01    9.788E-01    9.843E-01    9.899E-01    9.954E-01    1.001E+00    1.007E+00    1.012E+00
     1.018E+00    1.023E+00    1.029E+00    1.034E+00    1.040E+00    1.045E+00    1.051E+00    1.056E+00    1.062E+00    1.067E+00
     1.073E+00    1.079E+00    1.084E+00    1.090E+00    1.095E+00    1.101E+00    1.106E+00    1.112E+00    1.117E+00    1.123E+00
     1.128E+00    1.134E+00    1.139E+00    1.145E+00    1.151E+00    1.156E+00    1.162E+00    1.167E+00    1.173E+00    1.178E+00
     1.184E+00    1.189E+00    1.195E+00    1.200E+00    1.206E+00    1.211E+00    1.217E+00    1.223E+00    1.228E+00    1.234E+00
     1.239E+00    1.245E+00    1.250E+00    1.256E+00    1.261E+00    1.267E+00    1.272E+00    1.278E+00    1.284E+00    1.289E+00
     1.295E+00    1.300E+00    1.306E+00    1.311E+00    1.317E+00    1.322E+00    1.328E+00    1.333E+00    1.339E+00    1.344E+00
     1.350E+00    1.356E+00    1.361E+00    1.367E+00    1.372E+00    1.378E+00    1.383E+00    1.389E+00    1.394E+00    1.400E+00
     1.405E+00    1.411E+00    1.416E+00    1.422E+00    1.428E+00    1.433E+00    1.439E+00    1.444E+00    1.450E+00    1.455E+00
     1.461E+00    1.466E+00    1.472E+00    1.477E+00    1.483E+00    1.488E+00    1.494E+00    1.500E+00    1.505E+00    1.511E+00
     1.516E+00    1.522E+00    1.527E+00    1.533E+00    1.538E+00    1.544E+00    1.549E+00    1.555E+00    1.560E+00    1.566E+00
     1.572E+00    1.577E+00    1.583E+00    1.588E+00    1.594E+00    1.599E+00    1.605E+00    1.610E+00    1.616E+00    1.621E+00
     1.627E+00    1.633E+00    1.638E+00    1.644E+00    1.649E+00    1.655E+00    1.660E+00    1.666E+00    1.671E+00    1.677E+00
     1.682E+00    1.688E+00    1.693E+00    1.699E+00    1.705E+00    1.710E+00    1.716E+00    1.721E+00    1.727E+00    1.732E+00
     1.738E+00    1.743E+00    1.749E+00    1.754E+00    1.760E+00    1.765E+00    1.771E+00    1.777E+00    1.782E+00    1.788E+00
     1.793E+00    1.799E+00    1.804E+00    1.810E+00    1.815E+00    1.821E+00    1.826E+00    1.832E+00    1.837E+00    1.843E+00
     1.849E+00    1.854E+00    1.860E+00    1.865E+00    1.871E+00    1.876E+00    1.882E+00    1.887E+00    1.893E+00    1.898E+00
     1.904E+00    1.909E+00    1.915E+00    1.921E+00    1.926E+00    1.932E+00    1.937E+00    1.943E+00    1.948E+00    1.954E+00
     1.959E+00    1.965E+00    1.970E+00    1.976E+00    1.981E+00    1.987E+00    1.993E+00    1.998E+00    2.004E+00    2.009E+00
     2.015E+00    2.020E+00    2.026E+00    2.031E+00    2.037E+00    2.042E+00    2.048E+00    2.053E+00
 Ala      Conc. = 4.34E+02
