 LCModel (Version 6.3-1L) Copyright: S.W. Provencher.          Ref.: Magn. Reson. Med. 30:672-679 (1993).                
 Slice#2 Row#8 Col#9  K_02_press_1_raw_act
 36 lines in following concentration table = NCONC+1
    Conc.  %SD /Cr+PCr  Metabolite                                         
    0.000 999%   0.000 Ala                                                 
    0.000 999%   0.000 Asp                                                 
  769.976  29%   0.391 Cr                                                  
 1.20E+03  20%   0.609 PCr                                                 
    0.000 999%   0.000 GABA                                                
    0.000 999%   0.000 Glc                                                 
  334.044  69%   0.169 Gln                                                 
 2.07E+03  13%   1.051 Glu                                                 
  809.815   4%   0.411 GPC                                                 
    0.000 999%   0.000 PCh                                                 
  519.576  16%   0.264 GSH                                                 
 1.80E+03  17%   0.912 Ins                                                 
    0.000 999%   0.000 Lac                                                 
 2.93E+03   5%   1.486 NAA                                                 
  907.371  13%   0.460 NAAG                                                
  129.508  27% 6.6E-02 Scyllo                                              
    0.000 999%   0.000 Tau                                                 
  180.656  80% 9.2E-02 -CrCH2                                              
  809.815   4%   0.411 GPC+PCh                                             
 3.84E+03   3%   1.946 NAA+NAAG                                            
 1.97E+03   4%   1.000 Cr+PCr                                              
 2.41E+03  15%   1.220 Glu+Gln                                             
    0.000 999%   0.000 Lip13a                                              
  257.047  60%   0.130 Lip13b                                              
    0.000 999%   0.000 Lip09                                               
 2.59E+03  14%   1.312 MM09                                                
   69.843 259% 3.5E-02 Lip20                                               
 4.69E+03  13%   2.379 MM20                                                
 1.16E+03  22%   0.587 MM12                                                
    0.000 999%   0.000 MM14                                                
 2.11E+03  21%   1.071 MM17                                                
  257.047  60%   0.130 Lip13a+Lip13b                                       
 1.41E+03  19%   0.717 MM14+Lip13a+Lip13b+MM12                             
 2.59E+03  14%   1.312 MM09+Lip09                                          
 4.76E+03  13%   2.414 MM20+Lip20                                          
   6 lines in following misc. output table
  FWHM = 0.038 ppm    S/N =  16                                            
  Data shift = 0.008 ppm                                                   
  Ph: -51 deg     -11.0 deg/ppm                                            
  alphaB,S = 8.7E-01,   6.4E+01                                            
   14 spline knots.   Ns = 6(1)                                            
  ( 5) 3 infls.   ( 3) 1 extrs.                                            
  498 points on ppm-axis = NY
      4.000000     3.992357     3.984714     3.977070     3.969427     3.961784     3.954141     3.946497     3.938854     3.931211
      3.923568     3.915925     3.908281     3.900638     3.892995     3.885352     3.877708     3.870065     3.862422     3.854779
      3.847136     3.839492     3.831849     3.824206     3.816563     3.808919     3.801276     3.793633     3.785990     3.778347
      3.770703     3.763060     3.755417     3.747774     3.740130     3.732487     3.724844     3.717201     3.709558     3.701914
      3.694271     3.686628     3.678985     3.671341     3.663698     3.656055     3.648412     3.640769     3.633125     3.625482
      3.617839     3.610196     3.602552     3.594909     3.587266     3.579623     3.571980     3.564336     3.556693     3.549050
      3.541407     3.533763     3.526120     3.518477     3.510834     3.503191     3.495547     3.487904     3.480261     3.472618
      3.464974     3.457331     3.449688     3.442045     3.434402     3.426758     3.419115     3.411472     3.403829     3.396185
      3.388542     3.380899     3.373256     3.365613     3.357969     3.350326     3.342683     3.335040     3.327396     3.319753
      3.312110     3.304467     3.296824     3.289180     3.281537     3.273894     3.266251     3.258607     3.250964     3.243321
      3.235678     3.228034     3.220391     3.212748     3.205105     3.197462     3.189818     3.182175     3.174532     3.166889
      3.159245     3.151602     3.143959     3.136316     3.128673     3.121029     3.113386     3.105743     3.098100     3.090456
      3.082813     3.075170     3.067527     3.059884     3.052240     3.044597     3.036954     3.029311     3.021667     3.014024
      3.006381     2.998738     2.991095     2.983451     2.975808     2.968165     2.960522     2.952878     2.945235     2.937592
      2.929949     2.922306     2.914662     2.907019     2.899376     2.891733     2.884089     2.876446     2.868803     2.861160
      2.853517     2.845873     2.838230     2.830587     2.822944     2.815300     2.807657     2.800014     2.792371     2.784728
      2.777084     2.769441     2.761798     2.754155     2.746511     2.738868     2.731225     2.723582     2.715939     2.708295
      2.700652     2.693009     2.685366     2.677722     2.670079     2.662436     2.654793     2.647150     2.639506     2.631863
      2.624220     2.616577     2.608933     2.601290     2.593647     2.586004     2.578361     2.570717     2.563074     2.555431
      2.547788     2.540144     2.532501     2.524858     2.517215     2.509572     2.501928     2.494285     2.486642     2.478999
      2.471355     2.463712     2.456069     2.448426     2.440783     2.433139     2.425496     2.417853     2.410210     2.402566
      2.394923     2.387280     2.379637     2.371994     2.364350     2.356707     2.349064     2.341421     2.333777     2.326134
      2.318491     2.310848     2.303205     2.295561     2.287918     2.280275     2.272632     2.264988     2.257345     2.249702
      2.242059     2.234416     2.226772     2.219129     2.211486     2.203843     2.196199     2.188556     2.180913     2.173270
      2.165627     2.157983     2.150340     2.142697     2.135054     2.127410     2.119767     2.112124     2.104481     2.096838
      2.089194     2.081551     2.073908     2.066265     2.058621     2.050978     2.043335     2.035692     2.028049     2.020405
      2.012762     2.005119     1.997476     1.989833     1.982190     1.974546     1.966903     1.959260     1.951617     1.943974
      1.936331     1.928688     1.921045     1.913402     1.905759     1.898115     1.890472     1.882829     1.875186     1.867543
      1.859900     1.852257     1.844614     1.836971     1.829327     1.821684     1.814041     1.806398     1.798755     1.791112
      1.783469     1.775826     1.768183     1.760540     1.752896     1.745253     1.737610     1.729967     1.722324     1.714681
      1.707038     1.699395     1.691752     1.684108     1.676465     1.668822     1.661179     1.653536     1.645893     1.638250
      1.630607     1.622964     1.615321     1.607677     1.600034     1.592391     1.584748     1.577105     1.569462     1.561819
      1.554176     1.546533     1.538890     1.531246     1.523603     1.515960     1.508317     1.500674     1.493031     1.485388
      1.477745     1.470102     1.462458     1.454815     1.447172     1.439529     1.431886     1.424243     1.416600     1.408957
      1.401314     1.393671     1.386027     1.378384     1.370741     1.363098     1.355455     1.347812     1.340169     1.332526
      1.324883     1.317240     1.309596     1.301953     1.294310     1.286667     1.279024     1.271381     1.263738     1.256095
      1.248452     1.240808     1.233165     1.225522     1.217879     1.210236     1.202593     1.194950     1.187307     1.179664
      1.172021     1.164377     1.156734     1.149091     1.141448     1.133805     1.126162     1.118519     1.110876     1.103233
      1.095590     1.087946     1.080303     1.072660     1.065017     1.057374     1.049731     1.042088     1.034445     1.026802
      1.019158     1.011515     1.003872     0.996229     0.988586     0.980943     0.973300     0.965657     0.958014     0.950371
      0.942727     0.935084     0.927441     0.919798     0.912155     0.904512     0.896869     0.889226     0.881583     0.873940
      0.866296     0.858653     0.851010     0.843367     0.835724     0.828081     0.820438     0.812795     0.805152     0.797508
      0.789865     0.782222     0.774579     0.766936     0.759293     0.751650     0.744007     0.736364     0.728721     0.721077
      0.713434     0.705791     0.698148     0.690505     0.682862     0.675219     0.667576     0.659933     0.652290     0.644646
      0.637003     0.629360     0.621717     0.614074     0.606431     0.598788     0.591145     0.583502     0.575858     0.568215
      0.560572     0.552929     0.545286     0.537643     0.530000     0.522357     0.514714     0.507071     0.499427     0.491784
      0.484141     0.476498     0.468855     0.461212     0.453569     0.445925     0.438282     0.430639     0.422996     0.415353
      0.407710     0.400067     0.392424     0.384780     0.377137     0.369494     0.361851     0.354208     0.346565     0.338922
      0.331278     0.323635     0.315992     0.308349     0.300706     0.293063     0.285420     0.277777     0.270133     0.262490
      0.254847     0.247204     0.239561     0.231918     0.224275     0.216631     0.208988     0.201345
 NY phased data points follow
  -8.96969E+01 -9.20756E+01 -9.24120E+01 -8.61420E+01 -8.38438E+01 -7.29392E+01 -6.35894E+01 -6.15415E+01 -4.67779E+01 -3.55255E+01
  -2.77929E+01 -2.64593E+01 -3.55318E+01 -4.53197E+01 -5.80722E+01 -6.35872E+01 -7.35310E+01 -6.64363E+01 -6.98876E+01 -6.49231E+01
  -6.84138E+01 -7.25184E+01 -6.95037E+01 -6.50305E+01 -6.78207E+01 -5.64323E+01 -6.37339E+01 -6.20617E+01 -6.04297E+01 -4.95497E+01
  -5.31411E+01 -5.05336E+01 -4.93602E+01 -5.13687E+01 -5.18193E+01 -5.12817E+01 -5.80612E+01 -5.35915E+01 -5.04985E+01 -4.99531E+01
  -4.93364E+01 -4.69758E+01 -4.83714E+01 -4.59387E+01 -4.64889E+01 -3.29130E+01 -3.10837E+01 -2.96248E+01 -3.22728E+01 -3.52327E+01
  -3.44698E+01 -3.93072E+01 -4.33642E+01 -4.04014E+01 -3.96951E+01 -4.11247E+01 -3.92388E+01 -3.38623E+01 -4.00198E+01 -4.07681E+01
  -4.27844E+01 -4.78537E+01 -4.88428E+01 -4.96600E+01 -4.52896E+01 -4.80481E+01 -4.88421E+01 -4.67914E+01 -4.83776E+01 -4.84591E+01
  -3.73498E+01 -4.62771E+01 -3.59135E+01 -3.81902E+01 -4.01179E+01 -3.84784E+01 -3.59859E+01 -3.98105E+01 -3.31294E+01 -3.72808E+01
  -3.87699E+01 -3.42407E+01 -3.28997E+01 -2.97605E+01 -3.54675E+01 -3.60005E+01 -3.34610E+01 -2.76288E+01 -3.25001E+01 -2.47916E+01
  -2.24646E+01 -2.21457E+01 -2.44608E+01 -2.51305E+01 -2.05945E+01 -1.91001E+01 -1.66590E+01 -1.92738E+01 -1.43660E+01 -5.10608E+00
   1.38781E+01  3.55561E+01  5.79069E+01  6.67252E+01  5.35656E+01  3.36732E+01  1.67863E+01  2.21282E+00 -4.57184E+00 -1.06449E+01
  -1.84572E+01 -1.91911E+01 -2.23200E+01 -1.74577E+01 -2.31050E+01 -1.95116E+01 -1.61931E+01 -1.89454E+01 -2.42275E+01 -1.22624E+01
  -9.66738E+00 -1.22546E+01 -1.00571E+01 -5.20065E+00  6.76566E+00  3.36029E+01  5.62502E+01  6.37825E+01  5.78580E+01  4.07543E+01
   2.81861E+01  1.36212E+01  2.76069E+00 -1.42950E-01 -9.19264E+00 -9.04651E+00 -1.71055E+01 -1.53261E+01 -1.67126E+01 -1.92101E+01
  -1.35902E+01 -1.49225E+01 -1.63039E+01 -1.51638E+01 -1.71750E+01 -1.29488E+01 -1.61378E+01 -1.04584E+01 -1.60029E+01 -1.31538E+01
  -1.11981E+01 -1.59605E+01 -1.59415E+01 -1.86199E+01 -1.83571E+01 -1.62681E+01 -1.52797E+01 -1.25698E+01 -1.01922E+01 -8.84454E+00
  -9.95312E+00 -2.02363E+01 -2.31689E+01 -1.84562E+01 -1.42006E+01 -5.98072E+00 -5.01628E+00 -1.05781E+01 -1.40262E+01 -2.08279E+01
  -2.42872E+01 -2.65839E+01 -2.41429E+01 -2.94008E+01 -3.30995E+01 -3.51795E+01 -3.35798E+01 -2.85635E+01 -2.65076E+01 -2.10365E+01
  -2.23501E+01 -2.34894E+01 -2.71582E+01 -2.92685E+01 -1.81012E+01 -2.24853E+01 -2.33761E+01 -1.73504E+01 -8.39880E+00 -6.34541E+00
  -2.32009E+00  4.72452E+00 -2.62905E+00 -1.15640E+00 -2.57604E+00 -8.99960E-01 -5.82229E+00 -6.98980E+00 -7.13124E+00 -1.18688E+01
  -1.62729E+01 -4.24036E+00 -5.42828E+00  2.45130E-01  3.23735E+00  2.85923E+00 -1.55939E+00 -9.76936E+00 -1.19577E+01 -4.31622E+00
  -9.38894E+00 -7.46010E+00 -6.14055E+00  4.54085E+00  4.28068E+00  1.56060E+01  1.53690E+01  9.05702E+00  7.28634E+00  4.33038E+00
  -2.63940E+00 -1.20597E+01 -1.03588E+01 -1.08908E+01 -1.84457E+00  2.48491E+00  5.36228E+00  1.41401E+01  1.10054E+01  1.80409E+01
   1.36548E+01  1.18992E+01  1.22740E+01  1.00743E+01  1.31083E+01  6.56315E+00  1.39488E+01  1.20358E+01  1.04127E+01  8.69688E+00
   4.14554E+00  2.46121E+00 -8.59245E-01  1.38946E+00  8.00422E+00  1.38949E+01  1.39941E+01  1.80465E+01  1.40461E+01  2.89617E+01
   2.62192E+01  2.54162E+01  2.92840E+01  4.38381E+01  6.23375E+01  7.37250E+01  6.87289E+01  7.17062E+01  9.59066E+01  1.36619E+02
   1.55573E+02  1.40189E+02  1.11023E+02  8.27852E+01  6.03683E+01  3.88310E+01  2.24870E+01  1.37002E+01  1.45721E+01  8.91653E+00
   1.57781E+01  1.28755E+01  1.56817E+01  8.89693E+00  1.01348E+01  1.48481E+01  1.21897E+01  9.07208E+00  1.08012E+01  4.62732E+00
   8.32409E+00  5.86737E+00  7.77334E+00  4.81431E+00  6.45664E-01  3.34810E+00  5.05596E+00  7.33251E+00  1.28150E+01  9.64272E+00
   9.35722E+00  1.06935E+01  1.02985E+01  9.58544E+00  1.25435E+01  1.29413E+01  1.11283E+01  8.00179E+00  6.98603E+00  1.34455E+01
   1.36854E+01  1.16966E+01  1.55153E+01  1.33595E+01  1.06818E+01  1.25184E+01  1.33083E+01  1.26036E+01  1.39127E+01  8.06973E+00
   1.66457E+01  1.04110E+01  1.26056E+01  7.43242E+00  8.93142E+00  6.98351E+00  2.07762E+00  1.07456E+01  6.53246E+00  5.80839E+00
   6.83544E+00  6.98373E+00  6.24557E+00  4.51476E+00  3.86081E+00  6.36050E+00  7.52152E+00  6.77296E+00  5.05069E+00  7.53286E-01
   4.52432E+00  5.03404E+00  1.10520E-01  3.73541E+00  1.15390E-01  8.65772E+00 -7.99363E-01 -1.11062E+00 -6.02969E-01 -1.90603E+00
  -4.09275E+00 -5.48726E+00 -8.40415E+00 -4.92221E+00 -3.18421E+00  1.40897E+00 -4.88614E+00 -2.92113E+00  2.92641E+00  1.74836E+00
  -4.24640E+00  4.13637E+00  1.12708E+01  1.10833E+01  7.77928E+00  1.64011E+01  1.00772E+01  9.99174E+00  9.40843E+00  1.13945E+01
   1.62570E+01  1.19967E+01  1.36299E+01  1.84797E+01  1.88683E+01  1.45868E+01  9.98354E+00  1.15482E+01  1.84749E+01  9.35563E+00
   1.49719E+01  1.16566E+01  1.82533E+01  1.61764E+01  1.13891E+01  2.08138E+01  1.34603E+01  1.23133E+01  1.26810E+01  1.58053E+01
   1.51357E+01  1.71689E+01  1.11766E+01  1.43529E+01  7.69408E+00  1.25493E+01  9.79996E+00  1.34100E+01  1.88484E+01  1.85084E+01
   1.66797E+01  1.74930E+01  2.41841E+01  1.91384E+01  2.05004E+01  2.41102E+01  2.37980E+01  1.98306E+01  2.31022E+01  2.37766E+01
   2.14685E+01  2.35193E+01  2.44756E+01  1.87679E+01  1.95300E+01  2.27879E+01  2.30495E+01  2.39939E+01  2.93157E+01  2.72577E+01
   2.03260E+01  2.49056E+01  2.04033E+01  2.46884E+01  1.84111E+01  1.92299E+01  2.49870E+01  2.15353E+01  1.72095E+01  1.96923E+01
   1.78553E+01  1.84221E+01  1.96530E+01  1.65336E+01  1.85688E+01  1.79825E+01  1.36447E+01  9.95084E+00  1.62420E+01  1.14938E+01
   1.36197E+01  1.27969E+01  1.23086E+01  1.71025E+01  1.25016E+01  1.64625E+01  1.61311E+01  1.79315E+01  2.21375E+01  1.77182E+01
   1.03228E+01  1.35080E+01  1.55599E+01  1.45072E+01  2.12397E+01  2.19345E+01  1.64391E+01  1.27480E+01  1.37107E+01  1.21411E+01
   1.29165E+01  1.74375E+01  1.72006E+01  1.92784E+01  2.23979E+01  1.62304E+01  1.80415E+01  1.06667E+01  1.97250E+01  1.71848E+01
   1.12304E+01  1.43906E+01  8.89932E+00  1.32068E+01  1.42788E+01  1.61759E+01  1.26994E+01  1.52333E+01  1.74008E+01  1.59058E+01
   1.82723E+01  1.39144E+01  1.96449E+01  1.51232E+01  1.62240E+01  1.19971E+01  1.94010E+01  1.81736E+01  1.81977E+01  1.54745E+01
   2.09451E+01  1.50899E+01  1.20249E+01  1.39388E+01  1.81470E+01  7.29597E+00  1.46761E+01  1.49692E+01  1.53509E+01  1.72506E+01
   1.76251E+01  1.86840E+01  1.09889E+01  1.45914E+01  1.69025E+01  1.48658E+01  1.79975E+01  1.71326E+01
 NY points of the fit to the data follow
  -8.55854E+01 -8.50786E+01 -8.40237E+01 -8.17411E+01 -7.79988E+01 -7.38405E+01 -6.84477E+01 -5.94808E+01 -4.66391E+01 -3.42593E+01
  -2.80876E+01 -3.01357E+01 -3.77100E+01 -4.65659E+01 -5.40649E+01 -5.95988E+01 -6.34704E+01 -6.59688E+01 -6.72991E+01 -6.77192E+01
  -6.75950E+01 -6.73669E+01 -6.74172E+01 -6.71582E+01 -6.59435E+01 -6.50928E+01 -6.46401E+01 -6.26886E+01 -5.82913E+01 -5.28574E+01
  -4.87214E+01 -4.64997E+01 -4.58624E+01 -4.66422E+01 -4.85612E+01 -5.13110E+01 -5.42084E+01 -5.64479E+01 -5.76292E+01 -5.75384E+01
  -5.58679E+01 -5.31708E+01 -5.07142E+01 -4.83584E+01 -4.46047E+01 -3.93745E+01 -3.49604E+01 -3.37619E+01 -3.58447E+01 -3.94480E+01
  -4.29647E+01 -4.57795E+01 -4.76182E+01 -4.82735E+01 -4.80310E+01 -4.71600E+01 -4.57830E+01 -4.38867E+01 -4.17266E+01 -4.00523E+01
  -3.94992E+01 -4.00996E+01 -4.14142E+01 -4.27402E+01 -4.35393E+01 -4.34458E+01 -4.26072E+01 -4.14227E+01 -4.00691E+01 -3.85712E+01
  -3.71217E+01 -3.61010E+01 -3.57037E+01 -3.57601E+01 -3.59367E+01 -3.60174E+01 -3.59642E+01 -3.57869E+01 -3.55175E+01 -3.51730E+01
  -3.48152E+01 -3.41735E+01 -3.34890E+01 -3.31042E+01 -3.23519E+01 -3.07934E+01 -2.90227E+01 -2.80925E+01 -2.83563E+01 -2.91547E+01
  -2.96061E+01 -2.95561E+01 -2.91244E+01 -2.84294E+01 -2.76662E+01 -2.68128E+01 -2.45082E+01 -1.92273E+01 -1.46360E+01 -6.99873E+00
   1.13112E+01  3.82361E+01  6.04629E+01  6.58613E+01  5.45869E+01  3.58729E+01  1.77746E+01  3.02318E+00 -8.12540E+00 -1.57761E+01
  -2.01917E+01 -2.18141E+01 -2.21336E+01 -2.20810E+01 -2.18985E+01 -2.16296E+01 -2.12969E+01 -2.09268E+01 -2.04875E+01 -1.97990E+01
  -1.80289E+01 -1.31370E+01 -7.92915E+00 -2.63642E+00  1.00591E+01  3.22621E+01  5.46227E+01  6.45147E+01  5.82846E+01  4.26833E+01
   2.64135E+01  1.33207E+01  3.27434E+00 -4.53448E+00 -1.05394E+01 -1.44819E+01 -1.65451E+01 -1.73647E+01 -1.70562E+01 -1.58814E+01
  -1.44015E+01 -1.32221E+01 -1.26663E+01 -1.26998E+01 -1.30841E+01 -1.35659E+01 -1.39994E+01 -1.43466E+01 -1.46438E+01 -1.48802E+01
  -1.51030E+01 -1.54257E+01 -1.58116E+01 -1.60967E+01 -1.60869E+01 -1.58385E+01 -1.53278E+01 -1.48694E+01 -1.50994E+01 -1.61052E+01
  -1.75101E+01 -1.83190E+01 -1.78042E+01 -1.64854E+01 -1.55088E+01 -1.55390E+01 -1.64781E+01 -1.76717E+01 -1.85329E+01 -1.89180E+01
  -1.89370E+01 -1.88324E+01 -1.88100E+01 -1.94293E+01 -2.05934E+01 -2.14904E+01 -2.11496E+01 -1.96486E+01 -1.83762E+01 -1.82937E+01
  -1.88419E+01 -1.89468E+01 -1.80494E+01 -1.67611E+01 -1.61183E+01 -1.59586E+01 -1.51925E+01 -1.31725E+01 -1.01031E+01 -6.86388E+00
  -4.42625E+00 -3.28876E+00 -3.61725E+00 -4.61314E+00 -5.65049E+00 -6.66018E+00 -7.54889E+00 -7.88226E+00 -7.25433E+00 -6.06541E+00
  -4.62272E+00 -2.94098E+00 -1.04567E+00  6.70297E-01  1.17303E+00  2.82601E-01 -1.79292E+00 -4.74978E+00 -7.58576E+00 -9.43771E+00
  -9.83784E+00 -9.21070E+00 -7.33036E+00 -3.07269E+00  3.03290E+00  8.21819E+00  9.67472E+00  7.26732E+00  2.89453E+00 -2.28881E+00
  -8.20266E+00 -1.33559E+01 -1.51869E+01 -1.26276E+01 -7.13252E+00 -1.25724E+00  3.50691E+00  6.95891E+00  8.89774E+00  9.12044E+00
   8.14987E+00  7.29620E+00  7.47442E+00  8.51637E+00  9.94174E+00  1.14532E+01  1.27553E+01  1.31486E+01  1.24121E+01  1.08235E+01
   8.96135E+00  7.52598E+00  7.44802E+00  9.12667E+00  1.19357E+01  1.48494E+01  1.71618E+01  1.86455E+01  1.94563E+01  2.07927E+01
   2.23511E+01  2.40696E+01  2.95011E+01  4.07191E+01  5.74765E+01  7.12603E+01  7.34031E+01  7.91697E+01  1.02349E+02  1.33967E+02
   1.50935E+02  1.41515E+02  1.14369E+02  8.48668E+01  6.04972E+01  4.14937E+01  2.74101E+01  1.79702E+01  1.29425E+01  1.11382E+01
   1.01703E+01  9.59160E+00  9.38809E+00  9.34597E+00  9.14023E+00  8.67451E+00  8.11427E+00  7.62005E+00  7.17255E+00  6.78375E+00
   6.53025E+00  6.46218E+00  6.52177E+00  6.59993E+00  6.63840E+00  6.67874E+00  6.73818E+00  6.80960E+00  6.94104E+00  7.21126E+00
   7.65448E+00  8.22090E+00  8.81469E+00  9.39301E+00  9.95232E+00  1.04650E+01  1.09109E+01  1.13081E+01  1.16942E+01  1.20872E+01
   1.24650E+01  1.27890E+01  1.30313E+01  1.31743E+01  1.32055E+01  1.31195E+01  1.29180E+01  1.26101E+01  1.22109E+01  1.17345E+01
   1.11934E+01  1.05999E+01  9.96754E+00  9.31241E+00  8.65098E+00  7.99719E+00  7.36149E+00  6.75259E+00  6.17856E+00  5.64659E+00
   5.16128E+00  4.72398E+00  4.33372E+00  3.98930E+00  3.68978E+00  3.43400E+00  3.21915E+00  3.04104E+00  2.89528E+00  2.77886E+00
   2.68986E+00  2.62652E+00  2.58604E+00  2.56533E+00  2.56212E+00  2.57589E+00  2.60688E+00  2.65516E+00  2.72008E+00  2.80150E+00
   2.90090E+00  3.02192E+00  3.16942E+00  3.34918E+00  3.56813E+00  3.83584E+00  4.16464E+00  4.56837E+00  5.05916E+00  5.64453E+00
   6.32473E+00  7.09105E+00  7.92395E+00  8.79251E+00  9.65572E+00  1.04677E+01  1.11849E+01  1.17742E+01  1.22171E+01  1.25127E+01
   1.26748E+01  1.27297E+01  1.27101E+01  1.26496E+01  1.25763E+01  1.25090E+01  1.24560E+01  1.24179E+01  1.23903E+01  1.23672E+01
   1.23428E+01  1.23126E+01  1.22746E+01  1.22309E+01  1.21868E+01  1.21504E+01  1.21303E+01  1.21351E+01  1.21732E+01  1.22528E+01
   1.23821E+01  1.25680E+01  1.28154E+01  1.31272E+01  1.35052E+01  1.39503E+01  1.44624E+01  1.50393E+01  1.56766E+01  1.63678E+01
   1.71053E+01  1.78808E+01  1.86838E+01  1.95023E+01  2.03220E+01  2.11280E+01  2.19051E+01  2.26386E+01  2.33137E+01  2.39157E+01
   2.44312E+01  2.48491E+01  2.51611E+01  2.53621E+01  2.54493E+01  2.54228E+01  2.52854E+01  2.50437E+01  2.47072E+01  2.42874E+01
   2.37969E+01  2.32491E+01  2.26578E+01  2.20377E+01  2.14029E+01  2.07662E+01  2.01383E+01  1.95286E+01  1.89448E+01  1.83938E+01
   1.78804E+01  1.74076E+01  1.69764E+01  1.65868E+01  1.62384E+01  1.59303E+01  1.56607E+01  1.54269E+01  1.52256E+01  1.50540E+01
   1.49096E+01  1.47903E+01  1.46933E+01  1.46158E+01  1.45551E+01  1.45094E+01  1.44773E+01  1.44573E+01  1.44477E+01  1.44468E+01
   1.44531E+01  1.44661E+01  1.44853E+01  1.45098E+01  1.45386E+01  1.45707E+01  1.46055E+01  1.46431E+01  1.46832E+01  1.47254E+01
   1.47687E+01  1.48127E+01  1.48574E+01  1.49030E+01  1.49494E+01  1.49961E+01  1.50427E+01  1.50890E+01  1.51353E+01  1.51820E+01
   1.52287E+01  1.52751E+01  1.53208E+01  1.53661E+01  1.54113E+01  1.54566E+01  1.55016E+01  1.55460E+01  1.55896E+01  1.56329E+01
   1.56762E+01  1.57195E+01  1.57624E+01  1.58046E+01  1.58462E+01  1.58878E+01  1.59295E+01  1.59712E+01  1.60123E+01  1.60530E+01
   1.60934E+01  1.61341E+01  1.61750E+01  1.62158E+01  1.62563E+01  1.62965E+01  1.63369E+01  1.63779E+01  1.64191E+01  1.64604E+01
   1.65015E+01  1.65429E+01  1.65848E+01  1.66275E+01  1.66706E+01  1.67139E+01  1.67575E+01  1.68018E+01
 NY background values follow
    -8.983E+01   -8.908E+01   -8.834E+01   -8.760E+01   -8.685E+01   -8.611E+01   -8.536E+01   -8.462E+01   -8.387E+01   -8.313E+01
    -8.239E+01   -8.165E+01   -8.091E+01   -8.017E+01   -7.943E+01   -7.869E+01   -7.796E+01   -7.723E+01   -7.649E+01   -7.576E+01
    -7.503E+01   -7.431E+01   -7.358E+01   -7.286E+01   -7.214E+01   -7.142E+01   -7.071E+01   -7.000E+01   -6.929E+01   -6.858E+01
    -6.788E+01   -6.718E+01   -6.648E+01   -6.578E+01   -6.509E+01   -6.441E+01   -6.372E+01   -6.304E+01   -6.237E+01   -6.170E+01
    -6.103E+01   -6.036E+01   -5.970E+01   -5.905E+01   -5.840E+01   -5.775E+01   -5.711E+01   -5.648E+01   -5.584E+01   -5.522E+01
    -5.460E+01   -5.398E+01   -5.337E+01   -5.276E+01   -5.216E+01   -5.156E+01   -5.097E+01   -5.038E+01   -4.980E+01   -4.922E+01
    -4.865E+01   -4.808E+01   -4.752E+01   -4.696E+01   -4.641E+01   -4.586E+01   -4.532E+01   -4.478E+01   -4.425E+01   -4.372E+01
    -4.320E+01   -4.268E+01   -4.217E+01   -4.166E+01   -4.116E+01   -4.066E+01   -4.017E+01   -3.969E+01   -3.920E+01   -3.873E+01
    -3.826E+01   -3.779E+01   -3.733E+01   -3.688E+01   -3.643E+01   -3.598E+01   -3.555E+01   -3.511E+01   -3.468E+01   -3.426E+01
    -3.384E+01   -3.343E+01   -3.303E+01   -3.262E+01   -3.223E+01   -3.184E+01   -3.145E+01   -3.107E+01   -3.070E+01   -3.033E+01
    -2.996E+01   -2.960E+01   -2.925E+01   -2.890E+01   -2.855E+01   -2.821E+01   -2.788E+01   -2.755E+01   -2.723E+01   -2.691E+01
    -2.659E+01   -2.628E+01   -2.597E+01   -2.567E+01   -2.538E+01   -2.509E+01   -2.480E+01   -2.452E+01   -2.424E+01   -2.397E+01
    -2.370E+01   -2.343E+01   -2.317E+01   -2.292E+01   -2.267E+01   -2.242E+01   -2.218E+01   -2.194E+01   -2.171E+01   -2.148E+01
    -2.125E+01   -2.103E+01   -2.081E+01   -2.060E+01   -2.039E+01   -2.019E+01   -1.999E+01   -1.979E+01   -1.960E+01   -1.941E+01
    -1.922E+01   -1.904E+01   -1.886E+01   -1.869E+01   -1.851E+01   -1.834E+01   -1.818E+01   -1.801E+01   -1.785E+01   -1.769E+01
    -1.753E+01   -1.737E+01   -1.722E+01   -1.706E+01   -1.691E+01   -1.676E+01   -1.661E+01   -1.646E+01   -1.631E+01   -1.616E+01
    -1.602E+01   -1.587E+01   -1.572E+01   -1.558E+01   -1.543E+01   -1.528E+01   -1.513E+01   -1.499E+01   -1.484E+01   -1.469E+01
    -1.454E+01   -1.439E+01   -1.423E+01   -1.408E+01   -1.392E+01   -1.376E+01   -1.361E+01   -1.344E+01   -1.328E+01   -1.311E+01
    -1.294E+01   -1.277E+01   -1.260E+01   -1.242E+01   -1.224E+01   -1.206E+01   -1.188E+01   -1.169E+01   -1.151E+01   -1.132E+01
    -1.113E+01   -1.093E+01   -1.074E+01   -1.055E+01   -1.035E+01   -1.015E+01   -9.957E+00   -9.760E+00   -9.562E+00   -9.364E+00
    -9.166E+00   -8.968E+00   -8.770E+00   -8.572E+00   -8.375E+00   -8.179E+00   -7.983E+00   -7.788E+00   -7.595E+00   -7.402E+00
    -7.211E+00   -7.022E+00   -6.834E+00   -6.648E+00   -6.464E+00   -6.282E+00   -6.102E+00   -5.925E+00   -5.750E+00   -5.578E+00
    -5.409E+00   -5.242E+00   -5.079E+00   -4.919E+00   -4.763E+00   -4.610E+00   -4.460E+00   -4.315E+00   -4.173E+00   -4.035E+00
    -3.901E+00   -3.770E+00   -3.643E+00   -3.520E+00   -3.400E+00   -3.283E+00   -3.170E+00   -3.060E+00   -2.954E+00   -2.851E+00
    -2.751E+00   -2.654E+00   -2.560E+00   -2.469E+00   -2.381E+00   -2.296E+00   -2.214E+00   -2.135E+00   -2.059E+00   -1.985E+00
    -1.915E+00   -1.846E+00   -1.781E+00   -1.718E+00   -1.657E+00   -1.599E+00   -1.544E+00   -1.490E+00   -1.439E+00   -1.390E+00
    -1.344E+00   -1.300E+00   -1.257E+00   -1.217E+00   -1.179E+00   -1.143E+00   -1.108E+00   -1.076E+00   -1.045E+00   -1.017E+00
    -9.894E-01   -9.640E-01   -9.401E-01   -9.178E-01   -8.970E-01   -8.776E-01   -8.596E-01   -8.428E-01   -8.273E-01   -8.129E-01
    -7.995E-01   -7.872E-01   -7.758E-01   -7.653E-01   -7.556E-01   -7.466E-01   -7.383E-01   -7.306E-01   -7.234E-01   -7.167E-01
    -7.103E-01   -7.043E-01   -6.986E-01   -6.930E-01   -6.876E-01   -6.822E-01   -6.767E-01   -6.712E-01   -6.656E-01   -6.597E-01
    -6.535E-01   -6.470E-01   -6.401E-01   -6.326E-01   -6.246E-01   -6.160E-01   -6.066E-01   -5.965E-01   -5.856E-01   -5.737E-01
    -5.609E-01   -5.471E-01   -5.321E-01   -5.160E-01   -4.986E-01   -4.799E-01   -4.598E-01   -4.382E-01   -4.152E-01   -3.907E-01
    -3.646E-01   -3.370E-01   -3.079E-01   -2.771E-01   -2.448E-01   -2.108E-01   -1.752E-01   -1.379E-01   -9.889E-02   -5.820E-02
    -1.577E-02    2.841E-02    7.435E-02    1.221E-01    1.716E-01    2.230E-01    2.763E-01    3.314E-01    3.884E-01    4.473E-01
     5.081E-01    5.709E-01    6.357E-01    7.025E-01    7.713E-01    8.421E-01    9.150E-01    9.900E-01    1.067E+00    1.146E+00
     1.228E+00    1.311E+00    1.397E+00    1.485E+00    1.575E+00    1.667E+00    1.762E+00    1.858E+00    1.958E+00    2.059E+00
     2.163E+00    2.269E+00    2.378E+00    2.489E+00    2.602E+00    2.717E+00    2.835E+00    2.955E+00    3.076E+00    3.200E+00
     3.326E+00    3.453E+00    3.582E+00    3.713E+00    3.845E+00    3.979E+00    4.114E+00    4.250E+00    4.388E+00    4.528E+00
     4.668E+00    4.809E+00    4.952E+00    5.095E+00    5.239E+00    5.385E+00    5.530E+00    5.677E+00    5.824E+00    5.972E+00
     6.120E+00    6.269E+00    6.418E+00    6.567E+00    6.716E+00    6.866E+00    7.015E+00    7.165E+00    7.314E+00    7.463E+00
     7.613E+00    7.761E+00    7.910E+00    8.058E+00    8.205E+00    8.352E+00    8.498E+00    8.644E+00    8.788E+00    8.932E+00
     9.076E+00    9.218E+00    9.359E+00    9.500E+00    9.639E+00    9.778E+00    9.916E+00    1.005E+01    1.019E+01    1.032E+01
     1.046E+01    1.059E+01    1.072E+01    1.085E+01    1.098E+01    1.111E+01    1.123E+01    1.136E+01    1.148E+01    1.160E+01
     1.173E+01    1.185E+01    1.196E+01    1.208E+01    1.220E+01    1.231E+01    1.242E+01    1.254E+01    1.264E+01    1.275E+01
     1.286E+01    1.296E+01    1.307E+01    1.317E+01    1.327E+01    1.337E+01    1.346E+01    1.356E+01    1.365E+01    1.374E+01
     1.383E+01    1.392E+01    1.400E+01    1.409E+01    1.417E+01    1.425E+01    1.433E+01    1.440E+01    1.448E+01    1.455E+01
     1.462E+01    1.469E+01    1.476E+01    1.483E+01    1.489E+01    1.496E+01    1.502E+01    1.508E+01    1.514E+01    1.520E+01
     1.526E+01    1.532E+01    1.537E+01    1.543E+01    1.549E+01    1.554E+01    1.559E+01    1.565E+01    1.570E+01    1.575E+01
     1.580E+01    1.585E+01    1.590E+01    1.595E+01    1.600E+01    1.605E+01    1.609E+01    1.614E+01    1.619E+01    1.624E+01
     1.629E+01    1.633E+01    1.638E+01    1.643E+01    1.648E+01    1.653E+01    1.657E+01    1.662E+01
 Cr       Conc. = 7.70E+02
