 LCModel (Version 6.3-1L) Copyright: S.W. Provencher.          Ref.: Magn. Reson. Med. 30:672-679 (1993).                
 Slice#1 Row#10 Col#4  K_02_press_1_raw_act
 36 lines in following concentration table = NCONC+1
    Conc.  %SD /Cr+PCr  Metabolite                                         
  103.968  92% 7.4E-02 Ala                                                 
    0.000 999%   0.000 Asp                                                 
  760.628  26%   0.543 Cr                                                  
  640.156  32%   0.457 PCr                                                 
   34.249 456% 2.4E-02 GABA                                                
    0.000 999%   0.000 Glc                                                 
  365.742  54%   0.261 Gln                                                 
 1.75E+03  14%   1.251 Glu                                                 
  557.235   4%   0.398 GPC                                                 
    0.000 999%   0.000 PCh                                                 
  348.310  19%   0.249 GSH                                                 
 1.19E+03  20%   0.846 Ins                                                 
    0.000 999%   0.000 Lac                                                 
 2.47E+03   5%   1.763 NAA                                                 
  508.300  26%   0.363 NAAG                                                
   89.076  30% 6.4E-02 Scyllo                                              
   33.939 591% 2.4E-02 Tau                                                 
  263.767  40%   0.188 -CrCH2                                              
  557.235   4%   0.398 GPC+PCh                                             
 2.98E+03   3%   2.126 NAA+NAAG                                            
 1.40E+03   4%   1.000 Cr+PCr                                              
 2.12E+03  15%   1.512 Glu+Gln                                             
 2.91E+03  24%   2.075 Lip13a                                              
    0.000 999%   0.000 Lip13b                                              
  481.439  74%   0.344 Lip09                                               
 1.07E+03  33%   0.762 MM09                                                
  667.672  39%   0.477 Lip20                                               
 2.06E+03  21%   1.468 MM20                                                
  280.559  73%   0.200 MM12                                                
 1.28E+03  35%   0.915 MM14                                                
  832.317  30%   0.594 MM17                                                
 2.91E+03  24%   2.075 Lip13a+Lip13b                                       
 4.47E+03  11%   3.191 MM14+Lip13a+Lip13b+MM12                             
 1.55E+03  14%   1.106 MM09+Lip09                                          
 2.72E+03  15%   1.944 MM20+Lip20                                          
   6 lines in following misc. output table
  FWHM = 0.046 ppm    S/N =  15                                            
  Data shift = 0.000 ppm                                                   
  Ph:   0 deg      -5.5 deg/ppm                                            
  alphaB,S = 1.3E+00,   1.1E+02                                            
   14 spline knots.   Ns = 6(1)                                            
  ( 7) 4 infls.   ( 5) 1 extrs.                                            
  498 points on ppm-axis = NY
      4.000000     3.992357     3.984714     3.977070     3.969427     3.961784     3.954141     3.946497     3.938854     3.931211
      3.923568     3.915925     3.908281     3.900638     3.892995     3.885352     3.877708     3.870065     3.862422     3.854779
      3.847136     3.839492     3.831849     3.824206     3.816563     3.808919     3.801276     3.793633     3.785990     3.778347
      3.770703     3.763060     3.755417     3.747774     3.740130     3.732487     3.724844     3.717201     3.709558     3.701914
      3.694271     3.686628     3.678985     3.671341     3.663698     3.656055     3.648412     3.640769     3.633125     3.625482
      3.617839     3.610196     3.602552     3.594909     3.587266     3.579623     3.571980     3.564336     3.556693     3.549050
      3.541407     3.533763     3.526120     3.518477     3.510834     3.503191     3.495547     3.487904     3.480261     3.472618
      3.464974     3.457331     3.449688     3.442045     3.434402     3.426758     3.419115     3.411472     3.403829     3.396185
      3.388542     3.380899     3.373256     3.365613     3.357969     3.350326     3.342683     3.335040     3.327396     3.319753
      3.312110     3.304467     3.296824     3.289180     3.281537     3.273894     3.266251     3.258607     3.250964     3.243321
      3.235678     3.228034     3.220391     3.212748     3.205105     3.197462     3.189818     3.182175     3.174532     3.166889
      3.159245     3.151602     3.143959     3.136316     3.128673     3.121029     3.113386     3.105743     3.098100     3.090456
      3.082813     3.075170     3.067527     3.059884     3.052240     3.044597     3.036954     3.029311     3.021667     3.014024
      3.006381     2.998738     2.991095     2.983451     2.975808     2.968165     2.960522     2.952878     2.945235     2.937592
      2.929949     2.922306     2.914662     2.907019     2.899376     2.891733     2.884089     2.876446     2.868803     2.861160
      2.853517     2.845873     2.838230     2.830587     2.822944     2.815300     2.807657     2.800014     2.792371     2.784728
      2.777084     2.769441     2.761798     2.754155     2.746511     2.738868     2.731225     2.723582     2.715939     2.708295
      2.700652     2.693009     2.685366     2.677722     2.670079     2.662436     2.654793     2.647150     2.639506     2.631863
      2.624220     2.616577     2.608933     2.601290     2.593647     2.586004     2.578361     2.570717     2.563074     2.555431
      2.547788     2.540144     2.532501     2.524858     2.517215     2.509572     2.501928     2.494285     2.486642     2.478999
      2.471355     2.463712     2.456069     2.448426     2.440783     2.433139     2.425496     2.417853     2.410210     2.402566
      2.394923     2.387280     2.379637     2.371994     2.364350     2.356707     2.349064     2.341421     2.333777     2.326134
      2.318491     2.310848     2.303205     2.295561     2.287918     2.280275     2.272632     2.264988     2.257345     2.249702
      2.242059     2.234416     2.226772     2.219129     2.211486     2.203843     2.196199     2.188556     2.180913     2.173270
      2.165627     2.157983     2.150340     2.142697     2.135054     2.127410     2.119767     2.112124     2.104481     2.096838
      2.089194     2.081551     2.073908     2.066265     2.058621     2.050978     2.043335     2.035692     2.028049     2.020405
      2.012762     2.005119     1.997476     1.989833     1.982190     1.974546     1.966903     1.959260     1.951617     1.943974
      1.936331     1.928688     1.921045     1.913402     1.905759     1.898115     1.890472     1.882829     1.875186     1.867543
      1.859900     1.852257     1.844614     1.836971     1.829327     1.821684     1.814041     1.806398     1.798755     1.791112
      1.783469     1.775826     1.768183     1.760540     1.752896     1.745253     1.737610     1.729967     1.722324     1.714681
      1.707038     1.699395     1.691752     1.684108     1.676465     1.668822     1.661179     1.653536     1.645893     1.638250
      1.630607     1.622964     1.615321     1.607677     1.600034     1.592391     1.584748     1.577105     1.569462     1.561819
      1.554176     1.546533     1.538890     1.531246     1.523603     1.515960     1.508317     1.500674     1.493031     1.485388
      1.477745     1.470102     1.462458     1.454815     1.447172     1.439529     1.431886     1.424243     1.416600     1.408957
      1.401314     1.393671     1.386027     1.378384     1.370741     1.363098     1.355455     1.347812     1.340169     1.332526
      1.324883     1.317240     1.309596     1.301953     1.294310     1.286667     1.279024     1.271381     1.263738     1.256095
      1.248452     1.240808     1.233165     1.225522     1.217879     1.210236     1.202593     1.194950     1.187307     1.179664
      1.172021     1.164377     1.156734     1.149091     1.141448     1.133805     1.126162     1.118519     1.110876     1.103233
      1.095590     1.087946     1.080303     1.072660     1.065017     1.057374     1.049731     1.042088     1.034445     1.026802
      1.019158     1.011515     1.003872     0.996229     0.988586     0.980943     0.973300     0.965657     0.958014     0.950371
      0.942727     0.935084     0.927441     0.919798     0.912155     0.904512     0.896869     0.889226     0.881583     0.873940
      0.866296     0.858653     0.851010     0.843367     0.835724     0.828081     0.820438     0.812795     0.805152     0.797508
      0.789865     0.782222     0.774579     0.766936     0.759293     0.751650     0.744007     0.736364     0.728721     0.721077
      0.713434     0.705791     0.698148     0.690505     0.682862     0.675219     0.667576     0.659933     0.652290     0.644646
      0.637003     0.629360     0.621717     0.614074     0.606431     0.598788     0.591145     0.583502     0.575858     0.568215
      0.560572     0.552929     0.545286     0.537643     0.530000     0.522357     0.514714     0.507071     0.499427     0.491784
      0.484141     0.476498     0.468855     0.461212     0.453569     0.445925     0.438282     0.430639     0.422996     0.415353
      0.407710     0.400067     0.392424     0.384780     0.377137     0.369494     0.361851     0.354208     0.346565     0.338922
      0.331278     0.323635     0.315992     0.308349     0.300706     0.293063     0.285420     0.277777     0.270133     0.262490
      0.254847     0.247204     0.239561     0.231918     0.224275     0.216631     0.208988     0.201345
 NY phased data points follow
   1.62481E+00  8.39172E-01  4.34886E-02  3.56825E+00  1.28387E+00  3.80964E+00  5.58947E+00  1.10374E+01  1.66055E+01  1.79035E+01
   2.93864E+01  2.63222E+01  2.72679E+01  2.38496E+01  1.76413E+01  1.33955E+01  9.88760E+00 -2.16550E-01  2.31859E-02  1.30061E+00
  -3.69850E+00 -1.37801E+00 -2.23149E+00  3.22675E+00 -9.68451E-02 -2.34432E+00  8.86274E+00  2.02115E+00  7.65351E+00  6.91540E+00
   3.75684E+00  6.38581E+00  6.48747E+00  5.87354E+00  7.74442E+00  6.17157E+00  5.77677E+00  2.58390E+00  5.46364E+00  2.62155E+00
   6.82247E+00  4.19563E+00  3.96053E+00  2.92309E+00  6.26728E+00  5.15665E+00  1.43317E+01  1.07987E+01  1.14625E+01  1.10738E+01
   1.21015E+01  6.24950E+00  5.44413E+00  2.12910E+00  4.57176E+00  1.28661E+00  5.45749E+00  7.01984E+00  6.83196E+00  2.58352E+00
  -2.44333E-01 -3.63502E-02  5.46476E-01  4.32636E-01 -2.56288E+00 -3.88090E+00 -2.06816E+00 -3.59066E+00  3.46581E-01 -1.91058E+00
  -4.03337E+00 -5.41302E-01  1.27097E+00  1.41151E+00 -2.15132E+00 -7.50896E-01 -2.01181E+00  1.96701E-01 -1.39169E+00 -3.71187E+00
   1.08795E+00  8.91216E-01 -2.23452E+00 -2.37879E+00  1.61324E+00  9.11883E-01  1.24628E+00  1.67953E-01 -2.74614E+00  3.12879E+00
   3.24155E+00  7.20336E+00  1.45216E+00  5.87509E+00  3.55583E+00  7.91672E+00  9.24433E+00  1.24850E+01  1.65655E+01  2.21606E+01
   2.59862E+01  3.73477E+01  4.32017E+01  5.21619E+01  5.35607E+01  4.49859E+01  3.40666E+01  2.21990E+01  1.09215E+01  7.55839E+00
   3.71346E+00  6.11885E+00  7.03508E-01 -1.79893E+00  1.90457E+00 -2.45263E-01  5.36824E-01  1.58653E+00  1.05819E+00 -2.09124E+00
   4.12459E+00  9.88902E+00  8.80392E+00  1.85817E+01  2.37376E+01  3.07364E+01  3.82109E+01  4.72566E+01  5.23750E+01  4.47534E+01
   3.94145E+01  1.88811E+01  1.76958E+01  1.01106E+01  6.94290E+00  3.84851E+00  8.02600E-01 -3.10093E+00 -5.06795E-01 -1.84669E+00
  -3.15750E+00  2.53379E+00  5.22013E-01  2.33456E+00  5.20445E+00  2.42355E+00  3.89143E+00  3.26632E+00  5.76551E+00 -1.42362E+00
   3.01769E+00  3.80638E+00  1.27706E+00  5.79016E-01  2.91602E+00  5.37277E+00  3.56910E+00  2.54101E+00  1.44591E+00  1.16842E+00
   6.29081E+00  1.48442E+00  1.01859E+00 -2.56290E+00 -4.25259E+00  1.27471E+00 -1.30008E+00 -4.32847E+00 -2.85470E+00 -7.02444E+00
  -1.04655E+01 -1.61157E+01 -1.11494E+01 -1.20289E+01 -1.32045E+01 -1.59349E+01 -1.66280E+01 -1.87919E+01 -1.35630E+01 -1.47762E+01
  -9.45217E+00 -6.46476E+00 -9.48037E+00 -2.94443E+00 -6.53681E+00 -2.10925E+00 -4.70162E+00 -7.22369E+00 -3.55007E+00 -5.53620E+00
  -2.81078E+00 -9.91988E-01 -1.91059E-01 -1.10271E+00 -4.27471E+00 -4.11586E-01 -4.34778E+00 -1.87271E+00 -7.41895E+00 -9.55589E+00
  -4.57765E+00  7.43727E-01 -7.16135E-01  5.07666E+00  5.28887E+00  2.66404E+00 -1.26235E+00 -2.24340E+00 -2.68614E-01 -4.45915E+00
  -2.34661E+00  2.15553E+00  3.70501E+00  2.99283E+00  9.38402E+00  9.44579E+00  1.21479E+01  9.78292E+00  8.67012E+00  3.21694E+00
   4.45546E-02 -6.70072E+00 -7.80372E+00 -3.89788E+00 -5.76870E+00 -2.61985E+00  2.05064E+00  8.98828E+00  7.13237E+00  7.90286E+00
   1.05857E+01  9.68499E+00  3.38948E+00  2.78658E+00  8.73558E+00  8.25308E+00  4.50909E+00  7.01728E+00  8.08173E+00  6.14523E+00
   4.44987E+00 -1.88520E+00  2.25151E+00  1.43991E+00 -2.24886E+00  3.46140E+00  9.76046E+00  1.32418E+01  1.23428E+01  1.39688E+01
   1.21688E+01  1.85275E+01  2.76795E+01  3.03674E+01  3.66002E+01  5.11421E+01  5.66401E+01  7.00154E+01  7.77745E+01  8.93324E+01
   1.03319E+02  1.10258E+02  9.64101E+01  7.07407E+01  4.44976E+01  2.48232E+01  1.55435E+01  1.21606E+01  3.01171E+00  3.76636E+00
   3.14623E+00  9.94157E+00  3.86996E+00  8.30781E+00  8.92183E+00  8.37414E+00  1.16542E+01  8.51238E+00  7.70592E+00  9.21171E+00
   1.12453E+01  4.42921E+00  7.03082E+00  9.36361E+00  6.25174E+00  5.91445E+00  5.13467E+00  3.12731E+00  7.62005E+00  8.53541E+00
   5.58606E+00  3.82134E+00  5.63575E+00  2.62192E+00  4.80741E+00  4.84327E+00  6.96608E+00  2.74119E+00  5.99661E+00  3.28833E+00
   3.42743E+00  7.10482E+00  4.94889E+00  1.03748E+01  6.54774E+00  4.75053E+00  8.18893E+00  4.16020E+00  7.27880E+00  3.79561E+00
   8.59467E+00  9.92309E+00  7.08828E+00  7.63765E+00  6.00650E+00  5.83293E+00  8.19707E+00  8.99081E+00  5.97697E+00  1.10260E+01
   6.55148E+00  3.60388E+00  6.16232E+00  8.36249E+00  1.02998E+01  4.79699E+00  1.79281E+00  1.22744E+01  8.09283E+00  7.55863E+00
   8.07426E+00  5.31960E+00  8.86518E+00  1.37954E+01  1.18264E+01  1.62865E+01  1.47388E+01  1.03206E+01  1.80053E+01  1.64689E+01
   1.68759E+01  1.46830E+01  1.51077E+01  1.99620E+01  1.85045E+01  1.57509E+01  1.80102E+01  1.86812E+01  2.08191E+01  1.74417E+01
   2.13334E+01  2.16184E+01  1.76880E+01  1.97275E+01  2.29013E+01  2.05445E+01  1.75233E+01  1.26074E+01  1.65671E+01  1.49594E+01
   9.99110E+00  1.72887E+01  1.39523E+01  1.27279E+01  1.34491E+01  1.44663E+01  1.08349E+01  1.41045E+01  1.52555E+01  8.01160E+00
   7.68416E+00  1.06844E+01  7.00228E+00  1.02449E+01  1.25067E+01  9.39461E+00  6.45187E+00  7.72045E+00  1.05944E+01  9.89024E+00
   8.26695E+00  8.14741E+00  6.08719E+00  1.08515E+01  1.34939E+01  2.47299E+00  9.02086E+00  6.35934E+00  1.00680E+01  1.18096E+01
   8.50909E+00  1.21347E+01  1.15179E+01  9.23658E+00  1.07187E+01  8.86489E+00  1.20989E+01  1.37458E+01  1.07878E+01  1.49938E+01
   1.07948E+01  1.43943E+01  1.28786E+01  1.25696E+01  1.17419E+01  1.31077E+01  1.55844E+01  1.45728E+01  1.23024E+01  1.16766E+01
   1.77254E+01  9.31231E+00  1.54865E+01  1.10005E+01  1.04159E+01  6.02534E+00  7.63991E+00  5.51016E+00  1.01264E+01  7.53627E+00
   6.93447E+00  5.41084E+00  9.28779E+00  9.38769E+00  5.52309E+00  8.13994E+00  5.75106E+00  4.46764E+00  6.48363E+00  3.73938E+00
   3.08090E+00  4.84122E+00  2.45991E+00  2.88258E+00  6.57447E+00  3.51055E-01  5.00874E+00  1.52666E-01  3.89216E+00  5.77505E+00
   5.84426E+00  4.19520E+00  8.57786E+00  6.67505E+00  3.08189E+00  2.69540E+00  4.09512E+00  4.58646E+00  5.18447E+00  4.46647E+00
   1.55284E+00  3.36590E+00  7.19743E+00  4.25988E+00  3.16803E+00  1.93902E+00  2.25721E+00  3.63954E+00  4.72432E+00  7.09658E+00
   8.72492E+00  7.01216E+00  3.93600E+00  4.42487E+00  3.83231E+00  2.18575E+00  8.61642E+00  2.50133E+00  2.26080E+00  3.44346E+00
   4.67246E+00  9.76892E-02  2.38910E-01  7.77509E+00 -6.13863E-01  6.40215E+00  2.48522E+00  3.91551E+00  4.70356E+00  5.92121E-01
   4.08440E-01 -4.38653E-01  2.07960E+00  4.60016E+00  7.59597E+00  1.81953E+00  2.04768E+00 -4.10601E+00  8.08080E+00  3.39004E+00
   1.59116E+00  4.51298E+00  1.64015E+00  5.13827E+00  2.80279E+00  5.96226E+00  3.92925E+00 -1.63659E+00
 NY points of the fit to the data follow
  -1.65385E-01 -4.79434E-01 -3.92806E-01  4.28238E-01  2.22628E+00  5.17749E+00  8.74618E+00  1.23112E+01  1.60856E+01  2.02643E+01
   2.43594E+01  2.70927E+01  2.70316E+01  2.37414E+01  1.83222E+01  1.26699E+01  8.22893E+00  5.39213E+00  3.74260E+00  2.85978E+00
   2.38310E+00  2.05954E+00  1.62309E+00  1.29071E+00  1.53709E+00  1.98375E+00  2.44063E+00  3.08139E+00  4.16131E+00  5.81237E+00
   7.79209E+00  9.59985E+00  1.05820E+01  1.03635E+01  9.14419E+00  7.25961E+00  5.02743E+00  2.91906E+00  1.32181E+00  4.45698E-01
   5.19405E-01  1.58589E+00  3.28098E+00  5.00129E+00  6.42046E+00  7.65535E+00  8.92299E+00  1.00687E+01  1.05530E+01  9.80913E+00
   7.80893E+00  5.14541E+00  2.62409E+00  9.12753E-01  1.71274E-01  1.77532E-01  6.07317E-01  1.15177E+00  1.69896E+00  2.21093E+00
   2.58292E+00  2.64267E+00  2.23123E+00  1.40812E+00  4.14602E-01 -3.92695E-01 -7.27308E-01 -5.92372E-01 -1.53880E-01  3.97553E-01
   9.22853E-01  1.32377E+00  1.55056E+00  1.56135E+00  1.34411E+00  9.76521E-01  5.81425E-01  2.53864E-01  1.36651E-02 -1.37154E-01
  -1.53347E-01  1.26149E-01  4.99627E-01  7.50367E-01  9.79339E-01  1.29945E+00  1.70141E+00  2.00867E+00  1.94405E+00  1.35898E+00
   5.08553E-01 -2.14777E-01 -5.53360E-01 -4.80125E-01 -9.69046E-02  7.87782E-01  3.58463E+00  9.30234E+00  1.53800E+01  2.11813E+01
   2.79230E+01  3.64708E+01  4.59106E+01  5.29398E+01  5.34972E+01  4.61330E+01  3.36258E+01  2.07672E+01  1.09748E+01  4.86888E+00
   1.67428E+00  4.55845E-01 -7.05241E-04 -2.16889E-01 -3.37926E-01 -4.03441E-01 -4.18400E-01 -3.81487E-01 -2.54199E-01  1.10484E-01
   1.54238E+00  6.06874E+00  1.20325E+01  1.76436E+01  2.35623E+01  3.08508E+01  3.94663E+01  4.73051E+01  5.05722E+01  4.65421E+01
   3.64258E+01  2.44212E+01  1.44311E+01  7.82972E+00  3.92028E+00  1.85613E+00  6.40563E-01 -1.98769E-01 -5.37876E-01 -3.12123E-01
   3.23467E-01  1.08148E+00  1.66759E+00  1.88815E+00  1.73885E+00  1.36592E+00  9.43208E-01  5.88144E-01  3.03024E-01  7.38372E-02
  -9.77553E-02 -2.43875E-01 -3.72310E-01 -4.80815E-01 -6.61664E-01 -9.72724E-01 -1.19557E+00 -1.27008E+00 -1.27141E+00 -1.36444E+00
  -1.82875E+00 -2.47218E+00 -2.87281E+00 -2.80018E+00 -2.42514E+00 -2.16234E+00 -2.38852E+00 -3.12708E+00 -4.09683E+00 -5.03603E+00
  -5.81363E+00 -6.22467E+00 -6.30097E+00 -6.34371E+00 -6.64177E+00 -7.22662E+00 -7.65026E+00 -7.55669E+00 -6.97576E+00 -6.36898E+00
  -6.20306E+00 -6.51568E+00 -6.68752E+00 -6.38824E+00 -5.73131E+00 -4.92815E+00 -4.07323E+00 -3.08525E+00 -1.77946E+00 -1.73980E-01
   1.42646E+00  2.52892E+00  2.73964E+00  2.27194E+00  1.46266E+00  5.93881E-01 -8.27993E-02 -3.66987E-01 -2.08829E-01  3.43106E-01
   1.29140E+00  2.43567E+00  3.48067E+00  4.16467E+00  4.16833E+00  3.48573E+00  2.01445E+00 -1.45544E-01 -2.32864E+00 -3.93464E+00
  -4.31216E+00 -3.53458E+00 -1.97656E+00  2.89453E-01  3.13276E+00  5.99104E+00  7.74001E+00  7.41161E+00  4.99508E+00  1.32280E+00
  -2.70698E+00 -6.14116E+00 -8.18917E+00 -8.29954E+00 -6.19365E+00 -2.48732E+00  1.59631E+00  4.96354E+00  7.00573E+00  7.71350E+00
   7.45255E+00  6.79318E+00  6.24466E+00  6.12003E+00  6.46304E+00  7.09444E+00  7.70202E+00  7.97710E+00  7.88841E+00  7.43510E+00
   6.65623E+00  5.72813E+00  5.07525E+00  5.07898E+00  5.87780E+00  7.32661E+00  9.01932E+00  1.05307E+01  1.16336E+01  1.27651E+01
   1.45921E+01  1.65791E+01  1.88650E+01  2.35851E+01  3.52734E+01  4.95100E+01  6.16648E+01  7.19029E+01  8.19846E+01  9.28937E+01
   1.02169E+02  1.03815E+02  9.31099E+01  7.22757E+01  4.90269E+01  3.02618E+01  1.80870E+01  1.12011E+01  8.28843E+00  7.15360E+00
   6.47369E+00  6.00330E+00  5.72493E+00  5.62775E+00  5.63421E+00  5.63363E+00  5.52729E+00  5.29351E+00  4.97964E+00  4.66832E+00
   4.41889E+00  4.25451E+00  4.18204E+00  4.19307E+00  4.25280E+00  4.32601E+00  4.39932E+00  4.46908E+00  4.54135E+00  4.62929E+00
   4.75234E+00  4.92473E+00  5.13831E+00  5.36555E+00  5.58401E+00  5.77585E+00  5.93456E+00  6.06420E+00  6.17035E+00  6.26140E+00
   6.34913E+00  6.43865E+00  6.52448E+00  6.59455E+00  6.63796E+00  6.65101E+00  6.63597E+00  6.59799E+00  6.54485E+00  6.48334E+00
   6.41966E+00  6.36036E+00  6.31161E+00  6.27886E+00  6.26685E+00  6.28054E+00  6.32558E+00  6.40851E+00  6.53652E+00  6.71933E+00
   6.97717E+00  7.33697E+00  7.71112E+00  8.03876E+00  8.36576E+00  8.71088E+00  9.02998E+00  9.22759E+00  9.22125E+00  9.11451E+00
   9.11154E+00  9.31416E+00  9.77008E+00  1.04686E+01  1.13784E+01  1.24622E+01  1.35981E+01  1.46001E+01  1.53358E+01  1.58016E+01
   1.61037E+01  1.63587E+01  1.66217E+01  1.69112E+01  1.72224E+01  1.75281E+01  1.78120E+01  1.80642E+01  1.82765E+01  1.84427E+01
   1.85573E+01  1.86160E+01  1.86152E+01  1.85516E+01  1.84231E+01  1.82295E+01  1.79721E+01  1.76534E+01  1.72771E+01  1.68479E+01
   1.63717E+01  1.58558E+01  1.53082E+01  1.47374E+01  1.41515E+01  1.35586E+01  1.29665E+01  1.23833E+01  1.18161E+01  1.12711E+01
   1.07534E+01  1.02673E+01  9.81678E+00  9.40525E+00  9.03524E+00  8.70844E+00  8.42591E+00  8.18865E+00  7.99768E+00  7.85392E+00
   7.75780E+00  7.70951E+00  7.70910E+00  7.75691E+00  7.85327E+00  7.99819E+00  8.19087E+00  8.42996E+00  8.71348E+00  9.03902E+00
   9.40309E+00  9.80094E+00  1.02262E+01  1.06713E+01  1.11277E+01  1.15861E+01  1.20359E+01  1.24661E+01  1.28648E+01  1.32209E+01
   1.35239E+01  1.37646E+01  1.39354E+01  1.40299E+01  1.40443E+01  1.39771E+01  1.38296E+01  1.36056E+01  1.33104E+01  1.29513E+01
   1.25370E+01  1.20777E+01  1.15842E+01  1.10673E+01  1.05371E+01  1.00032E+01  9.47435E+00  8.95830E+00  8.46159E+00  7.98920E+00
   7.54455E+00  7.12992E+00  6.74668E+00  6.39546E+00  6.07591E+00  5.78688E+00  5.52658E+00  5.29310E+00  5.08454E+00  4.89902E+00
   4.73437E+00  4.58836E+00  4.45878E+00  4.34390E+00  4.24220E+00  4.15235E+00  4.07283E+00  4.00226E+00  3.93941E+00  3.88354E+00
   3.83397E+00  3.79010E+00  3.75105E+00  3.71614E+00  3.68486E+00  3.65703E+00  3.63239E+00  3.61061E+00  3.59115E+00  3.57370E+00
   3.55810E+00  3.54441E+00  3.53249E+00  3.52210E+00  3.51285E+00  3.50466E+00  3.49756E+00  3.49168E+00  3.48684E+00  3.48283E+00
   3.47939E+00  3.47658E+00  3.47451E+00  3.47328E+00  3.47267E+00  3.47249E+00  3.47261E+00  3.47320E+00  3.47435E+00  3.47610E+00
   3.47817E+00  3.48047E+00  3.48295E+00  3.48586E+00  3.48924E+00  3.49303E+00  3.49697E+00  3.50103E+00  3.50527E+00  3.50992E+00
   3.51495E+00  3.52023E+00  3.52556E+00  3.53099E+00  3.53666E+00  3.54274E+00  3.54911E+00  3.55565E+00  3.56219E+00  3.56890E+00
   3.57592E+00  3.58335E+00  3.59101E+00  3.59878E+00  3.60661E+00  3.61475E+00  3.62329E+00  3.63227E+00
 NY background values follow
    -3.294E+00   -3.282E+00   -3.269E+00   -3.257E+00   -3.244E+00   -3.232E+00   -3.219E+00   -3.207E+00   -3.194E+00   -3.181E+00
    -3.169E+00   -3.156E+00   -3.144E+00   -3.131E+00   -3.118E+00   -3.106E+00   -3.093E+00   -3.080E+00   -3.068E+00   -3.055E+00
    -3.043E+00   -3.030E+00   -3.018E+00   -3.005E+00   -2.993E+00   -2.980E+00   -2.968E+00   -2.955E+00   -2.943E+00   -2.931E+00
    -2.918E+00   -2.906E+00   -2.894E+00   -2.882E+00   -2.870E+00   -2.858E+00   -2.846E+00   -2.834E+00   -2.822E+00   -2.811E+00
    -2.799E+00   -2.787E+00   -2.776E+00   -2.765E+00   -2.753E+00   -2.742E+00   -2.731E+00   -2.720E+00   -2.709E+00   -2.698E+00
    -2.687E+00   -2.677E+00   -2.666E+00   -2.656E+00   -2.645E+00   -2.635E+00   -2.625E+00   -2.615E+00   -2.605E+00   -2.596E+00
    -2.586E+00   -2.577E+00   -2.567E+00   -2.558E+00   -2.549E+00   -2.540E+00   -2.531E+00   -2.523E+00   -2.514E+00   -2.506E+00
    -2.497E+00   -2.489E+00   -2.482E+00   -2.474E+00   -2.466E+00   -2.459E+00   -2.451E+00   -2.444E+00   -2.437E+00   -2.431E+00
    -2.424E+00   -2.418E+00   -2.411E+00   -2.405E+00   -2.399E+00   -2.394E+00   -2.388E+00   -2.383E+00   -2.378E+00   -2.373E+00
    -2.368E+00   -2.364E+00   -2.359E+00   -2.355E+00   -2.351E+00   -2.347E+00   -2.344E+00   -2.340E+00   -2.337E+00   -2.334E+00
    -2.331E+00   -2.329E+00   -2.326E+00   -2.324E+00   -2.322E+00   -2.320E+00   -2.318E+00   -2.317E+00   -2.316E+00   -2.314E+00
    -2.314E+00   -2.313E+00   -2.312E+00   -2.312E+00   -2.311E+00   -2.311E+00   -2.311E+00   -2.311E+00   -2.312E+00   -2.312E+00
    -2.313E+00   -2.314E+00   -2.315E+00   -2.316E+00   -2.318E+00   -2.319E+00   -2.321E+00   -2.323E+00   -2.325E+00   -2.327E+00
    -2.329E+00   -2.332E+00   -2.334E+00   -2.337E+00   -2.340E+00   -2.343E+00   -2.346E+00   -2.349E+00   -2.353E+00   -2.356E+00
    -2.360E+00   -2.364E+00   -2.367E+00   -2.371E+00   -2.375E+00   -2.379E+00   -2.383E+00   -2.387E+00   -2.391E+00   -2.395E+00
    -2.398E+00   -2.402E+00   -2.406E+00   -2.409E+00   -2.413E+00   -2.416E+00   -2.419E+00   -2.422E+00   -2.425E+00   -2.428E+00
    -2.430E+00   -2.433E+00   -2.435E+00   -2.437E+00   -2.438E+00   -2.440E+00   -2.441E+00   -2.441E+00   -2.442E+00   -2.442E+00
    -2.442E+00   -2.441E+00   -2.440E+00   -2.439E+00   -2.437E+00   -2.435E+00   -2.433E+00   -2.430E+00   -2.426E+00   -2.422E+00
    -2.418E+00   -2.413E+00   -2.408E+00   -2.402E+00   -2.396E+00   -2.389E+00   -2.381E+00   -2.374E+00   -2.365E+00   -2.357E+00
    -2.347E+00   -2.338E+00   -2.328E+00   -2.317E+00   -2.306E+00   -2.295E+00   -2.283E+00   -2.271E+00   -2.258E+00   -2.245E+00
    -2.232E+00   -2.218E+00   -2.204E+00   -2.189E+00   -2.174E+00   -2.159E+00   -2.143E+00   -2.127E+00   -2.111E+00   -2.094E+00
    -2.077E+00   -2.060E+00   -2.042E+00   -2.024E+00   -2.006E+00   -1.987E+00   -1.968E+00   -1.949E+00   -1.929E+00   -1.909E+00
    -1.889E+00   -1.869E+00   -1.848E+00   -1.827E+00   -1.806E+00   -1.784E+00   -1.763E+00   -1.741E+00   -1.718E+00   -1.696E+00
    -1.673E+00   -1.651E+00   -1.627E+00   -1.604E+00   -1.581E+00   -1.557E+00   -1.533E+00   -1.509E+00   -1.485E+00   -1.461E+00
    -1.436E+00   -1.411E+00   -1.387E+00   -1.362E+00   -1.336E+00   -1.311E+00   -1.286E+00   -1.260E+00   -1.235E+00   -1.209E+00
    -1.183E+00   -1.157E+00   -1.131E+00   -1.105E+00   -1.079E+00   -1.053E+00   -1.026E+00   -9.999E-01   -9.734E-01   -9.469E-01
    -9.204E-01   -8.938E-01   -8.672E-01   -8.405E-01   -8.139E-01   -7.872E-01   -7.605E-01   -7.338E-01   -7.071E-01   -6.804E-01
    -6.537E-01   -6.271E-01   -6.005E-01   -5.739E-01   -5.473E-01   -5.208E-01   -4.943E-01   -4.678E-01   -4.414E-01   -4.150E-01
    -3.886E-01   -3.623E-01   -3.360E-01   -3.097E-01   -2.835E-01   -2.574E-01   -2.312E-01   -2.052E-01   -1.791E-01   -1.531E-01
    -1.272E-01   -1.013E-01   -7.548E-02   -4.970E-02   -2.397E-02    1.709E-03    2.733E-02    5.289E-02    7.840E-02    1.038E-01
     1.292E-01    1.546E-01    1.798E-01    2.050E-01    2.302E-01    2.552E-01    2.802E-01    3.052E-01    3.300E-01    3.548E-01
     3.795E-01    4.042E-01    4.287E-01    4.532E-01    4.776E-01    5.020E-01    5.262E-01    5.504E-01    5.745E-01    5.985E-01
     6.225E-01    6.463E-01    6.701E-01    6.938E-01    7.174E-01    7.410E-01    7.644E-01    7.878E-01    8.111E-01    8.343E-01
     8.575E-01    8.806E-01    9.035E-01    9.265E-01    9.493E-01    9.721E-01    9.948E-01    1.017E+00    1.040E+00    1.062E+00
     1.085E+00    1.107E+00    1.129E+00    1.151E+00    1.174E+00    1.196E+00    1.217E+00    1.239E+00    1.261E+00    1.283E+00
     1.305E+00    1.326E+00    1.348E+00    1.369E+00    1.390E+00    1.412E+00    1.433E+00    1.454E+00    1.475E+00    1.496E+00
     1.517E+00    1.538E+00    1.559E+00    1.579E+00    1.600E+00    1.621E+00    1.641E+00    1.662E+00    1.682E+00    1.702E+00
     1.723E+00    1.743E+00    1.763E+00    1.783E+00    1.803E+00    1.823E+00    1.842E+00    1.862E+00    1.882E+00    1.901E+00
     1.921E+00    1.940E+00    1.960E+00    1.979E+00    1.998E+00    2.018E+00    2.037E+00    2.056E+00    2.075E+00    2.093E+00
     2.112E+00    2.131E+00    2.150E+00    2.168E+00    2.187E+00    2.205E+00    2.223E+00    2.242E+00    2.260E+00    2.278E+00
     2.296E+00    2.314E+00    2.332E+00    2.350E+00    2.367E+00    2.385E+00    2.403E+00    2.420E+00    2.438E+00    2.455E+00
     2.472E+00    2.489E+00    2.506E+00    2.523E+00    2.540E+00    2.557E+00    2.574E+00    2.591E+00    2.607E+00    2.624E+00
     2.640E+00    2.657E+00    2.673E+00    2.689E+00    2.705E+00    2.721E+00    2.737E+00    2.753E+00    2.768E+00    2.784E+00
     2.800E+00    2.815E+00    2.830E+00    2.845E+00    2.861E+00    2.876E+00    2.890E+00    2.905E+00    2.920E+00    2.935E+00
     2.949E+00    2.963E+00    2.978E+00    2.992E+00    3.006E+00    3.020E+00    3.034E+00    3.047E+00    3.061E+00    3.074E+00
     3.088E+00    3.101E+00    3.114E+00    3.127E+00    3.140E+00    3.153E+00    3.166E+00    3.178E+00    3.191E+00    3.203E+00
     3.215E+00    3.228E+00    3.240E+00    3.252E+00    3.264E+00    3.275E+00    3.287E+00    3.299E+00    3.311E+00    3.322E+00
     3.334E+00    3.345E+00    3.356E+00    3.368E+00    3.379E+00    3.390E+00    3.401E+00    3.412E+00    3.423E+00    3.434E+00
     3.445E+00    3.456E+00    3.467E+00    3.478E+00    3.489E+00    3.500E+00    3.511E+00    3.522E+00    3.532E+00    3.543E+00
     3.554E+00    3.565E+00    3.575E+00    3.586E+00    3.597E+00    3.608E+00    3.618E+00    3.629E+00
 Ala      Conc. = 1.04E+02
