 LCModel (Version 6.3-1L) Copyright: S.W. Provencher.          Ref.: Magn. Reson. Med. 30:672-679 (1993).                
 Slice#2 Row#6 Col#4  K_02_press_1_raw_act
 36 lines in following concentration table = NCONC+1
    Conc.  %SD /Cr+PCr  Metabolite                                         
   77.024 169% 3.9E-02 Ala                                                 
    0.000 999%   0.000 Asp                                                 
  671.425  41%   0.338 Cr                                                  
 1.32E+03  22%   0.662 PCr                                                 
  178.694 120% 9.0E-02 GABA                                                
    0.000 999%   0.000 Glc                                                 
  396.814  72%   0.200 Gln                                                 
 1.75E+03  20%   0.878 Glu                                                 
  830.278   4%   0.418 GPC                                                 
    0.000 999%   0.000 PCh                                                 
  713.798  13%   0.359 GSH                                                 
 1.42E+03  25%   0.716 Ins                                                 
    0.000 999%   0.000 Lac                                                 
 3.02E+03   5%   1.518 NAA                                                 
  800.874  20%   0.403 NAAG                                                
  128.791  29% 6.5E-02 Scyllo                                              
    0.000 999%   0.000 Tau                                                 
    8.177 999% 4.1E-03 -CrCH2                                              
  830.278   4%   0.418 GPC+PCh                                             
 3.82E+03   3%   1.921 NAA+NAAG                                            
 1.99E+03   4%   1.000 Cr+PCr                                              
 2.14E+03  23%   1.078 Glu+Gln                                             
  606.021  61%   0.305 Lip13a                                              
    0.000 999%   0.000 Lip13b                                              
  122.849 103% 6.2E-02 Lip09                                               
 1.73E+03  15%   0.872 MM09                                                
  101.517  77% 5.1E-02 Lip20                                               
 3.89E+03  12%   1.959 MM20                                                
  584.886  28%   0.294 MM12                                                
    0.000 999%   0.000 MM14                                                
 1.24E+03  23%   0.622 MM17                                                
  606.021  61%   0.305 Lip13a+Lip13b                                       
 1.19E+03  31%   0.599 MM14+Lip13a+Lip13b+MM12                             
 1.86E+03  15%   0.934 MM09+Lip09                                          
 4.00E+03  12%   2.010 MM20+Lip20                                          
   6 lines in following misc. output table
  FWHM = 0.061 ppm    S/N =  15                                            
  Data shift = 0.023 ppm                                                   
  Ph: -23 deg      -6.0 deg/ppm                                            
  alphaB,S = 4.9E-01,   1.7E+02                                            
   14 spline knots.   Ns = 8(1)                                            
  (11) 4 infls.   ( 3) 1 extrs.                                            
  498 points on ppm-axis = NY
      4.000000     3.992357     3.984714     3.977070     3.969427     3.961784     3.954141     3.946497     3.938854     3.931211
      3.923568     3.915925     3.908281     3.900638     3.892995     3.885352     3.877708     3.870065     3.862422     3.854779
      3.847136     3.839492     3.831849     3.824206     3.816563     3.808919     3.801276     3.793633     3.785990     3.778347
      3.770703     3.763060     3.755417     3.747774     3.740130     3.732487     3.724844     3.717201     3.709558     3.701914
      3.694271     3.686628     3.678985     3.671341     3.663698     3.656055     3.648412     3.640769     3.633125     3.625482
      3.617839     3.610196     3.602552     3.594909     3.587266     3.579623     3.571980     3.564336     3.556693     3.549050
      3.541407     3.533763     3.526120     3.518477     3.510834     3.503191     3.495547     3.487904     3.480261     3.472618
      3.464974     3.457331     3.449688     3.442045     3.434402     3.426758     3.419115     3.411472     3.403829     3.396185
      3.388542     3.380899     3.373256     3.365613     3.357969     3.350326     3.342683     3.335040     3.327396     3.319753
      3.312110     3.304467     3.296824     3.289180     3.281537     3.273894     3.266251     3.258607     3.250964     3.243321
      3.235678     3.228034     3.220391     3.212748     3.205105     3.197462     3.189818     3.182175     3.174532     3.166889
      3.159245     3.151602     3.143959     3.136316     3.128673     3.121029     3.113386     3.105743     3.098100     3.090456
      3.082813     3.075170     3.067527     3.059884     3.052240     3.044597     3.036954     3.029311     3.021667     3.014024
      3.006381     2.998738     2.991095     2.983451     2.975808     2.968165     2.960522     2.952878     2.945235     2.937592
      2.929949     2.922306     2.914662     2.907019     2.899376     2.891733     2.884089     2.876446     2.868803     2.861160
      2.853517     2.845873     2.838230     2.830587     2.822944     2.815300     2.807657     2.800014     2.792371     2.784728
      2.777084     2.769441     2.761798     2.754155     2.746511     2.738868     2.731225     2.723582     2.715939     2.708295
      2.700652     2.693009     2.685366     2.677722     2.670079     2.662436     2.654793     2.647150     2.639506     2.631863
      2.624220     2.616577     2.608933     2.601290     2.593647     2.586004     2.578361     2.570717     2.563074     2.555431
      2.547788     2.540144     2.532501     2.524858     2.517215     2.509572     2.501928     2.494285     2.486642     2.478999
      2.471355     2.463712     2.456069     2.448426     2.440783     2.433139     2.425496     2.417853     2.410210     2.402566
      2.394923     2.387280     2.379637     2.371994     2.364350     2.356707     2.349064     2.341421     2.333777     2.326134
      2.318491     2.310848     2.303205     2.295561     2.287918     2.280275     2.272632     2.264988     2.257345     2.249702
      2.242059     2.234416     2.226772     2.219129     2.211486     2.203843     2.196199     2.188556     2.180913     2.173270
      2.165627     2.157983     2.150340     2.142697     2.135054     2.127410     2.119767     2.112124     2.104481     2.096838
      2.089194     2.081551     2.073908     2.066265     2.058621     2.050978     2.043335     2.035692     2.028049     2.020405
      2.012762     2.005119     1.997476     1.989833     1.982190     1.974546     1.966903     1.959260     1.951617     1.943974
      1.936331     1.928688     1.921045     1.913402     1.905759     1.898115     1.890472     1.882829     1.875186     1.867543
      1.859900     1.852257     1.844614     1.836971     1.829327     1.821684     1.814041     1.806398     1.798755     1.791112
      1.783469     1.775826     1.768183     1.760540     1.752896     1.745253     1.737610     1.729967     1.722324     1.714681
      1.707038     1.699395     1.691752     1.684108     1.676465     1.668822     1.661179     1.653536     1.645893     1.638250
      1.630607     1.622964     1.615321     1.607677     1.600034     1.592391     1.584748     1.577105     1.569462     1.561819
      1.554176     1.546533     1.538890     1.531246     1.523603     1.515960     1.508317     1.500674     1.493031     1.485388
      1.477745     1.470102     1.462458     1.454815     1.447172     1.439529     1.431886     1.424243     1.416600     1.408957
      1.401314     1.393671     1.386027     1.378384     1.370741     1.363098     1.355455     1.347812     1.340169     1.332526
      1.324883     1.317240     1.309596     1.301953     1.294310     1.286667     1.279024     1.271381     1.263738     1.256095
      1.248452     1.240808     1.233165     1.225522     1.217879     1.210236     1.202593     1.194950     1.187307     1.179664
      1.172021     1.164377     1.156734     1.149091     1.141448     1.133805     1.126162     1.118519     1.110876     1.103233
      1.095590     1.087946     1.080303     1.072660     1.065017     1.057374     1.049731     1.042088     1.034445     1.026802
      1.019158     1.011515     1.003872     0.996229     0.988586     0.980943     0.973300     0.965657     0.958014     0.950371
      0.942727     0.935084     0.927441     0.919798     0.912155     0.904512     0.896869     0.889226     0.881583     0.873940
      0.866296     0.858653     0.851010     0.843367     0.835724     0.828081     0.820438     0.812795     0.805152     0.797508
      0.789865     0.782222     0.774579     0.766936     0.759293     0.751650     0.744007     0.736364     0.728721     0.721077
      0.713434     0.705791     0.698148     0.690505     0.682862     0.675219     0.667576     0.659933     0.652290     0.644646
      0.637003     0.629360     0.621717     0.614074     0.606431     0.598788     0.591145     0.583502     0.575858     0.568215
      0.560572     0.552929     0.545286     0.537643     0.530000     0.522357     0.514714     0.507071     0.499427     0.491784
      0.484141     0.476498     0.468855     0.461212     0.453569     0.445925     0.438282     0.430639     0.422996     0.415353
      0.407710     0.400067     0.392424     0.384780     0.377137     0.369494     0.361851     0.354208     0.346565     0.338922
      0.331278     0.323635     0.315992     0.308349     0.300706     0.293063     0.285420     0.277777     0.270133     0.262490
      0.254847     0.247204     0.239561     0.231918     0.224275     0.216631     0.208988     0.201345
 NY phased data points follow
  -4.83802E+01 -4.80841E+01 -4.08462E+01 -3.57260E+01 -3.12744E+01 -2.33697E+01 -1.61103E+01 -1.27673E+01 -4.62049E+00 -6.58682E+00
   3.98594E-01 -7.29587E+00 -1.30922E+01 -1.59503E+01 -2.40493E+01 -2.96955E+01 -3.71388E+01 -4.22337E+01 -3.52960E+01 -3.47858E+01
  -3.74634E+01 -3.44244E+01 -3.36233E+01 -3.62218E+01 -3.70044E+01 -3.22804E+01 -2.78702E+01 -2.97219E+01 -2.89855E+01 -2.58113E+01
  -2.49462E+01 -2.39109E+01 -2.60195E+01 -2.78311E+01 -2.84288E+01 -2.92365E+01 -3.16388E+01 -3.11180E+01 -3.53509E+01 -3.06729E+01
  -3.08610E+01 -3.10343E+01 -2.67220E+01 -2.25989E+01 -2.19559E+01 -2.10221E+01 -2.00591E+01 -2.03190E+01 -2.05312E+01 -2.27773E+01
  -2.75727E+01 -2.60721E+01 -2.62792E+01 -2.94028E+01 -2.57876E+01 -3.03641E+01 -2.60660E+01 -2.80253E+01 -2.84606E+01 -3.15643E+01
  -3.34001E+01 -3.37983E+01 -3.56687E+01 -3.86851E+01 -3.95620E+01 -3.89265E+01 -3.90034E+01 -3.82869E+01 -3.54619E+01 -3.92205E+01
  -3.45641E+01 -2.93814E+01 -3.04329E+01 -2.90868E+01 -3.14866E+01 -2.96277E+01 -3.02813E+01 -2.99937E+01 -3.28030E+01 -3.08552E+01
  -2.79942E+01 -2.85431E+01 -2.49377E+01 -2.69064E+01 -2.70900E+01 -2.77694E+01 -2.46052E+01 -2.42347E+01 -2.70667E+01 -2.46259E+01
  -1.96453E+01 -2.03943E+01 -1.99778E+01 -1.66232E+01 -1.90616E+01 -1.28484E+01 -4.59473E+00 -7.97152E+00  8.30972E+00  1.62325E+01
   3.15638E+01  4.06459E+01  4.19083E+01  4.08382E+01  3.29993E+01  2.06778E+01  9.02070E+00 -4.17645E-01 -4.33670E+00 -7.27577E+00
  -1.20329E+01 -2.04495E+01 -1.93237E+01 -1.99214E+01 -1.83770E+01 -1.76170E+01 -1.78888E+01 -1.59510E+01 -1.55615E+01 -1.11694E+01
  -8.95824E+00 -2.13380E+00  5.41946E+00  9.41403E+00  2.20835E+01  3.44051E+01  3.93052E+01  4.38354E+01  3.60864E+01  2.23045E+01
   2.01192E+01  5.55142E+00 -4.96072E+00 -9.44794E+00 -1.00595E+01 -1.83280E+01 -1.91280E+01 -2.47119E+01 -1.61633E+01 -1.82472E+01
  -1.84563E+01 -1.55459E+01 -1.85209E+01 -2.05986E+01 -1.76769E+01 -1.56870E+01 -1.91368E+01 -1.95373E+01 -1.85705E+01 -1.56669E+01
  -1.63147E+01 -2.20704E+01 -1.65108E+01 -1.71847E+01 -1.89644E+01 -1.88326E+01 -1.80666E+01 -1.71801E+01 -1.64808E+01 -2.10529E+01
  -2.00015E+01 -2.51754E+01 -2.37951E+01 -2.31661E+01 -2.04703E+01 -1.79390E+01 -2.07014E+01 -2.63805E+01 -2.80218E+01 -2.37880E+01
  -3.54510E+01 -3.20385E+01 -3.43749E+01 -2.97351E+01 -3.32532E+01 -3.81590E+01 -3.48025E+01 -2.91885E+01 -3.21460E+01 -2.85112E+01
  -2.82491E+01 -3.40770E+01 -3.19323E+01 -2.90908E+01 -2.61402E+01 -2.36136E+01 -2.75456E+01 -2.14054E+01 -1.19312E+01 -1.25042E+01
  -4.90997E+00 -9.68425E+00 -1.08698E+01 -9.96640E+00 -8.40985E+00 -1.28323E+01 -1.20498E+01 -1.54317E+01 -1.94532E+01 -1.68693E+01
  -1.69129E+01 -1.64617E+01 -1.58191E+01 -1.16914E+01 -1.00527E+01 -1.14438E+01 -1.79332E+01 -1.49134E+01 -1.68833E+01 -1.55955E+01
  -1.44579E+01 -1.64144E+01 -1.09305E+01 -1.06310E+01 -6.34447E+00 -3.99026E+00 -1.73585E+00 -2.49629E+00 -1.14880E+01 -1.34362E+01
  -1.12542E+01 -1.49614E+01 -1.01517E+01 -1.00207E+01 -1.29450E+01 -7.79246E+00 -6.55385E+00 -4.65389E-01  2.20218E+00 -3.70209E+00
  -2.60697E-02 -5.09015E+00 -6.64650E+00 -4.55965E+00 -4.93368E+00  2.13387E+00  1.43769E+00 -5.17960E+00 -1.56636E-01 -4.67146E+00
  -4.66590E+00 -3.90138E+00 -3.64130E+00 -2.19731E+00 -5.04746E+00  5.60472E+00  5.68492E+00  6.16071E+00  1.35395E+01  1.02494E+01
   1.56821E+01  1.98925E+01  2.67026E+01  4.41675E+01  4.56919E+01  5.90970E+01  6.62821E+01  7.26736E+01  8.65944E+01  9.95011E+01
   1.09842E+02  1.01017E+02  8.50522E+01  6.22012E+01  4.84974E+01  3.05921E+01  2.01090E+01  1.08222E+01  2.26732E+00  4.94254E+00
   2.17510E+00 -1.50353E+00 -1.91237E+00 -1.43065E+00  1.39110E+00 -2.63137E+00 -3.16020E+00 -3.49639E+00 -2.40573E+00 -3.55673E+00
  -4.52944E+00 -7.39478E+00 -8.32744E+00 -9.91363E+00 -8.15351E+00 -3.04707E+00 -8.10972E+00 -7.56794E+00 -6.50227E+00 -4.36755E+00
  -5.32889E+00 -8.44279E+00 -7.11644E+00 -6.25016E+00 -5.08747E+00 -7.73590E+00 -6.71127E+00 -8.59733E+00 -7.93003E+00 -1.11393E+01
  -6.39030E+00 -1.08082E+01 -7.37735E+00 -5.06175E+00 -6.22957E+00 -7.80989E+00 -1.22491E+01 -6.70929E+00 -6.92702E+00 -8.71153E+00
  -1.30775E+01 -1.25210E+01 -1.01519E+01 -1.03437E+01 -1.05214E+01 -1.47635E+01 -7.27557E+00 -1.37246E+01 -1.43252E+01 -1.68677E+01
  -1.84135E+01 -2.29775E+01 -1.84203E+01 -1.87329E+01 -1.78900E+01 -1.94078E+01 -1.46083E+01 -2.15572E+01 -1.96979E+01 -2.21814E+01
  -2.24097E+01 -2.30646E+01 -2.12084E+01 -1.92838E+01 -2.05792E+01 -1.64879E+01 -1.92553E+01 -1.52779E+01 -2.38585E+01 -1.84143E+01
  -2.38249E+01 -1.73402E+01 -1.74593E+01 -1.51413E+01 -1.65765E+01 -1.33669E+01 -1.21644E+01 -1.05114E+01 -1.05295E+01 -1.48172E+01
  -1.57134E+01 -1.21701E+01 -1.40994E+01 -8.94813E+00 -1.20702E+01 -1.34691E+01 -1.50979E+01 -1.50658E+01 -1.42724E+01 -1.45955E+01
  -1.45049E+01 -1.12119E+01 -9.75805E+00 -1.41033E+01 -1.31634E+01 -1.32286E+01 -1.03160E+01 -8.89291E+00 -1.19716E+01 -1.32837E+01
  -5.10843E+00 -1.26716E+01 -8.85757E+00 -7.61362E+00 -1.04868E+01 -1.09927E+01 -1.25387E+01 -1.75195E+01 -1.63903E+01 -1.26572E+01
  -1.31805E+01 -1.35613E+01 -1.07403E+01 -1.58245E+01 -1.45944E+01 -9.31531E+00 -9.90296E+00 -1.24475E+01 -1.14731E+01 -8.31289E+00
  -1.11394E+01 -9.49006E+00 -1.05124E+01 -9.04828E+00 -6.02646E+00 -4.25697E+00 -6.45076E+00 -7.26125E+00 -4.33534E+00 -2.95156E+00
  -4.84282E+00 -4.17494E+00 -2.95596E+00 -4.57572E+00 -3.74987E+00 -3.19801E+00  3.37148E+00  4.47692E+00 -3.11761E+00  3.77490E+00
  -4.75135E-01 -1.28807E+00 -1.82864E+00  4.06732E-01 -4.81141E+00 -1.53583E+00 -2.41630E-02 -5.45237E-02 -2.36547E+00 -5.13902E+00
  -3.45556E+00 -6.42064E+00 -7.61107E+00 -3.29318E+00 -4.85773E+00 -2.40274E+00 -7.41258E+00 -4.67586E+00 -5.79492E+00 -4.95339E+00
  -6.05221E+00 -8.22055E+00 -5.76511E+00 -2.00308E+00 -4.32370E+00 -3.79815E+00 -3.31943E+00 -7.53473E-01 -9.59032E+00 -4.17456E+00
  -5.16997E+00 -4.51874E+00  8.11434E-01 -2.09955E+00 -1.00920E+00 -4.61273E+00 -4.44748E+00 -5.27952E+00 -2.64137E+00 -3.95122E+00
  -3.58271E+00 -3.14137E+00  5.31930E+00 -5.74401E-01 -5.94331E+00 -3.97990E+00 -4.98335E+00 -5.03293E+00 -4.65131E-01 -1.69967E+00
  -2.30490E+00 -1.27463E+00 -3.22315E+00 -8.64589E+00 -3.32610E+00  3.66582E+00 -4.62655E+00  7.40491E-01 -2.26782E+00 -1.04021E+00
   5.64722E+00  7.42165E-01 -6.93304E+00 -4.15909E+00 -2.07931E+00  1.99299E+00 -6.47350E-01 -9.09631E-01 -5.42421E-01 -3.26196E+00
  -2.10098E+00  1.38667E+00  1.93815E+00  2.53245E-01 -3.32717E+00 -2.88099E+00  6.45896E-01  1.68798E+00  1.16934E+00  7.48990E-01
   2.72806E+00 -2.81119E+00 -2.61140E+00 -2.50356E+00  3.08696E-01 -3.09989E+00  1.01615E+00 -2.49341E+00
 NY points of the fit to the data follow
  -4.47197E+01 -4.24229E+01 -3.91103E+01 -3.50323E+01 -3.02873E+01 -2.47656E+01 -1.83603E+01 -1.16651E+01 -6.02415E+00 -3.00816E+00
  -3.50643E+00 -7.15744E+00 -1.26749E+01 -1.86510E+01 -2.40311E+01 -2.83947E+01 -3.18407E+01 -3.45037E+01 -3.64459E+01 -3.76623E+01
  -3.85057E+01 -3.87796E+01 -3.81055E+01 -3.71294E+01 -3.60950E+01 -3.46719E+01 -3.25692E+01 -2.97849E+01 -2.67262E+01 -2.39824E+01
  -2.23265E+01 -2.21934E+01 -2.33457E+01 -2.52931E+01 -2.75758E+01 -2.98127E+01 -3.18044E+01 -3.32949E+01 -3.39606E+01 -3.36336E+01
  -3.25235E+01 -3.11267E+01 -2.96097E+01 -2.79380E+01 -2.61629E+01 -2.45740E+01 -2.36295E+01 -2.36740E+01 -2.47439E+01 -2.65202E+01
  -2.84476E+01 -3.00338E+01 -3.10905E+01 -3.16251E+01 -3.18002E+01 -3.17162E+01 -3.13764E+01 -3.08435E+01 -3.03004E+01 -2.99627E+01
  -2.99888E+01 -3.03718E+01 -3.09660E+01 -3.14902E+01 -3.17470E+01 -3.16975E+01 -3.13845E+01 -3.08999E+01 -3.03283E+01 -2.97445E+01
  -2.92406E+01 -2.88901E+01 -2.87343E+01 -2.87450E+01 -2.88396E+01 -2.89387E+01 -2.89908E+01 -2.89687E+01 -2.88331E+01 -2.83983E+01
  -2.78939E+01 -2.74528E+01 -2.69601E+01 -2.63108E+01 -2.55103E+01 -2.47083E+01 -2.41557E+01 -2.40431E+01 -2.43293E+01 -2.48178E+01
  -2.52240E+01 -2.53570E+01 -2.51003E+01 -2.40652E+01 -2.06085E+01 -1.45096E+01 -8.18235E+00 -1.62832E+00  6.57062E+00  1.72029E+01
   2.92373E+01  3.96489E+01  4.48016E+01  4.26274E+01  3.40480E+01  2.22555E+01  1.04339E+01  3.24716E-01 -7.49554E+00 -1.32217E+01
  -1.73831E+01 -2.03372E+01 -2.19690E+01 -2.24140E+01 -2.24134E+01 -2.22494E+01 -2.19460E+01 -2.13203E+01 -1.92710E+01 -1.42795E+01
  -8.44248E+00 -2.71765E+00  3.99973E+00  1.27680E+01  2.33351E+01  3.36448E+01  4.04477E+01  4.10675E+01  3.54252E+01  2.59533E+01
   1.56553E+01  6.40727E+00 -1.20338E+00 -7.30550E+00 -1.22735E+01 -1.62824E+01 -1.89576E+01 -1.98382E+01 -1.95730E+01 -1.87643E+01
  -1.78354E+01 -1.71282E+01 -1.68200E+01 -1.68798E+01 -1.71780E+01 -1.76114E+01 -1.81119E+01 -1.86195E+01 -1.90920E+01 -1.95156E+01
  -1.98925E+01 -2.02176E+01 -2.05068E+01 -2.08287E+01 -2.11012E+01 -2.12121E+01 -2.12123E+01 -2.12076E+01 -2.14197E+01 -2.19234E+01
  -2.24938E+01 -2.28630E+01 -2.29175E+01 -2.27402E+01 -2.26113E+01 -2.27696E+01 -2.32584E+01 -2.39683E+01 -2.47107E+01 -2.53069E+01
  -2.55997E+01 -2.57599E+01 -2.60263E+01 -2.65288E+01 -2.71109E+01 -2.73916E+01 -2.72267E+01 -2.68097E+01 -2.64123E+01 -2.62607E+01
  -2.62266E+01 -2.59561E+01 -2.53428E+01 -2.44545E+01 -2.33967E+01 -2.22426E+01 -2.08955E+01 -1.92055E+01 -1.72213E+01 -1.52980E+01
  -1.39421E+01 -1.33311E+01 -1.34209E+01 -1.40188E+01 -1.48144E+01 -1.54778E+01 -1.56971E+01 -1.54252E+01 -1.47025E+01 -1.36588E+01
  -1.24875E+01 -1.13486E+01 -1.05244E+01 -1.01411E+01 -1.03085E+01 -1.12011E+01 -1.26272E+01 -1.41318E+01 -1.51804E+01 -1.56483E+01
  -1.55664E+01 -1.47669E+01 -1.31992E+01 -1.11347E+01 -9.20865E+00 -8.08275E+00 -8.02239E+00 -9.01534E+00 -1.09074E+01 -1.31760E+01
  -1.51814E+01 -1.62578E+01 -1.59952E+01 -1.45358E+01 -1.22981E+01 -9.79480E+00 -7.53705E+00 -5.91397E+00 -5.04786E+00 -4.65807E+00
  -4.36166E+00 -3.93119E+00 -3.25031E+00 -2.33635E+00 -1.33873E+00 -5.84702E-01 -2.43055E-01 -3.26136E-01 -8.05797E-01 -1.55799E+00
  -2.23399E+00 -2.48828E+00 -2.11570E+00 -1.06630E+00  4.97128E-01  2.26688E+00  3.96630E+00  5.94497E+00  8.56494E+00  1.10796E+01
   1.35482E+01  1.71016E+01  2.46567E+01  3.69861E+01  4.91633E+01  5.94479E+01  6.90608E+01  7.95130E+01  9.08372E+01  1.00404E+02
   1.03866E+02  9.82485E+01  8.44006E+01  6.64291E+01  4.86288E+01  3.34630E+01  2.17922E+01  1.31138E+01  6.53761E+00  1.54279E+00
  -1.59710E+00 -2.88727E+00 -3.51629E+00 -3.95340E+00 -4.34308E+00 -4.76310E+00 -5.25543E+00 -5.78838E+00 -6.31285E+00 -6.79173E+00
  -7.20082E+00 -7.52056E+00 -7.75565E+00 -7.91259E+00 -7.99505E+00 -8.02022E+00 -8.00975E+00 -7.97062E+00 -7.89502E+00 -7.77309E+00
  -7.61027E+00 -7.42778E+00 -7.24259E+00 -7.07581E+00 -6.94894E+00 -6.87111E+00 -6.84321E+00 -6.86316E+00 -6.92653E+00 -7.02961E+00
  -7.17492E+00 -7.36793E+00 -7.61412E+00 -7.91777E+00 -8.27973E+00 -8.69562E+00 -9.15680E+00 -9.65262E+00 -1.01731E+01 -1.07085E+01
  -1.12476E+01 -1.17811E+01 -1.23008E+01 -1.27989E+01 -1.32692E+01 -1.37064E+01 -1.41060E+01 -1.44624E+01 -1.47653E+01 -1.50009E+01
  -1.52094E+01 -1.54232E+01 -1.56213E+01 -1.57933E+01 -1.59611E+01 -1.61726E+01 -1.64747E+01 -1.68418E+01 -1.72068E+01 -1.75314E+01
  -1.77688E+01 -1.78791E+01 -1.78403E+01 -1.76530E+01 -1.73559E+01 -1.70204E+01 -1.67206E+01 -1.64963E+01 -1.63513E+01 -1.62596E+01
  -1.61853E+01 -1.61023E+01 -1.59978E+01 -1.58703E+01 -1.57220E+01 -1.55458E+01 -1.53369E+01 -1.51050E+01 -1.48575E+01 -1.46000E+01
  -1.43373E+01 -1.40743E+01 -1.38153E+01 -1.35649E+01 -1.33275E+01 -1.31074E+01 -1.29079E+01 -1.27320E+01 -1.25820E+01 -1.24595E+01
  -1.23655E+01 -1.23001E+01 -1.22625E+01 -1.22512E+01 -1.22639E+01 -1.22982E+01 -1.23507E+01 -1.24179E+01 -1.24957E+01 -1.25799E+01
  -1.26661E+01 -1.27502E+01 -1.28279E+01 -1.28953E+01 -1.29482E+01 -1.29828E+01 -1.29959E+01 -1.29843E+01 -1.29450E+01 -1.28753E+01
  -1.27725E+01 -1.26342E+01 -1.24583E+01 -1.22430E+01 -1.19864E+01 -1.16867E+01 -1.13427E+01 -1.09532E+01 -1.05181E+01 -1.00375E+01
  -9.51217E+00 -8.94395E+00 -8.33576E+00 -7.69186E+00 -7.01787E+00 -6.32070E+00 -5.60858E+00 -4.89105E+00 -4.17885E+00 -3.48365E+00
  -2.81752E+00 -2.19258E+00 -1.62048E+00 -1.11208E+00 -6.76951E-01 -3.22871E-01 -5.53767E-02  1.22514E-01  2.10322E-01  2.10077E-01
   1.26221E-01 -3.45123E-02 -2.63412E-01 -5.50259E-01 -8.83891E-01 -1.25273E+00 -1.64521E+00 -2.05012E+00 -2.45701E+00 -2.85650E+00
  -3.24061E+00 -3.60285E+00 -3.93814E+00 -4.24276E+00 -4.51427E+00 -4.75146E+00 -4.95420E+00 -5.12322E+00 -5.25985E+00 -5.36583E+00
  -5.44323E+00 -5.49434E+00 -5.52163E+00 -5.52752E+00 -5.51432E+00 -5.48414E+00 -5.43899E+00 -5.38079E+00 -5.31130E+00 -5.23210E+00
  -5.14452E+00 -5.04974E+00 -4.94885E+00 -4.84286E+00 -4.73272E+00 -4.61917E+00 -4.50285E+00 -4.38433E+00 -4.26418E+00 -4.14295E+00
  -4.02112E+00 -3.89905E+00 -3.77707E+00 -3.65544E+00 -3.53437E+00 -3.41403E+00 -3.29453E+00 -3.17591E+00 -3.05818E+00 -2.94144E+00
  -2.82576E+00 -2.71123E+00 -2.59784E+00 -2.48555E+00 -2.37434E+00 -2.26426E+00 -2.15536E+00 -2.04763E+00 -1.94102E+00 -1.83546E+00
  -1.73094E+00 -1.62747E+00 -1.52507E+00 -1.42369E+00 -1.32324E+00 -1.22365E+00 -1.12492E+00 -1.02707E+00 -9.30057E-01 -8.33811E-01
  -7.38236E-01 -6.43277E-01 -5.48934E-01 -4.55200E-01 -3.62014E-01 -2.69275E-01 -1.76894E-01 -8.48354E-02  6.90146E-03  9.83507E-02
   1.89600E-01  2.80760E-01  3.71905E-01  4.63059E-01  5.54238E-01  6.45509E-01  7.36985E-01  8.28780E-01
 NY background values follow
    -5.081E+01   -5.053E+01   -5.026E+01   -4.999E+01   -4.971E+01   -4.944E+01   -4.917E+01   -4.891E+01   -4.864E+01   -4.837E+01
    -4.810E+01   -4.784E+01   -4.757E+01   -4.731E+01   -4.704E+01   -4.678E+01   -4.652E+01   -4.626E+01   -4.600E+01   -4.574E+01
    -4.548E+01   -4.522E+01   -4.497E+01   -4.471E+01   -4.446E+01   -4.420E+01   -4.395E+01   -4.370E+01   -4.345E+01   -4.320E+01
    -4.295E+01   -4.270E+01   -4.245E+01   -4.220E+01   -4.196E+01   -4.171E+01   -4.147E+01   -4.123E+01   -4.098E+01   -4.074E+01
    -4.050E+01   -4.026E+01   -4.002E+01   -3.979E+01   -3.955E+01   -3.931E+01   -3.908E+01   -3.885E+01   -3.861E+01   -3.838E+01
    -3.815E+01   -3.792E+01   -3.769E+01   -3.746E+01   -3.724E+01   -3.701E+01   -3.679E+01   -3.656E+01   -3.634E+01   -3.612E+01
    -3.590E+01   -3.568E+01   -3.546E+01   -3.524E+01   -3.502E+01   -3.481E+01   -3.459E+01   -3.438E+01   -3.417E+01   -3.396E+01
    -3.374E+01   -3.354E+01   -3.333E+01   -3.312E+01   -3.291E+01   -3.271E+01   -3.251E+01   -3.230E+01   -3.210E+01   -3.190E+01
    -3.170E+01   -3.151E+01   -3.131E+01   -3.111E+01   -3.092E+01   -3.073E+01   -3.053E+01   -3.034E+01   -3.015E+01   -2.997E+01
    -2.978E+01   -2.959E+01   -2.941E+01   -2.922E+01   -2.904E+01   -2.886E+01   -2.868E+01   -2.851E+01   -2.833E+01   -2.815E+01
    -2.798E+01   -2.781E+01   -2.764E+01   -2.747E+01   -2.731E+01   -2.714E+01   -2.698E+01   -2.682E+01   -2.666E+01   -2.650E+01
    -2.635E+01   -2.620E+01   -2.605E+01   -2.590E+01   -2.575E+01   -2.561E+01   -2.547E+01   -2.533E+01   -2.519E+01   -2.505E+01
    -2.492E+01   -2.479E+01   -2.467E+01   -2.454E+01   -2.442E+01   -2.430E+01   -2.419E+01   -2.407E+01   -2.396E+01   -2.385E+01
    -2.375E+01   -2.365E+01   -2.355E+01   -2.345E+01   -2.336E+01   -2.327E+01   -2.318E+01   -2.310E+01   -2.302E+01   -2.294E+01
    -2.287E+01   -2.279E+01   -2.272E+01   -2.266E+01   -2.259E+01   -2.253E+01   -2.246E+01   -2.240E+01   -2.234E+01   -2.228E+01
    -2.223E+01   -2.217E+01   -2.211E+01   -2.206E+01   -2.200E+01   -2.195E+01   -2.189E+01   -2.184E+01   -2.178E+01   -2.173E+01
    -2.167E+01   -2.161E+01   -2.155E+01   -2.150E+01   -2.143E+01   -2.137E+01   -2.131E+01   -2.124E+01   -2.118E+01   -2.111E+01
    -2.104E+01   -2.096E+01   -2.089E+01   -2.081E+01   -2.073E+01   -2.064E+01   -2.055E+01   -2.046E+01   -2.037E+01   -2.027E+01
    -2.017E+01   -2.006E+01   -1.995E+01   -1.984E+01   -1.972E+01   -1.960E+01   -1.947E+01   -1.934E+01   -1.921E+01   -1.908E+01
    -1.894E+01   -1.880E+01   -1.866E+01   -1.852E+01   -1.837E+01   -1.823E+01   -1.808E+01   -1.793E+01   -1.778E+01   -1.762E+01
    -1.747E+01   -1.732E+01   -1.716E+01   -1.701E+01   -1.686E+01   -1.670E+01   -1.655E+01   -1.639E+01   -1.624E+01   -1.609E+01
    -1.594E+01   -1.579E+01   -1.564E+01   -1.549E+01   -1.534E+01   -1.520E+01   -1.506E+01   -1.492E+01   -1.478E+01   -1.465E+01
    -1.451E+01   -1.438E+01   -1.426E+01   -1.414E+01   -1.402E+01   -1.390E+01   -1.379E+01   -1.368E+01   -1.358E+01   -1.348E+01
    -1.338E+01   -1.329E+01   -1.320E+01   -1.312E+01   -1.304E+01   -1.296E+01   -1.289E+01   -1.282E+01   -1.276E+01   -1.270E+01
    -1.265E+01   -1.260E+01   -1.255E+01   -1.251E+01   -1.247E+01   -1.243E+01   -1.240E+01   -1.237E+01   -1.235E+01   -1.233E+01
    -1.232E+01   -1.231E+01   -1.230E+01   -1.230E+01   -1.230E+01   -1.231E+01   -1.232E+01   -1.234E+01   -1.236E+01   -1.238E+01
    -1.241E+01   -1.244E+01   -1.248E+01   -1.252E+01   -1.256E+01   -1.261E+01   -1.266E+01   -1.272E+01   -1.278E+01   -1.285E+01
    -1.292E+01   -1.299E+01   -1.307E+01   -1.315E+01   -1.324E+01   -1.333E+01   -1.343E+01   -1.352E+01   -1.362E+01   -1.373E+01
    -1.384E+01   -1.395E+01   -1.406E+01   -1.417E+01   -1.429E+01   -1.441E+01   -1.453E+01   -1.465E+01   -1.478E+01   -1.490E+01
    -1.503E+01   -1.516E+01   -1.529E+01   -1.542E+01   -1.555E+01   -1.568E+01   -1.581E+01   -1.594E+01   -1.607E+01   -1.620E+01
    -1.633E+01   -1.646E+01   -1.659E+01   -1.672E+01   -1.685E+01   -1.697E+01   -1.709E+01   -1.722E+01   -1.734E+01   -1.746E+01
    -1.757E+01   -1.769E+01   -1.780E+01   -1.791E+01   -1.801E+01   -1.811E+01   -1.821E+01   -1.831E+01   -1.840E+01   -1.849E+01
    -1.858E+01   -1.866E+01   -1.874E+01   -1.882E+01   -1.889E+01   -1.896E+01   -1.902E+01   -1.908E+01   -1.914E+01   -1.920E+01
    -1.925E+01   -1.930E+01   -1.934E+01   -1.938E+01   -1.942E+01   -1.945E+01   -1.948E+01   -1.951E+01   -1.954E+01   -1.956E+01
    -1.957E+01   -1.959E+01   -1.959E+01   -1.960E+01   -1.960E+01   -1.960E+01   -1.960E+01   -1.959E+01   -1.958E+01   -1.956E+01
    -1.954E+01   -1.952E+01   -1.950E+01   -1.947E+01   -1.943E+01   -1.940E+01   -1.936E+01   -1.931E+01   -1.927E+01   -1.921E+01
    -1.916E+01   -1.910E+01   -1.904E+01   -1.897E+01   -1.890E+01   -1.883E+01   -1.876E+01   -1.868E+01   -1.859E+01   -1.851E+01
    -1.842E+01   -1.833E+01   -1.823E+01   -1.813E+01   -1.803E+01   -1.792E+01   -1.782E+01   -1.770E+01   -1.759E+01   -1.747E+01
    -1.735E+01   -1.723E+01   -1.710E+01   -1.698E+01   -1.684E+01   -1.671E+01   -1.657E+01   -1.643E+01   -1.629E+01   -1.615E+01
    -1.600E+01   -1.585E+01   -1.570E+01   -1.555E+01   -1.539E+01   -1.523E+01   -1.507E+01   -1.491E+01   -1.475E+01   -1.458E+01
    -1.441E+01   -1.424E+01   -1.407E+01   -1.389E+01   -1.371E+01   -1.354E+01   -1.336E+01   -1.317E+01   -1.299E+01   -1.280E+01
    -1.262E+01   -1.243E+01   -1.224E+01   -1.205E+01   -1.186E+01   -1.166E+01   -1.147E+01   -1.128E+01   -1.108E+01   -1.088E+01
    -1.069E+01   -1.049E+01   -1.029E+01   -1.010E+01   -9.900E+00   -9.703E+00   -9.506E+00   -9.309E+00   -9.112E+00   -8.916E+00
    -8.720E+00   -8.525E+00   -8.331E+00   -8.138E+00   -7.945E+00   -7.753E+00   -7.563E+00   -7.374E+00   -7.186E+00   -6.999E+00
    -6.814E+00   -6.631E+00   -6.449E+00   -6.270E+00   -6.092E+00   -5.916E+00   -5.742E+00   -5.571E+00   -5.401E+00   -5.235E+00
    -5.070E+00   -4.909E+00   -4.750E+00   -4.594E+00   -4.440E+00   -4.289E+00   -4.141E+00   -3.996E+00   -3.853E+00   -3.712E+00
    -3.573E+00   -3.437E+00   -3.303E+00   -3.172E+00   -3.042E+00   -2.914E+00   -2.789E+00   -2.665E+00   -2.543E+00   -2.423E+00
    -2.305E+00   -2.188E+00   -2.072E+00   -1.959E+00   -1.846E+00   -1.736E+00   -1.626E+00   -1.518E+00   -1.411E+00   -1.305E+00
    -1.200E+00   -1.096E+00   -9.928E-01   -8.907E-01   -7.894E-01   -6.888E-01   -5.889E-01   -4.897E-01   -3.909E-01   -2.927E-01
    -1.949E-01   -9.749E-02   -3.563E-04    9.655E-02    1.933E-01    2.899E-01    3.865E-01    4.831E-01
 Ala      Conc. = 7.70E+01
