 LCModel (Version 6.3-1L) Copyright: S.W. Provencher.          Ref.: Magn. Reson. Med. 30:672-679 (1993).                
 Slice#3 Row#11 Col#4  K_02_press_1_raw_act
 36 lines in following concentration table = NCONC+1
    Conc.  %SD /Cr+PCr  Metabolite                                         
    0.000 999%   0.000 Ala                                                 
    0.000 999%   0.000 Asp                                                 
    0.000 999%   0.000 Cr                                                  
 1.48E+03  33%   1.000 PCr                                                 
   17.190 999% 1.2E-02 GABA                                                
    0.000 999%   0.000 Glc                                                 
    0.000 999%   0.000 Gln                                                 
 1.10E+03  61%   0.741 Glu                                                 
  298.429  13%   0.201 GPC                                                 
    0.000 999%   0.000 PCh                                                 
  246.442  49%   0.166 GSH                                                 
 2.39E+03  21%   1.610 Ins                                                 
  252.436 157%   0.170 Lac                                                 
  251.264  79%   0.169 NAA                                                 
 1.37E+03  13%   0.924 NAAG                                                
    0.000 999%   0.000 Scyllo                                              
    0.000 999%   0.000 Tau                                                 
    0.000 999%   0.000 -CrCH2                                              
  298.429  13%   0.201 GPC+PCh                                             
 1.62E+03  10%   1.093 NAA+NAAG                                            
 1.48E+03   9%   1.000 Cr+PCr                                              
 1.10E+03  61%   0.741 Glu+Gln                                             
    0.000 999%   0.000 Lip13a                                              
 3.14E+04  12%  21.155 Lip13b                                              
 7.48E+03  16%   5.042 Lip09                                               
 2.25E+03  17%   1.517 MM09                                                
 4.11E+03  14%   2.770 Lip20                                               
    0.000 999%   0.000-MM20                                                
  728.150  30%   0.491 MM12                                                
 8.85E+03   7%   5.960+MM14                                                
 3.78E+03  14%   2.549+MM17                                                
 3.14E+04  12%  21.155 Lip13a+Lip13b                                       
 4.10E+04   8%  27.605 MM14+Lip13a+Lip13b+MM12                             
 9.74E+03  12%   6.559 MM09+Lip09                                          
 4.11E+03  14%   2.770 MM20+Lip20                                          
   6 lines in following misc. output table
  FWHM = 0.107 ppm    S/N =  17                                            
  Data shift = 0.138 ppm                                                   
  Ph: 138 deg      24.7 deg/ppm                                            
  alphaB,S = 1.9E+00,   5.4E+01                                            
    9 spline knots.   Ns = 9(2)                                            
  (13) 7 infls.   (10) 2 extrs.                                            
  498 points on ppm-axis = NY
      4.000000     3.992357     3.984714     3.977070     3.969427     3.961784     3.954141     3.946497     3.938854     3.931211
      3.923568     3.915925     3.908281     3.900638     3.892995     3.885352     3.877708     3.870065     3.862422     3.854779
      3.847136     3.839492     3.831849     3.824206     3.816563     3.808919     3.801276     3.793633     3.785990     3.778347
      3.770703     3.763060     3.755417     3.747774     3.740130     3.732487     3.724844     3.717201     3.709558     3.701914
      3.694271     3.686628     3.678985     3.671341     3.663698     3.656055     3.648412     3.640769     3.633125     3.625482
      3.617839     3.610196     3.602552     3.594909     3.587266     3.579623     3.571980     3.564336     3.556693     3.549050
      3.541407     3.533763     3.526120     3.518477     3.510834     3.503191     3.495547     3.487904     3.480261     3.472618
      3.464974     3.457331     3.449688     3.442045     3.434402     3.426758     3.419115     3.411472     3.403829     3.396185
      3.388542     3.380899     3.373256     3.365613     3.357969     3.350326     3.342683     3.335040     3.327396     3.319753
      3.312110     3.304467     3.296824     3.289180     3.281537     3.273894     3.266251     3.258607     3.250964     3.243321
      3.235678     3.228034     3.220391     3.212748     3.205105     3.197462     3.189818     3.182175     3.174532     3.166889
      3.159245     3.151602     3.143959     3.136316     3.128673     3.121029     3.113386     3.105743     3.098100     3.090456
      3.082813     3.075170     3.067527     3.059884     3.052240     3.044597     3.036954     3.029311     3.021667     3.014024
      3.006381     2.998738     2.991095     2.983451     2.975808     2.968165     2.960522     2.952878     2.945235     2.937592
      2.929949     2.922306     2.914662     2.907019     2.899376     2.891733     2.884089     2.876446     2.868803     2.861160
      2.853517     2.845873     2.838230     2.830587     2.822944     2.815300     2.807657     2.800014     2.792371     2.784728
      2.777084     2.769441     2.761798     2.754155     2.746511     2.738868     2.731225     2.723582     2.715939     2.708295
      2.700652     2.693009     2.685366     2.677722     2.670079     2.662436     2.654793     2.647150     2.639506     2.631863
      2.624220     2.616577     2.608933     2.601290     2.593647     2.586004     2.578361     2.570717     2.563074     2.555431
      2.547788     2.540144     2.532501     2.524858     2.517215     2.509572     2.501928     2.494285     2.486642     2.478999
      2.471355     2.463712     2.456069     2.448426     2.440783     2.433139     2.425496     2.417853     2.410210     2.402566
      2.394923     2.387280     2.379637     2.371994     2.364350     2.356707     2.349064     2.341421     2.333777     2.326134
      2.318491     2.310848     2.303205     2.295561     2.287918     2.280275     2.272632     2.264988     2.257345     2.249702
      2.242059     2.234416     2.226772     2.219129     2.211486     2.203843     2.196199     2.188556     2.180913     2.173270
      2.165627     2.157983     2.150340     2.142697     2.135054     2.127410     2.119767     2.112124     2.104481     2.096838
      2.089194     2.081551     2.073908     2.066265     2.058621     2.050978     2.043335     2.035692     2.028049     2.020405
      2.012762     2.005119     1.997476     1.989833     1.982190     1.974546     1.966903     1.959260     1.951617     1.943974
      1.936331     1.928688     1.921045     1.913402     1.905759     1.898115     1.890472     1.882829     1.875186     1.867543
      1.859900     1.852257     1.844614     1.836971     1.829327     1.821684     1.814041     1.806398     1.798755     1.791112
      1.783469     1.775826     1.768183     1.760540     1.752896     1.745253     1.737610     1.729967     1.722324     1.714681
      1.707038     1.699395     1.691752     1.684108     1.676465     1.668822     1.661179     1.653536     1.645893     1.638250
      1.630607     1.622964     1.615321     1.607677     1.600034     1.592391     1.584748     1.577105     1.569462     1.561819
      1.554176     1.546533     1.538890     1.531246     1.523603     1.515960     1.508317     1.500674     1.493031     1.485388
      1.477745     1.470102     1.462458     1.454815     1.447172     1.439529     1.431886     1.424243     1.416600     1.408957
      1.401314     1.393671     1.386027     1.378384     1.370741     1.363098     1.355455     1.347812     1.340169     1.332526
      1.324883     1.317240     1.309596     1.301953     1.294310     1.286667     1.279024     1.271381     1.263738     1.256095
      1.248452     1.240808     1.233165     1.225522     1.217879     1.210236     1.202593     1.194950     1.187307     1.179664
      1.172021     1.164377     1.156734     1.149091     1.141448     1.133805     1.126162     1.118519     1.110876     1.103233
      1.095590     1.087946     1.080303     1.072660     1.065017     1.057374     1.049731     1.042088     1.034445     1.026802
      1.019158     1.011515     1.003872     0.996229     0.988586     0.980943     0.973300     0.965657     0.958014     0.950371
      0.942727     0.935084     0.927441     0.919798     0.912155     0.904512     0.896869     0.889226     0.881583     0.873940
      0.866296     0.858653     0.851010     0.843367     0.835724     0.828081     0.820438     0.812795     0.805152     0.797508
      0.789865     0.782222     0.774579     0.766936     0.759293     0.751650     0.744007     0.736364     0.728721     0.721077
      0.713434     0.705791     0.698148     0.690505     0.682862     0.675219     0.667576     0.659933     0.652290     0.644646
      0.637003     0.629360     0.621717     0.614074     0.606431     0.598788     0.591145     0.583502     0.575858     0.568215
      0.560572     0.552929     0.545286     0.537643     0.530000     0.522357     0.514714     0.507071     0.499427     0.491784
      0.484141     0.476498     0.468855     0.461212     0.453569     0.445925     0.438282     0.430639     0.422996     0.415353
      0.407710     0.400067     0.392424     0.384780     0.377137     0.369494     0.361851     0.354208     0.346565     0.338922
      0.331278     0.323635     0.315992     0.308349     0.300706     0.293063     0.285420     0.277777     0.270133     0.262490
      0.254847     0.247204     0.239561     0.231918     0.224275     0.216631     0.208988     0.201345
 NY phased data points follow
   2.51650E+02  2.48382E+02  2.48672E+02  2.45914E+02  2.48702E+02  2.45635E+02  2.46871E+02  2.44839E+02  2.40872E+02  2.40586E+02
   2.38242E+02  2.40472E+02  2.36382E+02  2.32013E+02  2.26742E+02  2.25399E+02  2.22479E+02  2.18004E+02  2.15369E+02  2.12098E+02
   2.08742E+02  2.07872E+02  2.06745E+02  2.04395E+02  2.01692E+02  1.96953E+02  1.98092E+02  1.96507E+02  1.94777E+02  1.92696E+02
   1.90239E+02  1.87917E+02  1.85629E+02  1.88640E+02  1.83500E+02  1.82354E+02  1.83700E+02  1.82127E+02  1.79762E+02  1.79013E+02
   1.79358E+02  1.77349E+02  1.77245E+02  1.74986E+02  1.75725E+02  1.75194E+02  1.74964E+02  1.70101E+02  1.73508E+02  1.68769E+02
   1.67586E+02  1.68761E+02  1.64986E+02  1.62736E+02  1.60363E+02  1.60819E+02  1.57256E+02  1.58273E+02  1.56790E+02  1.52316E+02
   1.53233E+02  1.47714E+02  1.46869E+02  1.43554E+02  1.42241E+02  1.43106E+02  1.40291E+02  1.39612E+02  1.37028E+02  1.36623E+02
   1.35288E+02  1.33618E+02  1.31917E+02  1.31413E+02  1.27684E+02  1.27555E+02  1.23078E+02  1.22248E+02  1.23862E+02  1.20047E+02
   1.17859E+02  1.14535E+02  1.16578E+02  1.11697E+02  1.05836E+02  1.04041E+02  1.06096E+02  1.06746E+02  1.07451E+02  1.03155E+02
   1.05106E+02  1.07290E+02  1.11716E+02  1.08747E+02  1.09451E+02  1.14254E+02  1.09386E+02  1.10954E+02  1.12693E+02  1.17206E+02
   1.11922E+02  1.15120E+02  1.12764E+02  1.13724E+02  1.10842E+02  1.06525E+02  1.01119E+02  9.93899E+01  9.78169E+01  9.51840E+01
   9.29049E+01  9.08901E+01  9.49984E+01  9.47140E+01  9.68183E+01  9.52985E+01  9.20173E+01  9.49917E+01  1.01530E+02  9.71520E+01
   1.03914E+02  1.01696E+02  1.07779E+02  1.07712E+02  1.11727E+02  1.12131E+02  1.14612E+02  1.12323E+02  1.09320E+02  1.05474E+02
   1.07956E+02  1.02474E+02  1.00523E+02  1.03789E+02  9.91565E+01  9.49519E+01  9.57289E+01  9.25084E+01  9.27967E+01  9.51170E+01
   9.02947E+01  9.12749E+01  8.90426E+01  9.07878E+01  9.02612E+01  9.10513E+01  8.46379E+01  8.52222E+01  8.29825E+01  8.43628E+01
   8.22887E+01  8.25252E+01  8.69284E+01  8.47558E+01  8.32624E+01  8.39577E+01  8.06643E+01  7.71413E+01  8.05372E+01  7.49855E+01
   7.97997E+01  7.33404E+01  7.28509E+01  7.26389E+01  7.35758E+01  7.16162E+01  7.07802E+01  6.59575E+01  6.11885E+01  6.33295E+01
   6.57859E+01  6.23006E+01  6.06943E+01  5.78475E+01  5.64897E+01  5.58661E+01  5.53412E+01  5.39145E+01  5.11895E+01  4.85677E+01
   5.04298E+01  5.21806E+01  4.97196E+01  5.18248E+01  4.63821E+01  4.99165E+01  5.13305E+01  4.95212E+01  5.11205E+01  5.00533E+01
   5.15090E+01  5.26721E+01  4.90796E+01  4.79953E+01  4.71350E+01  4.49248E+01  4.62625E+01  4.71136E+01  4.47604E+01  4.57147E+01
   4.54054E+01  4.32918E+01  4.22239E+01  4.34335E+01  4.00256E+01  4.08797E+01  3.49509E+01  3.97944E+01  3.54925E+01  3.89921E+01
   4.18425E+01  3.93260E+01  4.12232E+01  3.70854E+01  3.89283E+01  3.58004E+01  3.79410E+01  3.28735E+01  3.61068E+01  3.49933E+01
   3.35937E+01  3.33074E+01  3.39894E+01  3.38781E+01  3.41823E+01  3.28338E+01  3.32057E+01  3.09652E+01  3.26703E+01  3.01964E+01
   2.90356E+01  2.72825E+01  2.38205E+01  2.33499E+01  2.45654E+01  1.85941E+01  1.96457E+01  1.27352E+01  1.28797E+01  1.72454E+01
   1.32007E+01  1.08612E+01  1.21333E+01  1.77649E+01  2.09763E+01  2.67794E+01  2.97067E+01  3.05489E+01  3.42455E+01  3.47144E+01
   3.63601E+01  4.50770E+01  5.08064E+01  5.22053E+01  5.77386E+01  5.97351E+01  5.76160E+01  5.49632E+01  5.71679E+01  4.76515E+01
   4.36651E+01  4.16350E+01  3.83581E+01  3.60997E+01  3.35311E+01  3.18924E+01  2.63269E+01  2.91580E+01  2.12057E+01  2.05488E+01
   1.80480E+01  1.93377E+01  1.73845E+01  1.50452E+01  1.48892E+01  1.15841E+01  1.14415E+01  9.59077E+00  8.77990E+00  9.43388E+00
   7.87225E+00  4.66006E+00  3.11356E+00  5.48532E+00  3.49548E+00  3.40540E+00 -1.44331E+00  5.01836E-01 -2.08816E+00  1.48534E+00
  -1.79405E+00 -1.10288E+00  1.35224E+00 -1.45587E-01  1.04999E+00  1.84401E+00  7.02145E-01  2.93116E+00  5.30201E+00  6.74712E+00
   1.18995E+01  7.53849E+00  1.40542E+01  1.56035E+01  1.56721E+01  2.16916E+01  2.55319E+01  3.04471E+01  3.40106E+01  3.82167E+01
   4.61414E+01  5.10233E+01  5.50224E+01  6.05555E+01  6.69527E+01  7.43541E+01  7.83488E+01  8.62954E+01  9.38473E+01  1.00027E+02
   1.05247E+02  1.10230E+02  1.12566E+02  1.15638E+02  1.18794E+02  1.20754E+02  1.23375E+02  1.23497E+02  1.21609E+02  1.23430E+02
   1.19172E+02  1.16911E+02  1.17915E+02  1.16191E+02  1.12901E+02  1.08966E+02  1.04108E+02  9.92612E+01  1.00785E+02  9.28927E+01
   9.25998E+01  8.86708E+01  8.88692E+01  8.14085E+01  8.22004E+01  7.93207E+01  7.79280E+01  7.45575E+01  7.58008E+01  7.61747E+01
   7.27040E+01  7.21974E+01  6.77741E+01  6.71816E+01  6.49041E+01  6.29573E+01  6.47988E+01  6.08953E+01  6.06445E+01  5.75770E+01
   5.54505E+01  5.76908E+01  5.41074E+01  5.39877E+01  5.26198E+01  4.98712E+01  5.15190E+01  4.89490E+01  4.64138E+01  4.23610E+01
   4.44400E+01  4.55708E+01  4.39997E+01  4.09799E+01  4.55040E+01  4.68207E+01  4.25522E+01  4.23271E+01  4.30900E+01  3.83424E+01
   4.26754E+01  3.85138E+01  3.93480E+01  4.20994E+01  3.73030E+01  3.99329E+01  3.73844E+01  3.92227E+01  3.80098E+01  4.09394E+01
   4.04800E+01  3.71282E+01  3.70946E+01  3.44372E+01  3.55739E+01  3.68229E+01  3.44785E+01  3.38386E+01  3.24096E+01  3.31554E+01
   3.20716E+01  2.80559E+01  3.22367E+01  3.26789E+01  2.95134E+01  2.75574E+01  3.10494E+01  2.91543E+01  2.67489E+01  2.59828E+01
   2.75986E+01  2.37676E+01  2.61597E+01  2.33716E+01  2.30061E+01  2.53232E+01  2.05722E+01  2.04676E+01  1.97515E+01  2.40286E+01
   2.06249E+01  1.70457E+01  1.70731E+01  2.23098E+01  1.69899E+01  1.59564E+01  1.43675E+01  1.85868E+01  1.64685E+01  1.82677E+01
   1.57209E+01  1.58268E+01  1.64299E+01  1.57888E+01  1.69566E+01  1.50333E+01  1.38560E+01  1.43122E+01  1.26070E+01  1.45963E+01
   1.12216E+01  1.36061E+01  1.12055E+01  1.30050E+01  1.35496E+01  1.09921E+01  1.37878E+01  1.19314E+01  1.23499E+01  1.19390E+01
   1.24261E+01  1.12631E+01  8.27440E+00  8.76220E+00  1.13882E+01  9.03488E+00  1.00653E+01  1.21622E+01  6.33736E+00  9.40594E+00
   9.10815E+00  8.51864E+00  7.83176E+00  1.00145E+01  8.43041E+00  6.50981E+00  6.30580E+00  4.89467E+00  5.68848E+00  6.38914E+00
   7.01189E+00  6.12977E+00  4.44201E+00  4.43236E+00  2.37412E+00  6.89602E+00  2.86562E+00  1.97907E+00  3.87739E+00  3.01379E+00
   4.37342E+00 -6.94728E-01  1.87440E+00  3.96584E+00  4.85624E+00  3.16209E+00  6.14162E+00  9.41912E-01  4.36606E+00  1.81795E+00
   6.51645E+00  3.16383E+00  3.02167E+00  3.33306E-02  3.44102E+00  4.47026E+00  2.09028E+00  1.64769E+00
 NY points of the fit to the data follow
   2.45500E+02  2.45180E+02  2.45292E+02  2.45250E+02  2.46121E+02  2.46288E+02  2.46262E+02  2.45754E+02  2.43824E+02  2.42423E+02
   2.38960E+02  2.36801E+02  2.32227E+02  2.28906E+02  2.25724E+02  2.22880E+02  2.19896E+02  2.17652E+02  2.15216E+02  2.13233E+02
   2.10496E+02  2.09011E+02  2.06571E+02  2.05377E+02  2.03340E+02  2.02420E+02  2.00321E+02  1.99116E+02  1.95009E+02  1.92733E+02
   1.89367E+02  1.88110E+02  1.85979E+02  1.85515E+02  1.83929E+02  1.83524E+02  1.82188E+02  1.81796E+02  1.80497E+02  1.80066E+02
   1.78839E+02  1.77924E+02  1.76312E+02  1.75677E+02  1.74482E+02  1.74112E+02  1.72865E+02  1.72118E+02  1.70546E+02  1.68855E+02
   1.66407E+02  1.63989E+02  1.61874E+02  1.59875E+02  1.57993E+02  1.56586E+02  1.55291E+02  1.54000E+02  1.52834E+02  1.51287E+02
   1.50164E+02  1.48101E+02  1.46860E+02  1.44902E+02  1.44068E+02  1.42282E+02  1.41377E+02  1.39225E+02  1.38279E+02  1.37002E+02
   1.37058E+02  1.35972E+02  1.35507E+02  1.33943E+02  1.32898E+02  1.31052E+02  1.29622E+02  1.27676E+02  1.26239E+02  1.24041E+02
   1.22759E+02  1.20696E+02  1.19493E+02  1.16699E+02  1.12554E+02  1.09795E+02  1.08271E+02  1.06568E+02  1.06655E+02  1.05874E+02
   1.07084E+02  1.06889E+02  1.08387E+02  1.08375E+02  1.09944E+02  1.09798E+02  1.11016E+02  1.10980E+02  1.13122E+02  1.13106E+02
   1.14664E+02  1.14147E+02  1.14283E+02  1.12988E+02  1.11563E+02  1.09644E+02  1.07301E+02  1.04091E+02  9.75374E+01  9.52773E+01
   9.25594E+01  9.20965E+01  9.18101E+01  9.22456E+01  9.33172E+01  9.40137E+01  9.57936E+01  9.67826E+01  1.00185E+02  1.01152E+02
   1.04460E+02  1.05125E+02  1.08487E+02  1.08754E+02  1.12763E+02  1.11968E+02  1.13531E+02  1.11329E+02  1.10473E+02  1.07571E+02
   1.05651E+02  1.03074E+02  1.02039E+02  9.99344E+01  9.91604E+01  9.73329E+01  9.66631E+01  9.48274E+01  9.38290E+01  9.20380E+01
   9.08564E+01  8.96646E+01  8.95540E+01  8.86487E+01  8.81740E+01  8.65427E+01  8.35886E+01  8.26217E+01  8.23273E+01  8.20549E+01
   8.18059E+01  8.16339E+01  8.11846E+01  8.06471E+01  7.99805E+01  7.93372E+01  7.87071E+01  7.81326E+01  7.72349E+01  7.64330E+01
   7.51558E+01  7.42116E+01  7.27797E+01  7.18866E+01  7.05848E+01  6.94092E+01  6.78964E+01  6.67496E+01  6.53064E+01  6.42373E+01
   6.27762E+01  6.16618E+01  6.02383E+01  5.90201E+01  5.77784E+01  5.67816E+01  5.57832E+01  5.49985E+01  5.41245E+01  5.36848E+01
   5.31759E+01  5.26366E+01  5.20628E+01  5.15196E+01  5.10069E+01  5.04111E+01  4.99282E+01  4.94297E+01  4.89897E+01  4.86796E+01
   4.83416E+01  4.77731E+01  4.74045E+01  4.66762E+01  4.61893E+01  4.54815E+01  4.46662E+01  4.36517E+01  4.22556E+01  4.17425E+01
   4.08332E+01  4.06337E+01  4.01638E+01  4.00075E+01  3.99654E+01  3.96821E+01  3.91974E+01  3.83704E+01  3.78531E+01  3.67742E+01
   3.65000E+01  3.53979E+01  3.57647E+01  3.48898E+01  3.55372E+01  3.45337E+01  3.47476E+01  3.34807E+01  3.32740E+01  3.22120E+01
   3.19608E+01  3.16600E+01  3.21376E+01  3.25168E+01  3.31530E+01  3.34309E+01  3.34072E+01  3.31548E+01  3.24126E+01  3.16651E+01
   3.07900E+01  3.00124E+01  2.94331E+01  2.85971E+01  2.79067E+01  2.66424E+01  2.47309E+01  1.93060E+01  1.61956E+01  1.50832E+01
   1.42661E+01  1.58996E+01  1.62807E+01  1.90257E+01  2.11694E+01  2.44675E+01  2.76734E+01  3.11327E+01  3.48913E+01  3.78190E+01
   4.20849E+01  4.60691E+01  5.08094E+01  5.29079E+01  5.63652E+01  5.53114E+01  5.70111E+01  5.35172E+01  5.32764E+01  4.87611E+01
   4.73746E+01  4.37692E+01  4.19739E+01  3.84082E+01  3.60819E+01  3.23647E+01  3.00602E+01  2.64347E+01  2.41702E+01  2.10481E+01
   1.91956E+01  1.75058E+01  1.60544E+01  1.42699E+01  1.24074E+01  8.81029E+00  6.73925E+00  6.28677E+00  5.39811E+00  5.22280E+00
   4.19200E+00  3.99804E+00  3.59290E+00  3.68678E+00  3.35240E+00  3.51110E+00  3.25526E+00  3.44557E+00  3.32504E+00  3.59564E+00
   3.60742E+00  3.91678E+00  4.03548E+00  4.39381E+00  4.60730E+00  5.07857E+00  5.57144E+00  6.28070E+00  7.07145E+00  8.11487E+00
   9.35249E+00  1.08913E+01  1.26904E+01  1.48354E+01  1.73891E+01  2.03427E+01  2.37677E+01  2.76636E+01  3.20625E+01  3.69303E+01
   4.22821E+01  4.79938E+01  5.40884E+01  6.04467E+01  6.70102E+01  7.36452E+01  8.02658E+01  8.67282E+01  9.29489E+01  9.87681E+01
   1.04094E+02  1.08832E+02  1.12908E+02  1.16260E+02  1.18854E+02  1.20669E+02  1.21705E+02  1.21972E+02  1.21469E+02  1.20187E+02
   1.18732E+02  1.16937E+02  1.14702E+02  1.12358E+02  1.09627E+02  1.07000E+02  1.04076E+02  1.00871E+02  9.77319E+01  9.47380E+01
   9.18813E+01  8.92739E+01  8.68712E+01  8.47801E+01  8.27175E+01  8.08127E+01  7.89912E+01  7.71735E+01  7.55464E+01  7.37822E+01
   7.23010E+01  7.08431E+01  6.95811E+01  6.83379E+01  6.71063E+01  6.57525E+01  6.44128E+01  6.28255E+01  6.13286E+01  5.95537E+01
   5.79645E+01  5.62565E+01  5.47421E+01  5.32001E+01  5.17486E+01  5.02602E+01  4.88779E+01  4.74023E+01  4.62954E+01  4.52572E+01
   4.43079E+01  4.35002E+01  4.27908E+01  4.22145E+01  4.17255E+01  4.11157E+01  4.06904E+01  4.04061E+01  4.02230E+01  4.01179E+01
   4.00708E+01  4.00625E+01  4.00734E+01  4.00845E+01  4.00777E+01  4.00361E+01  3.99449E+01  3.97921E+01  3.95688E+01  3.92698E+01
   3.88931E+01  3.84402E+01  3.79157E+01  3.73271E+01  3.66840E+01  3.59975E+01  3.52793E+01  3.45413E+01  3.37950E+01  3.30510E+01
   3.23181E+01  3.16038E+01  3.09135E+01  3.02508E+01  2.96175E+01  2.90140E+01  2.84391E+01  2.78905E+01  2.73652E+01  2.68596E+01
   2.63700E+01  2.58923E+01  2.54230E+01  2.49586E+01  2.44959E+01  2.40326E+01  2.35665E+01  2.30962E+01  2.26208E+01  2.21397E+01
   2.16529E+01  2.11607E+01  2.06638E+01  2.01630E+01  1.96595E+01  1.91545E+01  1.86493E+01  1.81454E+01  1.76442E+01  1.71470E+01
   1.66552E+01  1.61700E+01  1.56927E+01  1.52241E+01  1.47654E+01  1.43172E+01  1.38803E+01  1.34552E+01  1.30425E+01  1.26424E+01
   1.22552E+01  1.18810E+01  1.15198E+01  1.11716E+01  1.08365E+01  1.05141E+01  1.02043E+01  9.90673E+00  9.62116E+00  9.34727E+00
   9.08471E+00  8.83311E+00  8.59204E+00  8.36110E+00  8.13987E+00  7.92799E+00  7.72505E+00  7.53063E+00  7.34429E+00  7.16565E+00
   6.99432E+00  6.82997E+00  6.67219E+00  6.52064E+00  6.37492E+00  6.23472E+00  6.09973E+00  5.96965E+00  5.84416E+00  5.72295E+00
   5.60572E+00  5.49221E+00  5.38221E+00  5.27545E+00  5.17168E+00  5.07064E+00  4.97211E+00  4.87590E+00  4.78183E+00  4.68969E+00
   4.59927E+00  4.51036E+00  4.42281E+00  4.33649E+00  4.25123E+00  4.16685E+00  4.08318E+00  4.00008E+00  3.91743E+00  3.83511E+00
   3.75298E+00  3.67088E+00  3.58867E+00  3.50622E+00  3.42342E+00  3.34015E+00  3.25619E+00  3.17132E+00
 NY background values follow
     2.317E+02    2.301E+02    2.285E+02    2.269E+02    2.253E+02    2.238E+02    2.222E+02    2.206E+02    2.190E+02    2.174E+02
     2.158E+02    2.142E+02    2.127E+02    2.111E+02    2.095E+02    2.079E+02    2.063E+02    2.047E+02    2.032E+02    2.016E+02
     2.000E+02    1.984E+02    1.969E+02    1.953E+02    1.937E+02    1.922E+02    1.906E+02    1.891E+02    1.875E+02    1.860E+02
     1.844E+02    1.829E+02    1.813E+02    1.798E+02    1.783E+02    1.768E+02    1.753E+02    1.737E+02    1.722E+02    1.708E+02
     1.693E+02    1.678E+02    1.663E+02    1.648E+02    1.634E+02    1.619E+02    1.605E+02    1.591E+02    1.576E+02    1.562E+02
     1.548E+02    1.534E+02    1.520E+02    1.506E+02    1.493E+02    1.479E+02    1.465E+02    1.452E+02    1.439E+02    1.425E+02
     1.412E+02    1.399E+02    1.386E+02    1.374E+02    1.361E+02    1.348E+02    1.336E+02    1.324E+02    1.312E+02    1.300E+02
     1.288E+02    1.276E+02    1.264E+02    1.253E+02    1.242E+02    1.230E+02    1.219E+02    1.208E+02    1.198E+02    1.187E+02
     1.177E+02    1.166E+02    1.156E+02    1.146E+02    1.136E+02    1.127E+02    1.117E+02    1.108E+02    1.099E+02    1.090E+02
     1.081E+02    1.072E+02    1.063E+02    1.055E+02    1.047E+02    1.038E+02    1.030E+02    1.022E+02    1.014E+02    1.007E+02
     9.991E+01    9.917E+01    9.843E+01    9.770E+01    9.698E+01    9.628E+01    9.558E+01    9.490E+01    9.422E+01    9.355E+01
     9.289E+01    9.224E+01    9.160E+01    9.097E+01    9.034E+01    8.972E+01    8.911E+01    8.851E+01    8.791E+01    8.732E+01
     8.674E+01    8.616E+01    8.558E+01    8.501E+01    8.445E+01    8.389E+01    8.334E+01    8.279E+01    8.224E+01    8.170E+01
     8.116E+01    8.062E+01    8.008E+01    7.955E+01    7.902E+01    7.849E+01    7.797E+01    7.744E+01    7.692E+01    7.640E+01
     7.587E+01    7.535E+01    7.483E+01    7.431E+01    7.378E+01    7.326E+01    7.273E+01    7.220E+01    7.167E+01    7.114E+01
     7.061E+01    7.007E+01    6.953E+01    6.899E+01    6.845E+01    6.790E+01    6.734E+01    6.678E+01    6.622E+01    6.565E+01
     6.508E+01    6.450E+01    6.392E+01    6.333E+01    6.273E+01    6.213E+01    6.152E+01    6.090E+01    6.028E+01    5.965E+01
     5.901E+01    5.837E+01    5.772E+01    5.707E+01    5.641E+01    5.574E+01    5.507E+01    5.440E+01    5.371E+01    5.303E+01
     5.234E+01    5.164E+01    5.095E+01    5.024E+01    4.954E+01    4.883E+01    4.812E+01    4.740E+01    4.668E+01    4.596E+01
     4.523E+01    4.451E+01    4.378E+01    4.305E+01    4.232E+01    4.158E+01    4.085E+01    4.011E+01    3.937E+01    3.863E+01
     3.789E+01    3.715E+01    3.641E+01    3.567E+01    3.493E+01    3.419E+01    3.345E+01    3.272E+01    3.198E+01    3.124E+01
     3.051E+01    2.977E+01    2.904E+01    2.831E+01    2.758E+01    2.686E+01    2.613E+01    2.541E+01    2.470E+01    2.398E+01
     2.327E+01    2.256E+01    2.186E+01    2.115E+01    2.046E+01    1.977E+01    1.908E+01    1.839E+01    1.771E+01    1.704E+01
     1.637E+01    1.571E+01    1.505E+01    1.440E+01    1.375E+01    1.311E+01    1.247E+01    1.185E+01    1.123E+01    1.061E+01
     1.000E+01    9.404E+00    8.811E+00    8.226E+00    7.649E+00    7.080E+00    6.519E+00    5.966E+00    5.422E+00    4.887E+00
     4.361E+00    3.843E+00    3.335E+00    2.835E+00    2.343E+00    1.860E+00    1.386E+00    9.195E-01    4.618E-01    1.239E-02
    -4.288E-01   -8.618E-01   -1.287E+00   -1.703E+00   -2.112E+00   -2.513E+00   -2.906E+00   -3.291E+00   -3.669E+00   -4.039E+00
    -4.401E+00   -4.755E+00   -5.102E+00   -5.442E+00   -5.774E+00   -6.099E+00   -6.416E+00   -6.727E+00   -7.030E+00   -7.326E+00
    -7.615E+00   -7.897E+00   -8.173E+00   -8.441E+00   -8.703E+00   -8.958E+00   -9.206E+00   -9.447E+00   -9.683E+00   -9.911E+00
    -1.013E+01   -1.035E+01   -1.056E+01   -1.076E+01   -1.096E+01   -1.115E+01   -1.134E+01   -1.151E+01   -1.169E+01   -1.185E+01
    -1.202E+01   -1.217E+01   -1.232E+01   -1.247E+01   -1.260E+01   -1.274E+01   -1.286E+01   -1.299E+01   -1.310E+01   -1.322E+01
    -1.332E+01   -1.342E+01   -1.352E+01   -1.361E+01   -1.370E+01   -1.378E+01   -1.386E+01   -1.393E+01   -1.400E+01   -1.406E+01
    -1.412E+01   -1.417E+01   -1.422E+01   -1.426E+01   -1.430E+01   -1.434E+01   -1.437E+01   -1.440E+01   -1.442E+01   -1.444E+01
    -1.445E+01   -1.447E+01   -1.447E+01   -1.448E+01   -1.448E+01   -1.447E+01   -1.447E+01   -1.445E+01   -1.444E+01   -1.442E+01
    -1.440E+01   -1.437E+01   -1.435E+01   -1.431E+01   -1.428E+01   -1.424E+01   -1.420E+01   -1.416E+01   -1.411E+01   -1.406E+01
    -1.401E+01   -1.395E+01   -1.389E+01   -1.383E+01   -1.377E+01   -1.370E+01   -1.363E+01   -1.356E+01   -1.349E+01   -1.341E+01
    -1.333E+01   -1.325E+01   -1.317E+01   -1.308E+01   -1.299E+01   -1.290E+01   -1.281E+01   -1.272E+01   -1.262E+01   -1.252E+01
    -1.242E+01   -1.232E+01   -1.222E+01   -1.211E+01   -1.201E+01   -1.190E+01   -1.179E+01   -1.168E+01   -1.157E+01   -1.145E+01
    -1.134E+01   -1.122E+01   -1.111E+01   -1.099E+01   -1.087E+01   -1.075E+01   -1.063E+01   -1.051E+01   -1.038E+01   -1.026E+01
    -1.013E+01   -1.001E+01   -9.883E+00   -9.757E+00   -9.630E+00   -9.503E+00   -9.375E+00   -9.247E+00   -9.119E+00   -8.990E+00
    -8.861E+00   -8.732E+00   -8.603E+00   -8.474E+00   -8.345E+00   -8.216E+00   -8.087E+00   -7.958E+00   -7.830E+00   -7.702E+00
    -7.574E+00   -7.446E+00   -7.319E+00   -7.193E+00   -7.067E+00   -6.942E+00   -6.817E+00   -6.693E+00   -6.570E+00   -6.447E+00
    -6.325E+00   -6.204E+00   -6.084E+00   -5.965E+00   -5.846E+00   -5.728E+00   -5.612E+00   -5.496E+00   -5.381E+00   -5.267E+00
    -5.154E+00   -5.042E+00   -4.931E+00   -4.821E+00   -4.712E+00   -4.604E+00   -4.497E+00   -4.392E+00   -4.288E+00   -4.185E+00
    -4.083E+00   -3.982E+00   -3.883E+00   -3.785E+00   -3.689E+00   -3.593E+00   -3.499E+00   -3.407E+00   -3.316E+00   -3.226E+00
    -3.138E+00   -3.052E+00   -2.966E+00   -2.883E+00   -2.801E+00   -2.721E+00   -2.642E+00   -2.565E+00   -2.489E+00   -2.416E+00
    -2.344E+00   -2.273E+00   -2.205E+00   -2.138E+00   -2.074E+00   -2.011E+00   -1.949E+00   -1.890E+00   -1.833E+00   -1.777E+00
    -1.724E+00   -1.673E+00   -1.623E+00   -1.576E+00   -1.531E+00   -1.488E+00   -1.446E+00   -1.408E+00   -1.371E+00   -1.336E+00
    -1.304E+00   -1.274E+00   -1.246E+00   -1.220E+00   -1.197E+00   -1.176E+00   -1.158E+00   -1.141E+00   -1.128E+00   -1.116E+00
    -1.107E+00   -1.101E+00   -1.097E+00   -1.096E+00   -1.097E+00   -1.101E+00   -1.107E+00   -1.116E+00
 PCr      Conc. = 1.48E+03
