 LCModel (Version 6.3-1L) Copyright: S.W. Provencher.          Ref.: Magn. Reson. Med. 30:672-679 (1993).                
 Slice#2 Row#14 Col#5  K_02_press_1_raw_act
 36 lines in following concentration table = NCONC+1
    Conc.  %SD /Cr+PCr  Metabolite                                         
  931.687  32%   1.681 Ala                                                 
    0.000 999%   0.000 Asp                                                 
    0.000 999%   0.000 Cr                                                  
  554.324   9%   1.000 PCr                                                 
   36.024 128% 6.5E-02 GABA                                                
    0.000 999%   0.000 Glc                                                 
    0.000 999%   0.000 Gln                                                 
    0.000 999%   0.000 Glu                                                 
  231.540  10%   0.418 GPC                                                 
    0.000 999%   0.000 PCh                                                 
    0.000 999%   0.000 GSH                                                 
 2.35E+03  10%   4.245 Ins                                                 
 1.49E+03  28%   2.692 Lac                                                 
    0.000 999%   0.000 NAA                                                 
   76.974  61%   0.139 NAAG                                                
   15.496  89% 2.8E-02 Scyllo                                              
    0.000 999%   0.000 Tau                                                 
    0.000 999%   0.000 -CrCH2                                              
  231.540  10%   0.418 GPC+PCh                                             
   76.974  61%   0.139 NAA+NAAG                                            
  554.324   9%   1.000 Cr+PCr                                              
    0.000 999%   0.000 Glu+Gln                                             
  414.839  44%   0.748 Lip13a                                              
    0.000 999%   0.000 Lip13b                                              
    0.000 999%   0.000 Lip09                                               
    7.970 747% 1.4E-02 MM09                                                
  146.381  84%   0.264 Lip20                                               
    0.000 999%   0.000 MM20                                                
    0.000 999%   0.000 MM12                                                
  333.449  44%   0.602 MM14                                                
  238.993  37%   0.431 MM17                                                
  414.839  44%   0.748 Lip13a+Lip13b                                       
  748.288  35%   1.350 MM14+Lip13a+Lip13b+MM12                             
    7.970 747% 1.4E-02 MM09+Lip09                                          
  146.381  84%   0.264 MM20+Lip20                                          
   6 lines in following misc. output table
  FWHM = 0.153 ppm    S/N =   3                                            
  Data shift = 0.061 ppm                                                   
  Ph: 147 deg      55.9 deg/ppm                                            
  alphaB,S = 7.2E-01,   1.1E+02                                            
   13 spline knots.   Ns = 9(2)                                            
  (14)11 infls.   (12) 1 extrs.                                            
  498 points on ppm-axis = NY
      4.000000     3.992357     3.984714     3.977070     3.969427     3.961784     3.954141     3.946497     3.938854     3.931211
      3.923568     3.915925     3.908281     3.900638     3.892995     3.885352     3.877708     3.870065     3.862422     3.854779
      3.847136     3.839492     3.831849     3.824206     3.816563     3.808919     3.801276     3.793633     3.785990     3.778347
      3.770703     3.763060     3.755417     3.747774     3.740130     3.732487     3.724844     3.717201     3.709558     3.701914
      3.694271     3.686628     3.678985     3.671341     3.663698     3.656055     3.648412     3.640769     3.633125     3.625482
      3.617839     3.610196     3.602552     3.594909     3.587266     3.579623     3.571980     3.564336     3.556693     3.549050
      3.541407     3.533763     3.526120     3.518477     3.510834     3.503191     3.495547     3.487904     3.480261     3.472618
      3.464974     3.457331     3.449688     3.442045     3.434402     3.426758     3.419115     3.411472     3.403829     3.396185
      3.388542     3.380899     3.373256     3.365613     3.357969     3.350326     3.342683     3.335040     3.327396     3.319753
      3.312110     3.304467     3.296824     3.289180     3.281537     3.273894     3.266251     3.258607     3.250964     3.243321
      3.235678     3.228034     3.220391     3.212748     3.205105     3.197462     3.189818     3.182175     3.174532     3.166889
      3.159245     3.151602     3.143959     3.136316     3.128673     3.121029     3.113386     3.105743     3.098100     3.090456
      3.082813     3.075170     3.067527     3.059884     3.052240     3.044597     3.036954     3.029311     3.021667     3.014024
      3.006381     2.998738     2.991095     2.983451     2.975808     2.968165     2.960522     2.952878     2.945235     2.937592
      2.929949     2.922306     2.914662     2.907019     2.899376     2.891733     2.884089     2.876446     2.868803     2.861160
      2.853517     2.845873     2.838230     2.830587     2.822944     2.815300     2.807657     2.800014     2.792371     2.784728
      2.777084     2.769441     2.761798     2.754155     2.746511     2.738868     2.731225     2.723582     2.715939     2.708295
      2.700652     2.693009     2.685366     2.677722     2.670079     2.662436     2.654793     2.647150     2.639506     2.631863
      2.624220     2.616577     2.608933     2.601290     2.593647     2.586004     2.578361     2.570717     2.563074     2.555431
      2.547788     2.540144     2.532501     2.524858     2.517215     2.509572     2.501928     2.494285     2.486642     2.478999
      2.471355     2.463712     2.456069     2.448426     2.440783     2.433139     2.425496     2.417853     2.410210     2.402566
      2.394923     2.387280     2.379637     2.371994     2.364350     2.356707     2.349064     2.341421     2.333777     2.326134
      2.318491     2.310848     2.303205     2.295561     2.287918     2.280275     2.272632     2.264988     2.257345     2.249702
      2.242059     2.234416     2.226772     2.219129     2.211486     2.203843     2.196199     2.188556     2.180913     2.173270
      2.165627     2.157983     2.150340     2.142697     2.135054     2.127410     2.119767     2.112124     2.104481     2.096838
      2.089194     2.081551     2.073908     2.066265     2.058621     2.050978     2.043335     2.035692     2.028049     2.020405
      2.012762     2.005119     1.997476     1.989833     1.982190     1.974546     1.966903     1.959260     1.951617     1.943974
      1.936331     1.928688     1.921045     1.913402     1.905759     1.898115     1.890472     1.882829     1.875186     1.867543
      1.859900     1.852257     1.844614     1.836971     1.829327     1.821684     1.814041     1.806398     1.798755     1.791112
      1.783469     1.775826     1.768183     1.760540     1.752896     1.745253     1.737610     1.729967     1.722324     1.714681
      1.707038     1.699395     1.691752     1.684108     1.676465     1.668822     1.661179     1.653536     1.645893     1.638250
      1.630607     1.622964     1.615321     1.607677     1.600034     1.592391     1.584748     1.577105     1.569462     1.561819
      1.554176     1.546533     1.538890     1.531246     1.523603     1.515960     1.508317     1.500674     1.493031     1.485388
      1.477745     1.470102     1.462458     1.454815     1.447172     1.439529     1.431886     1.424243     1.416600     1.408957
      1.401314     1.393671     1.386027     1.378384     1.370741     1.363098     1.355455     1.347812     1.340169     1.332526
      1.324883     1.317240     1.309596     1.301953     1.294310     1.286667     1.279024     1.271381     1.263738     1.256095
      1.248452     1.240808     1.233165     1.225522     1.217879     1.210236     1.202593     1.194950     1.187307     1.179664
      1.172021     1.164377     1.156734     1.149091     1.141448     1.133805     1.126162     1.118519     1.110876     1.103233
      1.095590     1.087946     1.080303     1.072660     1.065017     1.057374     1.049731     1.042088     1.034445     1.026802
      1.019158     1.011515     1.003872     0.996229     0.988586     0.980943     0.973300     0.965657     0.958014     0.950371
      0.942727     0.935084     0.927441     0.919798     0.912155     0.904512     0.896869     0.889226     0.881583     0.873940
      0.866296     0.858653     0.851010     0.843367     0.835724     0.828081     0.820438     0.812795     0.805152     0.797508
      0.789865     0.782222     0.774579     0.766936     0.759293     0.751650     0.744007     0.736364     0.728721     0.721077
      0.713434     0.705791     0.698148     0.690505     0.682862     0.675219     0.667576     0.659933     0.652290     0.644646
      0.637003     0.629360     0.621717     0.614074     0.606431     0.598788     0.591145     0.583502     0.575858     0.568215
      0.560572     0.552929     0.545286     0.537643     0.530000     0.522357     0.514714     0.507071     0.499427     0.491784
      0.484141     0.476498     0.468855     0.461212     0.453569     0.445925     0.438282     0.430639     0.422996     0.415353
      0.407710     0.400067     0.392424     0.384780     0.377137     0.369494     0.361851     0.354208     0.346565     0.338922
      0.331278     0.323635     0.315992     0.308349     0.300706     0.293063     0.285420     0.277777     0.270133     0.262490
      0.254847     0.247204     0.239561     0.231918     0.224275     0.216631     0.208988     0.201345
 NY phased data points follow
   1.52680E+02  1.53867E+02  1.48539E+02  1.46994E+02  1.46277E+02  1.45158E+02  1.43094E+02  1.41377E+02  1.38545E+02  1.39660E+02
   1.37213E+02  1.34207E+02  1.35294E+02  1.31465E+02  1.32185E+02  1.28787E+02  1.25759E+02  1.24820E+02  1.21916E+02  1.22630E+02
   1.20314E+02  1.20701E+02  1.16366E+02  1.15112E+02  1.18444E+02  1.13955E+02  1.11060E+02  1.13524E+02  1.10131E+02  1.10225E+02
   1.11072E+02  1.09736E+02  1.05621E+02  1.08473E+02  1.07365E+02  1.04799E+02  1.06265E+02  1.04895E+02  1.00681E+02  1.03580E+02
   1.01898E+02  1.04192E+02  1.02852E+02  1.00609E+02  1.01185E+02  1.00300E+02  9.99997E+01  9.90091E+01  9.81520E+01  9.70958E+01
   9.72696E+01  9.61992E+01  9.36575E+01  9.52804E+01  9.40017E+01  9.11153E+01  9.08224E+01  8.97074E+01  9.05924E+01  8.88487E+01
   8.80938E+01  8.71739E+01  8.54851E+01  8.45002E+01  8.19547E+01  8.19135E+01  7.95527E+01  8.04188E+01  7.82722E+01  7.92074E+01
   7.66544E+01  7.69104E+01  7.58335E+01  7.61316E+01  7.33340E+01  7.42859E+01  7.25932E+01  7.26165E+01  7.05995E+01  7.05229E+01
   7.12833E+01  6.91050E+01  6.89039E+01  6.56093E+01  6.77172E+01  6.77427E+01  6.67558E+01  6.48222E+01  6.87295E+01  6.48572E+01
   6.54192E+01  6.37382E+01  6.28104E+01  6.17813E+01  6.27802E+01  6.24375E+01  6.31710E+01  6.23892E+01  6.29523E+01  6.52063E+01
   6.58538E+01  6.46698E+01  6.10838E+01  6.24899E+01  6.25826E+01  6.28098E+01  6.00186E+01  5.91037E+01  6.21749E+01  6.05092E+01
   5.82538E+01  5.98048E+01  6.02731E+01  5.82667E+01  5.70995E+01  5.61409E+01  5.43322E+01  5.89865E+01  5.56622E+01  5.56741E+01
   5.47009E+01  5.42172E+01  5.51742E+01  5.53220E+01  5.47280E+01  5.50988E+01  5.41641E+01  5.65228E+01  5.52190E+01  5.50846E+01
   5.40378E+01  5.22993E+01  5.48673E+01  5.32085E+01  5.23753E+01  5.02924E+01  5.16659E+01  5.04442E+01  5.16079E+01  5.01256E+01
   4.96950E+01  4.97551E+01  4.92421E+01  4.90117E+01  4.82546E+01  4.77073E+01  4.50695E+01  4.65863E+01  4.58658E+01  4.36044E+01
   4.53388E+01  4.50100E+01  4.60558E+01  4.70240E+01  4.55794E+01  4.26662E+01  4.24868E+01  4.56250E+01  4.50687E+01  4.38230E+01
   4.08807E+01  4.08099E+01  4.39897E+01  4.15324E+01  4.08062E+01  4.11545E+01  4.10409E+01  4.10556E+01  3.98620E+01  3.73841E+01
   3.77144E+01  3.87610E+01  3.73255E+01  3.72666E+01  3.92629E+01  3.55579E+01  3.66128E+01  3.58286E+01  3.49360E+01  3.83904E+01
   3.47225E+01  3.42861E+01  3.29778E+01  3.59172E+01  3.47821E+01  3.59988E+01  3.47269E+01  3.22828E+01  3.33045E+01  3.26655E+01
   3.29979E+01  3.48115E+01  3.45846E+01  3.31480E+01  3.18256E+01  3.22159E+01  3.18440E+01  3.49560E+01  3.05262E+01  3.02475E+01
   3.19349E+01  3.12698E+01  3.27229E+01  3.14004E+01  2.85474E+01  2.59598E+01  2.91429E+01  2.95307E+01  2.94878E+01  2.93709E+01
   2.84210E+01  2.83408E+01  2.77353E+01  2.84585E+01  2.62788E+01  2.88200E+01  2.72828E+01  2.54096E+01  2.40285E+01  2.71162E+01
   2.44752E+01  2.91421E+01  2.51243E+01  2.51536E+01  2.33301E+01  2.41843E+01  2.49312E+01  2.27738E+01  2.26451E+01  2.51642E+01
   2.40722E+01  2.33146E+01  2.10766E+01  2.20679E+01  1.91330E+01  2.24306E+01  2.18178E+01  1.83584E+01  2.30452E+01  2.04392E+01
   1.96108E+01  1.87578E+01  1.80484E+01  1.84577E+01  2.01971E+01  1.90471E+01  1.73301E+01  1.90250E+01  1.61517E+01  1.84416E+01
   1.91853E+01  1.63518E+01  1.84654E+01  1.79521E+01  1.69897E+01  1.69011E+01  1.82631E+01  2.03337E+01  1.80687E+01  1.80168E+01
   1.83665E+01  1.73864E+01  1.57456E+01  1.59043E+01  1.30429E+01  1.57545E+01  1.48726E+01  1.42611E+01  1.21020E+01  1.21193E+01
   1.43935E+01  1.21088E+01  1.20041E+01  1.16075E+01  1.04574E+01  1.05668E+01  1.11162E+01  9.13203E+00  1.12109E+01  1.22993E+01
   1.30070E+01  9.46202E+00  1.01222E+01  9.23897E+00  9.46032E+00  1.01421E+01  1.27452E+01  1.08219E+01  1.13193E+01  8.25428E+00
   9.34318E+00  1.06069E+01  9.90267E+00  9.95168E+00  5.35964E+00  8.03811E+00  8.02236E+00  6.72458E+00  8.86870E+00  9.29206E+00
   5.29985E+00  6.79012E+00  8.81632E+00  6.75678E+00  8.12976E+00  7.25388E+00  7.58107E+00  5.92545E+00  5.75236E+00  6.46869E+00
   4.33987E+00  5.99287E+00  4.30375E+00  3.11865E+00  5.16872E+00  3.94500E+00  3.69929E+00  4.66422E+00  3.53678E+00  3.12928E+00
   5.30682E+00  4.02080E+00  3.55134E+00  4.46463E+00  3.46970E+00  1.80189E+00  2.58243E-01 -4.74739E-01  2.46679E+00  2.56867E+00
   1.32614E+00 -3.73962E-01  8.07636E-01  2.16701E+00  3.24767E+00  3.37951E+00  1.64454E+00  3.12154E+00  2.56704E+00  5.45955E+00
   1.74335E+00  5.96908E+00  4.51904E+00  7.36267E+00  4.10785E+00  3.22847E+00  4.48324E+00  4.64099E+00  5.58233E+00  5.31486E+00
   3.45515E+00  3.54698E+00  6.74344E+00  3.17164E+00  3.24678E+00  3.07282E+00  4.51265E+00  3.23508E+00  2.31531E+00  2.45476E+00
   3.75465E+00  1.71984E+00  2.59660E+00  1.71539E+00  1.46349E+00  1.08510E+00  3.51247E+00  3.32984E+00  2.42988E+00  7.35646E-01
   1.17663E-02  2.13295E+00  4.75264E-01  6.85639E-01 -5.92010E-01  5.88087E-01 -1.92517E+00 -2.64975E-01 -1.31519E+00 -4.77800E+00
  -1.01254E+00 -1.57710E+00 -3.84529E+00 -1.15133E+00 -3.74227E+00 -2.88777E+00 -3.86235E+00 -2.27580E+00 -2.95707E+00 -3.52471E+00
  -2.05355E+00 -5.77875E+00 -4.09712E+00 -1.30734E+00 -3.61154E+00 -4.35436E+00 -5.07552E+00 -4.59903E+00 -3.16879E+00 -3.72627E+00
  -5.37645E+00 -4.78980E+00 -4.59128E+00 -8.14960E+00 -3.39826E+00 -6.28024E+00 -5.54938E+00 -5.27892E+00 -5.34876E+00 -6.43627E+00
  -6.04623E+00 -5.21882E+00 -8.32295E+00 -8.44126E+00 -6.10176E+00 -7.41253E+00 -1.03585E+01 -8.62321E+00 -9.89447E+00 -7.59754E+00
  -9.29915E+00 -8.64481E+00 -8.44178E+00 -9.19216E+00 -9.92343E+00 -8.98836E+00 -9.12108E+00 -5.82362E+00 -6.71776E+00 -8.43939E+00
  -1.02204E+01 -8.64086E+00 -7.58801E+00 -8.92650E+00 -9.58162E+00 -8.07716E+00 -1.01895E+01 -8.58771E+00 -8.64688E+00 -8.55026E+00
  -1.03597E+01 -8.85492E+00 -7.74566E+00 -1.04280E+01 -7.57872E+00 -8.43890E+00 -9.23415E+00 -8.62027E+00 -1.12759E+01 -8.51930E+00
  -8.21374E+00 -8.49890E+00 -8.54270E+00 -9.06436E+00 -1.03509E+01 -8.61689E+00 -1.04333E+01 -9.82108E+00 -8.76643E+00 -9.25653E+00
  -1.12310E+01 -1.30968E+01 -7.32672E+00 -1.18291E+01 -1.16101E+01 -1.02725E+01 -1.09485E+01 -9.40656E+00 -1.18732E+01 -1.49799E+01
  -1.15727E+01 -1.01846E+01 -1.09740E+01 -1.06933E+01 -1.00640E+01 -8.80355E+00 -9.68617E+00 -9.38898E+00 -1.07013E+01 -1.07266E+01
  -1.01464E+01 -1.01448E+01 -1.07545E+01 -1.23196E+01 -8.63368E+00 -1.09500E+01 -8.76786E+00 -1.00800E+01 -7.86251E+00 -8.24192E+00
  -7.84988E+00 -8.52682E+00 -7.68023E+00 -5.95271E+00 -7.33896E+00 -6.76342E+00 -8.25620E+00 -9.43274E+00
 NY points of the fit to the data follow
   1.48253E+02  1.48013E+02  1.46492E+02  1.45935E+02  1.44311E+02  1.43557E+02  1.41837E+02  1.40692E+02  1.38906E+02  1.37737E+02
   1.35956E+02  1.34802E+02  1.33098E+02  1.31896E+02  1.30286E+02  1.29179E+02  1.27518E+02  1.26456E+02  1.24714E+02  1.23636E+02
   1.21853E+02  1.20759E+02  1.18907E+02  1.17873E+02  1.16113E+02  1.15172E+02  1.13513E+02  1.12733E+02  1.11267E+02  1.10741E+02
   1.09556E+02  1.09169E+02  1.08211E+02  1.07751E+02  1.06809E+02  1.06183E+02  1.05241E+02  1.04492E+02  1.03769E+02  1.03342E+02
   1.02887E+02  1.02463E+02  1.02034E+02  1.01564E+02  1.01051E+02  1.00551E+02  9.98104E+01  9.90040E+01  9.80320E+01  9.71829E+01
   9.61897E+01  9.53986E+01  9.43676E+01  9.37689E+01  9.26721E+01  9.21039E+01  9.09251E+01  9.04105E+01  8.91747E+01  8.85864E+01
   8.72351E+01  8.65234E+01  8.51292E+01  8.45627E+01  8.32842E+01  8.27697E+01  8.16089E+01  8.11885E+01  8.02383E+01  7.99721E+01
   7.91112E+01  7.86726E+01  7.76665E+01  7.70569E+01  7.60189E+01  7.53166E+01  7.43234E+01  7.35814E+01  7.26139E+01  7.17828E+01
   7.08156E+01  6.98987E+01  6.89348E+01  6.79293E+01  6.70702E+01  6.64824E+01  6.57851E+01  6.53661E+01  6.47655E+01  6.43583E+01
   6.37651E+01  6.34565E+01  6.29911E+01  6.32544E+01  6.29532E+01  6.34955E+01  6.31525E+01  6.36748E+01  6.32797E+01  6.38434E+01
   6.33258E+01  6.34928E+01  6.28629E+01  6.30472E+01  6.23700E+01  6.23530E+01  6.15771E+01  6.13263E+01  6.04856E+01  6.03620E+01
   5.95297E+01  5.93876E+01  5.85546E+01  5.82932E+01  5.74290E+01  5.70167E+01  5.62710E+01  5.63202E+01  5.57923E+01  5.60047E+01
   5.55600E+01  5.58992E+01  5.55568E+01  5.61962E+01  5.58565E+01  5.61191E+01  5.56704E+01  5.59069E+01  5.54333E+01  5.54819E+01
   5.49483E+01  5.48071E+01  5.42230E+01  5.38821E+01  5.32634E+01  5.28012E+01  5.21754E+01  5.15829E+01  5.09306E+01  5.01311E+01
   4.94635E+01  4.86781E+01  4.80518E+01  4.72579E+01  4.66896E+01  4.60720E+01  4.56323E+01  4.52935E+01  4.49666E+01  4.46535E+01
   4.43500E+01  4.40550E+01  4.37640E+01  4.34792E+01  4.31975E+01  4.29177E+01  4.26422E+01  4.23635E+01  4.20893E+01  4.18135E+01
   4.15389E+01  4.12647E+01  4.09916E+01  4.07185E+01  4.04464E+01  4.01710E+01  3.98994E+01  3.96255E+01  3.93557E+01  3.90834E+01
   3.88130E+01  3.85408E+01  3.82705E+01  3.79985E+01  3.77331E+01  3.74617E+01  3.71994E+01  3.69307E+01  3.66704E+01  3.64039E+01
   3.61459E+01  3.58828E+01  3.56284E+01  3.53668E+01  3.51123E+01  3.48517E+01  3.45956E+01  3.43351E+01  3.40774E+01  3.38161E+01
   3.35562E+01  3.32919E+01  3.30339E+01  3.27678E+01  3.25087E+01  3.22410E+01  3.19796E+01  3.17094E+01  3.14437E+01  3.11685E+01
   3.08989E+01  3.06193E+01  3.03465E+01  3.00641E+01  2.97901E+01  2.95089E+01  2.92376E+01  2.89611E+01  2.86901E+01  2.84158E+01
   2.81437E+01  2.78721E+01  2.75977E+01  2.73267E+01  2.70546E+01  2.67913E+01  2.65231E+01  2.62675E+01  2.60022E+01  2.57505E+01
   2.54851E+01  2.52307E+01  2.49621E+01  2.47064E+01  2.44364E+01  2.41830E+01  2.39143E+01  2.36613E+01  2.33923E+01  2.31411E+01
   2.28691E+01  2.26136E+01  2.23364E+01  2.20751E+01  2.17919E+01  2.15243E+01  2.12338E+01  2.09641E+01  2.07221E+01  2.04745E+01
   2.02515E+01  2.00136E+01  1.97926E+01  1.95586E+01  1.93478E+01  1.91233E+01  1.89710E+01  1.87801E+01  1.86610E+01  1.84898E+01
   1.83663E+01  1.81957E+01  1.80722E+01  1.79042E+01  1.77349E+01  1.75467E+01  1.73718E+01  1.71791E+01  1.69797E+01  1.67713E+01
   1.65416E+01  1.63126E+01  1.60503E+01  1.57987E+01  1.55171E+01  1.52495E+01  1.49506E+01  1.46661E+01  1.43405E+01  1.40332E+01
   1.37061E+01  1.33903E+01  1.30606E+01  1.27384E+01  1.24301E+01  1.21200E+01  1.18536E+01  1.15700E+01  1.13161E+01  1.10472E+01
   1.08073E+01  1.05546E+01  1.03316E+01  1.00994E+01  9.89497E+00  9.68497E+00  9.50065E+00  9.31282E+00  9.14670E+00  8.97885E+00
   8.82714E+00  8.67416E+00  8.53210E+00  8.38781E+00  8.24821E+00  8.10350E+00  7.95659E+00  7.80172E+00  7.63790E+00  7.46319E+00
   7.27563E+00  7.07606E+00  6.86166E+00  6.63672E+00  6.39888E+00  6.15492E+00  5.90791E+00  5.67765E+00  5.53664E+00  5.59394E+00
   5.40315E+00  5.47565E+00  5.16924E+00  5.19521E+00  4.78624E+00  4.77219E+00  4.19485E+00  4.56915E+00  4.01505E+00  4.53675E+00
   3.88202E+00  4.28787E+00  3.46682E+00  3.73536E+00  2.56904E+00  2.65248E+00  1.63482E+00  1.92531E+00  1.29209E+00  2.02623E+00
   1.68156E+00  2.36652E+00  2.30504E+00  2.63222E+00  2.52169E+00  2.60234E+00  2.46908E+00  3.07027E+00  3.28533E+00  3.84958E+00
   4.24409E+00  4.44754E+00  4.71434E+00  4.56010E+00  4.46568E+00  4.11677E+00  4.08998E+00  4.18146E+00  4.20317E+00  4.15917E+00
   4.08785E+00  4.05639E+00  4.04168E+00  3.71514E+00  3.41273E+00  3.18612E+00  3.07155E+00  2.84319E+00  2.76345E+00  2.40430E+00
   2.35745E+00  2.09816E+00  2.06959E+00  1.84906E+00  1.89824E+00  1.91836E+00  2.14113E+00  2.23640E+00  2.34084E+00  2.18932E+00
   2.15030E+00  1.75317E+00  1.44588E+00  9.23945E-01  4.32403E-01  3.47876E-02 -3.25435E-01 -6.61129E-01 -9.76577E-01 -1.27480E+00
  -1.55805E+00 -1.82804E+00 -2.08617E+00 -2.33356E+00 -2.57117E+00 -2.79983E+00 -3.02019E+00 -3.23286E+00 -3.43832E+00 -3.63704E+00
  -3.82944E+00 -4.01587E+00 -4.19664E+00 -4.37203E+00 -4.54230E+00 -4.70773E+00 -4.86853E+00 -5.02495E+00 -5.17719E+00 -5.32546E+00
  -5.46998E+00 -5.61095E+00 -5.74857E+00 -5.88304E+00 -6.01453E+00 -6.14322E+00 -6.26926E+00 -6.39281E+00 -6.51399E+00 -6.63289E+00
  -6.74960E+00 -6.86417E+00 -6.97666E+00 -7.08708E+00 -7.19544E+00 -7.30173E+00 -7.40594E+00 -7.50805E+00 -7.60804E+00 -7.70587E+00
  -7.80154E+00 -7.89500E+00 -7.98624E+00 -8.07526E+00 -8.16204E+00 -8.24657E+00 -8.32885E+00 -8.40889E+00 -8.48668E+00 -8.56224E+00
  -8.63557E+00 -8.70669E+00 -8.77561E+00 -8.84233E+00 -8.90686E+00 -8.96923E+00 -9.02944E+00 -9.08750E+00 -9.14341E+00 -9.19719E+00
  -9.24885E+00 -9.29840E+00 -9.34583E+00 -9.39117E+00 -9.43440E+00 -9.47555E+00 -9.51462E+00 -9.55161E+00 -9.58653E+00 -9.61939E+00
  -9.65018E+00 -9.67894E+00 -9.70565E+00 -9.73034E+00 -9.75300E+00 -9.77365E+00 -9.79228E+00 -9.80893E+00 -9.82358E+00 -9.83625E+00
  -9.84694E+00 -9.85566E+00 -9.86243E+00 -9.86724E+00 -9.87011E+00 -9.87105E+00 -9.87005E+00 -9.86714E+00 -9.86232E+00 -9.85560E+00
  -9.84699E+00 -9.83651E+00 -9.82415E+00 -9.80994E+00 -9.79389E+00 -9.77601E+00 -9.75632E+00 -9.73482E+00 -9.71154E+00 -9.68649E+00
  -9.65971E+00 -9.63120E+00 -9.60099E+00 -9.56910E+00 -9.53558E+00 -9.50044E+00 -9.46374E+00 -9.42551E+00 -9.38579E+00 -9.34465E+00
  -9.30215E+00 -9.25837E+00 -9.21339E+00 -9.16733E+00 -9.12030E+00 -9.07248E+00 -9.02407E+00 -8.97531E+00
 NY background values follow
     1.389E+02    1.378E+02    1.367E+02    1.356E+02    1.345E+02    1.335E+02    1.324E+02    1.313E+02    1.302E+02    1.291E+02
     1.280E+02    1.270E+02    1.259E+02    1.248E+02    1.237E+02    1.227E+02    1.216E+02    1.205E+02    1.195E+02    1.184E+02
     1.174E+02    1.163E+02    1.153E+02    1.142E+02    1.132E+02    1.122E+02    1.112E+02    1.101E+02    1.091E+02    1.081E+02
     1.071E+02    1.061E+02    1.051E+02    1.041E+02    1.031E+02    1.022E+02    1.012E+02    1.002E+02    9.928E+01    9.833E+01
     9.739E+01    9.646E+01    9.554E+01    9.462E+01    9.371E+01    9.281E+01    9.191E+01    9.103E+01    9.015E+01    8.928E+01
     8.843E+01    8.758E+01    8.673E+01    8.590E+01    8.508E+01    8.427E+01    8.346E+01    8.266E+01    8.188E+01    8.110E+01
     8.033E+01    7.957E+01    7.882E+01    7.807E+01    7.734E+01    7.661E+01    7.590E+01    7.519E+01    7.449E+01    7.380E+01
     7.312E+01    7.245E+01    7.178E+01    7.113E+01    7.048E+01    6.984E+01    6.921E+01    6.859E+01    6.798E+01    6.738E+01
     6.679E+01    6.620E+01    6.562E+01    6.505E+01    6.449E+01    6.394E+01    6.340E+01    6.286E+01    6.234E+01    6.182E+01
     6.131E+01    6.081E+01    6.032E+01    5.983E+01    5.936E+01    5.889E+01    5.843E+01    5.798E+01    5.754E+01    5.711E+01
     5.668E+01    5.626E+01    5.585E+01    5.545E+01    5.506E+01    5.467E+01    5.429E+01    5.392E+01    5.355E+01    5.319E+01
     5.284E+01    5.249E+01    5.215E+01    5.182E+01    5.149E+01    5.116E+01    5.085E+01    5.053E+01    5.023E+01    4.993E+01
     4.963E+01    4.933E+01    4.905E+01    4.876E+01    4.848E+01    4.821E+01    4.793E+01    4.766E+01    4.740E+01    4.714E+01
     4.688E+01    4.662E+01    4.637E+01    4.612E+01    4.587E+01    4.562E+01    4.538E+01    4.513E+01    4.489E+01    4.466E+01
     4.442E+01    4.418E+01    4.395E+01    4.371E+01    4.348E+01    4.325E+01    4.301E+01    4.278E+01    4.255E+01    4.232E+01
     4.209E+01    4.186E+01    4.163E+01    4.139E+01    4.116E+01    4.093E+01    4.070E+01    4.046E+01    4.023E+01    4.000E+01
     3.977E+01    3.953E+01    3.930E+01    3.906E+01    3.883E+01    3.860E+01    3.836E+01    3.813E+01    3.789E+01    3.766E+01
     3.742E+01    3.718E+01    3.695E+01    3.671E+01    3.647E+01    3.623E+01    3.600E+01    3.576E+01    3.552E+01    3.528E+01
     3.504E+01    3.480E+01    3.456E+01    3.432E+01    3.407E+01    3.383E+01    3.359E+01    3.334E+01    3.310E+01    3.286E+01
     3.261E+01    3.237E+01    3.212E+01    3.187E+01    3.163E+01    3.138E+01    3.113E+01    3.088E+01    3.063E+01    3.038E+01
     3.013E+01    2.988E+01    2.963E+01    2.938E+01    2.912E+01    2.887E+01    2.862E+01    2.836E+01    2.811E+01    2.786E+01
     2.760E+01    2.735E+01    2.709E+01    2.684E+01    2.658E+01    2.633E+01    2.607E+01    2.582E+01    2.556E+01    2.531E+01
     2.505E+01    2.480E+01    2.454E+01    2.429E+01    2.403E+01    2.378E+01    2.353E+01    2.327E+01    2.302E+01    2.277E+01
     2.252E+01    2.226E+01    2.201E+01    2.176E+01    2.151E+01    2.126E+01    2.101E+01    2.077E+01    2.052E+01    2.027E+01
     2.002E+01    1.978E+01    1.953E+01    1.929E+01    1.905E+01    1.881E+01    1.856E+01    1.832E+01    1.808E+01    1.785E+01
     1.761E+01    1.737E+01    1.714E+01    1.690E+01    1.667E+01    1.644E+01    1.620E+01    1.597E+01    1.574E+01    1.552E+01
     1.529E+01    1.506E+01    1.483E+01    1.461E+01    1.438E+01    1.416E+01    1.394E+01    1.371E+01    1.349E+01    1.327E+01
     1.305E+01    1.283E+01    1.261E+01    1.240E+01    1.218E+01    1.196E+01    1.175E+01    1.153E+01    1.132E+01    1.111E+01
     1.089E+01    1.068E+01    1.047E+01    1.026E+01    1.005E+01    9.844E+00    9.635E+00    9.428E+00    9.221E+00    9.015E+00
     8.809E+00    8.604E+00    8.400E+00    8.196E+00    7.993E+00    7.791E+00    7.589E+00    7.388E+00    7.187E+00    6.987E+00
     6.788E+00    6.589E+00    6.391E+00    6.193E+00    5.996E+00    5.800E+00    5.605E+00    5.410E+00    5.216E+00    5.022E+00
     4.830E+00    4.638E+00    4.446E+00    4.256E+00    4.066E+00    3.877E+00    3.689E+00    3.501E+00    3.314E+00    3.128E+00
     2.943E+00    2.759E+00    2.575E+00    2.392E+00    2.211E+00    2.029E+00    1.849E+00    1.670E+00    1.491E+00    1.314E+00
     1.137E+00    9.609E-01    7.860E-01    6.119E-01    4.387E-01    2.664E-01    9.511E-02   -7.527E-02   -2.447E-01   -4.132E-01
    -5.807E-01   -7.472E-01   -9.128E-01   -1.077E+00   -1.241E+00   -1.403E+00   -1.565E+00   -1.726E+00   -1.885E+00   -2.044E+00
    -2.201E+00   -2.357E+00   -2.513E+00   -2.667E+00   -2.820E+00   -2.972E+00   -3.123E+00   -3.273E+00   -3.422E+00   -3.570E+00
    -3.716E+00   -3.862E+00   -4.006E+00   -4.150E+00   -4.292E+00   -4.433E+00   -4.573E+00   -4.712E+00   -4.849E+00   -4.986E+00
    -5.121E+00   -5.255E+00   -5.388E+00   -5.520E+00   -5.650E+00   -5.780E+00   -5.908E+00   -6.035E+00   -6.161E+00   -6.286E+00
    -6.409E+00   -6.531E+00   -6.652E+00   -6.772E+00   -6.890E+00   -7.007E+00   -7.123E+00   -7.238E+00   -7.351E+00   -7.463E+00
    -7.574E+00   -7.684E+00   -7.792E+00   -7.899E+00   -8.005E+00   -8.109E+00   -8.212E+00   -8.314E+00   -8.414E+00   -8.513E+00
    -8.611E+00   -8.707E+00   -8.802E+00   -8.895E+00   -8.988E+00   -9.078E+00   -9.167E+00   -9.255E+00   -9.342E+00   -9.426E+00
    -9.510E+00   -9.592E+00   -9.672E+00   -9.751E+00   -9.828E+00   -9.904E+00   -9.978E+00   -1.005E+01   -1.012E+01   -1.019E+01
    -1.026E+01   -1.032E+01   -1.039E+01   -1.045E+01   -1.051E+01   -1.057E+01   -1.063E+01   -1.069E+01   -1.074E+01   -1.079E+01
    -1.085E+01   -1.089E+01   -1.094E+01   -1.099E+01   -1.103E+01   -1.108E+01   -1.112E+01   -1.115E+01   -1.119E+01   -1.123E+01
    -1.126E+01   -1.129E+01   -1.132E+01   -1.135E+01   -1.138E+01   -1.140E+01   -1.142E+01   -1.145E+01   -1.146E+01   -1.148E+01
    -1.150E+01   -1.151E+01   -1.152E+01   -1.153E+01   -1.154E+01   -1.155E+01   -1.155E+01   -1.155E+01   -1.155E+01   -1.155E+01
    -1.155E+01   -1.154E+01   -1.154E+01   -1.153E+01   -1.152E+01   -1.150E+01   -1.149E+01   -1.147E+01   -1.145E+01   -1.143E+01
    -1.141E+01   -1.139E+01   -1.136E+01   -1.134E+01   -1.131E+01   -1.128E+01   -1.124E+01   -1.121E+01   -1.117E+01   -1.113E+01
    -1.109E+01   -1.105E+01   -1.101E+01   -1.096E+01   -1.091E+01   -1.086E+01   -1.081E+01   -1.076E+01   -1.070E+01   -1.064E+01
    -1.058E+01   -1.052E+01   -1.046E+01   -1.039E+01   -1.033E+01   -1.026E+01   -1.019E+01   -1.012E+01
 Ala      Conc. = 9.32E+02
