 LCModel (Version 6.3-1L) Copyright: S.W. Provencher.          Ref.: Magn. Reson. Med. 30:672-679 (1993).                
 Slice#1 Row#12 Col#8  K_02_press_1_raw_act
 36 lines in following concentration table = NCONC+1
    Conc.  %SD /Cr+PCr  Metabolite                                         
   96.488 110% 7.7E-02 Ala                                                 
    0.000 999%   0.000 Asp                                                 
  316.081  71%   0.251 Cr                                                  
  942.594  25%   0.749 PCr                                                 
    0.000 999%   0.000 GABA                                                
    0.000 999%   0.000 Glc                                                 
  458.123  50%   0.364 Gln                                                 
 1.85E+03  15%   1.466 Glu                                                 
  305.766   6%   0.243 GPC                                                 
    0.000 999%   0.000 PCh                                                 
  308.739  22%   0.245 GSH                                                 
 1.25E+03  20%   0.989 Ins                                                 
   65.949 179% 5.2E-02 Lac                                                 
 2.27E+03   7%   1.801 NAA                                                 
   68.072 247% 5.4E-02 NAAG                                                
   84.489  29% 6.7E-02 Scyllo                                              
  293.247  61%   0.233 Tau                                                 
  309.752  32%   0.246 -CrCH2                                              
  305.766   6%   0.243 GPC+PCh                                             
 2.33E+03   3%   1.855 NAA+NAAG                                            
 1.26E+03   4%   1.000 Cr+PCr                                              
 2.30E+03  18%   1.830 Glu+Gln                                             
  248.054  98%   0.197 Lip13a                                              
    0.000 999%   0.000 Lip13b                                              
    0.000 999%   0.000 Lip09                                               
 1.18E+03  15%   0.935 MM09                                                
   50.482 155% 4.0E-02 Lip20                                               
 2.44E+03  14%   1.940 MM20                                                
  427.359  32%   0.340 MM12                                                
  829.042  31%   0.659 MM14                                                
  455.605  40%   0.362 MM17                                                
  248.054  98%   0.197 Lip13a+Lip13b                                       
 1.50E+03  22%   1.195 MM14+Lip13a+Lip13b+MM12                             
 1.18E+03  15%   0.935 MM09+Lip09                                          
 2.49E+03  14%   1.980 MM20+Lip20                                          
   6 lines in following misc. output table
  FWHM = 0.061 ppm    S/N =  13                                            
  Data shift =-0.023 ppm                                                   
  Ph: -69 deg     -14.1 deg/ppm                                            
  alphaB,S = 7.0E-01,   1.5E+02                                            
   14 spline knots.   Ns = 8(1)                                            
  (14) 3 infls.   (11) 1 extrs.                                            
  498 points on ppm-axis = NY
      4.000000     3.992357     3.984714     3.977070     3.969427     3.961784     3.954141     3.946497     3.938854     3.931211
      3.923568     3.915925     3.908281     3.900638     3.892995     3.885352     3.877708     3.870065     3.862422     3.854779
      3.847136     3.839492     3.831849     3.824206     3.816563     3.808919     3.801276     3.793633     3.785990     3.778347
      3.770703     3.763060     3.755417     3.747774     3.740130     3.732487     3.724844     3.717201     3.709558     3.701914
      3.694271     3.686628     3.678985     3.671341     3.663698     3.656055     3.648412     3.640769     3.633125     3.625482
      3.617839     3.610196     3.602552     3.594909     3.587266     3.579623     3.571980     3.564336     3.556693     3.549050
      3.541407     3.533763     3.526120     3.518477     3.510834     3.503191     3.495547     3.487904     3.480261     3.472618
      3.464974     3.457331     3.449688     3.442045     3.434402     3.426758     3.419115     3.411472     3.403829     3.396185
      3.388542     3.380899     3.373256     3.365613     3.357969     3.350326     3.342683     3.335040     3.327396     3.319753
      3.312110     3.304467     3.296824     3.289180     3.281537     3.273894     3.266251     3.258607     3.250964     3.243321
      3.235678     3.228034     3.220391     3.212748     3.205105     3.197462     3.189818     3.182175     3.174532     3.166889
      3.159245     3.151602     3.143959     3.136316     3.128673     3.121029     3.113386     3.105743     3.098100     3.090456
      3.082813     3.075170     3.067527     3.059884     3.052240     3.044597     3.036954     3.029311     3.021667     3.014024
      3.006381     2.998738     2.991095     2.983451     2.975808     2.968165     2.960522     2.952878     2.945235     2.937592
      2.929949     2.922306     2.914662     2.907019     2.899376     2.891733     2.884089     2.876446     2.868803     2.861160
      2.853517     2.845873     2.838230     2.830587     2.822944     2.815300     2.807657     2.800014     2.792371     2.784728
      2.777084     2.769441     2.761798     2.754155     2.746511     2.738868     2.731225     2.723582     2.715939     2.708295
      2.700652     2.693009     2.685366     2.677722     2.670079     2.662436     2.654793     2.647150     2.639506     2.631863
      2.624220     2.616577     2.608933     2.601290     2.593647     2.586004     2.578361     2.570717     2.563074     2.555431
      2.547788     2.540144     2.532501     2.524858     2.517215     2.509572     2.501928     2.494285     2.486642     2.478999
      2.471355     2.463712     2.456069     2.448426     2.440783     2.433139     2.425496     2.417853     2.410210     2.402566
      2.394923     2.387280     2.379637     2.371994     2.364350     2.356707     2.349064     2.341421     2.333777     2.326134
      2.318491     2.310848     2.303205     2.295561     2.287918     2.280275     2.272632     2.264988     2.257345     2.249702
      2.242059     2.234416     2.226772     2.219129     2.211486     2.203843     2.196199     2.188556     2.180913     2.173270
      2.165627     2.157983     2.150340     2.142697     2.135054     2.127410     2.119767     2.112124     2.104481     2.096838
      2.089194     2.081551     2.073908     2.066265     2.058621     2.050978     2.043335     2.035692     2.028049     2.020405
      2.012762     2.005119     1.997476     1.989833     1.982190     1.974546     1.966903     1.959260     1.951617     1.943974
      1.936331     1.928688     1.921045     1.913402     1.905759     1.898115     1.890472     1.882829     1.875186     1.867543
      1.859900     1.852257     1.844614     1.836971     1.829327     1.821684     1.814041     1.806398     1.798755     1.791112
      1.783469     1.775826     1.768183     1.760540     1.752896     1.745253     1.737610     1.729967     1.722324     1.714681
      1.707038     1.699395     1.691752     1.684108     1.676465     1.668822     1.661179     1.653536     1.645893     1.638250
      1.630607     1.622964     1.615321     1.607677     1.600034     1.592391     1.584748     1.577105     1.569462     1.561819
      1.554176     1.546533     1.538890     1.531246     1.523603     1.515960     1.508317     1.500674     1.493031     1.485388
      1.477745     1.470102     1.462458     1.454815     1.447172     1.439529     1.431886     1.424243     1.416600     1.408957
      1.401314     1.393671     1.386027     1.378384     1.370741     1.363098     1.355455     1.347812     1.340169     1.332526
      1.324883     1.317240     1.309596     1.301953     1.294310     1.286667     1.279024     1.271381     1.263738     1.256095
      1.248452     1.240808     1.233165     1.225522     1.217879     1.210236     1.202593     1.194950     1.187307     1.179664
      1.172021     1.164377     1.156734     1.149091     1.141448     1.133805     1.126162     1.118519     1.110876     1.103233
      1.095590     1.087946     1.080303     1.072660     1.065017     1.057374     1.049731     1.042088     1.034445     1.026802
      1.019158     1.011515     1.003872     0.996229     0.988586     0.980943     0.973300     0.965657     0.958014     0.950371
      0.942727     0.935084     0.927441     0.919798     0.912155     0.904512     0.896869     0.889226     0.881583     0.873940
      0.866296     0.858653     0.851010     0.843367     0.835724     0.828081     0.820438     0.812795     0.805152     0.797508
      0.789865     0.782222     0.774579     0.766936     0.759293     0.751650     0.744007     0.736364     0.728721     0.721077
      0.713434     0.705791     0.698148     0.690505     0.682862     0.675219     0.667576     0.659933     0.652290     0.644646
      0.637003     0.629360     0.621717     0.614074     0.606431     0.598788     0.591145     0.583502     0.575858     0.568215
      0.560572     0.552929     0.545286     0.537643     0.530000     0.522357     0.514714     0.507071     0.499427     0.491784
      0.484141     0.476498     0.468855     0.461212     0.453569     0.445925     0.438282     0.430639     0.422996     0.415353
      0.407710     0.400067     0.392424     0.384780     0.377137     0.369494     0.361851     0.354208     0.346565     0.338922
      0.331278     0.323635     0.315992     0.308349     0.300706     0.293063     0.285420     0.277777     0.270133     0.262490
      0.254847     0.247204     0.239561     0.231918     0.224275     0.216631     0.208988     0.201345
 NY phased data points follow
  -2.87659E+01 -2.44450E+01 -2.35685E+01 -2.11674E+01 -2.13935E+01 -1.78080E+01 -1.28159E+01 -9.13491E+00 -1.21844E+01 -7.33334E+00
  -5.79856E+00 -2.37586E+00 -1.90248E+00 -7.78754E+00 -8.66856E+00 -1.30666E+01 -1.52383E+01 -1.60770E+01 -1.95263E+01 -1.95190E+01
  -1.94428E+01 -2.32614E+01 -2.01724E+01 -2.42610E+01 -2.30399E+01 -1.76496E+01 -1.70187E+01 -1.76617E+01 -1.60927E+01 -1.54855E+01
  -1.36443E+01 -1.38816E+01 -9.16110E+00 -1.29088E+01 -9.51000E+00 -1.29728E+01 -1.56790E+01 -1.20061E+01 -1.49292E+01 -1.16865E+01
  -1.36236E+01 -1.44176E+01 -1.29976E+01 -8.11007E+00 -1.11869E+01 -1.06781E+01 -9.18334E+00 -7.93472E+00 -7.03216E+00 -7.46924E+00
  -7.12329E+00 -9.16903E+00 -8.63029E+00 -1.09430E+01 -1.32366E+01 -8.58648E+00 -8.98798E+00 -9.20429E+00 -1.32756E+01 -1.21973E+01
  -1.22329E+01 -1.20689E+01 -9.65349E+00 -1.09767E+01 -1.27237E+01 -1.13038E+01 -1.48682E+01 -1.33543E+01 -1.64898E+01 -1.44519E+01
  -8.89835E+00 -1.57713E+01 -1.16920E+01 -1.19309E+01 -1.23122E+01 -1.01148E+01 -1.22333E+01 -1.02091E+01 -1.23082E+01 -4.48741E+00
  -1.44366E+01 -1.37300E+01 -1.10998E+01 -1.06412E+01 -1.24078E+01 -1.05336E+01 -1.05847E+01 -7.21354E+00 -9.03556E+00 -9.69499E+00
  -8.00210E+00 -6.90631E+00 -7.29455E+00 -1.10260E+01 -6.87141E-01 -4.92147E+00 -4.54744E+00 -8.65521E+00  3.24327E+00  2.81244E+00
   3.04763E+00  7.98108E+00  8.73014E+00  1.38810E+01  1.06620E+01  1.47252E+01  1.03172E+01  8.73348E+00  2.63292E+00 -1.61716E+00
  -8.04828E+00 -3.15525E+00 -4.69889E+00 -9.33782E+00 -5.65105E+00 -3.91100E+00 -5.85334E+00 -3.25400E+00 -2.74820E+00 -7.53119E-01
  -1.24658E+00  2.56173E-01  7.25237E+00  9.05493E+00  1.38126E+01  1.92669E+01  2.31946E+01  2.71672E+01  2.86848E+01  2.80511E+01
   2.57577E+01  1.96962E+01  8.21064E+00  3.05664E+00 -1.79619E+00 -3.16068E+00 -4.23324E+00 -4.78309E+00 -7.46938E+00 -3.27312E+00
  -5.83125E+00 -6.66436E+00 -3.69996E+00 -5.31377E+00 -4.64550E+00 -6.17996E+00 -6.25705E+00 -3.29954E+00 -4.73755E+00 -9.55381E+00
  -7.74497E+00 -4.98376E+00 -4.77094E+00 -7.38755E+00 -5.04287E+00 -6.90258E+00 -8.03445E+00 -5.63790E+00 -7.15827E+00 -2.70354E+00
  -5.88548E+00 -6.98761E+00 -6.00848E+00 -2.96003E+00 -9.65037E+00 -8.22638E+00 -7.45672E+00 -1.03807E+01 -8.09122E+00 -7.44558E+00
  -1.32550E+01 -1.20577E+01 -1.43648E+01 -1.62826E+01 -1.69213E+01 -1.69861E+01 -1.84183E+01 -1.29581E+01 -1.82476E+01 -1.52244E+01
  -1.56980E+01 -1.35247E+01 -9.26910E+00 -9.85592E+00 -9.62257E+00 -7.37386E+00 -8.55524E+00 -7.02200E+00 -9.78679E+00 -5.91285E+00
  -6.89265E+00 -7.11158E+00 -1.52977E+00 -2.86794E+00 -6.29134E+00 -6.18921E+00 -8.32205E+00 -7.40783E+00 -6.34378E+00 -7.55525E+00
  -5.33107E+00 -1.40056E+00 -4.83762E+00 -2.39823E+00 -3.32167E+00  1.27611E+00  1.25138E+00 -3.43968E+00 -2.57528E+00 -2.53142E+00
  -3.23222E+00 -1.89539E+00 -1.24519E+00  5.63770E+00  6.34352E+00  3.75498E+00  6.03467E+00  4.08111E+00  1.37226E+00 -2.73328E+00
  -3.27673E+00 -3.36381E+00 -6.73133E+00 -1.05304E+01 -6.08425E+00 -3.19175E+00  3.57074E+00  2.40168E+00  5.52632E+00  5.29213E+00
   6.06163E+00  5.42938E+00  8.26926E+00  3.21952E-01 -9.67137E-02  4.16177E+00  5.07831E+00  6.25783E+00  4.46463E+00  5.74978E+00
   5.92321E-01  7.52119E-01 -1.66627E+00  2.24406E+00  2.72000E+00  5.39547E-01  9.01884E+00  3.78813E+00  8.35459E+00  9.53333E+00
   1.11497E+01  1.06707E+01  1.92947E+01  2.30356E+01  2.49364E+01  2.56104E+01  3.42252E+01  5.27444E+01  5.87751E+01  7.12035E+01
   6.91944E+01  6.96011E+01  6.39169E+01  6.33501E+01  5.13353E+01  3.06950E+01  2.01392E+01  1.34450E+01  8.20676E+00  8.60253E-01
   2.94633E+00  1.21351E+00  2.18383E+00  7.51831E+00  2.33313E+00  7.28384E+00  7.12153E-01  3.12545E+00  5.66327E+00  3.50377E+00
   2.77641E-01 -7.26566E-01 -1.30566E+00  1.32895E+00  7.48375E-01  5.15305E-01  2.01226E+00 -1.61533E+00  1.64850E+00 -9.49719E-01
   1.41606E+00 -1.24025E+00  2.15786E+00 -2.20433E+00  1.67351E+00  5.00185E+00  9.83795E-02 -2.65650E+00  3.79931E+00  3.63143E+00
   2.29572E+00 -1.69256E+00  1.48166E-02  1.08428E+00  8.61987E-01  2.37157E+00  1.09254E+00  2.85517E+00  2.78712E+00  7.45300E+00
   6.66461E+00  7.12853E+00  4.56618E+00  1.98371E+00  3.92593E+00  2.31125E+00  4.81128E+00  1.03400E+00  4.90647E+00  2.81486E+00
   3.80383E+00  2.45149E+00 -9.68373E-01  1.29857E+00 -2.35004E+00  8.98481E-01  3.09418E+00  1.36284E+00  1.81999E+00 -5.81327E-01
   2.61165E+00  3.45381E+00  3.12150E+00  5.52120E+00  3.21063E+00  3.66528E+00  8.87429E+00  8.23278E+00  9.71583E+00  8.86710E+00
   6.18134E+00  4.18465E+00  6.95207E+00  8.48736E+00  7.43722E+00  2.33286E+00  8.06548E+00  3.64564E+00  4.35864E+00  4.47827E+00
   7.93190E+00  4.35398E+00  2.75994E+00  3.06176E+00  6.58664E+00  4.39381E+00  4.55894E+00  2.78230E+00  3.94150E+00  3.58577E+00
   6.03642E+00  2.22967E+00  5.42591E+00  4.05549E+00  1.16755E+00  6.77409E+00  5.99208E+00  7.55791E+00  6.60290E+00  7.80996E+00
   4.14788E+00  5.02012E+00  5.59953E+00  8.63453E+00  4.10483E+00  3.87252E+00  3.50542E+00  6.31941E+00  3.43729E-01  6.62962E+00
   1.19121E+00  3.42836E+00  3.64172E+00  3.14225E+00 -2.67794E-02 -4.69215E-01  9.81519E-01  1.16362E+00  3.83193E+00  3.87298E+00
   3.68019E+00  1.78538E+00  2.78834E+00  6.70939E+00  2.66813E+00  5.33710E+00  4.90685E+00  4.91235E+00  5.40417E+00  8.05538E+00
   3.80317E+00  1.08141E+01  7.99079E+00  8.72825E+00  1.05916E+01  7.87328E+00  7.68681E+00  8.46372E+00  1.06355E+01  1.09547E+01
   1.34649E+01  1.45470E+01  8.89480E+00  8.78372E+00  1.21373E+01  6.42262E+00  1.09834E+01  1.14739E+01  9.19667E+00  9.07605E+00
   8.85547E+00  8.61333E+00  4.66711E+00  5.98699E+00  5.69442E+00  3.96364E+00  3.30930E+00  3.70355E+00  2.39539E+00  2.91185E+00
   6.17024E+00  6.65603E+00 -6.00784E-01  6.22229E+00  2.58477E+00  2.91225E+00  9.75851E+00  3.92867E+00  4.15913E+00  5.65280E+00
   7.21362E+00  2.35765E+00  1.71328E+00  5.01703E+00  5.98132E+00  4.73700E+00  1.82440E+00  3.37542E+00  4.12092E+00  5.01177E+00
   4.05764E+00  4.57183E+00  3.11297E+00  1.67462E+00  3.14468E-01 -3.42334E-02  3.32468E+00  3.80378E+00  3.78560E+00  6.28752E+00
   3.67575E+00  2.52732E+00  1.45580E+00  4.18586E+00  2.95096E+00  6.03404E-01 -1.25778E+00  2.52659E+00  5.12545E+00  3.00008E+00
   2.57744E+00  2.48844E+00  4.86831E+00  1.16569E+00  5.29469E+00  2.34878E+00  2.18311E+00  5.06357E-01  1.92637E+00  2.20465E+00
   1.78336E+00  3.48743E+00  1.41564E+00  3.36906E+00  3.51505E+00 -1.12467E+00  4.80168E+00  2.30879E+00  1.46821E+00  5.77808E-01
   1.96301E+00  2.60359E+00  4.33895E+00  3.89069E+00  2.83035E+00  2.41300E+00  1.79539E+00  3.30010E+00
 NY points of the fit to the data follow
  -2.31415E+01 -2.29266E+01 -2.21296E+01 -2.09794E+01 -1.94048E+01 -1.72960E+01 -1.46088E+01 -1.15996E+01 -8.71612E+00 -6.38374E+00
  -4.86792E+00 -4.28424E+00 -4.77241E+00 -6.45436E+00 -9.09955E+00 -1.20715E+01 -1.47096E+01 -1.66095E+01 -1.77220E+01 -1.82884E+01
  -1.86424E+01 -1.88034E+01 -1.86168E+01 -1.82951E+01 -1.80567E+01 -1.78007E+01 -1.72610E+01 -1.63897E+01 -1.52611E+01 -1.39515E+01
  -1.25942E+01 -1.13075E+01 -1.01925E+01 -9.64562E+00 -1.00033E+01 -1.12022E+01 -1.28901E+01 -1.46436E+01 -1.59993E+01 -1.65383E+01
  -1.62457E+01 -1.54402E+01 -1.42912E+01 -1.28387E+01 -1.12434E+01 -9.80188E+00 -8.76471E+00 -8.23192E+00 -8.17158E+00 -8.55828E+00
  -9.42950E+00 -1.07463E+01 -1.22875E+01 -1.36452E+01 -1.44696E+01 -1.46837E+01 -1.43857E+01 -1.37628E+01 -1.30316E+01 -1.23772E+01
  -1.19370E+01 -1.17019E+01 -1.16770E+01 -1.18358E+01 -1.20854E+01 -1.23558E+01 -1.25457E+01 -1.25016E+01 -1.21612E+01 -1.16633E+01
  -1.11564E+01 -1.07145E+01 -1.03763E+01 -1.01538E+01 -1.00357E+01 -1.00469E+01 -1.02077E+01 -1.04494E+01 -1.06411E+01 -1.06671E+01
  -1.07012E+01 -1.07446E+01 -1.06016E+01 -1.02075E+01 -9.68325E+00 -9.23246E+00 -8.99259E+00 -8.97111E+00 -9.06395E+00 -9.25841E+00
  -9.58286E+00 -9.97729E+00 -1.03198E+01 -1.04073E+01 -9.86426E+00 -8.17018E+00 -6.21623E+00 -4.46230E+00 -2.24594E+00  9.53988E-01
   4.87234E+00  8.66363E+00  1.15987E+01  1.33522E+01  1.39131E+01  1.32105E+01  1.08933E+01  6.87122E+00  2.02830E+00 -2.25339E+00
  -5.21570E+00 -6.94811E+00 -7.84281E+00 -8.19995E+00 -8.30272E+00 -8.29602E+00 -8.20028E+00 -7.95081E+00 -7.08992E+00 -4.64821E+00
  -1.77711E+00  8.40091E-01  4.17851E+00  9.00896E+00  1.48901E+01  2.05849E+01  2.50320E+01  2.76831E+01  2.84779E+01  2.73503E+01
   2.38177E+01  1.77536E+01  1.04467E+01  3.90966E+00 -7.01660E-01 -3.52845E+00 -5.13355E+00 -5.93227E+00 -6.31990E+00 -6.46309E+00
  -6.37823E+00 -6.12105E+00 -5.80571E+00 -5.54888E+00 -5.43093E+00 -5.48540E+00 -5.68663E+00 -5.96177E+00 -6.22587E+00 -6.43190E+00
  -6.57848E+00 -6.68143E+00 -6.78850E+00 -6.96566E+00 -7.12201E+00 -7.21810E+00 -7.28629E+00 -7.36710E+00 -7.56007E+00 -7.78943E+00
  -7.93128E+00 -7.96991E+00 -7.98025E+00 -8.01632E+00 -8.04886E+00 -8.04274E+00 -8.05482E+00 -8.22802E+00 -8.67401E+00 -9.24011E+00
  -9.71651E+00 -1.00893E+01 -1.04170E+01 -1.07366E+01 -1.09117E+01 -1.09025E+01 -1.08139E+01 -1.07481E+01 -1.07122E+01 -1.06238E+01
  -1.03281E+01 -9.93951E+00 -9.67332E+00 -9.52246E+00 -9.27668E+00 -8.77496E+00 -8.04247E+00 -7.16661E+00 -6.22064E+00 -5.24949E+00
  -4.37394E+00 -3.60339E+00 -3.01231E+00 -2.73455E+00 -2.80135E+00 -3.05207E+00 -3.27094E+00 -3.33977E+00 -3.17135E+00 -2.80169E+00
  -2.23738E+00 -1.62820E+00 -1.13979E+00 -7.76987E-01 -7.60234E-01 -1.29393E+00 -2.19751E+00 -3.19519E+00 -4.00553E+00 -4.73592E+00
  -5.09322E+00 -4.65179E+00 -3.36167E+00 -1.63261E+00 -1.04775E-01  9.05430E-01  1.34611E+00  9.66190E-01 -5.13002E-01 -2.94010E+00
  -5.69173E+00 -7.86502E+00 -8.83632E+00 -8.55245E+00 -7.19929E+00 -4.93768E+00 -2.08862E+00  6.69530E-01  2.69463E+00  3.80798E+00
   4.19608E+00  4.10815E+00  3.77421E+00  3.50286E+00  3.42899E+00  3.56269E+00  3.90120E+00  4.28264E+00  4.50106E+00  4.50812E+00
   4.40995E+00  4.24338E+00  4.05856E+00  4.01940E+00  4.28798E+00  4.89734E+00  5.73154E+00  6.67460E+00  7.62025E+00  8.42678E+00
   9.13869E+00  1.06377E+01  1.50477E+01  2.05829E+01  2.53982E+01  3.11576E+01  3.94739E+01  4.96084E+01  5.92497E+01  6.63861E+01
   7.01283E+01  7.05369E+01  6.76401E+01  6.05868E+01  4.88974E+01  3.47191E+01  2.19414E+01  1.29134E+01  7.47800E+00  4.53991E+00
   3.25118E+00  2.74708E+00  2.47357E+00  2.30354E+00  2.20424E+00  2.14038E+00  2.07239E+00  1.95557E+00  1.76717E+00  1.52887E+00
   1.28375E+00  1.06546E+00  8.88411E-01  7.57320E-01  6.73760E-01  6.30463E-01  6.12955E-01  6.09309E-01  6.16728E-01  6.38449E-01
   6.77991E-01  7.38561E-01  8.23010E-01  9.30617E-01  1.05772E+00  1.20038E+00  1.35445E+00  1.51618E+00  1.68268E+00  1.85137E+00
   2.01910E+00  2.18215E+00  2.33699E+00  2.48004E+00  2.60733E+00  2.71499E+00  2.80006E+00  2.86127E+00  2.89922E+00  2.91597E+00
   2.91438E+00  2.89786E+00  2.87055E+00  2.83748E+00  2.80426E+00  2.77697E+00  2.76243E+00  2.76966E+00  2.81455E+00  2.90875E+00
   2.99694E+00  3.07455E+00  3.18414E+00  3.32326E+00  3.44314E+00  3.49293E+00  3.46137E+00  3.41438E+00  3.37716E+00  3.31376E+00
   3.23684E+00  3.22248E+00  3.36377E+00  3.69229E+00  4.15247E+00  4.65679E+00  5.14567E+00  5.59018E+00  5.95411E+00  6.19807E+00
   6.28007E+00  6.22648E+00  6.13637E+00  6.06055E+00  5.98159E+00  5.86281E+00  5.68664E+00  5.48933E+00  5.28155E+00  5.04601E+00
   4.79755E+00  4.58439E+00  4.46711E+00  4.47758E+00  4.59276E+00  4.75766E+00  4.92776E+00  5.07771E+00  5.17601E+00  5.18735E+00
   5.10772E+00  4.97305E+00  4.82754E+00  4.69372E+00  4.57481E+00  4.46932E+00  4.37123E+00  4.27432E+00  4.17636E+00  4.07706E+00
   3.97701E+00  3.87724E+00  3.77902E+00  3.68390E+00  3.59368E+00  3.51025E+00  3.43539E+00  3.37076E+00  3.31784E+00  3.27817E+00
   3.25325E+00  3.24453E+00  3.25330E+00  3.28076E+00  3.32809E+00  3.39667E+00  3.48796E+00  3.60343E+00  3.74449E+00  3.91251E+00
   4.10888E+00  4.33493E+00  4.59176E+00  4.87997E+00  5.19951E+00  5.54959E+00  5.92860E+00  6.33395E+00  6.76175E+00  7.20677E+00
   7.66238E+00  8.12073E+00  8.57299E+00  9.00944E+00  9.41974E+00  9.79332E+00  1.01199E+01  1.03900E+01  1.05955E+01  1.07301E+01
   1.07891E+01  1.07705E+01  1.06745E+01  1.05039E+01  1.02637E+01  9.96123E+00  9.60502E+00  9.20497E+00  8.77170E+00  8.31616E+00
   7.84900E+00  7.38012E+00  6.91834E+00  6.47126E+00  6.04514E+00  5.64486E+00  5.27380E+00  4.93394E+00  4.62601E+00  4.34985E+00
   4.10452E+00  3.88852E+00  3.69981E+00  3.53606E+00  3.39480E+00  3.27364E+00  3.17030E+00  3.08265E+00  3.00861E+00  2.94627E+00
   2.89396E+00  2.85032E+00  2.81416E+00  2.78441E+00  2.76006E+00  2.74029E+00  2.72440E+00  2.71191E+00  2.70237E+00  2.69534E+00
   2.69038E+00  2.68718E+00  2.68550E+00  2.68520E+00  2.68613E+00  2.68807E+00  2.69083E+00  2.69430E+00  2.69844E+00  2.70323E+00
   2.70858E+00  2.71435E+00  2.72045E+00  2.72687E+00  2.73363E+00  2.74073E+00  2.74809E+00  2.75563E+00  2.76330E+00  2.77115E+00
   2.77921E+00  2.78749E+00  2.79588E+00  2.80435E+00  2.81291E+00  2.82162E+00  2.83050E+00  2.83954E+00  2.84865E+00  2.85782E+00
   2.86708E+00  2.87653E+00  2.88615E+00  2.89591E+00  2.90575E+00  2.91570E+00  2.92582E+00  2.93618E+00  2.94675E+00  2.95749E+00
   2.96837E+00  2.97947E+00  2.99085E+00  3.00258E+00  3.01460E+00  3.02690E+00  3.03949E+00  3.05249E+00
 NY background values follow
    -2.644E+01   -2.627E+01   -2.610E+01   -2.593E+01   -2.576E+01   -2.559E+01   -2.542E+01   -2.525E+01   -2.508E+01   -2.491E+01
    -2.474E+01   -2.457E+01   -2.441E+01   -2.424E+01   -2.407E+01   -2.390E+01   -2.373E+01   -2.356E+01   -2.339E+01   -2.322E+01
    -2.305E+01   -2.288E+01   -2.272E+01   -2.255E+01   -2.238E+01   -2.221E+01   -2.205E+01   -2.188E+01   -2.171E+01   -2.155E+01
    -2.138E+01   -2.122E+01   -2.105E+01   -2.089E+01   -2.073E+01   -2.056E+01   -2.040E+01   -2.024E+01   -2.008E+01   -1.992E+01
    -1.976E+01   -1.960E+01   -1.944E+01   -1.928E+01   -1.912E+01   -1.897E+01   -1.881E+01   -1.865E+01   -1.850E+01   -1.835E+01
    -1.819E+01   -1.804E+01   -1.789E+01   -1.774E+01   -1.759E+01   -1.744E+01   -1.729E+01   -1.714E+01   -1.700E+01   -1.685E+01
    -1.671E+01   -1.656E+01   -1.642E+01   -1.628E+01   -1.614E+01   -1.599E+01   -1.586E+01   -1.572E+01   -1.558E+01   -1.544E+01
    -1.531E+01   -1.517E+01   -1.504E+01   -1.491E+01   -1.477E+01   -1.464E+01   -1.451E+01   -1.439E+01   -1.426E+01   -1.413E+01
    -1.401E+01   -1.388E+01   -1.376E+01   -1.364E+01   -1.352E+01   -1.340E+01   -1.328E+01   -1.316E+01   -1.305E+01   -1.293E+01
    -1.282E+01   -1.270E+01   -1.259E+01   -1.248E+01   -1.237E+01   -1.227E+01   -1.216E+01   -1.205E+01   -1.195E+01   -1.185E+01
    -1.175E+01   -1.164E+01   -1.154E+01   -1.145E+01   -1.135E+01   -1.125E+01   -1.116E+01   -1.106E+01   -1.097E+01   -1.088E+01
    -1.079E+01   -1.070E+01   -1.061E+01   -1.052E+01   -1.044E+01   -1.035E+01   -1.027E+01   -1.019E+01   -1.011E+01   -1.002E+01
    -9.945E+00   -9.866E+00   -9.789E+00   -9.713E+00   -9.637E+00   -9.563E+00   -9.490E+00   -9.417E+00   -9.346E+00   -9.276E+00
    -9.207E+00   -9.139E+00   -9.072E+00   -9.005E+00   -8.940E+00   -8.876E+00   -8.813E+00   -8.751E+00   -8.690E+00   -8.629E+00
    -8.570E+00   -8.511E+00   -8.453E+00   -8.396E+00   -8.340E+00   -8.285E+00   -8.230E+00   -8.176E+00   -8.122E+00   -8.069E+00
    -8.017E+00   -7.965E+00   -7.914E+00   -7.863E+00   -7.813E+00   -7.763E+00   -7.713E+00   -7.664E+00   -7.615E+00   -7.566E+00
    -7.518E+00   -7.470E+00   -7.422E+00   -7.374E+00   -7.327E+00   -7.279E+00   -7.232E+00   -7.185E+00   -7.137E+00   -7.090E+00
    -7.043E+00   -6.995E+00   -6.948E+00   -6.900E+00   -6.852E+00   -6.804E+00   -6.756E+00   -6.707E+00   -6.659E+00   -6.609E+00
    -6.560E+00   -6.510E+00   -6.460E+00   -6.409E+00   -6.358E+00   -6.307E+00   -6.255E+00   -6.203E+00   -6.151E+00   -6.098E+00
    -6.046E+00   -5.993E+00   -5.940E+00   -5.886E+00   -5.833E+00   -5.779E+00   -5.725E+00   -5.671E+00   -5.617E+00   -5.563E+00
    -5.509E+00   -5.455E+00   -5.401E+00   -5.347E+00   -5.293E+00   -5.239E+00   -5.185E+00   -5.131E+00   -5.077E+00   -5.023E+00
    -4.970E+00   -4.917E+00   -4.863E+00   -4.810E+00   -4.758E+00   -4.705E+00   -4.653E+00   -4.601E+00   -4.549E+00   -4.498E+00
    -4.447E+00   -4.397E+00   -4.346E+00   -4.296E+00   -4.247E+00   -4.198E+00   -4.150E+00   -4.102E+00   -4.054E+00   -4.007E+00
    -3.960E+00   -3.914E+00   -3.868E+00   -3.823E+00   -3.778E+00   -3.733E+00   -3.689E+00   -3.646E+00   -3.602E+00   -3.559E+00
    -3.517E+00   -3.475E+00   -3.433E+00   -3.391E+00   -3.350E+00   -3.309E+00   -3.269E+00   -3.229E+00   -3.189E+00   -3.150E+00
    -3.110E+00   -3.071E+00   -3.033E+00   -2.994E+00   -2.956E+00   -2.919E+00   -2.881E+00   -2.844E+00   -2.807E+00   -2.770E+00
    -2.733E+00   -2.697E+00   -2.661E+00   -2.625E+00   -2.589E+00   -2.554E+00   -2.518E+00   -2.483E+00   -2.448E+00   -2.413E+00
    -2.379E+00   -2.344E+00   -2.310E+00   -2.275E+00   -2.241E+00   -2.207E+00   -2.173E+00   -2.140E+00   -2.106E+00   -2.072E+00
    -2.039E+00   -2.006E+00   -1.973E+00   -1.940E+00   -1.907E+00   -1.874E+00   -1.841E+00   -1.808E+00   -1.776E+00   -1.743E+00
    -1.711E+00   -1.679E+00   -1.647E+00   -1.614E+00   -1.582E+00   -1.551E+00   -1.519E+00   -1.487E+00   -1.455E+00   -1.424E+00
    -1.392E+00   -1.361E+00   -1.329E+00   -1.298E+00   -1.266E+00   -1.235E+00   -1.204E+00   -1.173E+00   -1.142E+00   -1.111E+00
    -1.079E+00   -1.048E+00   -1.018E+00   -9.866E-01   -9.557E-01   -9.249E-01   -8.940E-01   -8.632E-01   -8.324E-01   -8.017E-01
    -7.709E-01   -7.402E-01   -7.096E-01   -6.789E-01   -6.483E-01   -6.177E-01   -5.872E-01   -5.566E-01   -5.261E-01   -4.957E-01
    -4.653E-01   -4.349E-01   -4.046E-01   -3.743E-01   -3.440E-01   -3.138E-01   -2.836E-01   -2.535E-01   -2.234E-01   -1.934E-01
    -1.634E-01   -1.335E-01   -1.036E-01   -7.373E-02   -4.393E-02   -1.419E-02    1.550E-02    4.513E-02    7.471E-02    1.042E-01
     1.337E-01    1.631E-01    1.925E-01    2.217E-01    2.510E-01    2.801E-01    3.092E-01    3.383E-01    3.673E-01    3.962E-01
     4.250E-01    4.538E-01    4.825E-01    5.111E-01    5.397E-01    5.682E-01    5.966E-01    6.250E-01    6.533E-01    6.815E-01
     7.097E-01    7.378E-01    7.658E-01    7.938E-01    8.217E-01    8.496E-01    8.774E-01    9.051E-01    9.328E-01    9.604E-01
     9.879E-01    1.015E+00    1.043E+00    1.070E+00    1.098E+00    1.125E+00    1.152E+00    1.179E+00    1.206E+00    1.233E+00
     1.260E+00    1.287E+00    1.314E+00    1.341E+00    1.368E+00    1.394E+00    1.421E+00    1.448E+00    1.474E+00    1.501E+00
     1.527E+00    1.554E+00    1.580E+00    1.606E+00    1.633E+00    1.659E+00    1.685E+00    1.711E+00    1.737E+00    1.763E+00
     1.789E+00    1.815E+00    1.841E+00    1.867E+00    1.893E+00    1.918E+00    1.944E+00    1.969E+00    1.994E+00    2.019E+00
     2.044E+00    2.069E+00    2.094E+00    2.119E+00    2.143E+00    2.167E+00    2.191E+00    2.215E+00    2.239E+00    2.262E+00
     2.286E+00    2.309E+00    2.332E+00    2.355E+00    2.377E+00    2.399E+00    2.421E+00    2.443E+00    2.465E+00    2.486E+00
     2.507E+00    2.528E+00    2.548E+00    2.568E+00    2.588E+00    2.608E+00    2.627E+00    2.646E+00    2.665E+00    2.683E+00
     2.701E+00    2.718E+00    2.736E+00    2.753E+00    2.769E+00    2.785E+00    2.801E+00    2.817E+00    2.832E+00    2.847E+00
     2.862E+00    2.877E+00    2.891E+00    2.905E+00    2.919E+00    2.932E+00    2.945E+00    2.958E+00    2.971E+00    2.984E+00
     2.996E+00    3.009E+00    3.021E+00    3.033E+00    3.045E+00    3.056E+00    3.068E+00    3.079E+00    3.091E+00    3.102E+00
     3.113E+00    3.124E+00    3.135E+00    3.146E+00    3.157E+00    3.168E+00    3.179E+00    3.190E+00    3.200E+00    3.211E+00
     3.222E+00    3.233E+00    3.244E+00    3.255E+00    3.266E+00    3.277E+00    3.288E+00    3.299E+00
 Ala      Conc. = 9.65E+01
