 LCModel (Version 6.3-1L) Copyright: S.W. Provencher.          Ref.: Magn. Reson. Med. 30:672-679 (1993).                
 Slice#3 Row#5 Col#9  K_02_press_1_raw_act
 36 lines in following concentration table = NCONC+1
    Conc.  %SD /Cr+PCr  Metabolite                                         
    0.000 999%   0.000 Ala                                                 
    0.000 999%   0.000 Asp                                                 
 1.41E+03  17%   0.576 Cr                                                  
 1.04E+03  24%   0.424 PCr                                                 
    0.000 999%   0.000 GABA                                                
    0.000 999%   0.000 Glc                                                 
  703.317  35%   0.288 Gln                                                 
 2.18E+03  13%   0.893 Glu                                                 
  780.566   3%   0.319 GPC                                                 
    0.000 999%   0.000 PCh                                                 
  596.374  14%   0.244 GSH                                                 
 1.17E+03  23%   0.477 Ins                                                 
   97.240 138% 4.0E-02 Lac                                                 
 2.76E+03   5%   1.129 NAA                                                 
  117.682 136% 4.8E-02 NAAG                                                
    0.000 999%   0.000 Scyllo                                              
    0.000 999%   0.000 Tau                                                 
    0.000 999%   0.000 -CrCH2                                              
  780.566   3%   0.319 GPC+PCh                                             
 2.88E+03   4%   1.177 NAA+NAAG                                            
 2.44E+03   3%   1.000 Cr+PCr                                              
 2.89E+03  13%   1.181 Glu+Gln                                             
 5.83E+03  28%   2.386 Lip13a                                              
  165.160 207% 6.8E-02 Lip13b                                              
 1.74E+03  29%   0.713 Lip09                                               
 2.00E+03  25%   0.816 MM09                                                
  804.502  43%   0.329 Lip20                                               
 3.63E+03  17%   1.486 MM20                                                
  661.641  86%   0.271 MM12                                                
 5.66E+03  18%   2.316 MM14                                                
 2.09E+03  27%   0.856 MM17                                                
 6.00E+03  25%   2.453 Lip13a+Lip13b                                       
 1.23E+04   8%   5.040 MM14+Lip13a+Lip13b+MM12                             
 3.74E+03  11%   1.529 MM09+Lip09                                          
 4.44E+03  13%   1.815 MM20+Lip20                                          
   6 lines in following misc. output table
  FWHM = 0.046 ppm    S/N =  14                                            
  Data shift = 0.023 ppm                                                   
  Ph:   8 deg      -0.1 deg/ppm                                            
  alphaB,S = 8.3E-01,   1.0E+02                                            
   14 spline knots.   Ns = 6(1)                                            
  ( 9) 3 infls.   ( 5) 1 extrs.                                            
  498 points on ppm-axis = NY
      4.000000     3.992357     3.984714     3.977070     3.969427     3.961784     3.954141     3.946497     3.938854     3.931211
      3.923568     3.915925     3.908281     3.900638     3.892995     3.885352     3.877708     3.870065     3.862422     3.854779
      3.847136     3.839492     3.831849     3.824206     3.816563     3.808919     3.801276     3.793633     3.785990     3.778347
      3.770703     3.763060     3.755417     3.747774     3.740130     3.732487     3.724844     3.717201     3.709558     3.701914
      3.694271     3.686628     3.678985     3.671341     3.663698     3.656055     3.648412     3.640769     3.633125     3.625482
      3.617839     3.610196     3.602552     3.594909     3.587266     3.579623     3.571980     3.564336     3.556693     3.549050
      3.541407     3.533763     3.526120     3.518477     3.510834     3.503191     3.495547     3.487904     3.480261     3.472618
      3.464974     3.457331     3.449688     3.442045     3.434402     3.426758     3.419115     3.411472     3.403829     3.396185
      3.388542     3.380899     3.373256     3.365613     3.357969     3.350326     3.342683     3.335040     3.327396     3.319753
      3.312110     3.304467     3.296824     3.289180     3.281537     3.273894     3.266251     3.258607     3.250964     3.243321
      3.235678     3.228034     3.220391     3.212748     3.205105     3.197462     3.189818     3.182175     3.174532     3.166889
      3.159245     3.151602     3.143959     3.136316     3.128673     3.121029     3.113386     3.105743     3.098100     3.090456
      3.082813     3.075170     3.067527     3.059884     3.052240     3.044597     3.036954     3.029311     3.021667     3.014024
      3.006381     2.998738     2.991095     2.983451     2.975808     2.968165     2.960522     2.952878     2.945235     2.937592
      2.929949     2.922306     2.914662     2.907019     2.899376     2.891733     2.884089     2.876446     2.868803     2.861160
      2.853517     2.845873     2.838230     2.830587     2.822944     2.815300     2.807657     2.800014     2.792371     2.784728
      2.777084     2.769441     2.761798     2.754155     2.746511     2.738868     2.731225     2.723582     2.715939     2.708295
      2.700652     2.693009     2.685366     2.677722     2.670079     2.662436     2.654793     2.647150     2.639506     2.631863
      2.624220     2.616577     2.608933     2.601290     2.593647     2.586004     2.578361     2.570717     2.563074     2.555431
      2.547788     2.540144     2.532501     2.524858     2.517215     2.509572     2.501928     2.494285     2.486642     2.478999
      2.471355     2.463712     2.456069     2.448426     2.440783     2.433139     2.425496     2.417853     2.410210     2.402566
      2.394923     2.387280     2.379637     2.371994     2.364350     2.356707     2.349064     2.341421     2.333777     2.326134
      2.318491     2.310848     2.303205     2.295561     2.287918     2.280275     2.272632     2.264988     2.257345     2.249702
      2.242059     2.234416     2.226772     2.219129     2.211486     2.203843     2.196199     2.188556     2.180913     2.173270
      2.165627     2.157983     2.150340     2.142697     2.135054     2.127410     2.119767     2.112124     2.104481     2.096838
      2.089194     2.081551     2.073908     2.066265     2.058621     2.050978     2.043335     2.035692     2.028049     2.020405
      2.012762     2.005119     1.997476     1.989833     1.982190     1.974546     1.966903     1.959260     1.951617     1.943974
      1.936331     1.928688     1.921045     1.913402     1.905759     1.898115     1.890472     1.882829     1.875186     1.867543
      1.859900     1.852257     1.844614     1.836971     1.829327     1.821684     1.814041     1.806398     1.798755     1.791112
      1.783469     1.775826     1.768183     1.760540     1.752896     1.745253     1.737610     1.729967     1.722324     1.714681
      1.707038     1.699395     1.691752     1.684108     1.676465     1.668822     1.661179     1.653536     1.645893     1.638250
      1.630607     1.622964     1.615321     1.607677     1.600034     1.592391     1.584748     1.577105     1.569462     1.561819
      1.554176     1.546533     1.538890     1.531246     1.523603     1.515960     1.508317     1.500674     1.493031     1.485388
      1.477745     1.470102     1.462458     1.454815     1.447172     1.439529     1.431886     1.424243     1.416600     1.408957
      1.401314     1.393671     1.386027     1.378384     1.370741     1.363098     1.355455     1.347812     1.340169     1.332526
      1.324883     1.317240     1.309596     1.301953     1.294310     1.286667     1.279024     1.271381     1.263738     1.256095
      1.248452     1.240808     1.233165     1.225522     1.217879     1.210236     1.202593     1.194950     1.187307     1.179664
      1.172021     1.164377     1.156734     1.149091     1.141448     1.133805     1.126162     1.118519     1.110876     1.103233
      1.095590     1.087946     1.080303     1.072660     1.065017     1.057374     1.049731     1.042088     1.034445     1.026802
      1.019158     1.011515     1.003872     0.996229     0.988586     0.980943     0.973300     0.965657     0.958014     0.950371
      0.942727     0.935084     0.927441     0.919798     0.912155     0.904512     0.896869     0.889226     0.881583     0.873940
      0.866296     0.858653     0.851010     0.843367     0.835724     0.828081     0.820438     0.812795     0.805152     0.797508
      0.789865     0.782222     0.774579     0.766936     0.759293     0.751650     0.744007     0.736364     0.728721     0.721077
      0.713434     0.705791     0.698148     0.690505     0.682862     0.675219     0.667576     0.659933     0.652290     0.644646
      0.637003     0.629360     0.621717     0.614074     0.606431     0.598788     0.591145     0.583502     0.575858     0.568215
      0.560572     0.552929     0.545286     0.537643     0.530000     0.522357     0.514714     0.507071     0.499427     0.491784
      0.484141     0.476498     0.468855     0.461212     0.453569     0.445925     0.438282     0.430639     0.422996     0.415353
      0.407710     0.400067     0.392424     0.384780     0.377137     0.369494     0.361851     0.354208     0.346565     0.338922
      0.331278     0.323635     0.315992     0.308349     0.300706     0.293063     0.285420     0.277777     0.270133     0.262490
      0.254847     0.247204     0.239561     0.231918     0.224275     0.216631     0.208988     0.201345
 NY phased data points follow
   3.97902E+01  4.29685E+01  4.14690E+01  4.54823E+01  4.31606E+01  4.88404E+01  5.71098E+01  6.16148E+01  7.24100E+01  8.17346E+01
   9.43691E+01  9.37144E+01  8.60569E+01  8.86126E+01  8.06199E+01  6.27698E+01  5.42430E+01  4.99065E+01  4.33865E+01  4.02397E+01
   3.63965E+01  3.34690E+01  3.50236E+01  3.47546E+01  3.08702E+01  4.19567E+01  3.49596E+01  3.67463E+01  3.51652E+01  4.02414E+01
   3.96809E+01  4.53917E+01  4.46252E+01  4.71104E+01  4.04472E+01  4.29850E+01  3.64897E+01  3.04277E+01  3.39564E+01  2.79427E+01
   3.26184E+01  3.61213E+01  3.60321E+01  3.22135E+01  3.07491E+01  3.35887E+01  3.93322E+01  4.11962E+01  3.90460E+01  4.53112E+01
   3.32665E+01  3.36518E+01  2.94713E+01  2.44829E+01  2.88757E+01  2.84540E+01  2.36719E+01  2.50809E+01  2.65120E+01  2.80047E+01
   3.09645E+01  1.67676E+01  1.61995E+01  1.31074E+01  1.15102E+01  1.06831E+01  7.39821E+00  8.38950E+00  1.16887E+01  9.75911E+00
   8.32014E+00  1.08502E+01  1.18079E+01  9.71965E+00  9.02864E+00  8.23045E+00  7.77591E+00  9.84680E+00  7.33790E+00  9.80509E+00
   1.53340E+01  9.23747E+00  1.17075E+01  9.73450E+00  1.26541E+01  7.43773E+00  8.46348E+00  1.38003E+00  4.88725E+00  7.60282E+00
   7.56589E+00  1.27452E+01  1.44245E+01  1.36514E+01  1.58754E+01  1.34564E+01  1.57475E+01  2.10301E+01  2.65613E+01  2.62585E+01
   3.99473E+01  6.33928E+01  7.15179E+01  8.49889E+01  8.76038E+01  7.36543E+01  5.86378E+01  5.04813E+01  3.71380E+01  2.56727E+01
   1.98281E+01  1.45131E+01  1.01308E+01  1.50454E+01  5.69127E+00  8.68401E+00  1.22512E+01  1.18835E+01  7.32292E+00  8.32245E+00
   1.48042E+01  1.36605E+01  2.36560E+01  2.62635E+01  3.76876E+01  5.10329E+01  7.36195E+01  8.89943E+01  9.24747E+01  8.08479E+01
   6.87802E+01  5.43800E+01  4.30564E+01  2.88888E+01  2.16432E+01  1.63258E+01  1.18824E+01  8.75253E+00  1.77377E+00  4.26166E+00
   6.38306E+00  6.52149E+00  5.80117E+00  7.36952E+00  4.55943E+00  1.33704E+00  4.44586E+00  9.61671E+00  5.52151E+00  1.50804E+00
   2.91858E+00  2.38252E+00  3.73841E+00  2.67308E+00  5.46922E-01  2.06167E-01 -2.71779E+00  2.40402E+00  1.73979E+00  1.62861E+00
  -4.99434E-01 -1.74039E+00 -1.33577E+00 -9.19073E+00 -2.18512E+00 -9.28259E-01  1.63541E+00 -5.41608E-02 -2.35104E-01 -6.88907E+00
  -9.53832E+00 -7.41284E+00 -8.94347E+00 -1.04187E+01 -1.50618E+01 -2.14909E+01 -1.44642E+01 -1.26891E+01 -1.15309E+01 -1.08318E+01
  -1.38524E+01 -1.38492E+01 -1.56819E+01 -1.52515E+01 -1.49057E+01 -1.42704E+01 -1.32062E+01 -5.54978E+00 -6.90909E+00 -2.13702E+00
   9.50707E-01  2.94562E+00  8.23517E+00  8.35717E+00  7.40548E+00  1.26213E+01  6.88975E+00 -5.11240E+00 -1.34395E+00  2.34765E+00
  -1.71317E+00 -3.60828E+00  3.56968E+00  5.71783E+00  4.15558E-01  2.27627E+00 -3.97917E+00 -7.25659E+00 -6.72595E+00 -1.07177E+01
  -8.29335E+00 -7.66014E+00 -4.65102E+00 -1.20902E+00  4.31894E+00  1.53563E+01  1.29938E+01  1.15944E+01  1.57544E+01  4.03263E+00
  -3.76210E+00 -1.05422E+01 -7.40227E+00 -9.28282E+00 -2.34578E-01 -5.13034E+00  8.66715E+00  8.83667E+00  1.25776E+01  1.10940E+01
   1.09311E+01  6.59878E+00  6.48192E+00  7.11759E+00  6.71655E+00  5.53437E+00  7.77239E+00  4.57659E+00  5.95304E+00  5.50501E+00
   4.33032E+00 -1.36529E+00  1.91512E+00  2.80579E+00  4.28869E+00  9.54513E+00  1.00870E+01  1.46712E+01  1.28994E+01  1.81795E+01
   2.09572E+01  1.48983E+01  2.03873E+01  2.66414E+01  3.74869E+01  4.15327E+01  4.19917E+01  5.02245E+01  8.00569E+01  1.10570E+02
   1.21152E+02  1.17157E+02  9.55122E+01  7.57234E+01  4.88390E+01  2.82293E+01  1.96988E+01  1.14373E+01  1.80296E+01  1.15984E+01
   7.00088E+00  7.01794E+00  1.25962E+01  9.41141E+00  8.01334E+00  3.94273E+00  2.40741E+00  3.57869E+00  1.66313E+00  1.04303E-01
   3.00530E+00  2.48564E+00  6.41361E+00  2.48711E+00  1.07739E+01  7.14991E+00  1.08469E+01  1.27593E+01  9.73271E+00  1.16172E+01
   9.96434E+00  3.05134E+00  5.90984E+00  7.22822E+00  7.99453E+00  7.56157E+00  4.59350E+00  6.68580E+00  1.26346E+01  1.25201E+01
   1.26198E+01  5.82125E+00  1.04267E+01  1.57013E+01  1.78814E+01  1.38873E+01  1.40214E+01  1.70947E+01  2.22235E+01  1.44984E+01
   1.31630E+01  1.72048E+01  1.66341E+01  1.90588E+01  2.36691E+01  1.97957E+01  1.95124E+01  1.69770E+01  1.96738E+01  2.04443E+01
   2.10807E+01  2.43061E+01  2.94278E+01  2.41487E+01  2.34203E+01  2.77632E+01  2.57666E+01  3.22767E+01  3.56236E+01  3.82519E+01
   3.24903E+01  3.75974E+01  3.96231E+01  4.36283E+01  4.45964E+01  3.92019E+01  4.80402E+01  4.27543E+01  4.38923E+01  4.42450E+01
   3.59297E+01  3.77756E+01  3.96876E+01  4.51497E+01  4.21160E+01  3.90554E+01  4.00411E+01  3.85224E+01  3.63601E+01  3.27704E+01
   3.73773E+01  3.72633E+01  3.31778E+01  3.36691E+01  3.67143E+01  3.84089E+01  3.36805E+01  3.37709E+01  3.00891E+01  3.64147E+01
   3.34732E+01  3.43963E+01  3.11801E+01  3.36936E+01  3.34968E+01  2.76277E+01  2.62236E+01  2.93916E+01  2.22467E+01  1.92582E+01
   1.48975E+01  2.31430E+01  1.88596E+01  1.60150E+01  2.32243E+01  2.14480E+01  2.16214E+01  2.40662E+01  2.19021E+01  2.73039E+01
   2.44041E+01  2.33195E+01  2.66941E+01  2.06221E+01  2.28766E+01  1.95871E+01  1.82897E+01  2.02939E+01  1.87728E+01  2.31254E+01
   2.14594E+01  2.40670E+01  2.83319E+01  2.60341E+01  2.78054E+01  2.60929E+01  3.35272E+01  2.83255E+01  2.82194E+01  3.23753E+01
   2.55464E+01  2.92549E+01  2.57088E+01  2.43694E+01  2.30245E+01  2.27271E+01  2.62571E+01  2.38031E+01  2.54117E+01  2.52431E+01
   2.01462E+01  2.36374E+01  2.69203E+01  2.45841E+01  2.41703E+01  2.17298E+01  1.93600E+01  2.23640E+01  1.91451E+01  1.68204E+01
   1.87561E+01  1.81836E+01  1.97586E+01  2.05997E+01  1.52799E+01  1.27866E+01  1.28469E+01  1.79563E+01  1.73551E+01  1.28779E+01
   1.64130E+01  1.46699E+01  1.10217E+01  9.73284E+00  1.23555E+01  1.86232E+01  1.51099E+01  1.21701E+01  1.44593E+01  1.03222E+01
   1.04485E+01  1.10850E+01  1.45689E+01  1.88164E+01  1.39388E+01  1.40822E+01  1.20875E+01  9.99569E+00  8.51448E+00  9.40717E+00
   9.89603E+00  8.55978E+00  1.26477E+01  8.32044E+00  8.88447E+00  1.23643E+01  1.11019E+01  6.89256E+00  9.48277E+00  1.08784E+01
   5.21634E+00  7.73849E+00  7.37195E+00  8.87103E+00  8.71245E+00  7.55610E+00  1.22565E+01  1.27926E+01  1.24797E+01  1.09860E+01
   8.39343E+00  9.28705E+00  7.41596E+00  3.62844E+00  9.84836E+00  7.86982E+00  1.04077E+01  8.32124E+00  6.48992E+00  6.84733E+00
   7.19684E+00  8.39925E+00  1.28020E+01  7.17749E+00  8.41457E+00  1.11876E+01  6.23503E+00  1.20996E+01  9.93942E+00  1.01061E+01
   8.54634E+00  1.02979E+01  9.96105E+00  6.61630E+00  4.46286E+00  1.10192E+01  3.04984E+00  4.66512E+00
 NY points of the fit to the data follow
   3.93504E+01  3.90195E+01  3.93183E+01  4.09892E+01  4.38210E+01  4.75789E+01  5.36829E+01  6.13692E+01  7.01706E+01  7.96068E+01
   8.77302E+01  9.17275E+01  8.99451E+01  8.30320E+01  7.32886E+01  6.32035E+01  5.42964E+01  4.74417E+01  4.25274E+01  3.91255E+01
   3.74159E+01  3.63810E+01  3.52452E+01  3.41836E+01  3.37462E+01  3.37069E+01  3.33300E+01  3.34573E+01  3.55230E+01  3.95790E+01
   4.41457E+01  4.75361E+01  4.86225E+01  4.71175E+01  4.36750E+01  3.90133E+01  3.41236E+01  3.02384E+01  2.80290E+01  2.73644E+01
   2.78338E+01  2.91388E+01  3.05688E+01  3.16158E+01  3.26293E+01  3.40312E+01  3.54911E+01  3.61818E+01  3.56425E+01  3.38884E+01
   3.14163E+01  2.88068E+01  2.64249E+01  2.45362E+01  2.32761E+01  2.26386E+01  2.24670E+01  2.25477E+01  2.28171E+01  2.30981E+01
   2.30917E+01  2.26013E+01  2.16095E+01  2.03402E+01  1.90807E+01  1.81065E+01  1.75665E+01  1.73919E+01  1.74623E+01  1.76895E+01
   1.79832E+01  1.81695E+01  1.81099E+01  1.77677E+01  1.72124E+01  1.65836E+01  1.59739E+01  1.54344E+01  1.49576E+01  1.45387E+01
   1.41417E+01  1.36680E+01  1.31250E+01  1.25197E+01  1.17990E+01  1.08842E+01  9.82711E+00  8.85623E+00  8.23466E+00  8.07491E+00
   8.38081E+00  8.98684E+00  9.71130E+00  1.04764E+01  1.12376E+01  1.20419E+01  1.38332E+01  1.90395E+01  2.52668E+01  3.11889E+01
   4.11454E+01  5.73348E+01  7.51542E+01  8.67707E+01  8.74661E+01  7.80914E+01  6.32421E+01  4.75335E+01  3.36207E+01  2.24229E+01
   1.42297E+01  1.01037E+01  8.76209E+00  8.21038E+00  7.91163E+00  7.73724E+00  7.66471E+00  7.68425E+00  7.81967E+00  8.22619E+00
   9.60631E+00  1.44560E+01  2.20124E+01  2.88735E+01  3.83929E+01  5.44528E+01  7.42082E+01  8.95831E+01  9.40982E+01  8.68832E+01
   7.21306E+01  5.54211E+01  4.01944E+01  2.74721E+01  1.72376E+01  1.03446E+01  6.89394E+00  4.87746E+00  3.81412E+00  3.70479E+00
   4.33671E+00  5.27887E+00  6.11460E+00  6.52549E+00  6.39576E+00  5.87065E+00  5.15700E+00  4.41310E+00  3.76043E+00  3.18339E+00
   2.71815E+00  2.33278E+00  1.97208E+00  1.63205E+00  1.22985E+00  7.93720E-01  5.44661E-01  3.44408E-01 -2.64725E-02 -6.77939E-01
  -1.50651E+00 -1.95129E+00 -1.73707E+00 -1.20541E+00 -9.34256E-01 -1.20624E+00 -1.92746E+00 -2.81245E+00 -3.69558E+00 -4.59271E+00
  -5.46081E+00 -6.01310E+00 -6.36428E+00 -6.86679E+00 -7.63400E+00 -8.25439E+00 -8.20138E+00 -7.69957E+00 -7.30570E+00 -7.34009E+00
  -7.71003E+00 -8.00088E+00 -7.83235E+00 -7.61596E+00 -7.71077E+00 -7.71188E+00 -7.10636E+00 -5.74265E+00 -3.87375E+00 -1.84745E+00
   5.68563E-02  1.36148E+00  1.65695E+00  1.23350E+00  4.02041E-01 -8.29202E-01 -2.25694E+00 -3.35503E+00 -3.65171E+00 -2.89214E+00
  -1.14370E+00  1.07043E+00  3.17733E+00  4.56858E+00  4.68558E+00  3.71587E+00  1.53540E+00 -1.67461E+00 -4.90496E+00 -7.25883E+00
  -7.89767E+00 -7.05509E+00 -4.74796E+00 -7.33091E-01  4.31112E+00  8.51290E+00  1.00387E+01  8.57928E+00  5.01928E+00  2.98292E-01
  -5.11971E+00 -9.93110E+00 -1.23730E+01 -1.16291E+01 -8.00121E+00 -3.16496E+00  1.37325E+00  5.01432E+00  7.46001E+00  8.41139E+00
   7.92651E+00  6.85660E+00  6.10984E+00  5.94838E+00  6.25904E+00  7.22928E+00  8.66533E+00  9.93639E+00  1.06597E+01  1.04712E+01
   9.32516E+00  7.68853E+00  6.41134E+00  6.04780E+00  6.70173E+00  8.22819E+00  1.02102E+01  1.21179E+01  1.34419E+01  1.41938E+01
   1.47439E+01  1.52768E+01  1.62506E+01  2.01642E+01  3.03128E+01  3.92711E+01  4.73659E+01  6.20060E+01  8.45910E+01  1.06582E+02
   1.17519E+02  1.13308E+02  9.72470E+01  7.62776E+01  5.58553E+01  3.84622E+01  2.45001E+01  1.45468E+01  1.04778E+01  8.87529E+00
   7.79228E+00  7.04202E+00  6.65704E+00  6.52709E+00  6.46719E+00  6.37935E+00  6.21289E+00  5.96404E+00  5.65018E+00  5.30326E+00
   4.97081E+00  4.72157E+00  4.59701E+00  4.58655E+00  4.66069E+00  4.79335E+00  4.97410E+00  5.20111E+00  5.47236E+00  5.79207E+00
   6.17476E+00  6.62486E+00  7.13668E+00  7.69826E+00  8.30085E+00  8.93465E+00  9.58629E+00  1.02452E+01  1.09034E+01  1.15535E+01
   1.21903E+01  1.28068E+01  1.33925E+01  1.39373E+01  1.44333E+01  1.48777E+01  1.52723E+01  1.56216E+01  1.59344E+01  1.62224E+01
   1.64999E+01  1.67841E+01  1.70931E+01  1.74445E+01  1.78559E+01  1.83442E+01  1.89252E+01  1.96122E+01  2.04147E+01  2.13377E+01
   2.23815E+01  2.35423E+01  2.48118E+01  2.61767E+01  2.76190E+01  2.91161E+01  3.06429E+01  3.21719E+01  3.36748E+01  3.51226E+01
   3.64871E+01  3.77419E+01  3.88641E+01  3.98355E+01  4.06427E+01  4.12774E+01  4.17372E+01  4.20259E+01  4.21545E+01  4.21422E+01
   4.20218E+01  4.18397E+01  4.15474E+01  4.11345E+01  4.07215E+01  4.03232E+01  3.98103E+01  3.90600E+01  3.81012E+01  3.71565E+01
   3.63520E+01  3.56970E+01  3.52584E+01  3.51122E+01  3.52175E+01  3.54144E+01  3.54691E+01  3.52204E+01  3.46743E+01  3.39024E+01
   3.29813E+01  3.19694E+01  3.09088E+01  2.98752E+01  2.88980E+01  2.79632E+01  2.70673E+01  2.62105E+01  2.53932E+01  2.46161E+01
   2.38807E+01  2.31898E+01  2.25478E+01  2.19598E+01  2.14315E+01  2.09685E+01  2.05764E+01  2.02607E+01  2.00263E+01  1.98773E+01
   1.98164E+01  1.98449E+01  1.99631E+01  2.01700E+01  2.04630E+01  2.08374E+01  2.12866E+01  2.18020E+01  2.23735E+01  2.29893E+01
   2.36360E+01  2.42986E+01  2.49611E+01  2.56074E+01  2.62213E+01  2.67876E+01  2.72918E+01  2.77212E+01  2.80649E+01  2.83148E+01
   2.84657E+01  2.85148E+01  2.84622E+01  2.83102E+01  2.80636E+01  2.77292E+01  2.73154E+01  2.68316E+01  2.62873E+01  2.56927E+01
   2.50575E+01  2.43915E+01  2.37035E+01  2.30018E+01  2.22934E+01  2.15846E+01  2.08811E+01  2.01878E+01  1.95089E+01  1.88476E+01
   1.82067E+01  1.75885E+01  1.69949E+01  1.64276E+01  1.58876E+01  1.53755E+01  1.48916E+01  1.44359E+01  1.40085E+01  1.36090E+01
   1.32366E+01  1.28905E+01  1.25694E+01  1.22725E+01  1.19986E+01  1.17465E+01  1.15148E+01  1.13019E+01  1.11067E+01  1.09280E+01
   1.07647E+01  1.06154E+01  1.04790E+01  1.03544E+01  1.02406E+01  1.01369E+01  1.00425E+01  9.95644E+00  9.87792E+00  9.80630E+00
   9.74109E+00  9.68185E+00  9.62805E+00  9.57911E+00  9.53457E+00  9.49413E+00  9.45758E+00  9.42468E+00  9.39505E+00  9.36833E+00
   9.34428E+00  9.32280E+00  9.30380E+00  9.28711E+00  9.27246E+00  9.25961E+00  9.24850E+00  9.23910E+00  9.23137E+00  9.22514E+00
   9.22022E+00  9.21649E+00  9.21395E+00  9.21266E+00  9.21254E+00  9.21345E+00  9.21524E+00  9.21788E+00  9.22143E+00  9.22592E+00
   9.23126E+00  9.23732E+00  9.24401E+00  9.25138E+00  9.25950E+00  9.26838E+00  9.27791E+00  9.28797E+00  9.29856E+00  9.30975E+00
   9.32162E+00  9.33412E+00  9.34715E+00  9.36062E+00  9.37460E+00  9.38919E+00  9.40441E+00  9.42021E+00
 NY background values follow
     3.488E+01    3.457E+01    3.426E+01    3.395E+01    3.364E+01    3.333E+01    3.303E+01    3.272E+01    3.241E+01    3.210E+01
     3.179E+01    3.148E+01    3.117E+01    3.086E+01    3.055E+01    3.024E+01    2.993E+01    2.963E+01    2.932E+01    2.901E+01
     2.870E+01    2.839E+01    2.809E+01    2.778E+01    2.747E+01    2.717E+01    2.686E+01    2.655E+01    2.625E+01    2.595E+01
     2.564E+01    2.534E+01    2.504E+01    2.473E+01    2.443E+01    2.413E+01    2.383E+01    2.353E+01    2.323E+01    2.293E+01
     2.263E+01    2.234E+01    2.204E+01    2.175E+01    2.145E+01    2.116E+01    2.087E+01    2.057E+01    2.028E+01    1.999E+01
     1.971E+01    1.942E+01    1.913E+01    1.885E+01    1.856E+01    1.828E+01    1.799E+01    1.771E+01    1.743E+01    1.716E+01
     1.688E+01    1.660E+01    1.633E+01    1.605E+01    1.578E+01    1.551E+01    1.524E+01    1.497E+01    1.471E+01    1.444E+01
     1.418E+01    1.391E+01    1.365E+01    1.339E+01    1.314E+01    1.288E+01    1.263E+01    1.237E+01    1.212E+01    1.187E+01
     1.163E+01    1.138E+01    1.114E+01    1.090E+01    1.066E+01    1.042E+01    1.018E+01    9.946E+00    9.713E+00    9.483E+00
     9.254E+00    9.027E+00    8.803E+00    8.580E+00    8.360E+00    8.141E+00    7.924E+00    7.710E+00    7.497E+00    7.286E+00
     7.078E+00    6.871E+00    6.666E+00    6.463E+00    6.262E+00    6.063E+00    5.865E+00    5.670E+00    5.477E+00    5.285E+00
     5.095E+00    4.907E+00    4.721E+00    4.537E+00    4.355E+00    4.174E+00    3.995E+00    3.818E+00    3.643E+00    3.470E+00
     3.298E+00    3.128E+00    2.960E+00    2.794E+00    2.629E+00    2.466E+00    2.305E+00    2.146E+00    1.988E+00    1.832E+00
     1.677E+00    1.525E+00    1.374E+00    1.224E+00    1.077E+00    9.306E-01    7.862E-01    6.434E-01    5.022E-01    3.627E-01
     2.248E-01    8.866E-02   -4.585E-02   -1.787E-01   -3.098E-01   -4.393E-01   -5.670E-01   -6.930E-01   -8.174E-01   -9.399E-01
    -1.061E+00   -1.180E+00   -1.297E+00   -1.413E+00   -1.527E+00   -1.639E+00   -1.749E+00   -1.857E+00   -1.964E+00   -2.069E+00
    -2.172E+00   -2.273E+00   -2.373E+00   -2.470E+00   -2.566E+00   -2.660E+00   -2.752E+00   -2.842E+00   -2.930E+00   -3.016E+00
    -3.101E+00   -3.183E+00   -3.264E+00   -3.343E+00   -3.419E+00   -3.494E+00   -3.567E+00   -3.638E+00   -3.707E+00   -3.774E+00
    -3.839E+00   -3.902E+00   -3.963E+00   -4.022E+00   -4.079E+00   -4.135E+00   -4.188E+00   -4.239E+00   -4.289E+00   -4.337E+00
    -4.383E+00   -4.427E+00   -4.470E+00   -4.510E+00   -4.549E+00   -4.587E+00   -4.623E+00   -4.657E+00   -4.689E+00   -4.720E+00
    -4.749E+00   -4.777E+00   -4.803E+00   -4.828E+00   -4.851E+00   -4.873E+00   -4.893E+00   -4.912E+00   -4.930E+00   -4.946E+00
    -4.961E+00   -4.974E+00   -4.986E+00   -4.997E+00   -5.007E+00   -5.015E+00   -5.023E+00   -5.029E+00   -5.034E+00   -5.037E+00
    -5.040E+00   -5.042E+00   -5.042E+00   -5.042E+00   -5.040E+00   -5.038E+00   -5.034E+00   -5.030E+00   -5.024E+00   -5.018E+00
    -5.010E+00   -5.002E+00   -4.993E+00   -4.983E+00   -4.972E+00   -4.960E+00   -4.947E+00   -4.933E+00   -4.919E+00   -4.903E+00
    -4.887E+00   -4.869E+00   -4.851E+00   -4.832E+00   -4.812E+00   -4.791E+00   -4.769E+00   -4.747E+00   -4.723E+00   -4.699E+00
    -4.674E+00   -4.648E+00   -4.621E+00   -4.594E+00   -4.565E+00   -4.536E+00   -4.506E+00   -4.475E+00   -4.443E+00   -4.411E+00
    -4.377E+00   -4.343E+00   -4.308E+00   -4.273E+00   -4.236E+00   -4.199E+00   -4.161E+00   -4.122E+00   -4.083E+00   -4.042E+00
    -4.001E+00   -3.960E+00   -3.917E+00   -3.874E+00   -3.830E+00   -3.785E+00   -3.740E+00   -3.694E+00   -3.647E+00   -3.600E+00
    -3.552E+00   -3.503E+00   -3.453E+00   -3.404E+00   -3.353E+00   -3.302E+00   -3.250E+00   -3.198E+00   -3.145E+00   -3.091E+00
    -3.037E+00   -2.982E+00   -2.927E+00   -2.872E+00   -2.816E+00   -2.759E+00   -2.702E+00   -2.644E+00   -2.586E+00   -2.527E+00
    -2.469E+00   -2.409E+00   -2.349E+00   -2.289E+00   -2.228E+00   -2.167E+00   -2.106E+00   -2.044E+00   -1.982E+00   -1.919E+00
    -1.857E+00   -1.793E+00   -1.730E+00   -1.666E+00   -1.602E+00   -1.538E+00   -1.473E+00   -1.408E+00   -1.343E+00   -1.278E+00
    -1.212E+00   -1.146E+00   -1.080E+00   -1.014E+00   -9.472E-01   -8.804E-01   -8.134E-01   -7.463E-01   -6.790E-01   -6.114E-01
    -5.438E-01   -4.759E-01   -4.079E-01   -3.397E-01   -2.714E-01   -2.030E-01   -1.344E-01   -6.568E-02    3.146E-03    7.208E-02
     1.411E-01    2.103E-01    2.795E-01    3.488E-01    4.182E-01    4.877E-01    5.572E-01    6.268E-01    6.964E-01    7.661E-01
     8.358E-01    9.055E-01    9.753E-01    1.045E+00    1.115E+00    1.185E+00    1.254E+00    1.324E+00    1.394E+00    1.464E+00
     1.533E+00    1.603E+00    1.673E+00    1.742E+00    1.812E+00    1.881E+00    1.950E+00    2.020E+00    2.089E+00    2.158E+00
     2.227E+00    2.296E+00    2.364E+00    2.433E+00    2.501E+00    2.570E+00    2.638E+00    2.706E+00    2.774E+00    2.842E+00
     2.909E+00    2.976E+00    3.044E+00    3.110E+00    3.177E+00    3.244E+00    3.310E+00    3.376E+00    3.442E+00    3.507E+00
     3.573E+00    3.638E+00    3.703E+00    3.767E+00    3.831E+00    3.895E+00    3.959E+00    4.022E+00    4.085E+00    4.148E+00
     4.210E+00    4.272E+00    4.334E+00    4.395E+00    4.456E+00    4.517E+00    4.577E+00    4.637E+00    4.697E+00    4.756E+00
     4.815E+00    4.873E+00    4.931E+00    4.988E+00    5.046E+00    5.102E+00    5.159E+00    5.215E+00    5.270E+00    5.325E+00
     5.380E+00    5.434E+00    5.488E+00    5.542E+00    5.595E+00    5.648E+00    5.700E+00    5.752E+00    5.803E+00    5.854E+00
     5.905E+00    5.955E+00    6.004E+00    6.053E+00    6.102E+00    6.151E+00    6.198E+00    6.246E+00    6.293E+00    6.339E+00
     6.386E+00    6.431E+00    6.476E+00    6.521E+00    6.565E+00    6.609E+00    6.653E+00    6.695E+00    6.738E+00    6.780E+00
     6.821E+00    6.862E+00    6.903E+00    6.943E+00    6.982E+00    7.021E+00    7.060E+00    7.098E+00    7.136E+00    7.173E+00
     7.210E+00    7.247E+00    7.283E+00    7.319E+00    7.355E+00    7.390E+00    7.425E+00    7.460E+00    7.494E+00    7.528E+00
     7.562E+00    7.595E+00    7.629E+00    7.662E+00    7.694E+00    7.727E+00    7.760E+00    7.792E+00    7.824E+00    7.856E+00
     7.887E+00    7.919E+00    7.951E+00    7.982E+00    8.013E+00    8.044E+00    8.076E+00    8.107E+00    8.138E+00    8.169E+00
     8.200E+00    8.231E+00    8.262E+00    8.293E+00    8.324E+00    8.355E+00    8.386E+00    8.417E+00
 Cr       Conc. = 1.41E+03
