 LCModel (Version 6.3-1L) Copyright: S.W. Provencher.          Ref.: Magn. Reson. Med. 30:672-679 (1993).                
 Slice#1 Row#11 Col#3  K_02_press_1_raw_act
 36 lines in following concentration table = NCONC+1
    Conc.  %SD /Cr+PCr  Metabolite                                         
  132.735  65%   0.239 Ala                                                 
    0.000 999%   0.000 Asp                                                 
    0.000 999%   0.000 Cr                                                  
  555.723   7%   1.000 PCr                                                 
   86.386  93%   0.155 GABA                                                
   88.841  86%   0.160 Glc                                                 
  418.612  46%   0.753 Gln                                                 
  799.479  28%   1.439 Glu                                                 
  214.420   7%   0.386 GPC                                                 
    0.000 999%   0.000 PCh                                                 
  171.212  32%   0.308 GSH                                                 
  944.384  21%   1.699 Ins                                                 
    0.000 999%   0.000 Lac                                                 
 1.01E+03   7%   1.810 NAA                                                 
  231.985  32%   0.417 NAAG                                                
   81.426  21%   0.147 Scyllo                                              
  233.021  50%   0.419 Tau                                                 
  418.761  18%   0.754 -CrCH2                                              
  214.420   7%   0.386 GPC+PCh                                             
 1.24E+03   4%   2.228 NAA+NAAG                                            
  555.723   7%   1.000 Cr+PCr                                              
 1.22E+03  28%   2.192 Glu+Gln                                             
  398.337  56%   0.717 Lip13a                                              
    0.000 999%   0.000 Lip13b                                              
   24.738 440% 4.5E-02 Lip09                                               
  421.593  30%   0.759 MM09                                                
   76.716 102%   0.138 Lip20                                               
  625.897  35%   1.126 MM20                                                
  140.341  49%   0.253 MM12                                                
  506.788  32%   0.912 MM14                                                
  259.604  47%   0.467 MM17                                                
  398.337  56%   0.717 Lip13a+Lip13b                                       
 1.05E+03  25%   1.881 MM14+Lip13a+Lip13b+MM12                             
  446.331  26%   0.803 MM09+Lip09                                          
  702.613  32%   1.264 MM20+Lip20                                          
   6 lines in following misc. output table
  FWHM = 0.076 ppm    S/N =   7                                            
  Data shift =-0.015 ppm                                                   
  Ph: -26 deg     -11.1 deg/ppm                                            
  alphaB,S = 9.0E-01,   1.0E+02                                            
   14 spline knots.   Ns = 8(1)                                            
  (14) 4 infls.   (16) 1 extrs.                                            
  498 points on ppm-axis = NY
      4.000000     3.992357     3.984714     3.977070     3.969427     3.961784     3.954141     3.946497     3.938854     3.931211
      3.923568     3.915925     3.908281     3.900638     3.892995     3.885352     3.877708     3.870065     3.862422     3.854779
      3.847136     3.839492     3.831849     3.824206     3.816563     3.808919     3.801276     3.793633     3.785990     3.778347
      3.770703     3.763060     3.755417     3.747774     3.740130     3.732487     3.724844     3.717201     3.709558     3.701914
      3.694271     3.686628     3.678985     3.671341     3.663698     3.656055     3.648412     3.640769     3.633125     3.625482
      3.617839     3.610196     3.602552     3.594909     3.587266     3.579623     3.571980     3.564336     3.556693     3.549050
      3.541407     3.533763     3.526120     3.518477     3.510834     3.503191     3.495547     3.487904     3.480261     3.472618
      3.464974     3.457331     3.449688     3.442045     3.434402     3.426758     3.419115     3.411472     3.403829     3.396185
      3.388542     3.380899     3.373256     3.365613     3.357969     3.350326     3.342683     3.335040     3.327396     3.319753
      3.312110     3.304467     3.296824     3.289180     3.281537     3.273894     3.266251     3.258607     3.250964     3.243321
      3.235678     3.228034     3.220391     3.212748     3.205105     3.197462     3.189818     3.182175     3.174532     3.166889
      3.159245     3.151602     3.143959     3.136316     3.128673     3.121029     3.113386     3.105743     3.098100     3.090456
      3.082813     3.075170     3.067527     3.059884     3.052240     3.044597     3.036954     3.029311     3.021667     3.014024
      3.006381     2.998738     2.991095     2.983451     2.975808     2.968165     2.960522     2.952878     2.945235     2.937592
      2.929949     2.922306     2.914662     2.907019     2.899376     2.891733     2.884089     2.876446     2.868803     2.861160
      2.853517     2.845873     2.838230     2.830587     2.822944     2.815300     2.807657     2.800014     2.792371     2.784728
      2.777084     2.769441     2.761798     2.754155     2.746511     2.738868     2.731225     2.723582     2.715939     2.708295
      2.700652     2.693009     2.685366     2.677722     2.670079     2.662436     2.654793     2.647150     2.639506     2.631863
      2.624220     2.616577     2.608933     2.601290     2.593647     2.586004     2.578361     2.570717     2.563074     2.555431
      2.547788     2.540144     2.532501     2.524858     2.517215     2.509572     2.501928     2.494285     2.486642     2.478999
      2.471355     2.463712     2.456069     2.448426     2.440783     2.433139     2.425496     2.417853     2.410210     2.402566
      2.394923     2.387280     2.379637     2.371994     2.364350     2.356707     2.349064     2.341421     2.333777     2.326134
      2.318491     2.310848     2.303205     2.295561     2.287918     2.280275     2.272632     2.264988     2.257345     2.249702
      2.242059     2.234416     2.226772     2.219129     2.211486     2.203843     2.196199     2.188556     2.180913     2.173270
      2.165627     2.157983     2.150340     2.142697     2.135054     2.127410     2.119767     2.112124     2.104481     2.096838
      2.089194     2.081551     2.073908     2.066265     2.058621     2.050978     2.043335     2.035692     2.028049     2.020405
      2.012762     2.005119     1.997476     1.989833     1.982190     1.974546     1.966903     1.959260     1.951617     1.943974
      1.936331     1.928688     1.921045     1.913402     1.905759     1.898115     1.890472     1.882829     1.875186     1.867543
      1.859900     1.852257     1.844614     1.836971     1.829327     1.821684     1.814041     1.806398     1.798755     1.791112
      1.783469     1.775826     1.768183     1.760540     1.752896     1.745253     1.737610     1.729967     1.722324     1.714681
      1.707038     1.699395     1.691752     1.684108     1.676465     1.668822     1.661179     1.653536     1.645893     1.638250
      1.630607     1.622964     1.615321     1.607677     1.600034     1.592391     1.584748     1.577105     1.569462     1.561819
      1.554176     1.546533     1.538890     1.531246     1.523603     1.515960     1.508317     1.500674     1.493031     1.485388
      1.477745     1.470102     1.462458     1.454815     1.447172     1.439529     1.431886     1.424243     1.416600     1.408957
      1.401314     1.393671     1.386027     1.378384     1.370741     1.363098     1.355455     1.347812     1.340169     1.332526
      1.324883     1.317240     1.309596     1.301953     1.294310     1.286667     1.279024     1.271381     1.263738     1.256095
      1.248452     1.240808     1.233165     1.225522     1.217879     1.210236     1.202593     1.194950     1.187307     1.179664
      1.172021     1.164377     1.156734     1.149091     1.141448     1.133805     1.126162     1.118519     1.110876     1.103233
      1.095590     1.087946     1.080303     1.072660     1.065017     1.057374     1.049731     1.042088     1.034445     1.026802
      1.019158     1.011515     1.003872     0.996229     0.988586     0.980943     0.973300     0.965657     0.958014     0.950371
      0.942727     0.935084     0.927441     0.919798     0.912155     0.904512     0.896869     0.889226     0.881583     0.873940
      0.866296     0.858653     0.851010     0.843367     0.835724     0.828081     0.820438     0.812795     0.805152     0.797508
      0.789865     0.782222     0.774579     0.766936     0.759293     0.751650     0.744007     0.736364     0.728721     0.721077
      0.713434     0.705791     0.698148     0.690505     0.682862     0.675219     0.667576     0.659933     0.652290     0.644646
      0.637003     0.629360     0.621717     0.614074     0.606431     0.598788     0.591145     0.583502     0.575858     0.568215
      0.560572     0.552929     0.545286     0.537643     0.530000     0.522357     0.514714     0.507071     0.499427     0.491784
      0.484141     0.476498     0.468855     0.461212     0.453569     0.445925     0.438282     0.430639     0.422996     0.415353
      0.407710     0.400067     0.392424     0.384780     0.377137     0.369494     0.361851     0.354208     0.346565     0.338922
      0.331278     0.323635     0.315992     0.308349     0.300706     0.293063     0.285420     0.277777     0.270133     0.262490
      0.254847     0.247204     0.239561     0.231918     0.224275     0.216631     0.208988     0.201345
 NY phased data points follow
  -6.36402E+01 -6.33036E+01 -6.12069E+01 -5.87444E+01 -6.01929E+01 -5.94760E+01 -5.67337E+01 -5.12047E+01 -5.57582E+01 -5.47499E+01
  -5.04989E+01 -4.79622E+01 -4.87874E+01 -4.98927E+01 -5.21398E+01 -5.25700E+01 -5.40356E+01 -5.36778E+01 -5.54206E+01 -5.70929E+01
  -5.40546E+01 -5.24173E+01 -5.32462E+01 -4.84577E+01 -4.83321E+01 -4.74505E+01 -4.92234E+01 -4.53501E+01 -4.52036E+01 -4.42579E+01
  -4.64005E+01 -4.39228E+01 -4.02142E+01 -4.36035E+01 -4.22544E+01 -4.22874E+01 -4.05994E+01 -4.09617E+01 -4.30696E+01 -4.18996E+01
  -3.82797E+01 -4.14989E+01 -3.58284E+01 -3.75956E+01 -4.10909E+01 -3.80286E+01 -3.42119E+01 -3.52499E+01 -3.41275E+01 -3.77137E+01
  -3.65882E+01 -3.76171E+01 -3.57055E+01 -3.37285E+01 -3.83979E+01 -3.70804E+01 -3.48086E+01 -3.23255E+01 -3.84435E+01 -3.67309E+01
  -3.63538E+01 -3.66145E+01 -3.45755E+01 -3.34338E+01 -3.79410E+01 -3.23293E+01 -3.37696E+01 -3.51747E+01 -3.24273E+01 -3.54513E+01
  -3.43302E+01 -3.42239E+01 -3.11009E+01 -3.24813E+01 -3.23312E+01 -3.06700E+01 -2.73111E+01 -2.93510E+01 -2.86016E+01 -3.00359E+01
  -3.04237E+01 -3.11484E+01 -2.55602E+01 -2.44637E+01 -3.09272E+01 -2.51977E+01 -2.68969E+01 -2.55305E+01 -2.61482E+01 -2.75957E+01
  -2.59912E+01 -2.50807E+01 -2.52723E+01 -2.23621E+01 -2.33106E+01 -2.12687E+01 -2.18193E+01 -1.68993E+01 -1.86477E+01 -1.41775E+01
  -1.32442E+01 -9.50772E+00 -9.22093E+00 -1.08994E+01 -1.24005E+01 -1.18981E+01 -1.78024E+01 -1.68116E+01 -2.13786E+01 -2.26049E+01
  -2.50830E+01 -2.36980E+01 -2.47041E+01 -2.15470E+01 -2.67354E+01 -2.13361E+01 -2.29965E+01 -2.08730E+01 -1.77182E+01 -2.10220E+01
  -1.85623E+01 -1.85245E+01 -1.51626E+01 -1.26146E+01 -1.00330E+01 -9.32074E+00 -6.28303E+00 -7.61898E+00 -4.59926E+00 -5.41375E+00
  -9.42922E+00 -9.06997E+00 -1.45812E+01 -1.78253E+01 -1.85111E+01 -1.76333E+01 -1.83310E+01 -2.00444E+01 -1.78168E+01 -2.12233E+01
  -2.03679E+01 -2.03837E+01 -1.98140E+01 -2.00295E+01 -1.80452E+01 -2.07137E+01 -1.89485E+01 -1.65025E+01 -1.33073E+01 -1.64102E+01
  -1.57467E+01 -1.94298E+01 -1.54632E+01 -1.18807E+01 -1.67523E+01 -1.64021E+01 -1.52208E+01 -1.46940E+01 -1.62379E+01 -1.35795E+01
  -1.33152E+01 -1.57347E+01 -1.51698E+01 -1.62840E+01 -1.68691E+01 -1.63003E+01 -1.58752E+01 -1.62964E+01 -1.74240E+01 -1.96942E+01
  -1.94393E+01 -2.03834E+01 -1.83717E+01 -2.15117E+01 -1.81997E+01 -1.79257E+01 -2.03829E+01 -2.20651E+01 -2.04592E+01 -1.91129E+01
  -1.42893E+01 -1.51060E+01 -1.44110E+01 -1.58759E+01 -1.44445E+01 -1.26300E+01 -1.67295E+01 -1.79582E+01 -1.47132E+01 -1.45042E+01
  -1.40179E+01 -1.69572E+01 -1.51620E+01 -1.39428E+01 -1.23155E+01 -1.51156E+01 -1.23250E+01 -1.31311E+01 -1.66152E+01 -9.85679E+00
  -1.52698E+01 -1.17952E+01 -1.38467E+01 -1.09240E+01 -1.03205E+01 -6.76258E+00 -9.19584E+00 -1.19369E+01 -1.11283E+01 -1.46377E+01
  -1.28999E+01 -1.14539E+01 -1.28493E+01 -7.87536E+00 -9.86668E+00 -6.93746E+00 -9.96817E+00 -4.46445E+00 -8.38987E+00 -8.76637E+00
  -1.51458E+01 -9.65216E+00 -1.13503E+01 -1.13660E+01 -1.34081E+01 -1.20731E+01 -7.79951E+00 -7.39194E+00 -7.98496E+00 -7.44803E+00
  -1.00059E+01 -9.79315E+00 -2.93153E+00 -7.43820E+00 -7.40855E+00 -7.39560E+00 -5.09483E+00 -8.53616E+00 -5.34782E+00 -3.90279E+00
  -4.29705E+00 -6.42343E+00 -8.40543E+00 -5.14798E+00 -8.06547E+00 -9.37552E+00 -2.53887E+00 -6.58922E+00  5.65428E-02 -3.51936E+00
   4.10677E+00  2.33986E+00  3.84065E+00  8.29050E+00  1.11301E+01  1.50708E+01  1.65965E+01  2.35336E+01  2.41600E+01  2.44124E+01
   2.52540E+01  2.29680E+01  2.25691E+01  2.28291E+01  1.36048E+01  7.14249E+00 -2.38283E-02 -4.15892E+00 -7.94404E+00 -1.69753E+00
  -9.13570E+00 -6.59796E+00 -4.47933E+00 -4.77153E+00 -4.26599E+00 -3.89417E+00 -3.01837E+00 -1.34498E+00 -4.65307E+00 -4.57852E+00
  -1.21369E+00 -1.71940E+00 -3.02849E+00 -6.80297E+00 -2.98017E+00 -2.56108E+00 -5.25828E+00 -6.71160E+00 -2.68662E+00 -3.18077E+00
  -9.95377E-01 -3.05614E+00 -3.34221E+00 -5.64135E+00 -3.19916E+00 -3.04755E+00 -3.30408E+00 -5.94307E+00 -2.13327E+00 -3.62217E+00
  -1.04721E+00 -1.33505E+00 -1.05330E+00 -9.41501E-01 -1.14124E+00 -2.11960E+00  7.76720E-01 -1.41340E+00 -2.28120E+00 -2.86522E+00
  -1.62011E+00  8.70890E-01  7.89204E-01 -2.98115E+00  5.39285E-01 -1.58426E+00 -3.50248E+00 -4.09858E+00  2.86430E+00  1.51842E-01
   6.43958E-01  1.75725E+00 -1.25642E+00 -2.79301E+00  3.45130E-01 -1.45998E+00  3.18544E+00  2.89895E-01 -1.93402E+00  2.16279E-01
   2.19865E-01 -2.72302E+00 -9.28942E-01 -3.45791E-01  2.31227E+00  2.51501E+00 -5.48848E-01  1.20559E+00  2.22836E+00  3.11205E+00
   3.14272E+00 -6.24661E-01  9.49222E-01 -2.05357E-01  1.94152E+00  2.77263E+00  8.51565E-02  1.20950E-01  1.57937E+00  4.56622E+00
  -2.63281E-01  1.08846E+00  3.81046E+00  2.07467E+00 -1.09419E+00 -2.44562E-02 -6.69137E-01  1.90919E+00  3.33142E-01 -4.14807E+00
   1.63401E+00 -1.25531E+00  1.61763E-01 -3.11354E+00 -8.92927E-01  1.77492E+00 -3.81703E-01  2.18574E+00 -1.57796E+00  2.11650E+00
   5.95220E-01 -1.45889E+00  2.88894E+00  7.08956E-01 -9.13565E-02  2.71887E-01  3.43070E+00  3.53615E+00  2.10538E-01  1.33272E+00
  -3.71746E-01 -1.53443E+00 -1.80553E+00 -3.41795E-01 -2.20959E+00  1.80602E-01  1.28104E+00  1.01960E+00  3.34387E+00  1.95193E+00
  -3.21767E+00  2.35525E+00 -1.22586E+00  2.63530E+00 -1.70068E+00  2.22500E+00  2.82519E+00  2.54479E+00 -7.41416E-01  7.25798E-01
  -2.34789E+00 -1.65121E+00  8.80376E-01  8.67994E-01  2.12976E+00  1.12562E+00 -8.45515E-01 -2.04939E+00 -1.85682E+00 -2.75918E+00
  -1.62568E+00  5.75188E-02 -3.38962E-01 -4.36533E-02  1.58523E+00 -1.45600E+00 -1.64558E+00 -2.80038E+00  1.68403E+00 -5.08900E-01
  -3.41986E+00 -4.52232E+00 -3.89363E+00 -2.25567E+00 -3.49339E+00 -3.30827E+00 -1.23728E+00 -1.29900E+00 -1.70317E+00 -2.05165E+00
  -1.59379E+00 -2.95887E+00  1.02958E-01 -3.99260E+00 -2.20878E+00 -4.65534E+00 -2.69626E+00 -5.74090E+00 -1.62542E+00 -1.55981E+00
  -2.98749E+00 -4.26204E+00 -1.31660E+00 -3.75770E+00 -1.36745E+00 -3.17826E+00 -3.55263E+00 -5.74440E+00 -3.15532E+00 -2.87991E+00
   9.78888E-01 -6.19300E+00 -3.74292E+00 -4.93516E+00 -2.79813E+00 -1.54533E+00 -1.22264E+00 -1.96934E+00 -2.34060E+00 -4.38762E+00
  -3.91007E+00 -1.17379E+00 -2.88646E+00 -1.53873E+00 -4.37906E+00 -3.94185E+00 -3.71217E+00  3.94787E-01 -4.94093E+00 -5.36881E+00
  -5.12709E+00 -5.30209E+00 -6.59693E+00 -4.95520E+00 -2.69327E+00 -8.69367E-03 -2.60567E+00 -3.84649E+00 -6.39130E+00 -6.99960E+00
   1.93166E-01 -2.21208E+00 -2.41011E+00 -1.26280E+00 -6.56149E+00 -5.71027E-01 -4.35314E+00 -1.00453E+00 -2.12324E+00 -2.25922E+00
  -4.77308E+00 -1.44431E+00 -3.27141E+00 -2.42306E+00 -1.21097E-01 -1.75243E+00  8.40428E-02  2.14863E+00
 NY points of the fit to the data follow
  -5.92065E+01 -5.94170E+01 -5.88787E+01 -5.81320E+01 -5.74383E+01 -5.67118E+01 -5.58376E+01 -5.49283E+01 -5.40562E+01 -5.31213E+01
  -5.20334E+01 -5.09405E+01 -5.02146E+01 -5.01022E+01 -5.05119E+01 -5.11453E+01 -5.16683E+01 -5.18204E+01 -5.16054E+01 -5.12547E+01
  -5.09659E+01 -5.07158E+01 -5.03111E+01 -4.96684E+01 -4.89269E+01 -4.81564E+01 -4.73474E+01 -4.64942E+01 -4.56719E+01 -4.48547E+01
  -4.39607E+01 -4.30528E+01 -4.22769E+01 -4.17748E+01 -4.16531E+01 -4.19586E+01 -4.25981E+01 -4.32892E+01 -4.36764E+01 -4.34970E+01
  -4.28006E+01 -4.18105E+01 -4.06903E+01 -3.95141E+01 -3.83844E+01 -3.74202E+01 -3.66672E+01 -3.61370E+01 -3.58753E+01 -3.60085E+01
  -3.65903E+01 -3.74364E+01 -3.82597E+01 -3.87773E+01 -3.88407E+01 -3.84749E+01 -3.78321E+01 -3.71172E+01 -3.64497E+01 -3.58505E+01
  -3.53493E+01 -3.49561E+01 -3.47346E+01 -3.46605E+01 -3.46347E+01 -3.45810E+01 -3.44186E+01 -3.40336E+01 -3.34126E+01 -3.27203E+01
  -3.20955E+01 -3.15849E+01 -3.11901E+01 -3.08946E+01 -3.06661E+01 -3.04864E+01 -3.03507E+01 -3.02392E+01 -3.00472E+01 -2.97046E+01
  -2.93934E+01 -2.91222E+01 -2.87685E+01 -2.82763E+01 -2.77251E+01 -2.72387E+01 -2.68780E+01 -2.66682E+01 -2.66364E+01 -2.68422E+01
  -2.71953E+01 -2.74768E+01 -2.75268E+01 -2.70311E+01 -2.53116E+01 -2.29105E+01 -2.07088E+01 -1.87220E+01 -1.66735E+01 -1.46080E+01
  -1.27547E+01 -1.12149E+01 -1.00647E+01 -9.61688E+00 -1.03572E+01 -1.25041E+01 -1.56370E+01 -1.89266E+01 -2.16083E+01 -2.32584E+01
  -2.38893E+01 -2.39132E+01 -2.37995E+01 -2.36831E+01 -2.35395E+01 -2.33740E+01 -2.31783E+01 -2.29111E+01 -2.23861E+01 -2.09516E+01
  -1.88043E+01 -1.67401E+01 -1.48399E+01 -1.28734E+01 -1.08465E+01 -8.97994E+00 -7.36171E+00 -6.07447E+00 -5.43063E+00 -5.90905E+00
  -7.78675E+00 -1.07484E+01 -1.40116E+01 -1.68077E+01 -1.86500E+01 -1.95005E+01 -1.97141E+01 -1.97315E+01 -1.96945E+01 -1.95516E+01
  -1.92866E+01 -1.89238E+01 -1.85299E+01 -1.81944E+01 -1.79789E+01 -1.78915E+01 -1.79029E+01 -1.79599E+01 -1.80015E+01 -1.79954E+01
  -1.79410E+01 -1.78524E+01 -1.77671E+01 -1.77363E+01 -1.77413E+01 -1.77296E+01 -1.76752E+01 -1.75615E+01 -1.74383E+01 -1.73554E+01
  -1.73163E+01 -1.73187E+01 -1.73553E+01 -1.73772E+01 -1.73293E+01 -1.72183E+01 -1.71096E+01 -1.70898E+01 -1.72123E+01 -1.74211E+01
  -1.75721E+01 -1.76135E+01 -1.75720E+01 -1.75140E+01 -1.74623E+01 -1.74052E+01 -1.73279E+01 -1.72263E+01 -1.70901E+01 -1.69135E+01
  -1.66798E+01 -1.63997E+01 -1.61160E+01 -1.58165E+01 -1.54451E+01 -1.49885E+01 -1.45033E+01 -1.40279E+01 -1.35863E+01 -1.31600E+01
  -1.27954E+01 -1.25076E+01 -1.22892E+01 -1.21658E+01 -1.21570E+01 -1.22140E+01 -1.22008E+01 -1.20302E+01 -1.17119E+01 -1.13022E+01
  -1.08709E+01 -1.04924E+01 -1.03245E+01 -1.03311E+01 -1.04822E+01 -1.08641E+01 -1.14365E+01 -1.20316E+01 -1.24233E+01 -1.25501E+01
  -1.24971E+01 -1.21728E+01 -1.14890E+01 -1.05458E+01 -9.64691E+00 -9.03159E+00 -8.69398E+00 -8.60833E+00 -8.90486E+00 -9.59538E+00
  -1.04626E+01 -1.12282E+01 -1.16775E+01 -1.17000E+01 -1.12546E+01 -1.03594E+01 -9.19472E+00 -8.07002E+00 -7.25480E+00 -6.79060E+00
  -6.60920E+00 -6.62263E+00 -6.69868E+00 -6.68997E+00 -6.56636E+00 -6.41417E+00 -6.23630E+00 -6.03404E+00 -5.83684E+00 -5.71696E+00
  -5.70466E+00 -5.78731E+00 -5.93761E+00 -6.09746E+00 -6.15317E+00 -5.95316E+00 -5.42581E+00 -4.53912E+00 -3.20008E+00 -1.75529E+00
  -4.69360E-01  9.00500E-01  3.54379E+00  7.74147E+00  1.18538E+01  1.54066E+01  1.87336E+01  2.18089E+01  2.40343E+01  2.51528E+01
   2.54043E+01  2.48015E+01  2.28212E+01  1.89253E+01  1.33532E+01  7.17108E+00  1.64940E+00 -2.26011E+00 -4.28665E+00 -4.90873E+00
  -4.97837E+00 -4.97638E+00 -4.92139E+00 -4.82600E+00 -4.70952E+00 -4.58460E+00 -4.47433E+00 -4.40874E+00 -4.39348E+00 -4.41380E+00
  -4.44610E+00 -4.46609E+00 -4.45495E+00 -4.40661E+00 -4.32256E+00 -4.21256E+00 -4.08973E+00 -3.96317E+00 -3.83743E+00 -3.71460E+00
  -3.59355E+00 -3.47155E+00 -3.34355E+00 -3.20785E+00 -3.06721E+00 -2.92699E+00 -2.79082E+00 -2.65938E+00 -2.53173E+00 -2.40671E+00
  -2.28270E+00 -2.15943E+00 -2.03854E+00 -1.92292E+00 -1.81544E+00 -1.71892E+00 -1.63488E+00 -1.56317E+00 -1.50153E+00 -1.44708E+00
  -1.39699E+00 -1.34859E+00 -1.29879E+00 -1.24470E+00 -1.18285E+00 -1.10926E+00 -1.01824E+00 -9.00711E-01 -7.36708E-01 -5.02035E-01
  -2.83616E-01 -1.52368E-01 -7.35397E-02 -1.96242E-02 -9.63607E-03 -7.46367E-02 -2.16501E-01 -3.55812E-01 -4.50947E-01 -5.73257E-01
  -7.20836E-01 -7.91130E-01 -6.85429E-01 -3.88790E-01  5.73233E-02  5.92398E-01  1.13487E+00  1.58978E+00  1.88057E+00  1.97209E+00
   1.88725E+00  1.69593E+00  1.48201E+00  1.31144E+00  1.20574E+00  1.14066E+00  1.09009E+00  1.04701E+00  1.00872E+00  9.73357E-01
   9.39793E-01  9.06960E-01  8.74093E-01  8.40259E-01  8.04768E-01  7.66789E-01  7.25783E-01  6.81103E-01  6.32416E-01  5.79318E-01
   5.21785E-01  4.59786E-01  3.93687E-01  3.23822E-01  2.50886E-01  1.75513E-01  9.86817E-02  2.12892E-02 -5.54841E-02 -1.30622E-01
  -2.02888E-01 -2.71237E-01 -3.34412E-01 -3.91372E-01 -4.40921E-01 -4.82128E-01 -5.13929E-01 -5.35522E-01 -5.45969E-01 -5.44628E-01
  -5.30789E-01 -5.04101E-01 -4.64188E-01 -4.11076E-01 -3.44832E-01 -2.66026E-01 -1.75390E-01 -7.42445E-02  3.58785E-02  1.52841E-01
   2.74284E-01  3.97250E-01  5.18626E-01  6.34845E-01  7.42409E-01  8.37619E-01  9.17111E-01  9.77597E-01  1.01641E+00  1.03128E+00
   1.02083E+00  9.84263E-01  9.21778E-01  8.34174E-01  7.23197E-01  5.91076E-01  4.40803E-01  2.75580E-01  9.90339E-02 -8.53214E-02
  -2.73848E-01 -4.63288E-01 -6.50496E-01 -8.32922E-01 -1.00829E+00 -1.17498E+00 -1.33165E+00 -1.47760E+00 -1.61230E+00 -1.73579E+00
  -1.84821E+00 -1.95011E+00 -2.04200E+00 -2.12469E+00 -2.19883E+00 -2.26534E+00 -2.32491E+00 -2.37838E+00 -2.42637E+00 -2.46961E+00
  -2.50856E+00 -2.54387E+00 -2.57589E+00 -2.60512E+00 -2.63179E+00 -2.65628E+00 -2.67876E+00 -2.69955E+00 -2.71872E+00 -2.73654E+00
  -2.75303E+00 -2.76838E+00 -2.78260E+00 -2.79587E+00 -2.80816E+00 -2.81963E+00 -2.83020E+00 -2.84002E+00 -2.84903E+00 -2.85737E+00
  -2.86495E+00 -2.87187E+00 -2.87806E+00 -2.88363E+00 -2.88852E+00 -2.89285E+00 -2.89654E+00 -2.89971E+00 -2.90227E+00 -2.90435E+00
  -2.90588E+00 -2.90698E+00 -2.90755E+00 -2.90769E+00 -2.90733E+00 -2.90659E+00 -2.90539E+00 -2.90382E+00 -2.90181E+00 -2.89944E+00
  -2.89665E+00 -2.89354E+00 -2.89004E+00 -2.88624E+00 -2.88204E+00 -2.87755E+00 -2.87269E+00 -2.86756E+00 -2.86209E+00 -2.85636E+00
  -2.85028E+00 -2.84395E+00 -2.83730E+00 -2.83043E+00 -2.82324E+00 -2.81581E+00 -2.80807E+00 -2.80010E+00 -2.79184E+00 -2.78337E+00
  -2.77458E+00 -2.76557E+00 -2.75623E+00 -2.74668E+00 -2.73680E+00 -2.72668E+00 -2.71621E+00 -2.70544E+00
 NY background values follow
    -6.099E+01   -6.061E+01   -6.022E+01   -5.984E+01   -5.946E+01   -5.907E+01   -5.869E+01   -5.831E+01   -5.792E+01   -5.754E+01
    -5.715E+01   -5.677E+01   -5.639E+01   -5.601E+01   -5.562E+01   -5.524E+01   -5.486E+01   -5.448E+01   -5.409E+01   -5.371E+01
    -5.333E+01   -5.295E+01   -5.258E+01   -5.220E+01   -5.182E+01   -5.144E+01   -5.107E+01   -5.069E+01   -5.032E+01   -4.994E+01
    -4.957E+01   -4.920E+01   -4.883E+01   -4.846E+01   -4.809E+01   -4.772E+01   -4.735E+01   -4.699E+01   -4.662E+01   -4.626E+01
    -4.590E+01   -4.554E+01   -4.518E+01   -4.483E+01   -4.447E+01   -4.412E+01   -4.376E+01   -4.341E+01   -4.306E+01   -4.272E+01
    -4.237E+01   -4.203E+01   -4.168E+01   -4.134E+01   -4.100E+01   -4.067E+01   -4.033E+01   -4.000E+01   -3.966E+01   -3.933E+01
    -3.900E+01   -3.868E+01   -3.835E+01   -3.803E+01   -3.771E+01   -3.739E+01   -3.707E+01   -3.676E+01   -3.644E+01   -3.613E+01
    -3.582E+01   -3.552E+01   -3.521E+01   -3.491E+01   -3.461E+01   -3.431E+01   -3.401E+01   -3.372E+01   -3.342E+01   -3.313E+01
    -3.284E+01   -3.256E+01   -3.227E+01   -3.199E+01   -3.171E+01   -3.143E+01   -3.116E+01   -3.089E+01   -3.062E+01   -3.035E+01
    -3.008E+01   -2.982E+01   -2.956E+01   -2.930E+01   -2.904E+01   -2.879E+01   -2.853E+01   -2.829E+01   -2.804E+01   -2.779E+01
    -2.755E+01   -2.731E+01   -2.707E+01   -2.684E+01   -2.660E+01   -2.637E+01   -2.614E+01   -2.592E+01   -2.569E+01   -2.547E+01
    -2.525E+01   -2.503E+01   -2.482E+01   -2.461E+01   -2.440E+01   -2.419E+01   -2.398E+01   -2.378E+01   -2.357E+01   -2.338E+01
    -2.318E+01   -2.298E+01   -2.279E+01   -2.260E+01   -2.241E+01   -2.223E+01   -2.204E+01   -2.186E+01   -2.168E+01   -2.150E+01
    -2.133E+01   -2.115E+01   -2.098E+01   -2.082E+01   -2.065E+01   -2.048E+01   -2.032E+01   -2.016E+01   -2.000E+01   -1.985E+01
    -1.969E+01   -1.954E+01   -1.939E+01   -1.925E+01   -1.910E+01   -1.895E+01   -1.881E+01   -1.867E+01   -1.853E+01   -1.839E+01
    -1.826E+01   -1.812E+01   -1.799E+01   -1.786E+01   -1.773E+01   -1.760E+01   -1.748E+01   -1.735E+01   -1.723E+01   -1.710E+01
    -1.698E+01   -1.686E+01   -1.674E+01   -1.662E+01   -1.651E+01   -1.639E+01   -1.627E+01   -1.616E+01   -1.605E+01   -1.593E+01
    -1.582E+01   -1.571E+01   -1.560E+01   -1.549E+01   -1.538E+01   -1.528E+01   -1.517E+01   -1.506E+01   -1.495E+01   -1.485E+01
    -1.474E+01   -1.464E+01   -1.453E+01   -1.443E+01   -1.432E+01   -1.422E+01   -1.412E+01   -1.401E+01   -1.391E+01   -1.381E+01
    -1.371E+01   -1.361E+01   -1.350E+01   -1.340E+01   -1.330E+01   -1.320E+01   -1.310E+01   -1.300E+01   -1.290E+01   -1.280E+01
    -1.270E+01   -1.260E+01   -1.251E+01   -1.241E+01   -1.231E+01   -1.221E+01   -1.211E+01   -1.201E+01   -1.192E+01   -1.182E+01
    -1.172E+01   -1.162E+01   -1.153E+01   -1.143E+01   -1.133E+01   -1.124E+01   -1.114E+01   -1.105E+01   -1.095E+01   -1.085E+01
    -1.076E+01   -1.066E+01   -1.057E+01   -1.047E+01   -1.037E+01   -1.028E+01   -1.018E+01   -1.009E+01   -9.992E+00   -9.896E+00
    -9.801E+00   -9.706E+00   -9.611E+00   -9.516E+00   -9.421E+00   -9.326E+00   -9.232E+00   -9.138E+00   -9.044E+00   -8.950E+00
    -8.856E+00   -8.763E+00   -8.670E+00   -8.577E+00   -8.484E+00   -8.392E+00   -8.300E+00   -8.208E+00   -8.117E+00   -8.026E+00
    -7.935E+00   -7.845E+00   -7.755E+00   -7.666E+00   -7.577E+00   -7.488E+00   -7.400E+00   -7.312E+00   -7.225E+00   -7.138E+00
    -7.052E+00   -6.966E+00   -6.881E+00   -6.797E+00   -6.712E+00   -6.629E+00   -6.546E+00   -6.463E+00   -6.382E+00   -6.300E+00
    -6.220E+00   -6.140E+00   -6.061E+00   -5.982E+00   -5.904E+00   -5.827E+00   -5.751E+00   -5.675E+00   -5.600E+00   -5.525E+00
    -5.451E+00   -5.378E+00   -5.306E+00   -5.234E+00   -5.163E+00   -5.093E+00   -5.023E+00   -4.954E+00   -4.886E+00   -4.819E+00
    -4.752E+00   -4.687E+00   -4.621E+00   -4.557E+00   -4.493E+00   -4.431E+00   -4.368E+00   -4.307E+00   -4.246E+00   -4.187E+00
    -4.128E+00   -4.069E+00   -4.012E+00   -3.955E+00   -3.899E+00   -3.844E+00   -3.790E+00   -3.737E+00   -3.684E+00   -3.632E+00
    -3.581E+00   -3.531E+00   -3.482E+00   -3.433E+00   -3.385E+00   -3.339E+00   -3.293E+00   -3.247E+00   -3.203E+00   -3.160E+00
    -3.117E+00   -3.075E+00   -3.034E+00   -2.994E+00   -2.955E+00   -2.917E+00   -2.879E+00   -2.843E+00   -2.807E+00   -2.772E+00
    -2.737E+00   -2.704E+00   -2.671E+00   -2.640E+00   -2.609E+00   -2.579E+00   -2.549E+00   -2.521E+00   -2.493E+00   -2.466E+00
    -2.440E+00   -2.415E+00   -2.391E+00   -2.367E+00   -2.344E+00   -2.323E+00   -2.301E+00   -2.281E+00   -2.261E+00   -2.243E+00
    -2.225E+00   -2.207E+00   -2.191E+00   -2.175E+00   -2.161E+00   -2.147E+00   -2.133E+00   -2.121E+00   -2.109E+00   -2.098E+00
    -2.088E+00   -2.079E+00   -2.070E+00   -2.063E+00   -2.056E+00   -2.049E+00   -2.044E+00   -2.039E+00   -2.035E+00   -2.031E+00
    -2.028E+00   -2.026E+00   -2.025E+00   -2.024E+00   -2.023E+00   -2.023E+00   -2.024E+00   -2.026E+00   -2.028E+00   -2.030E+00
    -2.033E+00   -2.036E+00   -2.040E+00   -2.045E+00   -2.049E+00   -2.055E+00   -2.060E+00   -2.067E+00   -2.073E+00   -2.080E+00
    -2.087E+00   -2.095E+00   -2.103E+00   -2.111E+00   -2.119E+00   -2.128E+00   -2.137E+00   -2.146E+00   -2.156E+00   -2.166E+00
    -2.176E+00   -2.186E+00   -2.196E+00   -2.207E+00   -2.218E+00   -2.228E+00   -2.239E+00   -2.250E+00   -2.261E+00   -2.273E+00
    -2.284E+00   -2.295E+00   -2.307E+00   -2.318E+00   -2.330E+00   -2.341E+00   -2.352E+00   -2.364E+00   -2.375E+00   -2.387E+00
    -2.398E+00   -2.409E+00   -2.420E+00   -2.432E+00   -2.443E+00   -2.454E+00   -2.464E+00   -2.475E+00   -2.485E+00   -2.496E+00
    -2.506E+00   -2.516E+00   -2.526E+00   -2.536E+00   -2.545E+00   -2.554E+00   -2.563E+00   -2.572E+00   -2.580E+00   -2.589E+00
    -2.597E+00   -2.604E+00   -2.611E+00   -2.618E+00   -2.625E+00   -2.632E+00   -2.638E+00   -2.643E+00   -2.648E+00   -2.653E+00
    -2.658E+00   -2.662E+00   -2.666E+00   -2.669E+00   -2.672E+00   -2.674E+00   -2.676E+00   -2.678E+00   -2.679E+00   -2.680E+00
    -2.680E+00   -2.680E+00   -2.680E+00   -2.679E+00   -2.678E+00   -2.677E+00   -2.675E+00   -2.673E+00   -2.671E+00   -2.669E+00
    -2.666E+00   -2.663E+00   -2.659E+00   -2.655E+00   -2.651E+00   -2.647E+00   -2.643E+00   -2.638E+00   -2.633E+00   -2.628E+00
    -2.622E+00   -2.617E+00   -2.611E+00   -2.605E+00   -2.598E+00   -2.592E+00   -2.585E+00   -2.579E+00   -2.572E+00   -2.564E+00
    -2.557E+00   -2.550E+00   -2.542E+00   -2.535E+00   -2.527E+00   -2.519E+00   -2.511E+00   -2.503E+00
 Ala      Conc. = 1.33E+02
