 LCModel (Version 6.3-1L) Copyright: S.W. Provencher.          Ref.: Magn. Reson. Med. 30:672-679 (1993).                
 Slice#3 Row#12 Col#7  K_02_press_1_raw_act
 36 lines in following concentration table = NCONC+1
    Conc.  %SD /Cr+PCr  Metabolite                                         
  166.163 120% 8.0E-02 Ala                                                 
    0.000 999%   0.000 Asp                                                 
    0.000 999%   0.000 Cr                                                  
 2.08E+03   3%   1.000 PCr                                                 
   51.235 392% 2.5E-02 GABA                                                
  153.293 121% 7.4E-02 Glc                                                 
 2.06E+03  25%   0.989 Gln                                                 
 1.33E+03  45%   0.639 Glu                                                 
  596.284   5%   0.286 GPC                                                 
    0.000 999%   0.000 PCh                                                 
  700.314  17%   0.336 GSH                                                 
 2.74E+03  14%   1.315 Ins                                                 
  339.010  70%   0.163 Lac                                                 
 2.57E+03   7%   1.233 NAA                                                 
   19.061 980% 9.2E-03 NAAG                                                
  372.258  10%   0.179+Scyllo                                              
  848.260  30%   0.408 Tau                                                 
  579.166  27%   0.278 -CrCH2                                              
  596.284   5%   0.286 GPC+PCh                                             
 2.59E+03   3%   1.242 NAA+NAAG                                            
 2.08E+03   3%   1.000 Cr+PCr                                              
 3.39E+03  30%   1.628 Glu+Gln                                             
  113.684 223% 5.5E-02 Lip13a                                              
    0.000 999%   0.000 Lip13b                                              
   21.202 373% 1.0E-02 Lip09                                               
  759.988  20%   0.365 MM09                                                
   16.929 278% 8.1E-03 Lip20                                               
 1.39E+03  21%   0.667 MM20                                                
  230.760  42%   0.111 MM12                                                
  530.413  41%   0.255 MM14                                                
  269.209  59%   0.129 MM17                                                
  113.684 223% 5.5E-02 Lip13a+Lip13b                                       
  874.856  36%   0.420 MM14+Lip13a+Lip13b+MM12                             
  781.190  19%   0.375 MM09+Lip09                                          
 1.41E+03  21%   0.675 MM20+Lip20                                          
   6 lines in following misc. output table
  FWHM = 0.084 ppm    S/N =  10                                            
  Data shift = 0.046 ppm                                                   
  Ph: -77 deg     -34.5 deg/ppm                                            
  alphaB,S = 7.9E-01,   5.1E+01                                            
   14 spline knots.   Ns =11(1)                                            
  (18)11 infls.   (13) 1 extrs.                                            
  498 points on ppm-axis = NY
      4.000000     3.992357     3.984714     3.977070     3.969427     3.961784     3.954141     3.946497     3.938854     3.931211
      3.923568     3.915925     3.908281     3.900638     3.892995     3.885352     3.877708     3.870065     3.862422     3.854779
      3.847136     3.839492     3.831849     3.824206     3.816563     3.808919     3.801276     3.793633     3.785990     3.778347
      3.770703     3.763060     3.755417     3.747774     3.740130     3.732487     3.724844     3.717201     3.709558     3.701914
      3.694271     3.686628     3.678985     3.671341     3.663698     3.656055     3.648412     3.640769     3.633125     3.625482
      3.617839     3.610196     3.602552     3.594909     3.587266     3.579623     3.571980     3.564336     3.556693     3.549050
      3.541407     3.533763     3.526120     3.518477     3.510834     3.503191     3.495547     3.487904     3.480261     3.472618
      3.464974     3.457331     3.449688     3.442045     3.434402     3.426758     3.419115     3.411472     3.403829     3.396185
      3.388542     3.380899     3.373256     3.365613     3.357969     3.350326     3.342683     3.335040     3.327396     3.319753
      3.312110     3.304467     3.296824     3.289180     3.281537     3.273894     3.266251     3.258607     3.250964     3.243321
      3.235678     3.228034     3.220391     3.212748     3.205105     3.197462     3.189818     3.182175     3.174532     3.166889
      3.159245     3.151602     3.143959     3.136316     3.128673     3.121029     3.113386     3.105743     3.098100     3.090456
      3.082813     3.075170     3.067527     3.059884     3.052240     3.044597     3.036954     3.029311     3.021667     3.014024
      3.006381     2.998738     2.991095     2.983451     2.975808     2.968165     2.960522     2.952878     2.945235     2.937592
      2.929949     2.922306     2.914662     2.907019     2.899376     2.891733     2.884089     2.876446     2.868803     2.861160
      2.853517     2.845873     2.838230     2.830587     2.822944     2.815300     2.807657     2.800014     2.792371     2.784728
      2.777084     2.769441     2.761798     2.754155     2.746511     2.738868     2.731225     2.723582     2.715939     2.708295
      2.700652     2.693009     2.685366     2.677722     2.670079     2.662436     2.654793     2.647150     2.639506     2.631863
      2.624220     2.616577     2.608933     2.601290     2.593647     2.586004     2.578361     2.570717     2.563074     2.555431
      2.547788     2.540144     2.532501     2.524858     2.517215     2.509572     2.501928     2.494285     2.486642     2.478999
      2.471355     2.463712     2.456069     2.448426     2.440783     2.433139     2.425496     2.417853     2.410210     2.402566
      2.394923     2.387280     2.379637     2.371994     2.364350     2.356707     2.349064     2.341421     2.333777     2.326134
      2.318491     2.310848     2.303205     2.295561     2.287918     2.280275     2.272632     2.264988     2.257345     2.249702
      2.242059     2.234416     2.226772     2.219129     2.211486     2.203843     2.196199     2.188556     2.180913     2.173270
      2.165627     2.157983     2.150340     2.142697     2.135054     2.127410     2.119767     2.112124     2.104481     2.096838
      2.089194     2.081551     2.073908     2.066265     2.058621     2.050978     2.043335     2.035692     2.028049     2.020405
      2.012762     2.005119     1.997476     1.989833     1.982190     1.974546     1.966903     1.959260     1.951617     1.943974
      1.936331     1.928688     1.921045     1.913402     1.905759     1.898115     1.890472     1.882829     1.875186     1.867543
      1.859900     1.852257     1.844614     1.836971     1.829327     1.821684     1.814041     1.806398     1.798755     1.791112
      1.783469     1.775826     1.768183     1.760540     1.752896     1.745253     1.737610     1.729967     1.722324     1.714681
      1.707038     1.699395     1.691752     1.684108     1.676465     1.668822     1.661179     1.653536     1.645893     1.638250
      1.630607     1.622964     1.615321     1.607677     1.600034     1.592391     1.584748     1.577105     1.569462     1.561819
      1.554176     1.546533     1.538890     1.531246     1.523603     1.515960     1.508317     1.500674     1.493031     1.485388
      1.477745     1.470102     1.462458     1.454815     1.447172     1.439529     1.431886     1.424243     1.416600     1.408957
      1.401314     1.393671     1.386027     1.378384     1.370741     1.363098     1.355455     1.347812     1.340169     1.332526
      1.324883     1.317240     1.309596     1.301953     1.294310     1.286667     1.279024     1.271381     1.263738     1.256095
      1.248452     1.240808     1.233165     1.225522     1.217879     1.210236     1.202593     1.194950     1.187307     1.179664
      1.172021     1.164377     1.156734     1.149091     1.141448     1.133805     1.126162     1.118519     1.110876     1.103233
      1.095590     1.087946     1.080303     1.072660     1.065017     1.057374     1.049731     1.042088     1.034445     1.026802
      1.019158     1.011515     1.003872     0.996229     0.988586     0.980943     0.973300     0.965657     0.958014     0.950371
      0.942727     0.935084     0.927441     0.919798     0.912155     0.904512     0.896869     0.889226     0.881583     0.873940
      0.866296     0.858653     0.851010     0.843367     0.835724     0.828081     0.820438     0.812795     0.805152     0.797508
      0.789865     0.782222     0.774579     0.766936     0.759293     0.751650     0.744007     0.736364     0.728721     0.721077
      0.713434     0.705791     0.698148     0.690505     0.682862     0.675219     0.667576     0.659933     0.652290     0.644646
      0.637003     0.629360     0.621717     0.614074     0.606431     0.598788     0.591145     0.583502     0.575858     0.568215
      0.560572     0.552929     0.545286     0.537643     0.530000     0.522357     0.514714     0.507071     0.499427     0.491784
      0.484141     0.476498     0.468855     0.461212     0.453569     0.445925     0.438282     0.430639     0.422996     0.415353
      0.407710     0.400067     0.392424     0.384780     0.377137     0.369494     0.361851     0.354208     0.346565     0.338922
      0.331278     0.323635     0.315992     0.308349     0.300706     0.293063     0.285420     0.277777     0.270133     0.262490
      0.254847     0.247204     0.239561     0.231918     0.224275     0.216631     0.208988     0.201345
 NY phased data points follow
  -9.84892E+01 -9.42601E+01 -9.26428E+01 -8.90336E+01 -8.63226E+01 -8.44709E+01 -7.76847E+01 -7.75468E+01 -7.73962E+01 -7.38289E+01
  -7.68556E+01 -8.00267E+01 -7.90221E+01 -8.49573E+01 -8.87594E+01 -9.16121E+01 -9.14763E+01 -9.20429E+01 -9.43930E+01 -9.16838E+01
  -9.10434E+01 -8.95694E+01 -8.43358E+01 -8.28037E+01 -8.37663E+01 -8.38985E+01 -7.96978E+01 -7.67066E+01 -7.48796E+01 -7.65880E+01
  -7.37578E+01 -7.16775E+01 -7.26956E+01 -7.10321E+01 -7.32868E+01 -7.25627E+01 -7.17951E+01 -7.02428E+01 -7.08144E+01 -7.18691E+01
  -6.77126E+01 -6.38959E+01 -6.77432E+01 -6.12212E+01 -6.26222E+01 -6.26443E+01 -6.58871E+01 -6.32513E+01 -6.36085E+01 -6.49177E+01
  -6.18698E+01 -6.39996E+01 -6.25232E+01 -5.89172E+01 -6.41169E+01 -6.29101E+01 -5.95724E+01 -6.19341E+01 -6.13389E+01 -5.85277E+01
  -6.24872E+01 -6.19679E+01 -6.20460E+01 -6.24268E+01 -6.08724E+01 -6.19579E+01 -5.89862E+01 -6.07449E+01 -6.12141E+01 -5.83555E+01
  -5.61630E+01 -5.30697E+01 -5.52302E+01 -5.18810E+01 -5.32610E+01 -5.09753E+01 -5.02589E+01 -4.85320E+01 -5.03580E+01 -5.08304E+01
  -4.73423E+01 -4.69472E+01 -4.98716E+01 -4.47201E+01 -4.48287E+01 -4.36238E+01 -4.12402E+01 -4.10410E+01 -3.77459E+01 -3.86960E+01
  -3.55540E+01 -3.67929E+01 -3.49249E+01 -3.22764E+01 -3.17442E+01 -3.00793E+01 -2.76161E+01 -2.89952E+01 -2.46734E+01 -1.77726E+01
  -1.77196E+01 -1.58254E+01 -1.38054E+01 -1.68192E+01 -1.64616E+01 -1.70512E+01 -1.79103E+01 -1.79724E+01 -2.55061E+01 -2.68348E+01
  -2.98440E+01 -2.73488E+01 -2.60009E+01 -2.99976E+01 -2.97354E+01 -2.89720E+01 -2.62315E+01 -2.22972E+01 -2.40014E+01 -1.74328E+01
  -1.67501E+01 -9.46740E+00 -4.40147E+00 -3.46923E+00 -5.66094E-01  2.72817E+00  5.21863E-01  3.39552E+00  1.00094E+00 -1.14020E+00
  -4.26833E+00 -7.60547E+00 -1.64292E+01 -1.86055E+01 -2.13534E+01 -2.27362E+01 -2.84265E+01 -2.80154E+01 -3.31269E+01 -2.48208E+01
  -2.67044E+01 -2.95744E+01 -3.22140E+01 -2.62145E+01 -3.30204E+01 -3.06839E+01 -2.41452E+01 -3.09902E+01 -2.57210E+01 -2.92861E+01
  -2.85103E+01 -2.93165E+01 -2.67244E+01 -2.56149E+01 -2.40723E+01 -2.63886E+01 -2.46278E+01 -2.43230E+01 -2.65202E+01 -2.80653E+01
  -2.53469E+01 -2.71645E+01 -2.42340E+01 -2.64997E+01 -2.44193E+01 -2.64726E+01 -2.76910E+01 -2.65257E+01 -2.83249E+01 -3.01909E+01
  -3.18466E+01 -2.66444E+01 -2.86752E+01 -2.94616E+01 -2.78725E+01 -2.49864E+01 -2.57596E+01 -3.10047E+01 -2.83568E+01 -2.82865E+01
  -2.73371E+01 -2.63117E+01 -2.66790E+01 -2.43177E+01 -2.28224E+01 -2.16446E+01 -2.28758E+01 -1.88069E+01 -1.55298E+01 -1.58886E+01
  -1.51370E+01 -1.31866E+01 -1.48811E+01 -1.26806E+01 -1.23344E+01 -1.01174E+01 -1.24339E+01 -1.04291E+01 -1.15739E+01 -9.21815E+00
  -1.43086E+01 -9.60909E+00 -9.51142E+00 -8.76344E+00 -1.49680E+01 -1.47063E+01 -1.04955E+01 -8.89458E+00 -1.18451E+01 -8.02644E+00
  -9.85538E+00 -1.24723E+01 -5.61765E+00 -7.55747E+00 -4.42927E+00 -6.49702E+00 -2.42595E+00 -1.89577E+00 -1.86203E+00 -2.23201E+00
  -3.45830E+00 -2.94154E+00 -2.19101E+00 -3.44752E+00 -7.10785E+00 -4.12805E+00 -1.01006E+00 -1.29322E+00 -1.30352E+00  1.30794E+00
  -2.20168E-01  6.45220E-01  2.45853E+00  5.99769E-01  1.35005E+00  6.79367E-01 -2.30140E+00  2.09846E+00  7.92165E-01  8.16660E-01
  -1.01331E+00  2.57436E+00 -4.24755E-01  6.07211E-01  5.09980E+00 -4.98601E-02  5.45818E+00  6.45828E+00  1.11835E+01  1.20152E+01
   1.56980E+01  1.89056E+01  2.25568E+01  3.10671E+01  3.00147E+01  3.40560E+01  4.22859E+01  5.19301E+01  4.75835E+01  5.08583E+01
   5.53679E+01  5.68274E+01  5.74632E+01  5.40633E+01  4.36157E+01  3.84571E+01  3.10605E+01  2.84307E+01  2.04209E+01  1.83848E+01
   1.44233E+01  1.04106E+01  9.14768E+00  5.65420E+00  9.27050E+00  9.84636E+00  9.20481E+00  9.81991E+00  6.80056E+00  1.20909E+01
   7.69339E+00  9.26396E+00  5.48115E+00  6.41274E+00  8.71384E+00  7.40474E+00  6.83911E+00  6.59839E+00  7.24809E+00  7.07937E+00
   6.51843E+00  5.95194E+00  7.60063E+00  1.88321E+00  9.17637E+00  7.39646E+00  1.04125E+01  1.09670E+01  8.53004E+00  6.72534E+00
   6.56328E+00  5.86667E+00  1.13387E+01  7.13864E+00  1.03157E+01  1.13750E+01  7.85310E+00  8.65993E+00  1.02539E+01  1.16733E+01
   9.79865E+00  1.48982E+01  1.49759E+01  1.35542E+01  1.15102E+01  1.17947E+01  1.07242E+01  1.04444E+01  1.06294E+01  7.93335E+00
   1.10752E+01  1.00574E+01  1.26835E+01  8.07464E+00  1.05970E+01  1.20359E+01  1.28892E+01  1.02130E+01  1.15150E+01  1.46259E+01
   1.06187E+01  1.21791E+01  1.26824E+01  1.22252E+01  1.26020E+01  1.22148E+01  1.46767E+01  1.44962E+01  1.71386E+01  1.50861E+01
   1.29223E+01  1.45698E+01  1.76531E+01  1.67495E+01  1.70252E+01  1.38076E+01  1.60278E+01  1.66110E+01  1.47162E+01  1.38472E+01
   1.44552E+01  1.25433E+01  1.35336E+01  1.29576E+01  1.51124E+01  1.31642E+01  1.43030E+01  1.43458E+01  1.25684E+01  1.15051E+01
   1.57935E+01  1.30930E+01  1.58286E+01  1.63543E+01  1.39045E+01  1.57594E+01  1.49532E+01  1.44208E+01  1.51970E+01  1.55577E+01
   1.51707E+01  1.59949E+01  1.43565E+01  1.51235E+01  1.37362E+01  1.68657E+01  9.62814E+00  1.10936E+01  1.37942E+01  1.32443E+01
   1.48987E+01  1.11931E+01  1.35340E+01  1.58164E+01  1.46522E+01  1.43714E+01  1.14364E+01  1.21974E+01  1.26897E+01  1.14760E+01
   1.07359E+01  1.27460E+01  1.67874E+01  1.57462E+01  1.46446E+01  1.42964E+01  1.72117E+01  1.53806E+01  1.92887E+01  2.08767E+01
   1.62132E+01  1.64175E+01  1.90865E+01  1.72791E+01  2.09914E+01  1.58562E+01  1.91445E+01  1.88594E+01  1.90709E+01  1.92267E+01
   1.96179E+01  2.00095E+01  1.94918E+01  1.54677E+01  1.86870E+01  2.06182E+01  2.06120E+01  2.03271E+01  1.92845E+01  1.90265E+01
   1.86896E+01  1.55706E+01  1.76011E+01  1.70068E+01  1.47110E+01  1.86661E+01  1.49324E+01  1.55881E+01  1.59076E+01  1.55211E+01
   1.70868E+01  1.30450E+01  1.44343E+01  1.72853E+01  1.56869E+01  1.64462E+01  1.57486E+01  1.56217E+01  1.79360E+01  1.74135E+01
   1.85132E+01  1.62681E+01  1.60765E+01  1.26083E+01  1.45834E+01  1.43592E+01  1.87786E+01  1.52659E+01  1.67389E+01  1.50266E+01
   1.61084E+01  1.55364E+01  1.06191E+01  1.28840E+01  1.75170E+01  1.43651E+01  1.44888E+01  1.42431E+01  1.34720E+01  1.38032E+01
   1.58571E+01  1.50100E+01  1.31906E+01  1.42916E+01  1.48809E+01  1.33800E+01  1.17593E+01  1.56588E+01  1.41156E+01  1.26786E+01
   1.33094E+01  1.41233E+01  1.82328E+01  1.59931E+01  1.46535E+01  1.51745E+01  1.72802E+01  1.91956E+01  1.51852E+01  1.77966E+01
   1.75425E+01  1.62301E+01  1.22415E+01  1.39473E+01  1.33530E+01  1.45598E+01  1.60330E+01  1.26370E+01  1.28095E+01  1.42756E+01
   1.65491E+01  1.41675E+01  1.71587E+01  1.64991E+01  1.26679E+01  1.22211E+01  1.32901E+01  1.78727E+01
 NY points of the fit to the data follow
  -9.27124E+01 -9.17960E+01 -9.04217E+01 -8.68419E+01 -8.32205E+01 -8.22730E+01 -8.17640E+01 -8.02999E+01 -7.90134E+01 -7.83308E+01
  -7.89950E+01 -8.09507E+01 -8.26633E+01 -8.41850E+01 -8.61981E+01 -8.77919E+01 -8.79295E+01 -8.81143E+01 -8.92456E+01 -8.94901E+01
  -8.82223E+01 -8.68643E+01 -8.55167E+01 -8.42138E+01 -8.33591E+01 -8.24629E+01 -8.02791E+01 -7.77780E+01 -7.64308E+01 -7.52717E+01
  -7.37566E+01 -7.23434E+01 -7.11675E+01 -7.06536E+01 -7.08980E+01 -7.09694E+01 -7.06151E+01 -7.06148E+01 -7.07281E+01 -7.01708E+01
  -6.96612E+01 -6.94821E+01 -6.86032E+01 -6.71246E+01 -6.58882E+01 -6.51376E+01 -6.43538E+01 -6.33652E+01 -6.24394E+01 -6.21499E+01
  -6.24618E+01 -6.30115E+01 -6.37281E+01 -6.46079E+01 -6.50702E+01 -6.46929E+01 -6.39062E+01 -6.34274E+01 -6.32071E+01 -6.30025E+01
  -6.23346E+01 -6.14589E+01 -6.06689E+01 -6.00818E+01 -5.94454E+01 -5.87205E+01 -5.82045E+01 -5.75369E+01 -5.66961E+01 -5.61072E+01
  -5.56224E+01 -5.48458E+01 -5.40230E+01 -5.34992E+01 -5.30794E+01 -5.26356E+01 -5.14384E+01 -4.99657E+01 -4.92562E+01 -4.87397E+01
  -4.81107E+01 -4.76256E+01 -4.67904E+01 -4.49886E+01 -4.33208E+01 -4.26229E+01 -4.21408E+01 -4.14081E+01 -4.05509E+01 -3.99937E+01
  -3.99122E+01 -3.85292E+01 -3.54055E+01 -3.39442E+01 -3.29286E+01 -3.14836E+01 -3.00560E+01 -2.82060E+01 -2.42573E+01 -2.00774E+01
  -1.80338E+01 -1.65063E+01 -1.47563E+01 -1.35073E+01 -1.28006E+01 -1.37735E+01 -1.66250E+01 -1.97783E+01 -2.30691E+01 -2.67514E+01
  -3.00033E+01 -3.17208E+01 -3.28110E+01 -3.40331E+01 -3.26719E+01 -2.95553E+01 -2.73306E+01 -2.48294E+01 -2.21780E+01 -2.00002E+01
  -1.64808E+01 -9.96783E+00 -4.33886E+00 -1.84625E+00  1.48827E-01  2.25822E+00  3.63628E+00  3.91119E+00  1.77745E+00 -2.02203E+00
  -5.97933E+00 -1.03000E+01 -1.51121E+01 -1.88983E+01 -2.08602E+01 -2.28440E+01 -2.57909E+01 -2.86450E+01 -3.02507E+01 -3.04991E+01
  -3.03808E+01 -3.00462E+01 -2.95427E+01 -2.90343E+01 -2.86804E+01 -2.84871E+01 -2.83307E+01 -2.81658E+01 -2.79590E+01 -2.77925E+01
  -2.77746E+01 -2.77495E+01 -2.77112E+01 -2.76145E+01 -2.74005E+01 -2.72145E+01 -2.71501E+01 -2.71452E+01 -2.70406E+01 -2.68481E+01
  -2.65891E+01 -2.63313E+01 -2.62423E+01 -2.62055E+01 -2.60816E+01 -2.60212E+01 -2.59527E+01 -2.57805E+01 -2.56893E+01 -2.56903E+01
  -2.58018E+01 -2.59123E+01 -2.59632E+01 -2.57776E+01 -2.54770E+01 -2.53706E+01 -2.54581E+01 -2.54161E+01 -2.50273E+01 -2.43506E+01
  -2.35765E+01 -2.28911E+01 -2.24094E+01 -2.19353E+01 -2.13753E+01 -2.07445E+01 -2.00082E+01 -1.93386E+01 -1.86158E+01 -1.76956E+01
  -1.67305E+01 -1.58390E+01 -1.48619E+01 -1.37959E+01 -1.32841E+01 -1.29010E+01 -1.22882E+01 -1.19280E+01 -1.20910E+01 -1.18024E+01
  -1.09414E+01 -1.02873E+01 -9.96601E+00 -9.79611E+00 -1.01835E+01 -1.05394E+01 -1.04520E+01 -1.04914E+01 -1.08558E+01 -1.11042E+01
  -1.10007E+01 -1.05669E+01 -9.56481E+00 -8.32123E+00 -7.20889E+00 -6.05945E+00 -4.93527E+00 -4.27509E+00 -4.13975E+00 -4.02044E+00
  -3.71568E+00 -3.62282E+00 -3.85847E+00 -4.15946E+00 -4.31930E+00 -3.82418E+00 -2.99164E+00 -2.24071E+00 -1.49061E+00 -5.30323E-01
  -1.18955E-01 -4.01404E-01 -3.92760E-01  2.23866E-02  4.96221E-01  1.07475E+00  1.47854E+00  1.58400E+00  1.77087E+00  2.05096E+00
   2.04408E+00  1.90507E+00  1.90737E+00  1.71367E+00  1.52880E+00  1.92185E+00  2.82597E+00  3.95359E+00  6.02288E+00  1.15827E+01
   1.78878E+01  2.16182E+01  2.52230E+01  2.87132E+01  3.13865E+01  3.58252E+01  4.36085E+01  4.94531E+01  5.12213E+01  5.27153E+01
   5.44565E+01  5.52618E+01  5.46885E+01  5.11636E+01  4.55063E+01  3.96707E+01  3.35398E+01  2.70957E+01  2.21931E+01  1.96235E+01
   1.68376E+01  1.28904E+01  9.24349E+00  7.16358E+00  6.61527E+00  6.47488E+00  6.44726E+00  6.45136E+00  6.47408E+00  6.49459E+00
   6.51148E+00  6.53124E+00  6.57051E+00  6.62861E+00  6.69932E+00  6.77306E+00  6.85409E+00  6.95082E+00  7.06536E+00  7.18936E+00
   7.32294E+00  7.47000E+00  7.62828E+00  7.79315E+00  7.96264E+00  8.13618E+00  8.31310E+00  8.49098E+00  8.66998E+00  8.84888E+00
   9.02640E+00  9.19945E+00  9.36673E+00  9.52603E+00  9.67713E+00  9.81849E+00  9.95035E+00  1.00717E+01  1.01842E+01  1.02885E+01
   1.03876E+01  1.04837E+01  1.05816E+01  1.06862E+01  1.08075E+01  1.09661E+01  1.11856E+01  1.13277E+01  1.13838E+01  1.14571E+01
   1.15296E+01  1.15948E+01  1.17116E+01  1.18232E+01  1.18802E+01  1.19582E+01  1.20541E+01  1.21497E+01  1.22194E+01  1.22150E+01
   1.21808E+01  1.23301E+01  1.26219E+01  1.28873E+01  1.32030E+01  1.36847E+01  1.43378E+01  1.48527E+01  1.50332E+01  1.51539E+01
   1.52542E+01  1.52642E+01  1.52408E+01  1.52248E+01  1.51919E+01  1.50401E+01  1.48179E+01  1.45798E+01  1.42595E+01  1.38104E+01
   1.33453E+01  1.32122E+01  1.32889E+01  1.32963E+01  1.33850E+01  1.36864E+01  1.41355E+01  1.45217E+01  1.47047E+01  1.47973E+01
   1.49169E+01  1.49991E+01  1.49234E+01  1.48085E+01  1.47851E+01  1.47449E+01  1.46000E+01  1.43867E+01  1.42008E+01  1.40874E+01
   1.40105E+01  1.39523E+01  1.39071E+01  1.38714E+01  1.38446E+01  1.38257E+01  1.38152E+01  1.38129E+01  1.38198E+01  1.38358E+01
   1.38623E+01  1.38992E+01  1.39479E+01  1.40086E+01  1.40828E+01  1.41709E+01  1.42744E+01  1.43937E+01  1.45305E+01  1.46853E+01
   1.48595E+01  1.50533E+01  1.52679E+01  1.55026E+01  1.57579E+01  1.60320E+01  1.63240E+01  1.66308E+01  1.69495E+01  1.72753E+01
   1.76039E+01  1.79287E+01  1.82438E+01  1.85419E+01  1.88165E+01  1.90602E+01  1.92672E+01  1.94314E+01  1.95489E+01  1.96160E+01
   1.96316E+01  1.95952E+01  1.95090E+01  1.93756E+01  1.92002E+01  1.89878E+01  1.87455E+01  1.84799E+01  1.81987E+01  1.79083E+01
   1.76160E+01  1.73273E+01  1.70477E+01  1.67811E+01  1.65312E+01  1.62999E+01  1.60890E+01  1.58987E+01  1.57295E+01  1.55802E+01
   1.54504E+01  1.53381E+01  1.52425E+01  1.51614E+01  1.50938E+01  1.50375E+01  1.49916E+01  1.49542E+01  1.49247E+01  1.49013E+01
   1.48837E+01  1.48704E+01  1.48614E+01  1.48553E+01  1.48522E+01  1.48512E+01  1.48523E+01  1.48548E+01  1.48587E+01  1.48634E+01
   1.48691E+01  1.48753E+01  1.48822E+01  1.48892E+01  1.48967E+01  1.49041E+01  1.49119E+01  1.49196E+01  1.49275E+01  1.49352E+01
   1.49430E+01  1.49506E+01  1.49583E+01  1.49657E+01  1.49733E+01  1.49804E+01  1.49877E+01  1.49946E+01  1.50017E+01  1.50084E+01
   1.50152E+01  1.50217E+01  1.50283E+01  1.50346E+01  1.50411E+01  1.50472E+01  1.50536E+01  1.50596E+01  1.50659E+01  1.50719E+01
   1.50782E+01  1.50843E+01  1.50906E+01  1.50968E+01  1.51033E+01  1.51097E+01  1.51165E+01  1.51233E+01  1.51304E+01  1.51376E+01
   1.51453E+01  1.51531E+01  1.51615E+01  1.51701E+01  1.51793E+01  1.51889E+01  1.51993E+01  1.52102E+01
 NY background values follow
    -1.097E+02   -1.090E+02   -1.084E+02   -1.077E+02   -1.071E+02   -1.064E+02   -1.058E+02   -1.051E+02   -1.044E+02   -1.038E+02
    -1.031E+02   -1.025E+02   -1.018E+02   -1.012E+02   -1.005E+02   -9.986E+01   -9.920E+01   -9.855E+01   -9.789E+01   -9.724E+01
    -9.659E+01   -9.594E+01   -9.529E+01   -9.463E+01   -9.398E+01   -9.334E+01   -9.269E+01   -9.204E+01   -9.139E+01   -9.075E+01
    -9.010E+01   -8.946E+01   -8.882E+01   -8.818E+01   -8.754E+01   -8.690E+01   -8.626E+01   -8.563E+01   -8.500E+01   -8.436E+01
    -8.373E+01   -8.310E+01   -8.247E+01   -8.185E+01   -8.122E+01   -8.060E+01   -7.998E+01   -7.936E+01   -7.875E+01   -7.813E+01
    -7.752E+01   -7.691E+01   -7.630E+01   -7.569E+01   -7.508E+01   -7.448E+01   -7.388E+01   -7.328E+01   -7.269E+01   -7.209E+01
    -7.150E+01   -7.091E+01   -7.032E+01   -6.974E+01   -6.915E+01   -6.857E+01   -6.799E+01   -6.742E+01   -6.684E+01   -6.627E+01
    -6.571E+01   -6.514E+01   -6.458E+01   -6.402E+01   -6.346E+01   -6.290E+01   -6.235E+01   -6.180E+01   -6.125E+01   -6.071E+01
    -6.017E+01   -5.963E+01   -5.909E+01   -5.856E+01   -5.803E+01   -5.750E+01   -5.698E+01   -5.646E+01   -5.594E+01   -5.542E+01
    -5.491E+01   -5.440E+01   -5.390E+01   -5.340E+01   -5.290E+01   -5.240E+01   -5.191E+01   -5.142E+01   -5.093E+01   -5.045E+01
    -4.996E+01   -4.949E+01   -4.901E+01   -4.854E+01   -4.807E+01   -4.760E+01   -4.714E+01   -4.668E+01   -4.622E+01   -4.577E+01
    -4.531E+01   -4.487E+01   -4.442E+01   -4.397E+01   -4.353E+01   -4.310E+01   -4.266E+01   -4.223E+01   -4.180E+01   -4.137E+01
    -4.095E+01   -4.052E+01   -4.010E+01   -3.969E+01   -3.927E+01   -3.886E+01   -3.845E+01   -3.805E+01   -3.764E+01   -3.724E+01
    -3.684E+01   -3.645E+01   -3.605E+01   -3.566E+01   -3.527E+01   -3.489E+01   -3.450E+01   -3.412E+01   -3.374E+01   -3.336E+01
    -3.299E+01   -3.262E+01   -3.225E+01   -3.188E+01   -3.151E+01   -3.115E+01   -3.079E+01   -3.043E+01   -3.007E+01   -2.971E+01
    -2.936E+01   -2.900E+01   -2.865E+01   -2.830E+01   -2.796E+01   -2.761E+01   -2.727E+01   -2.692E+01   -2.658E+01   -2.624E+01
    -2.591E+01   -2.557E+01   -2.523E+01   -2.490E+01   -2.457E+01   -2.423E+01   -2.390E+01   -2.357E+01   -2.325E+01   -2.292E+01
    -2.259E+01   -2.227E+01   -2.194E+01   -2.162E+01   -2.130E+01   -2.098E+01   -2.066E+01   -2.034E+01   -2.002E+01   -1.970E+01
    -1.938E+01   -1.906E+01   -1.875E+01   -1.843E+01   -1.811E+01   -1.780E+01   -1.748E+01   -1.717E+01   -1.686E+01   -1.655E+01
    -1.623E+01   -1.592E+01   -1.562E+01   -1.531E+01   -1.500E+01   -1.469E+01   -1.439E+01   -1.409E+01   -1.378E+01   -1.348E+01
    -1.318E+01   -1.288E+01   -1.259E+01   -1.229E+01   -1.199E+01   -1.170E+01   -1.141E+01   -1.112E+01   -1.083E+01   -1.055E+01
    -1.026E+01   -9.977E+00   -9.695E+00   -9.416E+00   -9.138E+00   -8.862E+00   -8.588E+00   -8.315E+00   -8.045E+00   -7.777E+00
    -7.511E+00   -7.247E+00   -6.986E+00   -6.726E+00   -6.469E+00   -6.214E+00   -5.961E+00   -5.711E+00   -5.463E+00   -5.217E+00
    -4.974E+00   -4.733E+00   -4.495E+00   -4.258E+00   -4.024E+00   -3.792E+00   -3.563E+00   -3.336E+00   -3.111E+00   -2.888E+00
    -2.667E+00   -2.449E+00   -2.233E+00   -2.019E+00   -1.807E+00   -1.598E+00   -1.390E+00   -1.185E+00   -9.817E-01   -7.807E-01
    -5.818E-01   -3.850E-01   -1.903E-01    2.277E-03    1.928E-01    3.813E-01    5.677E-01    7.520E-01    9.344E-01    1.115E+00
     1.293E+00    1.469E+00    1.644E+00    1.816E+00    1.986E+00    2.155E+00    2.321E+00    2.486E+00    2.648E+00    2.809E+00
     2.968E+00    3.124E+00    3.279E+00    3.432E+00    3.584E+00    3.733E+00    3.881E+00    4.027E+00    4.171E+00    4.313E+00
     4.453E+00    4.592E+00    4.729E+00    4.864E+00    4.998E+00    5.130E+00    5.260E+00    5.389E+00    5.516E+00    5.641E+00
     5.765E+00    5.887E+00    6.008E+00    6.127E+00    6.245E+00    6.361E+00    6.476E+00    6.589E+00    6.701E+00    6.811E+00
     6.920E+00    7.027E+00    7.133E+00    7.238E+00    7.341E+00    7.443E+00    7.544E+00    7.643E+00    7.741E+00    7.838E+00
     7.933E+00    8.027E+00    8.120E+00    8.212E+00    8.303E+00    8.392E+00    8.480E+00    8.567E+00    8.653E+00    8.738E+00
     8.822E+00    8.904E+00    8.986E+00    9.066E+00    9.146E+00    9.224E+00    9.302E+00    9.378E+00    9.454E+00    9.529E+00
     9.602E+00    9.675E+00    9.747E+00    9.818E+00    9.888E+00    9.957E+00    1.003E+01    1.009E+01    1.016E+01    1.023E+01
     1.029E+01    1.036E+01    1.042E+01    1.048E+01    1.055E+01    1.061E+01    1.067E+01    1.073E+01    1.079E+01    1.085E+01
     1.091E+01    1.096E+01    1.102E+01    1.108E+01    1.114E+01    1.119E+01    1.125E+01    1.130E+01    1.136E+01    1.141E+01
     1.146E+01    1.152E+01    1.157E+01    1.162E+01    1.167E+01    1.173E+01    1.178E+01    1.183E+01    1.188E+01    1.193E+01
     1.198E+01    1.203E+01    1.208E+01    1.213E+01    1.218E+01    1.222E+01    1.227E+01    1.232E+01    1.237E+01    1.241E+01
     1.246E+01    1.251E+01    1.255E+01    1.260E+01    1.264E+01    1.269E+01    1.273E+01    1.278E+01    1.282E+01    1.286E+01
     1.291E+01    1.295E+01    1.299E+01    1.304E+01    1.308E+01    1.312E+01    1.316E+01    1.320E+01    1.325E+01    1.329E+01
     1.333E+01    1.337E+01    1.341E+01    1.345E+01    1.349E+01    1.353E+01    1.357E+01    1.361E+01    1.364E+01    1.368E+01
     1.372E+01    1.376E+01    1.380E+01    1.384E+01    1.387E+01    1.391E+01    1.395E+01    1.398E+01    1.402E+01    1.405E+01
     1.409E+01    1.413E+01    1.416E+01    1.419E+01    1.423E+01    1.426E+01    1.429E+01    1.433E+01    1.436E+01    1.439E+01
     1.442E+01    1.445E+01    1.448E+01    1.451E+01    1.454E+01    1.457E+01    1.460E+01    1.463E+01    1.465E+01    1.468E+01
     1.471E+01    1.473E+01    1.476E+01    1.478E+01    1.481E+01    1.483E+01    1.485E+01    1.487E+01    1.490E+01    1.492E+01
     1.494E+01    1.496E+01    1.498E+01    1.499E+01    1.501E+01    1.503E+01    1.504E+01    1.506E+01    1.507E+01    1.509E+01
     1.510E+01    1.512E+01    1.513E+01    1.514E+01    1.515E+01    1.517E+01    1.518E+01    1.519E+01    1.520E+01    1.521E+01
     1.522E+01    1.523E+01    1.523E+01    1.524E+01    1.525E+01    1.526E+01    1.527E+01    1.527E+01    1.528E+01    1.529E+01
     1.530E+01    1.530E+01    1.531E+01    1.531E+01    1.532E+01    1.533E+01    1.533E+01    1.534E+01    1.535E+01    1.535E+01
     1.536E+01    1.536E+01    1.537E+01    1.538E+01    1.538E+01    1.539E+01    1.540E+01    1.540E+01
 Ala      Conc. = 1.66E+02
