 LCModel (Version 6.3-1L) Copyright: S.W. Provencher.          Ref.: Magn. Reson. Med. 30:672-679 (1993).                
 Slice#3 Row#1 Col#14  K_02_press_1_raw_act
 36 lines in following concentration table = NCONC+1
    Conc.  %SD /Cr+PCr  Metabolite                                         
  337.763  25%  37.027 Ala                                                 
   11.883  84%   1.303 Asp                                                 
    0.000 999%   0.000 Cr                                                  
    9.122 187%   1.000 PCr                                                 
    6.171  97%   0.677 GABA                                                
    5.058 118%   0.555 Glc                                                 
    0.000 999%   0.000 Gln                                                 
    0.000 999%   0.000 Glu                                                 
    0.000 999%   0.000 GPC                                                 
   19.577  31%   2.146 PCh                                                 
    5.805 453%   0.636 GSH                                                 
    0.000 999%   0.000 Ins                                                 
    0.000 999%   0.000 Lac                                                 
  115.936  39%  12.709 NAA                                                 
   21.641 211%   2.372 NAAG                                                
    1.384 142%   0.152 Scyllo                                              
    7.709 128%   0.845 Tau                                                 
    5.402 156%   0.592 -CrCH2                                              
   19.577  31%   2.146 GPC+PCh                                             
  137.577  14%  15.082 NAA+NAAG                                            
    9.122 187%   1.000 Cr+PCr                                              
    0.000 999%   0.000 Glu+Gln                                             
    0.000 999%   0.000 Lip13a                                              
   35.182  73%   3.857 Lip13b                                              
    8.742  92%   0.958 Lip09                                               
    0.000 999%   0.000 MM09                                                
    5.134  95%   0.563 Lip20                                               
 1.59E-02 999% 1.7E-03 MM20                                                
    0.000 999%   0.000 MM12                                                
    0.000 999%   0.000 MM14                                                
    0.277 932% 3.0E-02 MM17                                                
   35.182  73%   3.857 Lip13a+Lip13b                                       
   35.182  73%   3.857 MM14+Lip13a+Lip13b+MM12                             
    8.742  92%   0.958 MM09+Lip09                                          
    5.149 113%   0.565 MM20+Lip20                                          
   6 lines in following misc. output table
  FWHM = 0.122 ppm    S/N =   1                                            
  Data shift = 0.046 ppm                                                   
  Ph:  21 deg     -19.7 deg/ppm                                            
  alphaB,S = 8.5E+01,   5.1E+01                                            
   14 spline knots.   Ns = 7(2)                                            
   2 inflections.     1 extrema                                            
  498 points on ppm-axis = NY
      4.000000     3.992357     3.984714     3.977070     3.969427     3.961784     3.954141     3.946497     3.938854     3.931211
      3.923568     3.915925     3.908281     3.900638     3.892995     3.885352     3.877708     3.870065     3.862422     3.854779
      3.847136     3.839492     3.831849     3.824206     3.816563     3.808919     3.801276     3.793633     3.785990     3.778347
      3.770703     3.763060     3.755417     3.747774     3.740130     3.732487     3.724844     3.717201     3.709558     3.701914
      3.694271     3.686628     3.678985     3.671341     3.663698     3.656055     3.648412     3.640769     3.633125     3.625482
      3.617839     3.610196     3.602552     3.594909     3.587266     3.579623     3.571980     3.564336     3.556693     3.549050
      3.541407     3.533763     3.526120     3.518477     3.510834     3.503191     3.495547     3.487904     3.480261     3.472618
      3.464974     3.457331     3.449688     3.442045     3.434402     3.426758     3.419115     3.411472     3.403829     3.396185
      3.388542     3.380899     3.373256     3.365613     3.357969     3.350326     3.342683     3.335040     3.327396     3.319753
      3.312110     3.304467     3.296824     3.289180     3.281537     3.273894     3.266251     3.258607     3.250964     3.243321
      3.235678     3.228034     3.220391     3.212748     3.205105     3.197462     3.189818     3.182175     3.174532     3.166889
      3.159245     3.151602     3.143959     3.136316     3.128673     3.121029     3.113386     3.105743     3.098100     3.090456
      3.082813     3.075170     3.067527     3.059884     3.052240     3.044597     3.036954     3.029311     3.021667     3.014024
      3.006381     2.998738     2.991095     2.983451     2.975808     2.968165     2.960522     2.952878     2.945235     2.937592
      2.929949     2.922306     2.914662     2.907019     2.899376     2.891733     2.884089     2.876446     2.868803     2.861160
      2.853517     2.845873     2.838230     2.830587     2.822944     2.815300     2.807657     2.800014     2.792371     2.784728
      2.777084     2.769441     2.761798     2.754155     2.746511     2.738868     2.731225     2.723582     2.715939     2.708295
      2.700652     2.693009     2.685366     2.677722     2.670079     2.662436     2.654793     2.647150     2.639506     2.631863
      2.624220     2.616577     2.608933     2.601290     2.593647     2.586004     2.578361     2.570717     2.563074     2.555431
      2.547788     2.540144     2.532501     2.524858     2.517215     2.509572     2.501928     2.494285     2.486642     2.478999
      2.471355     2.463712     2.456069     2.448426     2.440783     2.433139     2.425496     2.417853     2.410210     2.402566
      2.394923     2.387280     2.379637     2.371994     2.364350     2.356707     2.349064     2.341421     2.333777     2.326134
      2.318491     2.310848     2.303205     2.295561     2.287918     2.280275     2.272632     2.264988     2.257345     2.249702
      2.242059     2.234416     2.226772     2.219129     2.211486     2.203843     2.196199     2.188556     2.180913     2.173270
      2.165627     2.157983     2.150340     2.142697     2.135054     2.127410     2.119767     2.112124     2.104481     2.096838
      2.089194     2.081551     2.073908     2.066265     2.058621     2.050978     2.043335     2.035692     2.028049     2.020405
      2.012762     2.005119     1.997476     1.989833     1.982190     1.974546     1.966903     1.959260     1.951617     1.943974
      1.936331     1.928688     1.921045     1.913402     1.905759     1.898115     1.890472     1.882829     1.875186     1.867543
      1.859900     1.852257     1.844614     1.836971     1.829327     1.821684     1.814041     1.806398     1.798755     1.791112
      1.783469     1.775826     1.768183     1.760540     1.752896     1.745253     1.737610     1.729967     1.722324     1.714681
      1.707038     1.699395     1.691752     1.684108     1.676465     1.668822     1.661179     1.653536     1.645893     1.638250
      1.630607     1.622964     1.615321     1.607677     1.600034     1.592391     1.584748     1.577105     1.569462     1.561819
      1.554176     1.546533     1.538890     1.531246     1.523603     1.515960     1.508317     1.500674     1.493031     1.485388
      1.477745     1.470102     1.462458     1.454815     1.447172     1.439529     1.431886     1.424243     1.416600     1.408957
      1.401314     1.393671     1.386027     1.378384     1.370741     1.363098     1.355455     1.347812     1.340169     1.332526
      1.324883     1.317240     1.309596     1.301953     1.294310     1.286667     1.279024     1.271381     1.263738     1.256095
      1.248452     1.240808     1.233165     1.225522     1.217879     1.210236     1.202593     1.194950     1.187307     1.179664
      1.172021     1.164377     1.156734     1.149091     1.141448     1.133805     1.126162     1.118519     1.110876     1.103233
      1.095590     1.087946     1.080303     1.072660     1.065017     1.057374     1.049731     1.042088     1.034445     1.026802
      1.019158     1.011515     1.003872     0.996229     0.988586     0.980943     0.973300     0.965657     0.958014     0.950371
      0.942727     0.935084     0.927441     0.919798     0.912155     0.904512     0.896869     0.889226     0.881583     0.873940
      0.866296     0.858653     0.851010     0.843367     0.835724     0.828081     0.820438     0.812795     0.805152     0.797508
      0.789865     0.782222     0.774579     0.766936     0.759293     0.751650     0.744007     0.736364     0.728721     0.721077
      0.713434     0.705791     0.698148     0.690505     0.682862     0.675219     0.667576     0.659933     0.652290     0.644646
      0.637003     0.629360     0.621717     0.614074     0.606431     0.598788     0.591145     0.583502     0.575858     0.568215
      0.560572     0.552929     0.545286     0.537643     0.530000     0.522357     0.514714     0.507071     0.499427     0.491784
      0.484141     0.476498     0.468855     0.461212     0.453569     0.445925     0.438282     0.430639     0.422996     0.415353
      0.407710     0.400067     0.392424     0.384780     0.377137     0.369494     0.361851     0.354208     0.346565     0.338922
      0.331278     0.323635     0.315992     0.308349     0.300706     0.293063     0.285420     0.277777     0.270133     0.262490
      0.254847     0.247204     0.239561     0.231918     0.224275     0.216631     0.208988     0.201345
 NY phased data points follow
  -3.46730E+00 -1.89386E+00 -3.11150E+00 -1.88709E+00 -2.42127E+00 -2.41788E+00  3.43450E-01 -1.85192E+00 -1.65345E+00 -2.75236E+00
  -2.22417E+00 -1.54290E+00 -1.12442E+00 -1.98137E+00 -2.68067E+00 -2.20069E+00 -1.59312E+00 -1.96591E+00 -3.30951E+00 -2.76169E+00
  -3.57197E+00 -1.69115E+00 -2.48378E+00 -1.63168E+00 -1.21116E+00 -4.78398E+00 -1.24748E+00 -2.18246E+00 -1.17991E+00 -8.28933E-01
  -9.41712E-01 -1.50401E+00 -1.33039E+00 -6.27246E-02 -1.31123E+00 -9.61391E-01 -4.09371E-01 -1.46981E+00 -3.11701E+00 -2.44962E+00
  -1.62019E+00 -2.94771E+00 -3.18929E+00 -1.60718E+00 -3.81709E-01 -1.20404E+00 -3.34034E-01 -1.28263E+00 -2.35485E+00 -5.46129E-01
  -5.97016E-01 -2.06225E+00 -2.41420E+00  1.63460E-02 -1.54325E+00 -2.53924E+00 -3.17140E+00 -2.56059E+00 -1.22884E+00 -1.09052E+00
  -7.00060E-01 -3.23990E+00 -3.08130E+00 -1.39642E+00 -9.75639E-01 -2.06812E+00 -7.72337E-01 -1.18647E+00 -1.71899E+00 -1.97549E-01
  -8.15010E-01 -1.36353E+00 -3.45870E+00 -2.61906E+00 -1.30860E+00 -1.34851E+00 -3.21000E-01 -3.07344E+00 -2.12797E+00 -2.26486E+00
  -1.93201E+00 -2.74239E+00 -2.30861E+00 -6.11791E-02 -1.17412E+00 -2.08264E+00 -2.55412E+00 -7.55064E-01 -1.92086E+00 -1.01225E+00
  -1.67750E+00 -4.87128E-01 -1.38772E+00 -9.20660E-01 -2.46556E+00 -1.74105E+00 -1.88556E+00 -8.88974E-01 -3.26940E-01  2.22016E-01
   8.55824E-02  1.12882E+00 -1.17238E+00 -3.67307E-02 -9.79473E-01 -9.84014E-01 -4.66144E-03 -3.46125E-01 -9.14809E-01 -2.98010E-01
  -8.27321E-01 -8.42359E-01 -7.88871E-01 -1.66725E+00 -1.29969E-01 -1.26854E+00  4.54193E-01 -5.29534E-01 -6.72968E-01 -1.45121E+00
   3.28506E-01 -8.67804E-01 -1.65292E+00 -3.63712E-01 -4.87968E-01 -1.34310E+00  6.29381E-02 -5.00213E-01 -1.23429E+00 -4.91283E-01
  -1.35624E+00 -7.14444E-01 -6.90752E-01 -1.42209E+00 -1.58065E+00 -2.21904E+00 -9.92016E-01 -1.46506E+00 -1.81849E+00 -1.90071E+00
  -2.25070E+00 -1.99815E+00 -1.65227E+00 -9.11255E-01 -8.43283E-01 -1.56472E+00 -1.17191E+00 -9.26855E-01 -7.29194E-01  2.05068E-01
  -7.88100E-04 -1.98802E+00 -1.95699E+00  8.12601E-02 -1.62776E+00 -1.21366E+00 -2.91994E+00 -2.15301E+00 -1.89550E+00 -2.11594E+00
  -1.92409E+00 -8.80174E-01 -2.42955E+00 -2.40171E+00 -1.44544E+00 -2.97670E+00 -7.93629E-01 -8.43655E-01 -1.39537E+00 -2.09397E+00
  -8.68962E-01 -1.54303E+00 -1.17033E+00 -7.25432E-01 -1.34916E+00 -3.47463E+00 -1.89239E+00 -1.12926E+00 -1.42483E+00 -2.36982E-01
  -3.27550E+00 -7.78379E-01 -2.53918E+00 -9.21397E-01 -1.87863E+00  1.19944E+00 -1.08667E+00 -1.11375E+00 -1.92136E+00 -3.54785E+00
  -8.25319E-01 -1.11083E+00  1.08784E-01 -2.50832E-01  7.54965E-01 -7.40475E-01 -5.81321E-01 -1.76132E+00 -1.00914E+00 -1.93482E+00
   5.42870E-01 -8.50595E-02  4.40575E-01 -2.89221E-01 -5.40466E-01 -1.55584E+00 -2.96890E-01 -5.85236E-01 -1.73740E+00 -1.52599E+00
  -1.35420E+00 -1.03496E-01 -1.36158E+00 -9.22115E-01 -3.46559E-02  5.78555E-01  5.76843E-01 -9.68094E-01 -2.42444E-01 -1.21120E+00
  -8.93959E-01 -1.57672E+00 -5.83574E-01 -3.18540E-02 -4.38893E-01 -1.89152E+00 -4.28112E-01 -1.77794E+00 -1.83660E+00 -9.85400E-02
  -1.98107E-01 -9.84981E-01 -6.88957E-01 -1.57066E+00 -1.72963E+00 -1.46630E+00 -1.25060E+00 -7.68478E-01 -9.72112E-01 -1.41334E+00
  -9.62988E-02 -1.70291E-01 -1.05863E+00 -3.88236E-01  2.31028E-01 -1.01330E+00 -1.36803E-01 -5.91314E-01 -7.14601E-01 -2.28996E-01
   1.59568E+00 -3.51289E-01  2.03354E-01  5.52072E-01 -3.10974E-01  2.01050E+00  1.05234E+00  2.14513E+00  8.50645E-01  2.35905E+00
   1.57254E+00  1.61388E+00  9.94137E-02  1.27604E+00  7.63904E-01  1.62802E+00  5.84493E-01  4.86554E-01  5.48639E-01  4.53744E-01
  -5.07383E-01 -7.27745E-01 -4.86775E-01 -7.08167E-01 -4.57102E-01 -1.73598E+00 -1.08571E+00  1.78505E-02  1.49398E+00 -1.58192E-01
  -3.61180E-01 -4.89911E-01 -5.58598E-01 -8.04902E-01 -6.71494E-01 -4.24612E-01  2.75726E-01 -1.37025E+00  2.42359E-01 -1.10417E+00
   3.06260E-02 -8.35499E-01 -4.24266E-01 -2.69548E-01  1.54140E-01 -7.12796E-01  4.94001E-01 -1.77811E+00  5.40891E-01  3.23475E-01
   9.47679E-01 -1.10939E-01 -2.35898E-01 -1.00004E+00  1.24631E+00  8.31840E-01 -2.22529E+00 -4.66684E-01 -5.55152E-01  7.02080E-01
   5.20385E-01  1.07061E-01  1.47262E-01  5.54977E-02  2.31208E-01  1.64653E+00  1.63106E-01  3.03829E-01  9.33825E-01  2.10179E+00
   3.24117E+00  3.22809E-01  3.14901E-01  1.54039E+00 -1.13129E+00 -2.43678E+00 -1.54387E+00  1.56963E-01 -1.87426E+00 -6.80532E-01
  -7.87838E-01 -9.40601E-01 -1.23951E+00 -7.62799E-01 -1.90698E+00 -1.72183E+00  8.57160E-01 -5.97245E-01 -5.41830E-01  5.47122E-01
  -8.50149E-01  2.19145E-01  3.17997E-01 -8.33938E-02  2.34979E-01  8.03900E-04 -9.67386E-01 -8.60048E-01 -5.69409E-01 -5.11573E-01
   1.08454E+00  1.03642E-01  1.21495E+00  3.86457E-01  2.19391E+00 -1.07279E-01  8.45862E-01  9.86613E-01  4.26466E-01 -3.18768E-01
  -7.19132E-01 -1.88884E+00  2.23451E-01  1.67105E-01  1.55681E+00  9.20718E-01 -3.01903E-01 -3.79148E-01 -8.25768E-01 -2.44877E-01
  -1.93846E+00 -3.77740E-01 -7.40997E-01  7.64996E-01 -7.99308E-01 -3.15903E-02  7.49128E-01 -1.89948E+00  2.60305E-01  2.53835E-01
   6.12997E-01 -2.20618E+00  5.74765E-01 -6.76519E-02  7.03016E-01 -2.09579E+00 -7.58818E-01  1.63639E-01 -3.22420E-03 -1.07096E+00
  -1.05037E+00 -2.04808E-01 -3.08797E-01 -9.55235E-01 -1.05599E+00 -6.68384E-03 -6.80580E-01 -1.04924E+00 -1.20432E+00 -8.35461E-01
  -3.24788E-01  9.96264E-01  1.78398E-01 -1.21446E+00 -7.12483E-01 -5.04673E-01  6.11795E-02 -4.05506E-01 -2.12807E-01 -6.70802E-01
   2.98043E-01 -1.40591E+00  3.83401E-01 -1.00563E+00  1.62354E+00 -2.75481E+00  8.20355E-02  9.01311E-01  2.62708E-01  5.26518E-01
  -1.02386E+00  1.10167E+00 -5.03482E-01  1.22414E+00  5.19087E-01  1.24687E+00 -4.77625E-02  1.06896E+00 -7.87291E-01  2.90748E-01
   2.24858E-01 -3.60195E-01 -6.09611E-01 -3.10172E+00  1.54244E+00  1.37395E+00  6.04270E-01  9.59487E-02 -4.36466E-01 -1.02554E+00
  -3.76914E-01 -5.51185E-01 -6.88462E-01  5.11040E-01  2.24256E+00  9.44165E-02  1.16669E-01  1.05437E+00 -1.04690E+00 -3.45944E-01
   1.02872E+00  1.51385E-01 -8.04303E-01  7.86930E-01  1.15130E+00 -2.45791E-01  5.57533E-01  2.05687E-01 -5.85826E-02 -1.20792E+00
  -5.72556E-01 -2.46694E-02 -1.09114E+00 -1.58029E+00  9.45016E-01 -1.21833E+00  9.31363E-01 -1.10169E-01 -1.99727E-01 -1.54482E+00
   9.33271E-01 -8.88015E-01 -9.12520E-01  3.61607E-01 -6.47597E-01  3.93990E-01  1.02417E+00 -5.72484E-01  3.48738E-02 -1.17678E+00
  -4.08216E-01  1.41328E+00 -2.04019E-01 -3.50123E-01  9.79228E-02  4.98338E-01 -1.98323E+00  7.26122E-01 -1.18981E+00  1.02912E+00
  -7.11714E-02  1.83199E-01 -8.29633E-02 -1.31856E+00  1.77283E-01  3.23162E-01 -3.80631E-01  8.28705E-01
 NY points of the fit to the data follow
  -1.69802E+00 -1.68318E+00 -1.68047E+00 -1.66479E+00 -1.66383E+00 -1.65917E+00 -1.67252E+00 -1.67509E+00 -1.70456E+00 -1.70304E+00
  -1.74708E+00 -1.71867E+00 -1.74258E+00 -1.65881E+00 -1.67830E+00 -1.55452E+00 -1.59273E+00 -1.45723E+00 -1.56458E+00 -1.46339E+00
  -1.64456E+00 -1.55988E+00 -1.75927E+00 -1.66819E+00 -1.82859E+00 -1.69063E+00 -1.79695E+00 -1.64354E+00 -1.71101E+00 -1.58001E+00
  -1.62734E+00 -1.54975E+00 -1.58960E+00 -1.54824E+00 -1.55357E+00 -1.54892E+00 -1.53936E+00 -1.55659E+00 -1.53683E+00 -1.57742E+00
  -1.55321E+00 -1.60804E+00 -1.56755E+00 -1.60545E+00 -1.57212E+00 -1.59983E+00 -1.56245E+00 -1.58447E+00 -1.55059E+00 -1.57571E+00
  -1.55974E+00 -1.56475E+00 -1.54790E+00 -1.54717E+00 -1.53016E+00 -1.52446E+00 -1.50745E+00 -1.49802E+00 -1.49252E+00 -1.48528E+00
  -1.48374E+00 -1.47658E+00 -1.47726E+00 -1.46867E+00 -1.46922E+00 -1.45837E+00 -1.45822E+00 -1.44629E+00 -1.44551E+00 -1.43535E+00
  -1.43403E+00 -1.42649E+00 -1.42520E+00 -1.41967E+00 -1.41495E+00 -1.40923E+00 -1.39998E+00 -1.39434E+00 -1.38137E+00 -1.37625E+00
  -1.36356E+00 -1.36054E+00 -1.35101E+00 -1.35048E+00 -1.34477E+00 -1.34555E+00 -1.34063E+00 -1.34050E+00 -1.33766E+00 -1.33918E+00
  -1.32506E+00 -1.26872E+00 -1.22163E+00 -1.10516E+00 -1.01982E+00 -8.50131E-01 -7.38446E-01 -5.91216E-01 -4.87065E-01 -4.18078E-01
  -3.46570E-01 -3.66443E-01 -3.26221E-01 -3.81586E-01 -3.61168E-01 -4.58081E-01 -4.60863E-01 -5.81301E-01 -6.02111E-01 -7.36024E-01
  -7.69861E-01 -8.98705E-01 -9.35043E-01 -1.02899E+00 -1.05103E+00 -1.10242E+00 -1.11382E+00 -1.14454E+00 -1.15488E+00 -1.16187E+00
  -1.17119E+00 -1.12654E+00 -1.13550E+00 -1.09134E+00 -1.11153E+00 -1.07733E+00 -1.10248E+00 -1.07608E+00 -1.10509E+00 -1.08882E+00
  -1.11815E+00 -1.10954E+00 -1.13592E+00 -1.13334E+00 -1.15295E+00 -1.15545E+00 -1.16574E+00 -1.16895E+00 -1.17212E+00 -1.17453E+00
  -1.17473E+00 -1.17898E+00 -1.17829E+00 -1.18376E+00 -1.17908E+00 -1.17976E+00 -1.17497E+00 -1.17518E+00 -1.17176E+00 -1.17405E+00
  -1.17288E+00 -1.17716E+00 -1.17802E+00 -1.18329E+00 -1.18703E+00 -1.19006E+00 -1.19476E+00 -1.19178E+00 -1.19799E+00 -1.19126E+00
  -1.20053E+00 -1.19581E+00 -1.20709E+00 -1.20466E+00 -1.21818E+00 -1.21781E+00 -1.23042E+00 -1.23314E+00 -1.24194E+00 -1.25064E+00
  -1.25206E+00 -1.26621E+00 -1.25834E+00 -1.27608E+00 -1.26100E+00 -1.27833E+00 -1.25828E+00 -1.26910E+00 -1.24395E+00 -1.24827E+00
  -1.21903E+00 -1.21245E+00 -1.17981E+00 -1.15908E+00 -1.12590E+00 -1.09744E+00 -1.07193E+00 -1.04220E+00 -1.02425E+00 -9.92268E-01
  -9.82673E-01 -9.51936E-01 -9.47221E-01 -9.22245E-01 -9.20093E-01 -9.01226E-01 -8.92254E-01 -8.81989E-01 -8.70859E-01 -8.72411E-01
  -8.62548E-01 -8.75059E-01 -8.67754E-01 -8.88954E-01 -8.83442E-01 -9.13746E-01 -9.08198E-01 -9.35494E-01 -9.29176E-01 -9.48976E-01
  -9.42227E-01 -9.53434E-01 -9.45858E-01 -9.49710E-01 -9.38677E-01 -9.33114E-01 -9.20983E-01 -9.10437E-01 -9.00439E-01 -8.89297E-01
  -8.83710E-01 -8.73189E-01 -8.68911E-01 -8.60775E-01 -8.56783E-01 -8.48543E-01 -8.43076E-01 -8.32574E-01 -8.25780E-01 -8.14705E-01
  -8.10490E-01 -8.04694E-01 -8.03414E-01 -7.99243E-01 -7.98927E-01 -7.94236E-01 -7.92484E-01 -7.86029E-01 -7.81893E-01 -7.74553E-01
  -7.68509E-01 -7.61765E-01 -7.55223E-01 -7.39309E-01 -7.08646E-01 -6.83083E-01 -6.26737E-01 -5.87783E-01 -4.06028E-01 -2.87236E-01
  -2.33029E-02  2.01326E-01  4.89447E-01  8.36110E-01  9.89092E-01  1.38633E+00  1.32808E+00  1.68589E+00  1.42076E+00  1.69732E+00
   1.34990E+00  1.57503E+00  1.15317E+00  1.30741E+00  8.65014E-01  9.56931E-01  5.32169E-01  5.61225E-01  1.95512E-01  1.77399E-01
  -8.71189E-02 -1.09902E-01 -2.87693E-01 -3.00064E-01 -4.31774E-01 -4.62468E-01 -5.60076E-01 -6.00443E-01 -6.05963E-01 -6.08490E-01
  -6.05715E-01 -6.05128E-01 -6.00221E-01 -5.97987E-01 -5.91429E-01 -5.87877E-01 -5.80221E-01 -5.76006E-01 -5.68110E-01 -5.63296E-01
  -5.55238E-01 -5.49921E-01 -5.41359E-01 -5.35032E-01 -5.25843E-01 -5.18436E-01 -5.08504E-01 -4.99726E-01 -4.88791E-01 -4.78528E-01
  -4.66314E-01 -4.53932E-01 -4.39699E-01 -4.24551E-01 -4.07201E-01 -3.88194E-01 -3.66516E-01 -3.41905E-01 -3.13592E-01 -2.80300E-01
  -2.40653E-01 -1.92465E-01 -1.33461E-01 -5.23833E-02  1.02987E-01  3.12608E-01  4.53402E-01  7.44526E-01  7.61333E-01  1.07132E+00
   7.78553E-01  9.06478E-01  2.59650E-01  2.92410E-01 -4.85179E-01 -4.22348E-01 -1.07889E+00 -7.79996E-01 -1.22051E+00 -8.09053E-01
  -1.01280E+00 -6.19489E-01 -6.73737E-01 -4.19991E-01 -3.94727E-01 -1.84517E-01 -3.46035E-02  1.28048E-01  2.98249E-01  3.85651E-01
   5.02356E-01  4.63353E-01  5.34945E-01  4.17624E-01  4.92120E-01  4.35139E-01  4.56312E-01  4.21498E-01  4.52057E-01  4.12969E-01
   4.29654E-01  3.60699E-01  3.39208E-01  3.43362E-01  3.51042E-01  3.51580E-01  3.38497E-01  3.09370E-01  2.64311E-01  2.06493E-01
   1.40236E-01  7.11005E-02  3.84595E-03 -5.72136E-02 -1.09714E-01 -1.52215E-01 -1.85085E-01 -2.09040E-01 -2.25828E-01 -2.36780E-01
  -2.43662E-01 -2.47442E-01 -2.49344E-01 -2.49771E-01 -2.49451E-01 -2.48392E-01 -2.47041E-01 -2.45222E-01 -2.43267E-01 -2.40933E-01
  -2.38511E-01 -2.35732E-01 -2.32874E-01 -2.29661E-01 -2.26370E-01 -2.22722E-01 -2.18989E-01 -2.14892E-01 -2.10705E-01 -2.06152E-01
  -2.01513E-01 -1.96520E-01 -1.91459E-01 -1.86068E-01 -1.80649E-01 -1.74954E-01 -1.69297E-01 -1.63442E-01 -1.57714E-01 -1.51889E-01
  -1.46299E-01 -1.40727E-01 -1.35507E-01 -1.30415E-01 -1.25775E-01 -1.21354E-01 -1.17459E-01 -1.13835E-01 -1.10769E-01 -1.07979E-01
  -1.05726E-01 -1.03706E-01 -1.02162E-01 -1.00771E-01 -9.97600E-02 -9.87963E-02 -9.81029E-02 -9.73482E-02 -9.67599E-02 -9.60129E-02
  -9.53435E-02 -9.44388E-02 -9.35495E-02 -9.23777E-02 -9.11871E-02 -8.96913E-02 -8.81637E-02 -8.63277E-02 -8.44661E-02 -8.23092E-02
  -8.01438E-02 -7.77014E-02 -7.52706E-02 -7.25843E-02 -6.99326E-02 -6.70475E-02 -6.42171E-02 -6.11708E-02 -5.81954E-02 -5.50199E-02
  -5.19304E-02 -4.86539E-02 -4.54738E-02 -4.21152E-02 -3.88611E-02 -3.54367E-02 -3.21247E-02 -2.86481E-02 -2.52881E-02 -2.17670E-02
  -1.83664E-02 -1.48093E-02 -1.13766E-02 -7.78964E-03 -4.32847E-03 -7.14584E-04  2.77092E-03  6.40640E-03  9.91154E-03  1.35661E-02
   1.70900E-02  2.07624E-02  2.43020E-02  2.79883E-02  3.15411E-02  3.52409E-02  3.88072E-02  4.25193E-02  4.60963E-02  4.98182E-02
   5.34050E-02  5.71373E-02  6.07343E-02  6.44756E-02  6.80804E-02  7.18292E-02  7.54420E-02  7.91993E-02  8.28202E-02  8.65845E-02
   9.02116E-02  9.39824E-02  9.76168E-02  1.01395E-01  1.05037E-01  1.08821E-01  1.12469E-01  1.16260E-01  1.19915E-01  1.23714E-01
   1.27377E-01  1.31183E-01  1.34853E-01  1.38668E-01  1.42348E-01  1.46175E-01  1.49866E-01  1.53705E-01
 NY background values follow
    -1.751E+00   -1.747E+00   -1.743E+00   -1.739E+00   -1.736E+00   -1.732E+00   -1.728E+00   -1.724E+00   -1.720E+00   -1.717E+00
    -1.713E+00   -1.709E+00   -1.705E+00   -1.701E+00   -1.697E+00   -1.694E+00   -1.690E+00   -1.686E+00   -1.682E+00   -1.678E+00
    -1.675E+00   -1.671E+00   -1.667E+00   -1.663E+00   -1.659E+00   -1.655E+00   -1.652E+00   -1.648E+00   -1.644E+00   -1.640E+00
    -1.636E+00   -1.632E+00   -1.629E+00   -1.625E+00   -1.621E+00   -1.617E+00   -1.613E+00   -1.610E+00   -1.606E+00   -1.602E+00
    -1.598E+00   -1.594E+00   -1.590E+00   -1.587E+00   -1.583E+00   -1.579E+00   -1.575E+00   -1.571E+00   -1.568E+00   -1.564E+00
    -1.560E+00   -1.556E+00   -1.552E+00   -1.548E+00   -1.545E+00   -1.541E+00   -1.537E+00   -1.533E+00   -1.529E+00   -1.526E+00
    -1.522E+00   -1.518E+00   -1.514E+00   -1.510E+00   -1.506E+00   -1.503E+00   -1.499E+00   -1.495E+00   -1.491E+00   -1.487E+00
    -1.484E+00   -1.480E+00   -1.476E+00   -1.472E+00   -1.468E+00   -1.464E+00   -1.461E+00   -1.457E+00   -1.453E+00   -1.449E+00
    -1.445E+00   -1.442E+00   -1.438E+00   -1.434E+00   -1.430E+00   -1.426E+00   -1.422E+00   -1.419E+00   -1.415E+00   -1.411E+00
    -1.407E+00   -1.403E+00   -1.400E+00   -1.396E+00   -1.392E+00   -1.388E+00   -1.384E+00   -1.380E+00   -1.377E+00   -1.373E+00
    -1.369E+00   -1.365E+00   -1.361E+00   -1.358E+00   -1.354E+00   -1.350E+00   -1.346E+00   -1.342E+00   -1.338E+00   -1.335E+00
    -1.331E+00   -1.327E+00   -1.323E+00   -1.319E+00   -1.316E+00   -1.312E+00   -1.308E+00   -1.304E+00   -1.300E+00   -1.296E+00
    -1.293E+00   -1.289E+00   -1.285E+00   -1.281E+00   -1.277E+00   -1.274E+00   -1.270E+00   -1.266E+00   -1.262E+00   -1.258E+00
    -1.254E+00   -1.251E+00   -1.247E+00   -1.243E+00   -1.239E+00   -1.235E+00   -1.232E+00   -1.228E+00   -1.224E+00   -1.220E+00
    -1.216E+00   -1.212E+00   -1.209E+00   -1.205E+00   -1.201E+00   -1.197E+00   -1.193E+00   -1.190E+00   -1.186E+00   -1.182E+00
    -1.178E+00   -1.174E+00   -1.170E+00   -1.167E+00   -1.163E+00   -1.159E+00   -1.155E+00   -1.151E+00   -1.148E+00   -1.144E+00
    -1.140E+00   -1.136E+00   -1.132E+00   -1.128E+00   -1.125E+00   -1.121E+00   -1.117E+00   -1.113E+00   -1.109E+00   -1.106E+00
    -1.102E+00   -1.098E+00   -1.094E+00   -1.090E+00   -1.086E+00   -1.083E+00   -1.079E+00   -1.075E+00   -1.071E+00   -1.067E+00
    -1.064E+00   -1.060E+00   -1.056E+00   -1.052E+00   -1.048E+00   -1.044E+00   -1.041E+00   -1.037E+00   -1.033E+00   -1.029E+00
    -1.025E+00   -1.022E+00   -1.018E+00   -1.014E+00   -1.010E+00   -1.006E+00   -1.002E+00   -9.986E-01   -9.948E-01   -9.910E-01
    -9.871E-01   -9.833E-01   -9.795E-01   -9.757E-01   -9.719E-01   -9.681E-01   -9.642E-01   -9.604E-01   -9.566E-01   -9.528E-01
    -9.490E-01   -9.451E-01   -9.413E-01   -9.375E-01   -9.337E-01   -9.299E-01   -9.260E-01   -9.222E-01   -9.184E-01   -9.146E-01
    -9.108E-01   -9.070E-01   -9.031E-01   -8.993E-01   -8.955E-01   -8.917E-01   -8.879E-01   -8.840E-01   -8.802E-01   -8.764E-01
    -8.726E-01   -8.688E-01   -8.650E-01   -8.611E-01   -8.573E-01   -8.535E-01   -8.497E-01   -8.459E-01   -8.420E-01   -8.382E-01
    -8.344E-01   -8.306E-01   -8.268E-01   -8.229E-01   -8.191E-01   -8.153E-01   -8.115E-01   -8.077E-01   -8.039E-01   -8.000E-01
    -7.962E-01   -7.924E-01   -7.886E-01   -7.848E-01   -7.809E-01   -7.771E-01   -7.733E-01   -7.695E-01   -7.657E-01   -7.619E-01
    -7.580E-01   -7.542E-01   -7.504E-01   -7.466E-01   -7.428E-01   -7.389E-01   -7.351E-01   -7.313E-01   -7.275E-01   -7.237E-01
    -7.198E-01   -7.160E-01   -7.122E-01   -7.084E-01   -7.046E-01   -7.008E-01   -6.969E-01   -6.931E-01   -6.893E-01   -6.855E-01
    -6.817E-01   -6.778E-01   -6.740E-01   -6.702E-01   -6.664E-01   -6.626E-01   -6.588E-01   -6.549E-01   -6.511E-01   -6.473E-01
    -6.435E-01   -6.397E-01   -6.358E-01   -6.320E-01   -6.282E-01   -6.244E-01   -6.206E-01   -6.168E-01   -6.129E-01   -6.091E-01
    -6.053E-01   -6.015E-01   -5.977E-01   -5.938E-01   -5.900E-01   -5.862E-01   -5.824E-01   -5.786E-01   -5.748E-01   -5.709E-01
    -5.671E-01   -5.633E-01   -5.595E-01   -5.557E-01   -5.518E-01   -5.480E-01   -5.442E-01   -5.404E-01   -5.366E-01   -5.327E-01
    -5.289E-01   -5.251E-01   -5.213E-01   -5.175E-01   -5.137E-01   -5.098E-01   -5.060E-01   -5.022E-01   -4.984E-01   -4.946E-01
    -4.907E-01   -4.869E-01   -4.831E-01   -4.793E-01   -4.755E-01   -4.717E-01   -4.678E-01   -4.640E-01   -4.602E-01   -4.564E-01
    -4.526E-01   -4.487E-01   -4.449E-01   -4.411E-01   -4.373E-01   -4.335E-01   -4.297E-01   -4.258E-01   -4.220E-01   -4.182E-01
    -4.144E-01   -4.106E-01   -4.067E-01   -4.029E-01   -3.991E-01   -3.953E-01   -3.915E-01   -3.877E-01   -3.838E-01   -3.800E-01
    -3.762E-01   -3.724E-01   -3.686E-01   -3.647E-01   -3.609E-01   -3.571E-01   -3.533E-01   -3.495E-01   -3.457E-01   -3.418E-01
    -3.380E-01   -3.342E-01   -3.304E-01   -3.266E-01   -3.227E-01   -3.189E-01   -3.151E-01   -3.113E-01   -3.075E-01   -3.037E-01
    -2.998E-01   -2.960E-01   -2.922E-01   -2.884E-01   -2.846E-01   -2.807E-01   -2.769E-01   -2.731E-01   -2.693E-01   -2.655E-01
    -2.617E-01   -2.578E-01   -2.540E-01   -2.502E-01   -2.464E-01   -2.426E-01   -2.387E-01   -2.349E-01   -2.311E-01   -2.273E-01
    -2.235E-01   -2.196E-01   -2.158E-01   -2.120E-01   -2.082E-01   -2.044E-01   -2.006E-01   -1.967E-01   -1.929E-01   -1.891E-01
    -1.853E-01   -1.815E-01   -1.776E-01   -1.738E-01   -1.700E-01   -1.662E-01   -1.624E-01   -1.586E-01   -1.547E-01   -1.509E-01
    -1.471E-01   -1.433E-01   -1.395E-01   -1.356E-01   -1.318E-01   -1.280E-01   -1.242E-01   -1.204E-01   -1.166E-01   -1.127E-01
    -1.089E-01   -1.051E-01   -1.013E-01   -9.747E-02   -9.365E-02   -8.983E-02   -8.601E-02   -8.219E-02   -7.838E-02   -7.456E-02
    -7.074E-02   -6.692E-02   -6.310E-02   -5.928E-02   -5.547E-02   -5.165E-02   -4.783E-02   -4.401E-02   -4.019E-02   -3.637E-02
    -3.256E-02   -2.874E-02   -2.492E-02   -2.110E-02   -1.728E-02   -1.347E-02   -9.647E-03   -5.829E-03   -2.011E-03    1.807E-03
     5.626E-03    9.444E-03    1.326E-02    1.708E-02    2.090E-02    2.472E-02    2.853E-02    3.235E-02    3.617E-02    3.999E-02
     4.381E-02    4.763E-02    5.144E-02    5.526E-02    5.908E-02    6.290E-02    6.672E-02    7.054E-02    7.435E-02    7.817E-02
     8.199E-02    8.581E-02    8.963E-02    9.344E-02    9.726E-02    1.011E-01    1.049E-01    1.087E-01    1.125E-01    1.164E-01
     1.202E-01    1.240E-01    1.278E-01    1.316E-01    1.354E-01    1.393E-01    1.431E-01    1.469E-01
 Ala      Conc. = 3.38E+02
