 LCModel (Version 6.3-1L) Copyright: S.W. Provencher.          Ref.: Magn. Reson. Med. 30:672-679 (1993).                
 Slice#3 Row#14 Col#14  K_02_press_1_raw_act
 36 lines in following concentration table = NCONC+1
    Conc.  %SD /Cr+PCr  Metabolite                                         
   41.238  77%   1.501 Ala                                                 
    2.944  69%   0.107 Asp                                                 
    7.013 626%   0.255 Cr                                                  
   20.454 217%   0.745 PCr                                                 
    1.741  69% 6.3E-02 GABA                                                
    1.733  70% 6.3E-02 Glc                                                 
    0.000 999%   0.000 Gln                                                 
   57.372 119%   2.089 Glu                                                 
    3.896 136%   0.142 GPC                                                 
    0.000 999%   0.000 PCh                                                 
   47.306  45%   1.722 GSH                                                 
    0.000 999%   0.000 Ins                                                 
    0.000 999%   0.000 Lac                                                 
    0.000 999%   0.000 NAA                                                 
   19.537  84%   0.711 NAAG                                                
    0.572  71% 2.1E-02 Scyllo                                              
    2.871  70%   0.105 Tau                                                 
    2.586  75% 9.4E-02 -CrCH2                                              
    3.896 136%   0.142 GPC+PCh                                             
   19.537  84%   0.711 NAA+NAAG                                            
   27.467  51%   1.000 Cr+PCr                                              
   57.372 119%   2.089 Glu+Gln                                             
 2.44E+03  10%  88.677 Lip13a                                              
    0.000 999%   0.000 Lip13b                                              
  340.641  23%  12.402 Lip09                                               
    0.000 999%   0.000 MM09                                                
  437.638  22%  15.933 Lip20                                               
    0.000 999%   0.000 MM20                                                
   82.262 117%   2.995 MM12                                                
 1.04E+03  12%  37.824 MM14                                                
  535.234  18%  19.486 MM17                                                
 2.44E+03  10%  88.677 Lip13a+Lip13b                                       
 3.56E+03   5% 129.495 MM14+Lip13a+Lip13b+MM12                             
  340.641  23%  12.402 MM09+Lip09                                          
  437.638  22%  15.933 MM20+Lip20                                          
   6 lines in following misc. output table
  FWHM = 0.054 ppm    S/N =   3                                            
  Data shift = 0.000 ppm                                                   
  Ph:-179 deg      75.2 deg/ppm                                            
  alphaB,S = 8.5E+01,   3.5E+01                                            
   14 spline knots.   Ns = 5(1)                                            
   2 inflections.     1 extrema                                            
  498 points on ppm-axis = NY
      4.000000     3.992357     3.984714     3.977070     3.969427     3.961784     3.954141     3.946497     3.938854     3.931211
      3.923568     3.915925     3.908281     3.900638     3.892995     3.885352     3.877708     3.870065     3.862422     3.854779
      3.847136     3.839492     3.831849     3.824206     3.816563     3.808919     3.801276     3.793633     3.785990     3.778347
      3.770703     3.763060     3.755417     3.747774     3.740130     3.732487     3.724844     3.717201     3.709558     3.701914
      3.694271     3.686628     3.678985     3.671341     3.663698     3.656055     3.648412     3.640769     3.633125     3.625482
      3.617839     3.610196     3.602552     3.594909     3.587266     3.579623     3.571980     3.564336     3.556693     3.549050
      3.541407     3.533763     3.526120     3.518477     3.510834     3.503191     3.495547     3.487904     3.480261     3.472618
      3.464974     3.457331     3.449688     3.442045     3.434402     3.426758     3.419115     3.411472     3.403829     3.396185
      3.388542     3.380899     3.373256     3.365613     3.357969     3.350326     3.342683     3.335040     3.327396     3.319753
      3.312110     3.304467     3.296824     3.289180     3.281537     3.273894     3.266251     3.258607     3.250964     3.243321
      3.235678     3.228034     3.220391     3.212748     3.205105     3.197462     3.189818     3.182175     3.174532     3.166889
      3.159245     3.151602     3.143959     3.136316     3.128673     3.121029     3.113386     3.105743     3.098100     3.090456
      3.082813     3.075170     3.067527     3.059884     3.052240     3.044597     3.036954     3.029311     3.021667     3.014024
      3.006381     2.998738     2.991095     2.983451     2.975808     2.968165     2.960522     2.952878     2.945235     2.937592
      2.929949     2.922306     2.914662     2.907019     2.899376     2.891733     2.884089     2.876446     2.868803     2.861160
      2.853517     2.845873     2.838230     2.830587     2.822944     2.815300     2.807657     2.800014     2.792371     2.784728
      2.777084     2.769441     2.761798     2.754155     2.746511     2.738868     2.731225     2.723582     2.715939     2.708295
      2.700652     2.693009     2.685366     2.677722     2.670079     2.662436     2.654793     2.647150     2.639506     2.631863
      2.624220     2.616577     2.608933     2.601290     2.593647     2.586004     2.578361     2.570717     2.563074     2.555431
      2.547788     2.540144     2.532501     2.524858     2.517215     2.509572     2.501928     2.494285     2.486642     2.478999
      2.471355     2.463712     2.456069     2.448426     2.440783     2.433139     2.425496     2.417853     2.410210     2.402566
      2.394923     2.387280     2.379637     2.371994     2.364350     2.356707     2.349064     2.341421     2.333777     2.326134
      2.318491     2.310848     2.303205     2.295561     2.287918     2.280275     2.272632     2.264988     2.257345     2.249702
      2.242059     2.234416     2.226772     2.219129     2.211486     2.203843     2.196199     2.188556     2.180913     2.173270
      2.165627     2.157983     2.150340     2.142697     2.135054     2.127410     2.119767     2.112124     2.104481     2.096838
      2.089194     2.081551     2.073908     2.066265     2.058621     2.050978     2.043335     2.035692     2.028049     2.020405
      2.012762     2.005119     1.997476     1.989833     1.982190     1.974546     1.966903     1.959260     1.951617     1.943974
      1.936331     1.928688     1.921045     1.913402     1.905759     1.898115     1.890472     1.882829     1.875186     1.867543
      1.859900     1.852257     1.844614     1.836971     1.829327     1.821684     1.814041     1.806398     1.798755     1.791112
      1.783469     1.775826     1.768183     1.760540     1.752896     1.745253     1.737610     1.729967     1.722324     1.714681
      1.707038     1.699395     1.691752     1.684108     1.676465     1.668822     1.661179     1.653536     1.645893     1.638250
      1.630607     1.622964     1.615321     1.607677     1.600034     1.592391     1.584748     1.577105     1.569462     1.561819
      1.554176     1.546533     1.538890     1.531246     1.523603     1.515960     1.508317     1.500674     1.493031     1.485388
      1.477745     1.470102     1.462458     1.454815     1.447172     1.439529     1.431886     1.424243     1.416600     1.408957
      1.401314     1.393671     1.386027     1.378384     1.370741     1.363098     1.355455     1.347812     1.340169     1.332526
      1.324883     1.317240     1.309596     1.301953     1.294310     1.286667     1.279024     1.271381     1.263738     1.256095
      1.248452     1.240808     1.233165     1.225522     1.217879     1.210236     1.202593     1.194950     1.187307     1.179664
      1.172021     1.164377     1.156734     1.149091     1.141448     1.133805     1.126162     1.118519     1.110876     1.103233
      1.095590     1.087946     1.080303     1.072660     1.065017     1.057374     1.049731     1.042088     1.034445     1.026802
      1.019158     1.011515     1.003872     0.996229     0.988586     0.980943     0.973300     0.965657     0.958014     0.950371
      0.942727     0.935084     0.927441     0.919798     0.912155     0.904512     0.896869     0.889226     0.881583     0.873940
      0.866296     0.858653     0.851010     0.843367     0.835724     0.828081     0.820438     0.812795     0.805152     0.797508
      0.789865     0.782222     0.774579     0.766936     0.759293     0.751650     0.744007     0.736364     0.728721     0.721077
      0.713434     0.705791     0.698148     0.690505     0.682862     0.675219     0.667576     0.659933     0.652290     0.644646
      0.637003     0.629360     0.621717     0.614074     0.606431     0.598788     0.591145     0.583502     0.575858     0.568215
      0.560572     0.552929     0.545286     0.537643     0.530000     0.522357     0.514714     0.507071     0.499427     0.491784
      0.484141     0.476498     0.468855     0.461212     0.453569     0.445925     0.438282     0.430639     0.422996     0.415353
      0.407710     0.400067     0.392424     0.384780     0.377137     0.369494     0.361851     0.354208     0.346565     0.338922
      0.331278     0.323635     0.315992     0.308349     0.300706     0.293063     0.285420     0.277777     0.270133     0.262490
      0.254847     0.247204     0.239561     0.231918     0.224275     0.216631     0.208988     0.201345
 NY phased data points follow
   1.25796E+01  1.23675E+01  1.17112E+01  1.32253E+01  1.26361E+01  1.01908E+01  1.13606E+01  1.13601E+01  1.19427E+01  1.13497E+01
   1.01108E+01  1.07689E+01  1.17976E+01  1.07069E+01  1.05838E+01  1.16623E+01  1.09899E+01  9.77906E+00  9.86391E+00  1.11103E+01
   1.03185E+01  1.26807E+01  9.74372E+00  9.48380E+00  1.04214E+01  1.06862E+01  9.57498E+00  9.55895E+00  9.92700E+00  9.19333E+00
   8.81723E+00  9.84282E+00  1.14258E+01  9.24937E+00  9.24148E+00  1.00578E+01  7.28941E+00  8.56646E+00  8.65835E+00  7.94453E+00
   8.03432E+00  8.42162E+00  6.68989E+00  7.74732E+00  6.36820E+00  7.24305E+00  7.92554E+00  8.02403E+00  7.25726E+00  6.60407E+00
   8.39096E+00  7.10361E+00  6.79914E+00  5.33137E+00  7.30898E+00  6.18681E+00  5.29769E+00  5.38912E+00  8.64412E+00  6.63135E+00
   6.44167E+00  6.93703E+00  5.27545E+00  7.78671E+00  6.59962E+00  6.86128E+00  6.71980E+00  7.24073E+00  7.65201E+00  5.52014E+00
   5.63650E+00  4.89870E+00  6.16264E+00  6.44914E+00  7.52291E+00  5.80406E+00  5.62698E+00  7.94009E+00  2.88118E+00  3.59311E+00
   5.62627E+00  5.85420E+00  5.12264E+00  5.26110E+00  6.77796E+00  5.05983E+00  4.40316E+00  5.29604E+00  4.23725E+00  5.74938E+00
   5.07118E+00  5.21855E+00  3.52952E+00  4.33801E+00  4.48623E+00  4.99105E+00  6.41834E+00  4.10199E+00  4.85252E+00  5.12073E+00
   4.78703E+00  3.50127E+00  5.67129E+00  4.74352E+00  5.02217E+00  5.55153E+00  4.12747E+00  4.85067E+00  6.30541E+00  3.90075E+00
   3.87992E+00  3.82057E+00  5.65168E+00  4.64011E+00  3.68106E+00  4.04454E+00  5.14358E+00  5.12484E+00  3.83377E+00  3.09038E+00
   4.41014E+00  3.87145E+00  2.45168E+00  2.47359E+00  4.30477E+00  3.79918E+00  3.60301E+00  4.31511E+00  4.63639E+00  3.25543E+00
   3.42796E+00  3.70241E+00  3.24846E+00  2.41778E+00  2.85946E+00  3.78758E+00  4.57697E+00  4.51409E+00  2.50902E+00  3.07883E+00
   4.60702E+00  3.92882E+00  2.28778E+00  2.13082E+00  3.92204E+00  2.80749E+00  3.94160E+00  2.61706E+00  1.93124E+00  3.44356E+00
   4.30759E+00  3.40465E+00  2.31385E+00  2.59681E+00  1.77494E+00  1.24649E+00  2.47929E+00  2.00688E+00  2.76349E+00  2.93523E+00
   1.58486E+00  2.57971E+00  3.35234E+00  1.58722E+00  2.31261E+00  2.71257E+00  2.80301E+00  3.60204E+00  2.99066E+00  1.61918E+00
   1.45747E+00  2.44169E+00  2.21986E+00  3.62017E+00  3.19192E+00  1.51932E+00  1.82988E+00  2.02066E+00  7.67324E-01  3.17950E+00
   2.29916E+00  1.25335E-02  2.36570E+00  2.86577E-01 -1.80874E-01  9.16943E-01  1.81035E-01  1.04700E+00  2.64950E+00  2.20148E+00
   2.86173E+00 -1.16470E-01  1.42457E+00  2.59189E+00 -6.24802E-01 -3.73722E-02 -2.39895E+00 -4.42348E-02  7.55192E-02 -1.15021E-01
   1.36092E-01 -1.07681E+00  8.65062E-01 -1.26915E+00  8.62497E-01  8.26148E-01  1.04583E-01 -1.13645E-01  1.63280E+00 -2.21590E-01
  -7.35407E-01  2.31914E-01  2.77405E-01  3.59272E-01 -2.02694E+00  1.05895E+00  7.02297E-02 -3.37731E-01  1.03340E+00 -4.44423E-01
   1.01236E+00 -1.46446E+00 -5.77132E-01  2.68255E-01  6.54443E-01 -1.39635E+00 -1.73977E+00 -1.77301E+00 -2.27953E+00 -6.13047E-01
   3.86371E-01 -1.14037E+00 -3.48366E+00 -7.33934E-01 -2.03249E+00 -4.74072E-01 -1.72019E-01  2.77696E-01 -8.47999E-01  1.40769E-01
  -1.98258E-01 -3.84167E+00 -3.65663E+00 -1.86737E+00 -2.42731E+00 -1.95982E+00 -2.01541E+00 -3.64570E-01 -2.67481E+00 -2.77959E+00
  -1.90263E+00 -1.31780E+00 -1.83177E+00 -1.38635E+00 -3.11868E+00 -3.15471E+00  2.15963E-01 -1.69156E+00 -1.15909E-01 -6.82540E-01
   1.19024E+00 -2.29261E+00 -4.12436E+00 -4.41863E+00 -9.31877E-01 -4.04142E+00 -3.51047E+00 -5.99279E-01 -3.74667E+00 -3.33996E+00
  -2.67704E+00 -3.10863E+00 -2.36335E+00 -1.56183E+00 -8.81536E-01 -4.24284E+00 -2.12259E+00 -3.48523E+00 -3.30764E+00 -3.27482E+00
  -8.07429E-01 -1.56903E+00 -3.57789E+00 -3.53361E+00 -3.78422E+00 -2.86546E+00 -3.51796E+00 -2.10823E+00 -4.03279E+00 -4.97119E+00
  -3.63765E+00 -3.19268E+00 -3.62837E+00 -3.85629E+00 -4.68248E+00 -4.31543E+00 -3.63085E+00 -3.61266E+00 -3.44887E+00 -5.15662E+00
  -4.51110E+00 -3.16945E+00 -3.44821E+00 -4.10585E+00 -6.00164E+00 -2.96118E+00 -4.18482E+00 -3.91817E+00 -3.57065E+00 -3.93449E+00
  -3.76297E+00 -1.52827E+00 -2.69780E+00 -3.11257E+00 -1.63872E+00 -1.17660E+00 -2.25536E+00 -5.26332E+00 -1.21953E+00 -2.37413E+00
  -2.61031E+00  3.98112E-01 -5.11055E-01 -2.95875E-01 -1.02313E+00  3.35282E+00  1.50114E+00 -1.79822E+00  5.96685E-01  1.34575E+00
   5.14436E-01  6.31595E-01  1.32762E-02  8.69065E-01  1.32862E+00  1.82120E+00  1.90099E+00  2.27429E-01  9.53423E-02  8.22887E-01
   4.04316E-01  1.22996E+00  5.75839E-01  2.04151E+00  1.19808E+00  1.03306E+00  2.96712E+00  1.04734E+00  1.40698E+00  1.83625E+00
   3.57940E+00  3.07053E+00  1.58581E+00  1.92005E+00  2.93192E+00  1.72160E+00  2.56076E+00  2.73130E+00  1.41007E+00  2.21513E+00
   2.19605E+00  2.44309E+00  2.01320E+00  3.15175E+00  2.30616E+00  2.27336E+00  2.74453E+00  2.85400E+00  3.07785E+00  3.11547E+00
   4.41947E+00  1.94297E+00  1.52880E+00  3.86308E+00  4.86210E+00  5.01275E+00  3.67215E+00  4.50262E+00  4.13706E+00  3.54021E+00
   2.49075E+00  4.36005E-01  1.53430E+00  2.77833E+00  3.18094E+00  3.48074E+00  2.10855E+00  3.60209E+00  1.62637E+00  2.76567E+00
   3.98328E+00  2.52953E+00  2.60039E+00  2.77752E+00  2.34770E+00  3.48358E+00  1.81591E+00  3.14830E+00  2.32212E+00  8.35292E-01
   3.42757E-01  2.15491E+00  1.84232E+00  1.32155E+00  2.43305E+00  1.25562E+00  2.49349E+00  6.39141E-02  1.88858E+00  1.02898E+00
  -1.51393E-01  2.18388E+00 -6.40612E-01  7.66234E-01 -6.10605E-01  1.77902E+00  9.28805E-01 -2.35651E-01  8.19337E-01 -8.34172E-01
   1.20102E+00  2.06708E+00  8.70252E-01 -1.49507E+00  7.14678E-01  1.27209E+00 -2.16359E-01 -5.91011E-01  8.93089E-01 -1.27969E+00
   2.09611E-01 -4.77934E-02  1.55621E+00  1.33747E-02 -4.46649E-01 -3.97029E-01 -1.05381E+00  1.03953E-01 -1.82063E+00 -1.53727E+00
  -2.15733E+00 -8.10836E-01 -2.59024E+00 -2.05288E+00 -7.89890E-01 -1.73965E+00 -1.16185E+00 -3.78327E-01 -1.08034E+00 -2.93117E-01
   7.86865E-02 -1.11712E+00 -2.02258E-01  2.38557E-01 -1.50213E+00 -1.31626E+00 -1.87303E+00 -8.87793E-01 -1.27984E+00 -1.75099E+00
  -1.24452E+00 -8.19027E-01 -1.00083E+00 -1.89491E+00 -6.26687E-01 -1.49933E+00 -7.27697E-01 -1.38323E+00 -2.97431E-01 -1.93080E+00
  -1.51062E+00 -1.18806E+00 -2.18467E+00 -1.57828E+00  4.17409E-01  4.77670E-01 -2.91321E+00 -3.22183E-01 -1.90548E+00 -9.51436E-01
  -2.17925E+00 -1.59470E+00 -2.59698E+00 -1.56036E+00 -2.42078E-01 -2.32941E+00 -5.32065E-01 -8.45739E-02 -1.72132E+00 -2.42388E+00
  -2.02196E+00 -1.41211E+00 -2.83717E+00 -1.59984E+00 -2.22030E+00 -2.36232E+00 -5.02892E-01 -2.06121E+00
 NY points of the fit to the data follow
   1.03521E+01  1.02991E+01  1.02482E+01  1.02056E+01  1.01957E+01  1.02255E+01  1.02832E+01  1.03506E+01  1.04022E+01  1.04213E+01
   1.04001E+01  1.03353E+01  1.02272E+01  1.00815E+01  9.91584E+00  9.75759E+00  9.63206E+00  9.54217E+00  9.48161E+00  9.43724E+00
   9.40005E+00  9.36233E+00  9.31429E+00  9.24360E+00  9.17012E+00  9.18333E+00  9.30023E+00  9.46915E+00  9.63667E+00  9.76973E+00
   9.85213E+00  9.86508E+00  9.79128E+00  9.61568E+00  9.35480E+00  9.06363E+00  8.81139E+00  8.64138E+00  8.51923E+00  8.41951E+00
   8.34541E+00  8.29376E+00  8.25017E+00  8.20295E+00  8.15144E+00  8.09504E+00  8.03401E+00  7.97190E+00  7.90960E+00  7.84808E+00
   7.78793E+00  7.72863E+00  7.66956E+00  7.61043E+00  7.55052E+00  7.48949E+00  7.42830E+00  7.36801E+00  7.30863E+00  7.24987E+00
   7.19170E+00  7.13440E+00  7.07827E+00  7.02277E+00  6.96748E+00  6.91187E+00  6.85551E+00  6.79847E+00  6.74098E+00  6.68307E+00
   6.62579E+00  6.57072E+00  6.51790E+00  6.46631E+00  6.41448E+00  6.36092E+00  6.30515E+00  6.24745E+00  6.18833E+00  6.12840E+00
   6.06853E+00  6.01157E+00  5.96017E+00  5.91322E+00  5.86743E+00  5.81980E+00  5.76888E+00  5.71465E+00  5.65720E+00  5.59607E+00
   5.53107E+00  5.46323E+00  5.39476E+00  5.32851E+00  5.26573E+00  5.20486E+00  5.14479E+00  5.09035E+00  5.06678E+00  5.08410E+00
   5.12557E+00  5.16736E+00  5.18916E+00  5.18261E+00  5.14690E+00  5.08086E+00  4.98318E+00  4.85914E+00  4.72430E+00  4.60052E+00
   4.50486E+00  4.42977E+00  4.36202E+00  4.29802E+00  4.23628E+00  4.17381E+00  4.10834E+00  4.03905E+00  3.96591E+00  3.88996E+00
   3.81419E+00  3.75247E+00  3.76567E+00  3.87980E+00  4.05900E+00  4.24950E+00  4.40362E+00  4.50008E+00  4.54512E+00  4.54504E+00
   4.48014E+00  4.33647E+00  4.12954E+00  3.89881E+00  3.69424E+00  3.52155E+00  3.37028E+00  3.25491E+00  3.18477E+00  3.16404E+00
   3.18951E+00  3.24279E+00  3.29210E+00  3.31612E+00  3.30785E+00  3.26821E+00  3.20916E+00  3.14529E+00  3.08581E+00  3.03430E+00
   2.98319E+00  2.93036E+00  2.87781E+00  2.82846E+00  2.78498E+00  2.74707E+00  2.71295E+00  2.68008E+00  2.64636E+00  2.60981E+00
   2.56791E+00  2.51806E+00  2.46051E+00  2.39935E+00  2.33739E+00  2.27458E+00  2.21081E+00  2.14725E+00  2.08602E+00  2.02871E+00
   1.97314E+00  1.91472E+00  1.85134E+00  1.78323E+00  1.71169E+00  1.63707E+00  1.55846E+00  1.47546E+00  1.38919E+00  1.30520E+00
   1.22322E+00  1.13992E+00  1.05305E+00  9.62323E-01  8.72521E-01  7.94355E-01  7.40336E-01  7.18884E-01  7.26691E-01  7.47730E-01
   7.64381E-01  7.62051E-01  7.21573E-01  6.24368E-01  4.79560E-01  3.14251E-01  1.58493E-01  3.59316E-02 -4.39670E-02 -8.31265E-02
  -8.93583E-02 -7.31972E-02 -4.95740E-02 -3.92265E-02 -5.60841E-02 -1.05182E-01 -1.73909E-01 -2.52328E-01 -3.37042E-01 -4.21945E-01
  -4.97667E-01 -5.42475E-01 -5.39203E-01 -4.97283E-01 -4.37808E-01 -3.84237E-01 -3.54347E-01 -3.70057E-01 -4.52315E-01 -6.00524E-01
  -7.84420E-01 -9.64104E-01 -1.10348E+00 -1.17884E+00 -1.19059E+00 -1.15291E+00 -1.08734E+00 -1.02869E+00 -1.00292E+00 -1.02158E+00
  -1.07545E+00 -1.13632E+00 -1.17323E+00 -1.16730E+00 -1.12404E+00 -1.06672E+00 -1.02628E+00 -1.02763E+00 -1.09134E+00 -1.22084E+00
  -1.39172E+00 -1.56378E+00 -1.70218E+00 -1.78206E+00 -1.79405E+00 -1.75148E+00 -1.68720E+00 -1.63353E+00 -1.61116E+00 -1.63060E+00
  -1.68829E+00 -1.73098E+00 -1.70483E+00 -1.60954E+00 -1.47889E+00 -1.34934E+00 -1.24365E+00 -1.17389E+00 -1.15310E+00 -1.19309E+00
  -1.29125E+00 -1.43011E+00 -1.57524E+00 -1.69099E+00 -1.77997E+00 -1.86713E+00 -1.96236E+00 -2.06593E+00 -2.17527E+00 -2.28614E+00
  -2.39425E+00 -2.49658E+00 -2.59396E+00 -2.68960E+00 -2.78404E+00 -2.87810E+00 -2.97366E+00 -3.07243E+00 -3.17484E+00 -3.27960E+00
  -3.38433E+00 -3.48603E+00 -3.58303E+00 -3.67526E+00 -3.76332E+00 -3.84737E+00 -3.92759E+00 -4.00374E+00 -4.07504E+00 -4.13996E+00
  -4.19678E+00 -4.24412E+00 -4.28117E+00 -4.30702E+00 -4.32134E+00 -4.32422E+00 -4.31568E+00 -4.29563E+00 -4.26388E+00 -4.21997E+00
  -4.16386E+00 -4.09610E+00 -4.01748E+00 -3.92909E+00 -3.83223E+00 -3.72840E+00 -3.61916E+00 -3.50570E+00 -3.38876E+00 -3.26888E+00
  -3.14621E+00 -3.02057E+00 -2.89148E+00 -2.75813E+00 -2.61943E+00 -2.47414E+00 -2.32090E+00 -2.15839E+00 -1.98528E+00 -1.80008E+00
  -1.60039E+00 -1.37829E+00 -1.10390E+00 -7.64367E-01 -4.03870E-01 -7.11674E-02  1.98000E-01  3.89697E-01  5.01391E-01  5.18326E-01
   4.41661E-01  3.39499E-01  2.83138E-01  3.21627E-01  4.65343E-01  6.74589E-01  8.97997E-01  1.11515E+00  1.30636E+00  1.44587E+00
   1.51463E+00  1.51353E+00  1.47583E+00  1.44526E+00  1.42950E+00  1.42765E+00  1.44004E+00  1.46740E+00  1.51042E+00  1.56939E+00
   1.64421E+00  1.73423E+00  1.83837E+00  1.95505E+00  2.08231E+00  2.21784E+00  2.35905E+00  2.50320E+00  2.64743E+00  2.78890E+00
   2.92483E+00  3.05258E+00  3.16974E+00  3.27416E+00  3.36405E+00  3.43793E+00  3.49474E+00  3.53379E+00  3.55478E+00  3.55780E+00
   3.54329E+00  3.51201E+00  3.46501E+00  3.40359E+00  3.32926E+00  3.24366E+00  3.14857E+00  3.04582E+00  2.93727E+00  2.82478E+00
   2.71015E+00  2.59511E+00  2.48130E+00  2.37022E+00  2.26323E+00  2.16154E+00  2.06616E+00  1.97794E+00  1.89750E+00  1.82527E+00
   1.76145E+00  1.70603E+00  1.65880E+00  1.61934E+00  1.58701E+00  1.56104E+00  1.54048E+00  1.52427E+00  1.51128E+00  1.50031E+00
   1.49014E+00  1.47961E+00  1.46761E+00  1.45313E+00  1.43528E+00  1.41333E+00  1.38672E+00  1.35504E+00  1.31809E+00  1.27582E+00
   1.22832E+00  1.17585E+00  1.11876E+00  1.05752E+00  9.92629E-01  9.24667E-01  8.54219E-01  7.81871E-01  7.08196E-01  6.33733E-01
   5.58983E-01  4.84395E-01  4.10366E-01  3.37236E-01  2.65295E-01  1.94778E-01  1.25872E-01  5.87212E-02 -6.57045E-03 -6.99343E-02
  -1.31327E-01 -1.90732E-01 -2.48149E-01 -3.03599E-01 -3.57112E-01 -4.08726E-01 -4.58488E-01 -5.06449E-01 -5.52661E-01 -5.97183E-01
  -6.40069E-01 -6.81376E-01 -7.21159E-01 -7.59470E-01 -7.96362E-01 -8.31886E-01 -8.66091E-01 -8.99022E-01 -9.30722E-01 -9.61235E-01
  -9.90600E-01 -1.01886E+00 -1.04604E+00 -1.07219E+00 -1.09733E+00 -1.12149E+00 -1.14471E+00 -1.16701E+00 -1.18842E+00 -1.20896E+00
  -1.22866E+00 -1.24754E+00 -1.26562E+00 -1.28293E+00 -1.29948E+00 -1.31529E+00 -1.33038E+00 -1.34477E+00 -1.35847E+00 -1.37150E+00
  -1.38387E+00 -1.39560E+00 -1.40670E+00 -1.41719E+00 -1.42707E+00 -1.43636E+00 -1.44507E+00 -1.45321E+00 -1.46080E+00 -1.46783E+00
  -1.47433E+00 -1.48031E+00 -1.48576E+00 -1.49070E+00 -1.49515E+00 -1.49910E+00 -1.50256E+00 -1.50555E+00 -1.50808E+00 -1.51014E+00
  -1.51175E+00 -1.51292E+00 -1.51365E+00 -1.51395E+00 -1.51383E+00 -1.51329E+00 -1.51235E+00 -1.51101E+00
 NY background values follow
     1.056E+01    1.051E+01    1.046E+01    1.041E+01    1.036E+01    1.031E+01    1.026E+01    1.021E+01    1.015E+01    1.010E+01
     1.005E+01    1.000E+01    9.954E+00    9.903E+00    9.853E+00    9.803E+00    9.752E+00    9.702E+00    9.651E+00    9.601E+00
     9.551E+00    9.500E+00    9.450E+00    9.400E+00    9.349E+00    9.299E+00    9.248E+00    9.198E+00    9.148E+00    9.097E+00
     9.047E+00    8.996E+00    8.946E+00    8.896E+00    8.845E+00    8.795E+00    8.745E+00    8.694E+00    8.644E+00    8.594E+00
     8.543E+00    8.493E+00    8.443E+00    8.393E+00    8.342E+00    8.292E+00    8.242E+00    8.192E+00    8.141E+00    8.091E+00
     8.041E+00    7.991E+00    7.941E+00    7.891E+00    7.841E+00    7.791E+00    7.741E+00    7.691E+00    7.641E+00    7.591E+00
     7.541E+00    7.491E+00    7.441E+00    7.391E+00    7.341E+00    7.292E+00    7.242E+00    7.192E+00    7.142E+00    7.093E+00
     7.043E+00    6.994E+00    6.944E+00    6.894E+00    6.845E+00    6.796E+00    6.746E+00    6.697E+00    6.647E+00    6.598E+00
     6.549E+00    6.500E+00    6.450E+00    6.401E+00    6.352E+00    6.303E+00    6.254E+00    6.205E+00    6.156E+00    6.107E+00
     6.059E+00    6.010E+00    5.961E+00    5.912E+00    5.864E+00    5.815E+00    5.767E+00    5.718E+00    5.670E+00    5.622E+00
     5.573E+00    5.525E+00    5.477E+00    5.429E+00    5.381E+00    5.333E+00    5.285E+00    5.237E+00    5.189E+00    5.141E+00
     5.093E+00    5.046E+00    4.998E+00    4.951E+00    4.903E+00    4.856E+00    4.808E+00    4.761E+00    4.714E+00    4.667E+00
     4.620E+00    4.573E+00    4.526E+00    4.479E+00    4.432E+00    4.385E+00    4.339E+00    4.292E+00    4.246E+00    4.199E+00
     4.153E+00    4.107E+00    4.061E+00    4.014E+00    3.968E+00    3.922E+00    3.877E+00    3.831E+00    3.785E+00    3.739E+00
     3.694E+00    3.648E+00    3.603E+00    3.558E+00    3.512E+00    3.467E+00    3.422E+00    3.377E+00    3.332E+00    3.288E+00
     3.243E+00    3.198E+00    3.154E+00    3.109E+00    3.065E+00    3.021E+00    2.977E+00    2.933E+00    2.889E+00    2.845E+00
     2.801E+00    2.757E+00    2.714E+00    2.670E+00    2.627E+00    2.584E+00    2.540E+00    2.497E+00    2.454E+00    2.411E+00
     2.369E+00    2.326E+00    2.283E+00    2.241E+00    2.198E+00    2.156E+00    2.114E+00    2.072E+00    2.030E+00    1.988E+00
     1.946E+00    1.905E+00    1.863E+00    1.822E+00    1.781E+00    1.739E+00    1.698E+00    1.657E+00    1.617E+00    1.576E+00
     1.535E+00    1.495E+00    1.454E+00    1.414E+00    1.374E+00    1.334E+00    1.294E+00    1.254E+00    1.214E+00    1.175E+00
     1.135E+00    1.096E+00    1.057E+00    1.018E+00    9.788E-01    9.399E-01    9.012E-01    8.626E-01    8.242E-01    7.858E-01
     7.476E-01    7.095E-01    6.716E-01    6.337E-01    5.960E-01    5.585E-01    5.210E-01    4.837E-01    4.465E-01    4.095E-01
     3.726E-01    3.358E-01    2.991E-01    2.626E-01    2.262E-01    1.900E-01    1.539E-01    1.179E-01    8.205E-02    4.634E-02
     1.078E-02   -2.465E-02   -5.994E-02   -9.509E-02   -1.301E-01   -1.650E-01   -1.997E-01   -2.343E-01   -2.687E-01   -3.030E-01
    -3.372E-01   -3.712E-01   -4.051E-01   -4.388E-01   -4.724E-01   -5.058E-01   -5.391E-01   -5.722E-01   -6.052E-01   -6.381E-01
    -6.708E-01   -7.033E-01   -7.357E-01   -7.679E-01   -8.000E-01   -8.320E-01   -8.638E-01   -8.954E-01   -9.269E-01   -9.582E-01
    -9.894E-01   -1.020E+00   -1.051E+00   -1.082E+00   -1.113E+00   -1.143E+00   -1.173E+00   -1.203E+00   -1.233E+00   -1.263E+00
    -1.293E+00   -1.322E+00   -1.351E+00   -1.381E+00   -1.409E+00   -1.438E+00   -1.467E+00   -1.495E+00   -1.524E+00   -1.552E+00
    -1.580E+00   -1.608E+00   -1.635E+00   -1.663E+00   -1.690E+00   -1.717E+00   -1.744E+00   -1.771E+00   -1.798E+00   -1.824E+00
    -1.851E+00   -1.877E+00   -1.903E+00   -1.929E+00   -1.954E+00   -1.980E+00   -2.005E+00   -2.030E+00   -2.055E+00   -2.080E+00
    -2.105E+00   -2.129E+00   -2.153E+00   -2.178E+00   -2.201E+00   -2.225E+00   -2.249E+00   -2.272E+00   -2.295E+00   -2.318E+00
    -2.341E+00   -2.364E+00   -2.386E+00   -2.409E+00   -2.431E+00   -2.453E+00   -2.475E+00   -2.496E+00   -2.518E+00   -2.539E+00
    -2.560E+00   -2.581E+00   -2.602E+00   -2.622E+00   -2.642E+00   -2.663E+00   -2.683E+00   -2.702E+00   -2.722E+00   -2.741E+00
    -2.761E+00   -2.780E+00   -2.799E+00   -2.817E+00   -2.836E+00   -2.854E+00   -2.872E+00   -2.890E+00   -2.908E+00   -2.925E+00
    -2.943E+00   -2.960E+00   -2.977E+00   -2.993E+00   -3.010E+00   -3.026E+00   -3.043E+00   -3.059E+00   -3.074E+00   -3.090E+00
    -3.106E+00   -3.121E+00   -3.136E+00   -3.151E+00   -3.165E+00   -3.180E+00   -3.194E+00   -3.208E+00   -3.222E+00   -3.236E+00
    -3.249E+00   -3.262E+00   -3.275E+00   -3.288E+00   -3.301E+00   -3.313E+00   -3.326E+00   -3.338E+00   -3.350E+00   -3.361E+00
    -3.373E+00   -3.384E+00   -3.395E+00   -3.406E+00   -3.417E+00   -3.427E+00   -3.438E+00   -3.448E+00   -3.458E+00   -3.467E+00
    -3.477E+00   -3.486E+00   -3.495E+00   -3.504E+00   -3.513E+00   -3.521E+00   -3.529E+00   -3.537E+00   -3.545E+00   -3.553E+00
    -3.560E+00   -3.567E+00   -3.575E+00   -3.581E+00   -3.588E+00   -3.594E+00   -3.600E+00   -3.606E+00   -3.612E+00   -3.618E+00
    -3.623E+00   -3.628E+00   -3.633E+00   -3.638E+00   -3.642E+00   -3.647E+00   -3.651E+00   -3.655E+00   -3.658E+00   -3.662E+00
    -3.665E+00   -3.668E+00   -3.671E+00   -3.674E+00   -3.676E+00   -3.678E+00   -3.680E+00   -3.682E+00   -3.684E+00   -3.685E+00
    -3.686E+00   -3.687E+00   -3.688E+00   -3.688E+00   -3.688E+00   -3.688E+00   -3.688E+00   -3.688E+00   -3.687E+00   -3.687E+00
    -3.686E+00   -3.684E+00   -3.683E+00   -3.681E+00   -3.679E+00   -3.677E+00   -3.675E+00   -3.672E+00   -3.670E+00   -3.667E+00
    -3.664E+00   -3.660E+00   -3.657E+00   -3.653E+00   -3.649E+00   -3.644E+00   -3.640E+00   -3.635E+00   -3.630E+00   -3.625E+00
    -3.620E+00   -3.614E+00   -3.608E+00   -3.602E+00   -3.596E+00   -3.590E+00   -3.583E+00   -3.576E+00   -3.569E+00   -3.562E+00
    -3.554E+00   -3.546E+00   -3.538E+00   -3.530E+00   -3.522E+00   -3.513E+00   -3.504E+00   -3.495E+00   -3.486E+00   -3.476E+00
    -3.467E+00   -3.457E+00   -3.446E+00   -3.436E+00   -3.425E+00   -3.415E+00   -3.403E+00   -3.392E+00   -3.381E+00   -3.369E+00
    -3.357E+00   -3.345E+00   -3.332E+00   -3.320E+00   -3.307E+00   -3.294E+00   -3.280E+00   -3.267E+00   -3.253E+00   -3.239E+00
    -3.225E+00   -3.211E+00   -3.196E+00   -3.181E+00   -3.166E+00   -3.151E+00   -3.135E+00   -3.119E+00
 Ala      Conc. = 4.12E+01
