 LCModel (Version 6.3-1L) Copyright: S.W. Provencher.          Ref.: Magn. Reson. Med. 30:672-679 (1993).                
 Slice#2 Row#14 Col#14  K_02_press_1_raw_act
 36 lines in following concentration table = NCONC+1
    Conc.  %SD /Cr+PCr  Metabolite                                         
 3.33E+03   8%  37.223 Ala                                                 
   13.494  22%   0.151 Asp                                                 
   89.477  35%   1.000 Cr                                                  
    0.000 999%   0.000 PCr                                                 
    8.100  22% 9.1E-02 GABA                                                
    8.109  22% 9.1E-02 Glc                                                 
  742.819  51%   8.302 Gln                                                 
  736.026  59%   8.226 Glu                                                 
   60.254  22%   0.673 GPC                                                 
    0.000 999%   0.000 PCh                                                 
  168.867  45%   1.887 GSH                                                 
  664.769  23%   7.430 Ins                                                 
 1.20E+03  20%  13.425 Lac                                                 
    0.000 999%   0.000 NAA                                                 
    0.000 999%   0.000 NAAG                                                
    2.705  22% 3.0E-02 Scyllo                                              
   13.514  22%   0.151 Tau                                                 
    8.742  42% 9.8E-02 -CrCH2                                              
   60.254  22%   0.673 GPC+PCh                                             
    0.000 999%   0.000 NAA+NAAG                                            
   89.477  35%   1.000 Cr+PCr                                              
 1.48E+03  47%  16.528 Glu+Gln                                             
    0.000 999%   0.000 Lip13a                                              
    0.000 999%   0.000 Lip13b                                              
  111.232  54%   1.243 Lip09                                               
  238.932  18%   2.670 MM09                                                
    0.000 999%   0.000 Lip20                                               
  285.892  23%   3.195 MM20                                                
   72.759  20%   0.813 MM12                                                
  287.305  14%   3.211+MM14                                                
  141.936  18%   1.586 MM17                                                
    0.000 999%   0.000 Lip13a+Lip13b                                       
  360.064  14%   4.024 MM14+Lip13a+Lip13b+MM12                             
  350.164  17%   3.913 MM09+Lip09                                          
  285.892  23%   3.195 MM20+Lip20                                          
   6 lines in following misc. output table
  FWHM = 0.183 ppm    S/N =   3                                            
  Data shift = 0.329 ppm                                                   
  Ph: 112 deg     -56.0 deg/ppm                                            
  alphaB,S = 8.5E+01,   2.6E+02                                            
    6 spline knots.   Ns = 9(2)                                            
   5 inflections.     1 extrema                                            
  498 points on ppm-axis = NY
      4.000000     3.992357     3.984714     3.977070     3.969427     3.961784     3.954141     3.946497     3.938854     3.931211
      3.923568     3.915925     3.908281     3.900638     3.892995     3.885352     3.877708     3.870065     3.862422     3.854779
      3.847136     3.839492     3.831849     3.824206     3.816563     3.808919     3.801276     3.793633     3.785990     3.778347
      3.770703     3.763060     3.755417     3.747774     3.740130     3.732487     3.724844     3.717201     3.709558     3.701914
      3.694271     3.686628     3.678985     3.671341     3.663698     3.656055     3.648412     3.640769     3.633125     3.625482
      3.617839     3.610196     3.602552     3.594909     3.587266     3.579623     3.571980     3.564336     3.556693     3.549050
      3.541407     3.533763     3.526120     3.518477     3.510834     3.503191     3.495547     3.487904     3.480261     3.472618
      3.464974     3.457331     3.449688     3.442045     3.434402     3.426758     3.419115     3.411472     3.403829     3.396185
      3.388542     3.380899     3.373256     3.365613     3.357969     3.350326     3.342683     3.335040     3.327396     3.319753
      3.312110     3.304467     3.296824     3.289180     3.281537     3.273894     3.266251     3.258607     3.250964     3.243321
      3.235678     3.228034     3.220391     3.212748     3.205105     3.197462     3.189818     3.182175     3.174532     3.166889
      3.159245     3.151602     3.143959     3.136316     3.128673     3.121029     3.113386     3.105743     3.098100     3.090456
      3.082813     3.075170     3.067527     3.059884     3.052240     3.044597     3.036954     3.029311     3.021667     3.014024
      3.006381     2.998738     2.991095     2.983451     2.975808     2.968165     2.960522     2.952878     2.945235     2.937592
      2.929949     2.922306     2.914662     2.907019     2.899376     2.891733     2.884089     2.876446     2.868803     2.861160
      2.853517     2.845873     2.838230     2.830587     2.822944     2.815300     2.807657     2.800014     2.792371     2.784728
      2.777084     2.769441     2.761798     2.754155     2.746511     2.738868     2.731225     2.723582     2.715939     2.708295
      2.700652     2.693009     2.685366     2.677722     2.670079     2.662436     2.654793     2.647150     2.639506     2.631863
      2.624220     2.616577     2.608933     2.601290     2.593647     2.586004     2.578361     2.570717     2.563074     2.555431
      2.547788     2.540144     2.532501     2.524858     2.517215     2.509572     2.501928     2.494285     2.486642     2.478999
      2.471355     2.463712     2.456069     2.448426     2.440783     2.433139     2.425496     2.417853     2.410210     2.402566
      2.394923     2.387280     2.379637     2.371994     2.364350     2.356707     2.349064     2.341421     2.333777     2.326134
      2.318491     2.310848     2.303205     2.295561     2.287918     2.280275     2.272632     2.264988     2.257345     2.249702
      2.242059     2.234416     2.226772     2.219129     2.211486     2.203843     2.196199     2.188556     2.180913     2.173270
      2.165627     2.157983     2.150340     2.142697     2.135054     2.127410     2.119767     2.112124     2.104481     2.096838
      2.089194     2.081551     2.073908     2.066265     2.058621     2.050978     2.043335     2.035692     2.028049     2.020405
      2.012762     2.005119     1.997476     1.989833     1.982190     1.974546     1.966903     1.959260     1.951617     1.943974
      1.936331     1.928688     1.921045     1.913402     1.905759     1.898115     1.890472     1.882829     1.875186     1.867543
      1.859900     1.852257     1.844614     1.836971     1.829327     1.821684     1.814041     1.806398     1.798755     1.791112
      1.783469     1.775826     1.768183     1.760540     1.752896     1.745253     1.737610     1.729967     1.722324     1.714681
      1.707038     1.699395     1.691752     1.684108     1.676465     1.668822     1.661179     1.653536     1.645893     1.638250
      1.630607     1.622964     1.615321     1.607677     1.600034     1.592391     1.584748     1.577105     1.569462     1.561819
      1.554176     1.546533     1.538890     1.531246     1.523603     1.515960     1.508317     1.500674     1.493031     1.485388
      1.477745     1.470102     1.462458     1.454815     1.447172     1.439529     1.431886     1.424243     1.416600     1.408957
      1.401314     1.393671     1.386027     1.378384     1.370741     1.363098     1.355455     1.347812     1.340169     1.332526
      1.324883     1.317240     1.309596     1.301953     1.294310     1.286667     1.279024     1.271381     1.263738     1.256095
      1.248452     1.240808     1.233165     1.225522     1.217879     1.210236     1.202593     1.194950     1.187307     1.179664
      1.172021     1.164377     1.156734     1.149091     1.141448     1.133805     1.126162     1.118519     1.110876     1.103233
      1.095590     1.087946     1.080303     1.072660     1.065017     1.057374     1.049731     1.042088     1.034445     1.026802
      1.019158     1.011515     1.003872     0.996229     0.988586     0.980943     0.973300     0.965657     0.958014     0.950371
      0.942727     0.935084     0.927441     0.919798     0.912155     0.904512     0.896869     0.889226     0.881583     0.873940
      0.866296     0.858653     0.851010     0.843367     0.835724     0.828081     0.820438     0.812795     0.805152     0.797508
      0.789865     0.782222     0.774579     0.766936     0.759293     0.751650     0.744007     0.736364     0.728721     0.721077
      0.713434     0.705791     0.698148     0.690505     0.682862     0.675219     0.667576     0.659933     0.652290     0.644646
      0.637003     0.629360     0.621717     0.614074     0.606431     0.598788     0.591145     0.583502     0.575858     0.568215
      0.560572     0.552929     0.545286     0.537643     0.530000     0.522357     0.514714     0.507071     0.499427     0.491784
      0.484141     0.476498     0.468855     0.461212     0.453569     0.445925     0.438282     0.430639     0.422996     0.415353
      0.407710     0.400067     0.392424     0.384780     0.377137     0.369494     0.361851     0.354208     0.346565     0.338922
      0.331278     0.323635     0.315992     0.308349     0.300706     0.293063     0.285420     0.277777     0.270133     0.262490
      0.254847     0.247204     0.239561     0.231918     0.224275     0.216631     0.208988     0.201345
 NY phased data points follow
   3.18034E+00  2.60654E+00  2.20709E+00  3.45492E+00  3.40895E+00  2.06225E+00  3.32096E+00  4.87914E+00  4.87137E+00  2.23064E+00
   2.72602E+00  2.58644E+00  2.82584E+00  2.28900E+00  2.18182E+00  4.30146E+00  5.01176E+00  2.24092E+00  2.67982E+00  3.04795E+00
   2.89397E+00  1.88571E+00  2.77421E+00  3.21886E+00  3.09812E+00  3.84229E+00  2.92698E+00  3.35583E+00  2.43675E+00  2.55782E+00
   2.20022E+00  3.68986E+00  3.32313E+00  2.48391E+00  4.95402E+00  1.48985E+00  8.07369E-01  3.91628E+00  2.33160E+00  2.37485E+00
   1.80127E+00  3.46490E+00  1.68497E+00  1.46734E+00  2.21675E+00  1.97682E+00  3.64447E+00  3.62107E+00  2.64151E+00  1.90458E+00
   2.61376E+00  3.29275E-01  1.79366E+00  3.47655E+00  2.23736E+00  2.29966E+00  1.93067E+00  2.13892E+00  5.50165E-01  1.71621E+00
   2.21060E+00  1.39742E+00  1.97109E+00  2.80328E+00  1.05350E+00  1.63787E+00  1.80418E+00  2.46321E+00  1.13814E+00  2.45154E+00
   2.56232E+00  1.55441E+00  6.27989E-01  1.79903E+00  1.86835E+00  3.33343E+00  1.68885E+00  1.49652E+00  2.28842E+00  1.75428E+00
   6.19743E-01  2.38494E+00  5.60662E-01  4.78268E-01  1.54901E+00  9.32674E-01 -1.66504E-01  5.67015E-01  1.83099E+00  1.46357E+00
   1.61134E+00  2.34422E-01  7.68860E-01  2.22094E+00  1.34917E+00  2.22326E+00  2.35627E+00  1.70350E+00  1.65689E+00  1.15274E+00
   1.53350E+00  7.78787E-01  2.52770E+00  1.78822E+00  2.59900E+00  1.79025E+00 -1.03304E-02  1.53576E+00  2.63840E+00  2.50249E+00
   1.67730E+00  1.02401E+00  1.34130E+00  2.08524E+00  1.34841E+00  1.34217E+00  3.18024E+00  1.61092E+00  3.80926E-01  1.05412E+00
   1.09165E+00  1.51566E+00  5.34734E-01  6.52001E-01  2.07663E+00  1.42071E+00  1.57265E+00  1.04463E+00  2.13873E-01  9.41358E-01
  -2.99064E-02  5.44996E-01  1.59923E-01  8.14931E-02  1.39281E+00  1.59532E+00  2.25222E-01  2.85292E+00  1.71711E+00  5.65881E-01
   1.65728E+00  9.64435E-01  1.32023E+00  1.81414E+00  5.33192E-01  1.56231E+00  6.87072E-01  9.56595E-01  2.00624E+00  9.18959E-01
   9.61254E-01  1.38746E+00  1.21096E+00  2.37995E+00  1.35419E+00  2.31956E+00  9.87112E-02  1.10653E+00  5.36944E-01  9.53278E-01
   1.31703E+00  4.91800E-01  1.14289E+00  1.43002E+00  1.30106E+00  6.35505E-01  2.55028E-01  6.65408E-01  1.85096E+00  1.51237E+00
   3.78394E-01  1.07222E+00 -3.43988E-01  1.08640E-01 -5.28508E-01  7.73450E-01  3.73459E-01  5.96659E-01  8.08541E-01 -2.21002E-01
   2.86827E-03  5.41588E-01  2.73485E-01  1.06471E+00  1.14026E+00  1.22124E+00 -1.57390E-01  6.76232E-01  3.83091E-01  1.22275E+00
  -7.83012E-03  5.94520E-01  6.18949E-01 -4.81103E-01 -5.56260E-01  9.86681E-01 -1.11013E+00 -1.24755E+00  2.57475E+00  7.32526E-01
   1.39504E+00  1.04157E+00  3.18764E-01  3.93771E-01 -3.67376E-01  3.12620E-01  3.61613E-01  5.86480E-02  8.87896E-01  6.00345E-01
   1.57309E+00  1.41553E+00  2.35955E+00 -3.15571E-03  2.71067E-01  2.91196E-01 -2.29037E+00 -1.34729E+00 -8.21076E-01  3.87296E-02
   6.44640E-01 -8.35900E-02  2.02118E-01  1.28151E-02 -4.28941E-03  1.20730E+00 -1.41502E-01  8.80005E-01 -1.98765E-01  1.71131E+00
   1.77141E-01 -9.23670E-01  6.85583E-01  1.44970E-02  5.86281E-01  6.34254E-01  1.07370E+00  7.07057E-01  1.67208E+00  7.90883E-01
  -4.27253E-01  5.82281E-01 -1.77538E+00  5.32228E-01  1.75342E-01  3.07113E-01  1.01075E+00 -4.56733E-01 -9.51211E-01  7.72944E-01
   9.46230E-01  1.07588E+00 -1.17770E-01 -4.30784E-01 -4.50549E-01 -1.00073E+00 -4.30144E-01  3.14598E-01  3.21280E-01  1.68982E+00
   9.51260E-02  2.80520E-01  1.01033E+00  8.52320E-01  9.53723E-01  8.41820E-01  8.92715E-01  9.17501E-01  1.11851E-01  1.37943E+00
   1.01823E+00  1.40539E+00 -4.80567E-01  1.60504E-01  2.83793E+00 -4.82374E-02  1.13787E+00  3.53511E+00  3.62061E+00  2.01754E+00
   2.82671E+00  3.21265E+00  1.56307E+00 -1.26400E-01  1.87313E+00  1.28017E+00  2.18824E+00  6.75058E-01  1.57586E+00  1.28249E+00
   3.12954E+00  3.67305E+00  3.74118E+00  4.19332E+00  3.57587E+00  4.03445E+00  5.34519E+00  4.90425E+00  5.51599E+00  5.09411E+00
   5.70537E+00  5.21851E+00  6.15381E+00  7.80695E+00  6.36031E+00  6.51832E+00  8.12093E+00  6.42341E+00  7.54608E+00  6.25751E+00
   8.47370E+00  9.19097E+00  8.89530E+00  9.17787E+00  8.61275E+00  1.04239E+01  8.43776E+00  9.86769E+00  9.69588E+00  9.98349E+00
   1.10471E+01  8.84564E+00  1.03926E+01  8.92494E+00  9.03238E+00  1.05063E+01  8.98234E+00  8.86862E+00  8.18815E+00  9.67938E+00
   9.63111E+00  1.18322E+01  8.91664E+00  7.58500E+00  9.65439E+00  7.57230E+00  8.37450E+00  7.26710E+00  7.90712E+00  6.94333E+00
   7.48188E+00  7.91999E+00  6.09297E+00  9.15065E+00  7.27934E+00  7.18995E+00  6.68755E+00  7.04755E+00  6.53058E+00  7.07996E+00
   6.21945E+00  6.67524E+00  7.84970E+00  6.79809E+00  7.03835E+00  5.76004E+00  5.99950E+00  6.15469E+00  7.31850E+00  5.40681E+00
   6.83410E+00  5.42146E+00  6.46180E+00  5.17551E+00  5.14588E+00  5.54462E+00  4.77285E+00  5.28293E+00  5.51204E+00  3.62764E+00
   4.95333E+00  4.44800E+00  4.84375E+00  4.06987E+00  5.80098E+00  4.90890E+00  5.19797E+00  5.69090E+00  6.36555E+00  4.10514E+00
   3.74108E+00  3.84513E+00  3.68107E+00  2.35507E+00  5.22393E+00  5.21763E+00  2.89286E+00  4.24135E+00  4.34228E+00  5.61475E+00
   2.15744E+00  4.45676E+00  3.38125E+00  3.94799E+00  3.89776E+00  1.98682E+00  3.74546E+00  3.05141E+00  3.15383E+00  3.21826E+00
   2.55632E+00  2.82641E+00  4.01275E+00  3.76155E+00  1.27640E+00  1.70466E+00  2.39823E+00  2.65820E+00  2.90635E+00  4.05800E+00
   3.39638E+00  2.85223E+00  2.24962E+00  2.64473E+00  3.26089E+00  2.01010E+00  1.72297E+00  1.40042E+00  2.44070E+00  3.12224E+00
   3.03817E+00  3.12495E+00  1.51586E+00  2.57026E+00  2.16873E+00  2.78321E+00  2.65888E+00  1.81477E+00  1.84066E+00 -1.13358E-01
   1.62218E+00  3.15051E+00  3.59488E+00  7.92676E-02  2.17278E+00  1.08248E+00  2.70224E+00  1.92963E+00  2.29243E+00  1.92490E+00
   1.26994E+00  1.26510E+00  9.01740E-01  2.12817E+00  2.64423E+00  1.83765E+00  1.56621E+00  1.25463E+00  8.43997E-01  1.11181E+00
   1.18857E+00  2.14644E+00  1.01943E+00  2.23043E+00  2.53982E+00  1.53648E+00  9.24023E-01  9.18015E-02  2.00044E+00  1.08812E+00
   1.56988E+00  2.25620E+00  2.82965E+00  1.93396E+00  3.19977E+00  8.67966E-01  1.15790E+00  1.74559E+00  3.00631E+00  1.65360E+00
   2.43359E+00  6.47329E-01  9.53165E-01  1.53709E+00  1.43835E+00  1.18081E+00  8.73934E-01  2.32310E+00  1.50118E+00  2.38059E+00
   1.64825E+00  8.56752E-01  1.59129E+00 -1.13906E+00  1.37284E+00  1.49062E+00  3.11328E-01  1.09529E+00  1.13443E+00  1.11165E+00
   8.20280E-01  1.49975E+00  1.43658E+00  9.59645E-01 -2.55167E-01  5.68927E-01  1.66317E+00  1.40602E+00
 NY points of the fit to the data follow
   2.13588E+00  2.30680E+00  2.03963E+00  2.22813E+00  2.11382E+00  2.38760E+00  2.38974E+00  2.76395E+00  2.55997E+00  2.71385E+00
   2.31803E+00  2.39076E+00  1.97979E+00  2.13150E+00  1.79436E+00  2.21546E+00  2.07466E+00  2.50936E+00  2.37663E+00  2.69335E+00
   2.47000E+00  2.76963E+00  2.50930E+00  2.73956E+00  2.55406E+00  2.71309E+00  2.63610E+00  2.75698E+00  2.76545E+00  2.81256E+00
   2.90898E+00  2.89965E+00  3.04667E+00  2.94476E+00  3.10600E+00  2.88577E+00  3.13268E+00  2.89835E+00  3.23295E+00  2.90990E+00
   3.19828E+00  2.85223E+00  3.10966E+00  2.73371E+00  3.00318E+00  2.68180E+00  3.05732E+00  2.87380E+00  3.08815E+00  2.82895E+00
   2.91758E+00  2.68814E+00  2.66375E+00  2.39028E+00  2.31243E+00  2.24308E+00  2.23853E+00  2.20942E+00  2.19371E+00  2.17657E+00
   2.13376E+00  2.18084E+00  2.06921E+00  2.09257E+00  1.97628E+00  2.01407E+00  1.86873E+00  1.88496E+00  1.72438E+00  1.74469E+00
   1.62182E+00  1.68409E+00  1.54628E+00  1.58633E+00  1.43366E+00  1.46071E+00  1.30609E+00  1.33166E+00  1.16114E+00  1.18558E+00
   9.93352E-01  9.95004E-01  8.16523E-01  8.35450E-01  7.24255E-01  9.16100E-01  8.38908E-01  1.03144E+00  9.42200E-01  1.10450E+00
   1.01625E+00  1.19328E+00  1.12196E+00  1.31954E+00  1.27190E+00  1.48891E+00  1.44893E+00  1.65129E+00  1.60807E+00  1.77754E+00
   1.73033E+00  1.86388E+00  1.80609E+00  1.88294E+00  1.81270E+00  1.85180E+00  1.79056E+00  1.81734E+00  1.78554E+00  1.83602E+00
   1.81222E+00  1.81443E+00  1.77942E+00  1.73320E+00  1.71292E+00  1.67315E+00  1.66240E+00  1.62545E+00  1.62620E+00  1.59777E+00
   1.60235E+00  1.54056E+00  1.53617E+00  1.47294E+00  1.48440E+00  1.53720E+00  1.54994E+00  1.57935E+00  1.56708E+00  1.58878E+00
   1.55566E+00  1.58195E+00  1.52254E+00  1.53514E+00  1.44858E+00  1.45493E+00  1.34609E+00  1.34683E+00  1.22098E+00  1.21463E+00
   1.08041E+00  1.07130E+00  9.33523E-01  9.31542E-01  7.95024E-01  7.77148E-01  6.43647E-01  6.18573E-01  5.06567E-01  5.40527E-01
   4.55736E-01  4.73886E-01  4.04633E-01  4.15160E-01  3.75762E-01  3.99923E-01  3.66816E-01  3.71432E-01  3.37820E-01  3.17383E-01
   2.90068E-01  2.67806E-01  2.52446E-01  2.43764E-01  2.32914E-01  2.29065E-01  2.14817E-01  2.08575E-01  1.94088E-01  1.87693E-01
   1.79492E-01  1.84421E-01  1.91304E-01  2.08314E-01  2.20916E-01  2.25290E-01  2.13999E-01  2.05440E-01  1.51503E-01  1.17137E-01
   6.83116E-02  4.69251E-02  1.86926E-02  5.09693E-02  6.31708E-02  1.24093E-01  1.36224E-01  2.36884E-01  2.31876E-01  3.19305E-01
   2.85301E-01  2.98816E-01  1.22346E-01  1.98757E-01  4.14460E-02  2.04775E-01  1.02502E-01  3.45178E-01  3.11887E-01  5.13213E-01
   4.55818E-01  5.92620E-01  5.09504E-01  5.91200E-01  4.68392E-01  5.24706E-01  5.04890E-01  5.69253E-01  6.20635E-01  6.77770E-01
   7.58447E-01  7.65766E-01  8.49065E-01  7.91183E-01  8.94150E-01  8.29157E-01  9.71181E-01  8.96968E-01  9.90899E-01  9.47402E-01
   1.04775E+00  1.03553E+00  1.14034E+00  1.19081E+00  1.25506E+00  1.25378E+00  1.27936E+00  1.33743E+00  1.37985E+00  1.46166E+00
   1.49364E+00  1.50390E+00  1.41391E+00  1.41060E+00  1.31094E+00  1.32846E+00  1.25849E+00  1.33068E+00  1.34565E+00  1.38744E+00
   1.42282E+00  1.43626E+00  1.50558E+00  1.47448E+00  1.50285E+00  1.43948E+00  1.51453E+00  1.42876E+00  1.53061E+00  1.46779E+00
   1.58219E+00  1.53441E+00  1.64310E+00  1.59379E+00  1.70044E+00  1.66880E+00  1.78307E+00  1.74054E+00  1.80478E+00  1.78352E+00
   1.83777E+00  1.84867E+00  1.88707E+00  1.95032E+00  1.95033E+00  1.97526E+00  1.97024E+00  1.99256E+00  1.97490E+00  1.98887E+00
   1.97203E+00  1.96796E+00  1.94017E+00  1.92903E+00  1.90814E+00  1.90995E+00  1.91025E+00  1.92706E+00  1.93433E+00  1.94803E+00
   1.94474E+00  1.95478E+00  1.96616E+00  1.99642E+00  2.02528E+00  2.07846E+00  2.13599E+00  2.20255E+00  2.28464E+00  2.37725E+00
   2.48430E+00  2.59872E+00  2.72573E+00  2.85660E+00  2.99775E+00  3.14756E+00  3.30548E+00  3.46923E+00  3.63933E+00  3.81516E+00
   3.99834E+00  4.19185E+00  4.39877E+00  4.63062E+00  4.89813E+00  5.22450E+00  5.64418E+00  6.23240E+00  7.15424E+00  8.37140E+00
   8.69358E+00  9.38980E+00  9.10643E+00  9.35360E+00  8.75083E+00  8.74495E+00  7.74147E+00  8.50799E+00  7.96616E+00  8.88476E+00
   8.34071E+00  8.89727E+00  8.06467E+00  8.39858E+00  7.56835E+00  7.94117E+00  7.32583E+00  7.74517E+00  7.61338E+00  8.35673E+00
   8.33073E+00  8.68952E+00  8.55318E+00  8.43948E+00  8.42048E+00  7.98703E+00  7.96522E+00  7.79876E+00  8.05720E+00  8.02787E+00
   8.52725E+00  8.31668E+00  8.76414E+00  8.45261E+00  8.70562E+00  8.18939E+00  8.45786E+00  8.05376E+00  8.74027E+00  8.93037E+00
   9.21165E+00  9.20689E+00  9.20479E+00  8.78635E+00  8.32930E+00  7.40917E+00  6.46175E+00  6.03855E+00  5.56161E+00  5.41833E+00
   5.15969E+00  5.09715E+00  4.93318E+00  4.90924E+00  4.74424E+00  4.58928E+00  4.47636E+00  4.33597E+00  4.40864E+00  4.56579E+00
   4.55227E+00  4.58990E+00  4.54255E+00  4.37734E+00  4.23762E+00  3.83368E+00  3.61210E+00  3.49568E+00  3.43232E+00  3.40313E+00
   3.39779E+00  3.41063E+00  3.43666E+00  3.47271E+00  3.51507E+00  3.56119E+00  3.60771E+00  3.65243E+00  3.69241E+00  3.72600E+00
   3.75087E+00  3.76606E+00  3.77002E+00  3.76265E+00  3.74337E+00  3.71296E+00  3.67164E+00  3.62087E+00  3.56141E+00  3.49510E+00
   3.42297E+00  3.34693E+00  3.26787E+00  3.18748E+00  3.10633E+00  3.02574E+00  2.94594E+00  2.86787E+00  2.79137E+00  2.71709E+00
   2.64464E+00  2.57452E+00  2.50628E+00  2.44035E+00  2.37626E+00  2.31445E+00  2.25451E+00  2.19697E+00  2.14144E+00  2.08848E+00
   2.03768E+00  1.98962E+00  1.94389E+00  1.90102E+00  1.86058E+00  1.82301E+00  1.78782E+00  1.75543E+00  1.72528E+00  1.69775E+00
   1.67227E+00  1.64915E+00  1.62779E+00  1.60853E+00  1.59076E+00  1.57483E+00  1.56011E+00  1.54696E+00  1.53479E+00  1.52395E+00
   1.51389E+00  1.50498E+00  1.49666E+00  1.48932E+00  1.48243E+00  1.47641E+00  1.47072E+00  1.46579E+00  1.46109E+00  1.45706E+00
   1.45319E+00  1.44993E+00  1.44678E+00  1.44418E+00  1.44162E+00  1.43957E+00  1.43753E+00  1.43597E+00  1.43438E+00  1.43324E+00
   1.43204E+00  1.43126E+00  1.43041E+00  1.42996E+00  1.42942E+00  1.42925E+00  1.42897E+00  1.42906E+00  1.42903E+00  1.42936E+00
   1.42955E+00  1.43008E+00  1.43047E+00  1.43119E+00  1.43177E+00  1.43267E+00  1.43341E+00  1.43447E+00  1.43537E+00  1.43659E+00
   1.43765E+00  1.43901E+00  1.44021E+00  1.44172E+00  1.44306E+00  1.44471E+00  1.44620E+00  1.44800E+00  1.44964E+00  1.45160E+00
   1.45341E+00  1.45555E+00  1.45756E+00  1.45993E+00  1.46220E+00  1.46487E+00  1.46750E+00  1.47063E+00
 NY background values follow
    -1.651E-01   -1.622E-01   -1.593E-01   -1.564E-01   -1.535E-01   -1.507E-01   -1.478E-01   -1.449E-01   -1.420E-01   -1.391E-01
    -1.362E-01   -1.333E-01   -1.304E-01   -1.275E-01   -1.246E-01   -1.217E-01   -1.188E-01   -1.159E-01   -1.130E-01   -1.102E-01
    -1.073E-01   -1.044E-01   -1.015E-01   -9.859E-02   -9.570E-02   -9.280E-02   -8.991E-02   -8.702E-02   -8.413E-02   -8.123E-02
    -7.834E-02   -7.545E-02   -7.255E-02   -6.966E-02   -6.677E-02   -6.387E-02   -6.098E-02   -5.809E-02   -5.519E-02   -5.230E-02
    -4.940E-02   -4.651E-02   -4.361E-02   -4.072E-02   -3.782E-02   -3.493E-02   -3.203E-02   -2.914E-02   -2.624E-02   -2.334E-02
    -2.044E-02   -1.755E-02   -1.465E-02   -1.175E-02   -8.853E-03   -5.954E-03   -3.055E-03   -1.551E-04    2.745E-03    5.645E-03
     8.546E-03    1.145E-02    1.435E-02    1.725E-02    2.015E-02    2.306E-02    2.596E-02    2.887E-02    3.177E-02    3.468E-02
     3.758E-02    4.049E-02    4.339E-02    4.630E-02    4.921E-02    5.212E-02    5.503E-02    5.794E-02    6.085E-02    6.376E-02
     6.667E-02    6.958E-02    7.249E-02    7.541E-02    7.832E-02    8.124E-02    8.415E-02    8.707E-02    8.999E-02    9.290E-02
     9.582E-02    9.874E-02    1.017E-01    1.046E-01    1.075E-01    1.104E-01    1.133E-01    1.163E-01    1.192E-01    1.221E-01
     1.251E-01    1.280E-01    1.309E-01    1.338E-01    1.368E-01    1.397E-01    1.426E-01    1.456E-01    1.485E-01    1.514E-01
     1.544E-01    1.573E-01    1.602E-01    1.632E-01    1.661E-01    1.691E-01    1.720E-01    1.749E-01    1.779E-01    1.808E-01
     1.838E-01    1.867E-01    1.897E-01    1.926E-01    1.956E-01    1.985E-01    2.015E-01    2.044E-01    2.074E-01    2.103E-01
     2.133E-01    2.163E-01    2.192E-01    2.222E-01    2.251E-01    2.281E-01    2.311E-01    2.340E-01    2.370E-01    2.400E-01
     2.429E-01    2.459E-01    2.489E-01    2.518E-01    2.548E-01    2.578E-01    2.608E-01    2.638E-01    2.667E-01    2.697E-01
     2.727E-01    2.757E-01    2.787E-01    2.817E-01    2.846E-01    2.876E-01    2.906E-01    2.936E-01    2.966E-01    2.996E-01
     3.026E-01    3.056E-01    3.086E-01    3.116E-01    3.146E-01    3.176E-01    3.206E-01    3.236E-01    3.266E-01    3.296E-01
     3.327E-01    3.357E-01    3.387E-01    3.417E-01    3.447E-01    3.477E-01    3.508E-01    3.538E-01    3.568E-01    3.598E-01
     3.629E-01    3.659E-01    3.689E-01    3.720E-01    3.750E-01    3.780E-01    3.811E-01    3.841E-01    3.871E-01    3.902E-01
     3.932E-01    3.963E-01    3.993E-01    4.024E-01    4.054E-01    4.085E-01    4.115E-01    4.146E-01    4.176E-01    4.207E-01
     4.237E-01    4.268E-01    4.298E-01    4.329E-01    4.360E-01    4.390E-01    4.421E-01    4.452E-01    4.482E-01    4.513E-01
     4.544E-01    4.574E-01    4.605E-01    4.636E-01    4.667E-01    4.697E-01    4.728E-01    4.759E-01    4.790E-01    4.821E-01
     4.851E-01    4.882E-01    4.913E-01    4.944E-01    4.975E-01    5.006E-01    5.037E-01    5.068E-01    5.098E-01    5.129E-01
     5.160E-01    5.191E-01    5.222E-01    5.253E-01    5.284E-01    5.315E-01    5.346E-01    5.377E-01    5.408E-01    5.440E-01
     5.471E-01    5.502E-01    5.533E-01    5.564E-01    5.595E-01    5.626E-01    5.657E-01    5.689E-01    5.720E-01    5.751E-01
     5.782E-01    5.813E-01    5.844E-01    5.876E-01    5.907E-01    5.938E-01    5.969E-01    6.001E-01    6.032E-01    6.063E-01
     6.095E-01    6.126E-01    6.157E-01    6.189E-01    6.220E-01    6.251E-01    6.283E-01    6.314E-01    6.345E-01    6.377E-01
     6.408E-01    6.440E-01    6.471E-01    6.503E-01    6.534E-01    6.566E-01    6.597E-01    6.628E-01    6.660E-01    6.691E-01
     6.723E-01    6.754E-01    6.786E-01    6.818E-01    6.849E-01    6.881E-01    6.912E-01    6.944E-01    6.975E-01    7.007E-01
     7.039E-01    7.070E-01    7.102E-01    7.134E-01    7.165E-01    7.197E-01    7.228E-01    7.260E-01    7.292E-01    7.324E-01
     7.355E-01    7.387E-01    7.419E-01    7.450E-01    7.482E-01    7.514E-01    7.546E-01    7.577E-01    7.609E-01    7.641E-01
     7.673E-01    7.704E-01    7.736E-01    7.768E-01    7.800E-01    7.832E-01    7.864E-01    7.895E-01    7.927E-01    7.959E-01
     7.991E-01    8.023E-01    8.055E-01    8.087E-01    8.119E-01    8.150E-01    8.182E-01    8.214E-01    8.246E-01    8.278E-01
     8.310E-01    8.342E-01    8.374E-01    8.406E-01    8.438E-01    8.470E-01    8.502E-01    8.534E-01    8.566E-01    8.598E-01
     8.630E-01    8.662E-01    8.694E-01    8.726E-01    8.758E-01    8.790E-01    8.822E-01    8.854E-01    8.886E-01    8.918E-01
     8.950E-01    8.982E-01    9.014E-01    9.047E-01    9.079E-01    9.111E-01    9.143E-01    9.175E-01    9.207E-01    9.239E-01
     9.271E-01    9.304E-01    9.336E-01    9.368E-01    9.400E-01    9.432E-01    9.464E-01    9.496E-01    9.529E-01    9.561E-01
     9.593E-01    9.625E-01    9.657E-01    9.689E-01    9.722E-01    9.754E-01    9.786E-01    9.818E-01    9.851E-01    9.883E-01
     9.915E-01    9.947E-01    9.979E-01    1.001E+00    1.004E+00    1.008E+00    1.011E+00    1.014E+00    1.017E+00    1.021E+00
     1.024E+00    1.027E+00    1.030E+00    1.033E+00    1.037E+00    1.040E+00    1.043E+00    1.046E+00    1.050E+00    1.053E+00
     1.056E+00    1.059E+00    1.062E+00    1.066E+00    1.069E+00    1.072E+00    1.075E+00    1.079E+00    1.082E+00    1.085E+00
     1.088E+00    1.092E+00    1.095E+00    1.098E+00    1.101E+00    1.104E+00    1.108E+00    1.111E+00    1.114E+00    1.117E+00
     1.121E+00    1.124E+00    1.127E+00    1.130E+00    1.134E+00    1.137E+00    1.140E+00    1.143E+00    1.146E+00    1.150E+00
     1.153E+00    1.156E+00    1.159E+00    1.163E+00    1.166E+00    1.169E+00    1.172E+00    1.176E+00    1.179E+00    1.182E+00
     1.185E+00    1.188E+00    1.192E+00    1.195E+00    1.198E+00    1.201E+00    1.205E+00    1.208E+00    1.211E+00    1.214E+00
     1.218E+00    1.221E+00    1.224E+00    1.227E+00    1.230E+00    1.234E+00    1.237E+00    1.240E+00    1.243E+00    1.247E+00
     1.250E+00    1.253E+00    1.256E+00    1.260E+00    1.263E+00    1.266E+00    1.269E+00    1.272E+00    1.276E+00    1.279E+00
     1.282E+00    1.285E+00    1.289E+00    1.292E+00    1.295E+00    1.298E+00    1.302E+00    1.305E+00    1.308E+00    1.311E+00
     1.314E+00    1.318E+00    1.321E+00    1.324E+00    1.327E+00    1.331E+00    1.334E+00    1.337E+00    1.340E+00    1.343E+00
     1.347E+00    1.350E+00    1.353E+00    1.356E+00    1.360E+00    1.363E+00    1.366E+00    1.369E+00
 Ala      Conc. = 3.33E+03
