 LCModel (Version 6.3-1L) Copyright: S.W. Provencher.          Ref.: Magn. Reson. Med. 30:672-679 (1993).                
 Slice#2 Row#11 Col#3  K_02_press_1_raw_act
 36 lines in following concentration table = NCONC+1
    Conc.  %SD /Cr+PCr  Metabolite                                         
    0.000 999%   0.000 Ala                                                 
    0.000 999%   0.000 Asp                                                 
    0.000 999%   0.000 Cr                                                  
  601.816  10%   1.000 PCr                                                 
    5.643 999% 9.4E-03 GABA                                                
    0.000 999%   0.000 Glc                                                 
    0.000 999%   0.000 Gln                                                 
    0.000 999%   0.000 Glu                                                 
  234.497  10%   0.390 GPC                                                 
    0.000 999%   0.000 PCh                                                 
    0.000 999%   0.000 GSH                                                 
 1.97E+03  15%   3.272 Ins                                                 
  267.144  60%   0.444 Lac                                                 
    0.000 999%   0.000 NAA                                                 
 1.05E+03   7%   1.737 NAAG                                                
   56.798  42% 9.4E-02 Scyllo                                              
    0.000 999%   0.000 Tau                                                 
    0.000 999%   0.000 -CrCH2                                              
  234.497  10%   0.390 GPC+PCh                                             
 1.05E+03   7%   1.737 NAA+NAAG                                            
  601.816  10%   1.000 Cr+PCr                                              
    0.000 999%   0.000 Glu+Gln                                             
    0.000 999%   0.000 Lip13a                                              
    0.000 999%   0.000 Lip13b                                              
    0.000 999%   0.000 Lip09                                               
 1.80E+03   9%   2.984 MM09                                                
   18.110 341% 3.0E-02 Lip20                                               
 2.66E+03  10%   4.416 MM20                                                
  537.334  10%   0.893 MM12                                                
 1.56E+03   8%   2.586 MM14                                                
  748.424  11%   1.244 MM17                                                
    0.000 999%   0.000 Lip13a+Lip13b                                       
 2.09E+03   8%   3.479 MM14+Lip13a+Lip13b+MM12                             
 1.80E+03   9%   2.984 MM09+Lip09                                          
 2.68E+03  10%   4.446 MM20+Lip20                                          
   6 lines in following misc. output table
  FWHM = 0.076 ppm    S/N =   7                                            
  Data shift = 0.023 ppm                                                   
  Ph: 101 deg      40.7 deg/ppm                                            
  alphaB,S = 5.1E-01,   4.9E+01                                            
   14 spline knots.   Ns = 7(2)                                            
  ( 3) 2 infls.   ( 1) 1 extrs.                                            
  498 points on ppm-axis = NY
      4.000000     3.992357     3.984714     3.977070     3.969427     3.961784     3.954141     3.946497     3.938854     3.931211
      3.923568     3.915925     3.908281     3.900638     3.892995     3.885352     3.877708     3.870065     3.862422     3.854779
      3.847136     3.839492     3.831849     3.824206     3.816563     3.808919     3.801276     3.793633     3.785990     3.778347
      3.770703     3.763060     3.755417     3.747774     3.740130     3.732487     3.724844     3.717201     3.709558     3.701914
      3.694271     3.686628     3.678985     3.671341     3.663698     3.656055     3.648412     3.640769     3.633125     3.625482
      3.617839     3.610196     3.602552     3.594909     3.587266     3.579623     3.571980     3.564336     3.556693     3.549050
      3.541407     3.533763     3.526120     3.518477     3.510834     3.503191     3.495547     3.487904     3.480261     3.472618
      3.464974     3.457331     3.449688     3.442045     3.434402     3.426758     3.419115     3.411472     3.403829     3.396185
      3.388542     3.380899     3.373256     3.365613     3.357969     3.350326     3.342683     3.335040     3.327396     3.319753
      3.312110     3.304467     3.296824     3.289180     3.281537     3.273894     3.266251     3.258607     3.250964     3.243321
      3.235678     3.228034     3.220391     3.212748     3.205105     3.197462     3.189818     3.182175     3.174532     3.166889
      3.159245     3.151602     3.143959     3.136316     3.128673     3.121029     3.113386     3.105743     3.098100     3.090456
      3.082813     3.075170     3.067527     3.059884     3.052240     3.044597     3.036954     3.029311     3.021667     3.014024
      3.006381     2.998738     2.991095     2.983451     2.975808     2.968165     2.960522     2.952878     2.945235     2.937592
      2.929949     2.922306     2.914662     2.907019     2.899376     2.891733     2.884089     2.876446     2.868803     2.861160
      2.853517     2.845873     2.838230     2.830587     2.822944     2.815300     2.807657     2.800014     2.792371     2.784728
      2.777084     2.769441     2.761798     2.754155     2.746511     2.738868     2.731225     2.723582     2.715939     2.708295
      2.700652     2.693009     2.685366     2.677722     2.670079     2.662436     2.654793     2.647150     2.639506     2.631863
      2.624220     2.616577     2.608933     2.601290     2.593647     2.586004     2.578361     2.570717     2.563074     2.555431
      2.547788     2.540144     2.532501     2.524858     2.517215     2.509572     2.501928     2.494285     2.486642     2.478999
      2.471355     2.463712     2.456069     2.448426     2.440783     2.433139     2.425496     2.417853     2.410210     2.402566
      2.394923     2.387280     2.379637     2.371994     2.364350     2.356707     2.349064     2.341421     2.333777     2.326134
      2.318491     2.310848     2.303205     2.295561     2.287918     2.280275     2.272632     2.264988     2.257345     2.249702
      2.242059     2.234416     2.226772     2.219129     2.211486     2.203843     2.196199     2.188556     2.180913     2.173270
      2.165627     2.157983     2.150340     2.142697     2.135054     2.127410     2.119767     2.112124     2.104481     2.096838
      2.089194     2.081551     2.073908     2.066265     2.058621     2.050978     2.043335     2.035692     2.028049     2.020405
      2.012762     2.005119     1.997476     1.989833     1.982190     1.974546     1.966903     1.959260     1.951617     1.943974
      1.936331     1.928688     1.921045     1.913402     1.905759     1.898115     1.890472     1.882829     1.875186     1.867543
      1.859900     1.852257     1.844614     1.836971     1.829327     1.821684     1.814041     1.806398     1.798755     1.791112
      1.783469     1.775826     1.768183     1.760540     1.752896     1.745253     1.737610     1.729967     1.722324     1.714681
      1.707038     1.699395     1.691752     1.684108     1.676465     1.668822     1.661179     1.653536     1.645893     1.638250
      1.630607     1.622964     1.615321     1.607677     1.600034     1.592391     1.584748     1.577105     1.569462     1.561819
      1.554176     1.546533     1.538890     1.531246     1.523603     1.515960     1.508317     1.500674     1.493031     1.485388
      1.477745     1.470102     1.462458     1.454815     1.447172     1.439529     1.431886     1.424243     1.416600     1.408957
      1.401314     1.393671     1.386027     1.378384     1.370741     1.363098     1.355455     1.347812     1.340169     1.332526
      1.324883     1.317240     1.309596     1.301953     1.294310     1.286667     1.279024     1.271381     1.263738     1.256095
      1.248452     1.240808     1.233165     1.225522     1.217879     1.210236     1.202593     1.194950     1.187307     1.179664
      1.172021     1.164377     1.156734     1.149091     1.141448     1.133805     1.126162     1.118519     1.110876     1.103233
      1.095590     1.087946     1.080303     1.072660     1.065017     1.057374     1.049731     1.042088     1.034445     1.026802
      1.019158     1.011515     1.003872     0.996229     0.988586     0.980943     0.973300     0.965657     0.958014     0.950371
      0.942727     0.935084     0.927441     0.919798     0.912155     0.904512     0.896869     0.889226     0.881583     0.873940
      0.866296     0.858653     0.851010     0.843367     0.835724     0.828081     0.820438     0.812795     0.805152     0.797508
      0.789865     0.782222     0.774579     0.766936     0.759293     0.751650     0.744007     0.736364     0.728721     0.721077
      0.713434     0.705791     0.698148     0.690505     0.682862     0.675219     0.667576     0.659933     0.652290     0.644646
      0.637003     0.629360     0.621717     0.614074     0.606431     0.598788     0.591145     0.583502     0.575858     0.568215
      0.560572     0.552929     0.545286     0.537643     0.530000     0.522357     0.514714     0.507071     0.499427     0.491784
      0.484141     0.476498     0.468855     0.461212     0.453569     0.445925     0.438282     0.430639     0.422996     0.415353
      0.407710     0.400067     0.392424     0.384780     0.377137     0.369494     0.361851     0.354208     0.346565     0.338922
      0.331278     0.323635     0.315992     0.308349     0.300706     0.293063     0.285420     0.277777     0.270133     0.262490
      0.254847     0.247204     0.239561     0.231918     0.224275     0.216631     0.208988     0.201345
 NY phased data points follow
   2.74253E+02  2.64181E+02  2.65399E+02  2.58890E+02  2.56786E+02  2.47531E+02  2.49621E+02  2.46199E+02  2.46370E+02  2.44134E+02
   2.38299E+02  2.37319E+02  2.35571E+02  2.29253E+02  2.27836E+02  2.19696E+02  2.15009E+02  2.10668E+02  2.08033E+02  2.03047E+02
   2.00259E+02  1.95462E+02  1.93493E+02  1.91393E+02  1.86974E+02  1.83741E+02  1.81392E+02  1.80242E+02  1.75056E+02  1.73324E+02
   1.73627E+02  1.70329E+02  1.69771E+02  1.67443E+02  1.63255E+02  1.62915E+02  1.57591E+02  1.55297E+02  1.61391E+02  1.52465E+02
   1.51594E+02  1.47072E+02  1.48118E+02  1.46696E+02  1.46824E+02  1.40880E+02  1.40507E+02  1.38147E+02  1.39249E+02  1.35376E+02
   1.29521E+02  1.28865E+02  1.29169E+02  1.24848E+02  1.20761E+02  1.20092E+02  1.18224E+02  1.15565E+02  1.13776E+02  1.12581E+02
   1.10648E+02  1.09045E+02  1.02594E+02  1.05115E+02  1.00851E+02  9.58818E+01  9.62679E+01  9.43661E+01  9.26063E+01  8.88417E+01
   8.83836E+01  8.97665E+01  8.84255E+01  8.58073E+01  8.58532E+01  8.33451E+01  8.20796E+01  7.66240E+01  7.91920E+01  7.66024E+01
   7.39407E+01  7.19934E+01  7.49658E+01  7.12141E+01  7.33917E+01  6.77182E+01  6.75758E+01  6.30162E+01  6.34000E+01  6.22702E+01
   6.37735E+01  5.75177E+01  5.91992E+01  5.80101E+01  5.86278E+01  5.81625E+01  6.00171E+01  5.80969E+01  6.35754E+01  6.10799E+01
   6.30100E+01  6.08675E+01  6.12889E+01  5.96283E+01  6.05996E+01  5.73686E+01  5.35047E+01  5.33972E+01  5.05686E+01  4.65526E+01
   4.70530E+01  4.48766E+01  4.32682E+01  4.47770E+01  4.27773E+01  4.09097E+01  3.94727E+01  3.39430E+01  3.56069E+01  3.43129E+01
   3.49659E+01  3.79850E+01  3.94913E+01  4.00029E+01  4.38681E+01  4.28288E+01  4.50673E+01  4.50017E+01  4.36572E+01  3.95274E+01
   3.97320E+01  3.97550E+01  3.41906E+01  3.25719E+01  2.93064E+01  3.04583E+01  2.60356E+01  2.63439E+01  2.55393E+01  2.33558E+01
   1.99250E+01  2.07149E+01  2.26183E+01  1.90402E+01  1.88277E+01  1.83110E+01  1.56137E+01  1.70523E+01  1.96391E+01  1.70983E+01
   1.41292E+01  1.37164E+01  1.32253E+01  1.39563E+01  1.17524E+01  1.39783E+01  1.32728E+01  1.17409E+01  1.11733E+01  1.10124E+01
   9.86626E+00  9.55693E+00  5.69705E+00  6.22726E+00  5.94111E+00  3.57061E+00  4.69688E+00  5.09299E+00  1.41493E+00 -1.69859E+00
  -9.46254E-01 -4.47267E+00 -6.31478E+00 -6.93497E+00 -8.51692E+00 -5.14774E+00 -6.57944E+00 -7.71526E+00 -7.93836E+00 -7.71145E+00
  -7.05524E+00 -1.15945E+01 -1.39104E+01 -1.24462E+01 -9.93345E+00 -1.08992E+01 -9.90259E+00 -1.32243E+01 -1.31887E+01 -1.05245E+01
  -1.18347E+01 -1.13638E+01 -1.58344E+01 -1.61081E+01 -1.28100E+01 -1.66981E+01 -1.60449E+01 -1.58884E+01 -1.47037E+01 -1.43477E+01
  -1.46597E+01 -1.45308E+01 -1.80437E+01 -1.67784E+01 -1.85324E+01 -1.87051E+01 -1.98439E+01 -2.11257E+01 -2.02415E+01 -2.16164E+01
  -2.02532E+01 -2.03041E+01 -1.86973E+01 -1.94195E+01 -1.99107E+01 -2.09836E+01 -1.83274E+01 -1.96320E+01 -2.30598E+01 -2.49091E+01
  -2.56049E+01 -2.47541E+01 -2.47434E+01 -2.23080E+01 -2.13897E+01 -2.22674E+01 -2.63337E+01 -2.31368E+01 -2.17831E+01 -2.46326E+01
  -2.55639E+01 -2.10119E+01 -2.27095E+01 -2.40474E+01 -2.68934E+01 -2.23588E+01 -2.61428E+01 -2.78494E+01 -2.55119E+01 -2.96655E+01
  -2.96256E+01 -2.32659E+01 -2.89555E+01 -2.47032E+01 -2.60339E+01 -2.21083E+01 -2.31208E+01 -2.23453E+01 -2.06016E+01 -1.93206E+01
  -1.70096E+01 -1.85146E+01 -1.49134E+01 -1.19035E+01 -8.30511E+00 -5.95390E+00 -4.26904E+00 -5.09256E-01  5.39187E-01 -3.78625E+00
  -9.29444E+00 -1.25692E+01 -1.81583E+01 -2.32464E+01 -2.29689E+01 -2.70376E+01 -2.67534E+01 -3.04692E+01 -3.22692E+01 -2.81925E+01
  -3.52671E+01 -3.22202E+01 -3.31279E+01 -3.29161E+01 -3.66538E+01 -3.42504E+01 -3.41382E+01 -3.26192E+01 -3.57627E+01 -3.42197E+01
  -3.72297E+01 -3.68430E+01 -3.66135E+01 -3.65818E+01 -3.66669E+01 -3.61498E+01 -3.36771E+01 -3.66971E+01 -3.93762E+01 -3.17300E+01
  -3.77163E+01 -3.13532E+01 -3.58698E+01 -3.31273E+01 -3.45848E+01 -3.43097E+01 -3.49727E+01 -3.25996E+01 -3.22398E+01 -3.13791E+01
  -3.29316E+01 -3.11649E+01 -3.14586E+01 -3.43449E+01 -3.10600E+01 -3.09839E+01 -2.76517E+01 -3.04564E+01 -2.93819E+01 -2.83133E+01
  -2.89001E+01 -2.99231E+01 -2.93147E+01 -2.42169E+01 -2.99978E+01 -2.43744E+01 -2.77464E+01 -3.06510E+01 -2.88914E+01 -2.70081E+01
  -2.88161E+01 -2.32513E+01 -2.70706E+01 -2.99753E+01 -3.00976E+01 -2.94811E+01 -2.81998E+01 -2.77544E+01 -3.15817E+01 -2.70611E+01
  -3.05004E+01 -3.46656E+01 -3.18436E+01 -3.07405E+01 -3.83678E+01 -3.69225E+01 -4.10534E+01 -4.05295E+01 -4.14128E+01 -4.09474E+01
  -4.38118E+01 -4.71222E+01 -4.49196E+01 -4.63396E+01 -4.79397E+01 -5.21308E+01 -5.01996E+01 -5.05596E+01 -5.05800E+01 -5.65437E+01
  -5.49412E+01 -5.74025E+01 -5.69796E+01 -5.95226E+01 -6.08227E+01 -5.64882E+01 -5.90376E+01 -5.91598E+01 -6.10302E+01 -6.00249E+01
  -6.07542E+01 -5.88923E+01 -5.96881E+01 -5.87996E+01 -5.86380E+01 -6.12077E+01 -5.78582E+01 -5.95793E+01 -5.80289E+01 -6.07061E+01
  -5.88455E+01 -5.88871E+01 -5.97781E+01 -6.13274E+01 -6.22938E+01 -6.17181E+01 -6.14824E+01 -6.25312E+01 -6.40708E+01 -6.22044E+01
  -6.18899E+01 -6.30539E+01 -6.34780E+01 -6.27932E+01 -6.61550E+01 -6.63843E+01 -6.20346E+01 -6.34564E+01 -6.33684E+01 -6.33782E+01
  -6.59788E+01 -6.53139E+01 -6.38330E+01 -6.42156E+01 -6.53026E+01 -6.44740E+01 -6.12267E+01 -6.21537E+01 -6.62764E+01 -6.06487E+01
  -6.15336E+01 -6.45920E+01 -6.43001E+01 -6.16231E+01 -6.30023E+01 -6.37063E+01 -5.99929E+01 -6.28781E+01 -6.37375E+01 -6.42165E+01
  -6.18364E+01 -6.50098E+01 -6.30827E+01 -6.32848E+01 -6.43774E+01 -6.70817E+01 -6.25311E+01 -6.47485E+01 -6.35185E+01 -6.50406E+01
  -6.14480E+01 -6.19399E+01 -6.02883E+01 -6.37657E+01 -5.87770E+01 -6.25434E+01 -6.31703E+01 -6.36885E+01 -6.17457E+01 -6.41068E+01
  -6.28915E+01 -6.09555E+01 -6.03938E+01 -5.80323E+01 -5.90434E+01 -5.85061E+01 -5.83311E+01 -5.69665E+01 -5.73243E+01 -5.88938E+01
  -5.90820E+01 -5.69711E+01 -5.69910E+01 -5.60577E+01 -5.46558E+01 -5.75366E+01 -5.84278E+01 -5.28233E+01 -5.64614E+01 -5.29345E+01
  -5.49591E+01 -5.41343E+01 -5.85602E+01 -5.37571E+01 -5.42103E+01 -5.25808E+01 -5.31037E+01 -5.25339E+01 -5.51052E+01 -5.36452E+01
  -5.49641E+01 -5.00413E+01 -5.48391E+01 -5.44221E+01 -5.44277E+01 -5.15661E+01 -5.22750E+01 -5.00779E+01 -5.10381E+01 -4.83837E+01
  -5.15090E+01 -5.31964E+01 -4.94069E+01 -4.79424E+01 -4.66119E+01 -4.54666E+01 -5.07233E+01 -4.56214E+01 -4.65179E+01 -4.65567E+01
  -4.65192E+01 -4.54348E+01 -4.24413E+01 -4.30961E+01 -4.56076E+01 -4.30294E+01 -4.41775E+01 -4.37666E+01 -4.21329E+01 -4.07518E+01
  -4.05235E+01 -4.23524E+01 -4.12609E+01 -4.33086E+01 -3.85251E+01 -4.04982E+01 -3.98199E+01 -3.87880E+01
 NY points of the fit to the data follow
   2.65641E+02  2.62251E+02  2.58863E+02  2.56125E+02  2.53276E+02  2.51074E+02  2.48718E+02  2.46678E+02  2.44422E+02  2.42054E+02
   2.39540E+02  2.36023E+02  2.33075E+02  2.28479E+02  2.25081E+02  2.20154E+02  2.16698E+02  2.12406E+02  2.09132E+02  2.05394E+02
   2.02225E+02  1.98682E+02  1.95581E+02  1.92271E+02  1.89366E+02  1.86638E+02  1.83986E+02  1.81358E+02  1.78778E+02  1.76272E+02
   1.73827E+02  1.71449E+02  1.69080E+02  1.66791E+02  1.64398E+02  1.62215E+02  1.59820E+02  1.57723E+02  1.55161E+02  1.53150E+02
   1.50618E+02  1.48873E+02  1.46684E+02  1.45310E+02  1.43720E+02  1.42586E+02  1.41360E+02  1.39963E+02  1.38418E+02  1.36187E+02
   1.33737E+02  1.30561E+02  1.27403E+02  1.23952E+02  1.20978E+02  1.18114E+02  1.16013E+02  1.13906E+02  1.12455E+02  1.10486E+02
   1.09071E+02  1.06838E+02  1.05271E+02  1.02899E+02  1.01447E+02  9.91057E+01  9.75699E+01  9.53567E+01  9.41385E+01  9.22272E+01
   9.13380E+01  8.95543E+01  8.85877E+01  8.68269E+01  8.55239E+01  8.37856E+01  8.22780E+01  8.06219E+01  7.91405E+01  7.74752E+01
   7.61426E+01  7.43811E+01  7.32109E+01  7.12488E+01  7.01789E+01  6.79732E+01  6.69211E+01  6.45406E+01  6.34542E+01  6.13997E+01
   6.06066E+01  5.91843E+01  5.86683E+01  5.80811E+01  5.82562E+01  5.81619E+01  5.89793E+01  5.89142E+01  6.03855E+01  6.00044E+01
   6.19373E+01  6.09261E+01  6.26960E+01  6.05787E+01  6.08436E+01  5.77691E+01  5.61480E+01  5.28902E+01  5.03507E+01  4.78114E+01
   4.59602E+01  4.42131E+01  4.29500E+01  4.15626E+01  4.03383E+01  3.94291E+01  3.83085E+01  3.79964E+01  3.77341E+01  3.80529E+01
   3.79668E+01  3.90304E+01  3.91489E+01  4.10192E+01  4.10741E+01  4.32771E+01  4.28404E+01  4.44697E+01  4.31276E+01  4.31259E+01
   4.08745E+01  3.90466E+01  3.64480E+01  3.37960E+01  3.16134E+01  2.95739E+01  2.79463E+01  2.64622E+01  2.51043E+01  2.36546E+01
   2.24610E+01  2.10932E+01  2.02165E+01  1.94801E+01  1.87148E+01  1.79359E+01  1.71646E+01  1.63725E+01  1.55922E+01  1.47640E+01
   1.39907E+01  1.31305E+01  1.23849E+01  1.15070E+01  1.08079E+01  9.94537E+00  9.29246E+00  8.46819E+00  7.79971E+00  7.01152E+00
   6.27898E+00  5.46833E+00  4.63449E+00  3.74903E+00  2.89666E+00  2.00935E+00  1.24515E+00  4.31542E-01 -2.44361E-01 -9.97125E-01
  -1.62579E+00 -2.36934E+00 -2.90432E+00 -3.58820E+00 -4.10740E+00 -4.72639E+00 -5.32989E+00 -5.91558E+00 -6.55565E+00 -7.08404E+00
  -7.56584E+00 -8.05426E+00 -8.32867E+00 -8.81163E+00 -8.96881E+00 -9.40355E+00 -9.59097E+00 -9.93964E+00 -1.01944E+01 -1.05443E+01
  -1.09933E+01 -1.14373E+01 -1.20490E+01 -1.25203E+01 -1.31920E+01 -1.36658E+01 -1.43222E+01 -1.48259E+01 -1.53730E+01 -1.59150E+01
  -1.62689E+01 -1.68449E+01 -1.71704E+01 -1.78219E+01 -1.82275E+01 -1.89325E+01 -1.93760E+01 -2.00516E+01 -2.04020E+01 -2.09885E+01
  -2.12627E+01 -2.17144E+01 -2.19288E+01 -2.22305E+01 -2.24204E+01 -2.26124E+01 -2.27839E+01 -2.29638E+01 -2.31390E+01 -2.33172E+01
  -2.34799E+01 -2.36269E+01 -2.37712E+01 -2.38884E+01 -2.40157E+01 -2.41717E+01 -2.42810E+01 -2.44383E+01 -2.45089E+01 -2.46629E+01
  -2.47225E+01 -2.48270E+01 -2.48752E+01 -2.48608E+01 -2.49653E+01 -2.48101E+01 -2.50177E+01 -2.47939E+01 -2.50873E+01 -2.48827E+01
  -2.51539E+01 -2.49811E+01 -2.51919E+01 -2.48725E+01 -2.44265E+01 -2.39531E+01 -2.31527E+01 -2.25134E+01 -2.08975E+01 -1.99301E+01
  -1.72764E+01 -1.59180E+01 -1.21653E+01 -1.06927E+01 -6.73874E+00 -5.76044E+00 -3.17416E+00 -3.48832E+00 -4.02990E+00 -5.91507E+00
  -9.59393E+00 -1.23614E+01 -1.71886E+01 -1.96572E+01 -2.29905E+01 -2.47159E+01 -2.67577E+01 -2.80566E+01 -2.98117E+01 -3.08793E+01
  -3.23067E+01 -3.29173E+01 -3.30384E+01 -3.34049E+01 -3.35588E+01 -3.39620E+01 -3.41119E+01 -3.45238E+01 -3.46485E+01 -3.50126E+01
  -3.50469E+01 -3.53195E+01 -3.52440E+01 -3.54436E+01 -3.53096E+01 -3.55090E+01 -3.53620E+01 -3.55635E+01 -3.54015E+01 -3.55453E+01
  -3.53570E+01 -3.53936E+01 -3.51565E+01 -3.51107E+01 -3.48351E+01 -3.47035E+01 -3.44121E+01 -3.42041E+01 -3.39020E+01 -3.36110E+01
  -3.32561E+01 -3.28846E+01 -3.24752E+01 -3.20365E+01 -3.16073E+01 -3.11533E+01 -3.07485E+01 -3.03434E+01 -2.99829E+01 -2.96458E+01
  -2.93572E+01 -2.90984E+01 -2.88887E+01 -2.87083E+01 -2.85740E+01 -2.84717E+01 -2.84022E+01 -2.83598E+01 -2.83473E+01 -2.83629E+01
  -2.84128E+01 -2.85015E+01 -2.86392E+01 -2.88350E+01 -2.91010E+01 -2.94475E+01 -2.98851E+01 -3.04216E+01 -3.10621E+01 -3.18085E+01
  -3.26589E+01 -3.36073E+01 -3.46441E+01 -3.57569E+01 -3.69125E+01 -3.80816E+01 -3.92930E+01 -4.05004E+01 -4.16814E+01 -4.28213E+01
  -4.39071E+01 -4.49974E+01 -4.59809E+01 -4.70397E+01 -4.79042E+01 -4.91022E+01 -4.99132E+01 -5.13263E+01 -5.20703E+01 -5.36466E+01
  -5.42239E+01 -5.56586E+01 -5.59015E+01 -5.68554E+01 -5.66923E+01 -5.71072E+01 -5.67047E+01 -5.70284E+01 -5.66980E+01 -5.72460E+01
  -5.71959E+01 -5.78766E+01 -5.80861E+01 -5.85977E+01 -5.89086E+01 -5.93874E+01 -5.97177E+01 -6.01864E+01 -6.05587E+01 -6.10302E+01
  -6.14420E+01 -6.17899E+01 -6.21133E+01 -6.24168E+01 -6.26993E+01 -6.29598E+01 -6.31966E+01 -6.34077E+01 -6.35914E+01 -6.37460E+01
  -6.38702E+01 -6.39627E+01 -6.40230E+01 -6.40508E+01 -6.40466E+01 -6.40111E+01 -6.39460E+01 -6.38531E+01 -6.37351E+01 -6.35951E+01
  -6.34367E+01 -6.32640E+01 -6.30815E+01 -6.28938E+01 -6.27057E+01 -6.25221E+01 -6.23479E+01 -6.21874E+01 -6.20447E+01 -6.19234E+01
  -6.18264E+01 -6.17556E+01 -6.17125E+01 -6.16972E+01 -6.17092E+01 -6.17472E+01 -6.18087E+01 -6.18908E+01 -6.19901E+01 -6.21029E+01
  -6.22251E+01 -6.23526E+01 -6.24812E+01 -6.26066E+01 -6.27249E+01 -6.28325E+01 -6.29261E+01 -6.30029E+01 -6.30605E+01 -6.30972E+01
  -6.31115E+01 -6.31025E+01 -6.30698E+01 -6.30131E+01 -6.29329E+01 -6.28294E+01 -6.27036E+01 -6.25562E+01 -6.23883E+01 -6.22010E+01
  -6.19955E+01 -6.17731E+01 -6.15350E+01 -6.12824E+01 -6.10164E+01 -6.07384E+01 -6.04493E+01 -6.01503E+01 -5.98425E+01 -5.95267E+01
  -5.92039E+01 -5.88750E+01 -5.85410E+01 -5.82025E+01 -5.78604E+01 -5.75154E+01 -5.71682E+01 -5.68195E+01 -5.64700E+01 -5.61203E+01
  -5.57709E+01 -5.54226E+01 -5.50758E+01 -5.47310E+01 -5.43882E+01 -5.40473E+01 -5.37082E+01 -5.33708E+01 -5.30350E+01 -5.27007E+01
  -5.23678E+01 -5.20361E+01 -5.17055E+01 -5.13760E+01 -5.10472E+01 -5.07192E+01 -5.03917E+01 -5.00646E+01 -4.97377E+01 -4.94108E+01
  -4.90839E+01 -4.87567E+01 -4.84290E+01 -4.81008E+01 -4.77717E+01 -4.74417E+01 -4.71105E+01 -4.67780E+01 -4.64440E+01 -4.61084E+01
  -4.57708E+01 -4.54312E+01 -4.50893E+01 -4.47451E+01 -4.43982E+01 -4.40484E+01 -4.36957E+01 -4.33398E+01 -4.29805E+01 -4.26176E+01
  -4.22510E+01 -4.18804E+01 -4.15056E+01 -4.11264E+01 -4.07427E+01 -4.03542E+01 -3.99607E+01 -3.95621E+01
 NY background values follow
     2.573E+02    2.543E+02    2.513E+02    2.483E+02    2.453E+02    2.423E+02    2.393E+02    2.363E+02    2.333E+02    2.303E+02
     2.274E+02    2.245E+02    2.215E+02    2.186E+02    2.157E+02    2.128E+02    2.099E+02    2.070E+02    2.042E+02    2.013E+02
     1.985E+02    1.957E+02    1.929E+02    1.901E+02    1.874E+02    1.846E+02    1.819E+02    1.792E+02    1.765E+02    1.738E+02
     1.712E+02    1.686E+02    1.659E+02    1.634E+02    1.608E+02    1.583E+02    1.557E+02    1.533E+02    1.508E+02    1.483E+02
     1.459E+02    1.435E+02    1.412E+02    1.388E+02    1.365E+02    1.342E+02    1.320E+02    1.298E+02    1.276E+02    1.254E+02
     1.233E+02    1.211E+02    1.191E+02    1.170E+02    1.150E+02    1.130E+02    1.110E+02    1.090E+02    1.071E+02    1.052E+02
     1.034E+02    1.015E+02    9.971E+01    9.793E+01    9.616E+01    9.443E+01    9.272E+01    9.104E+01    8.938E+01    8.775E+01
     8.614E+01    8.456E+01    8.301E+01    8.148E+01    7.997E+01    7.849E+01    7.704E+01    7.561E+01    7.420E+01    7.282E+01
     7.146E+01    7.013E+01    6.882E+01    6.753E+01    6.627E+01    6.503E+01    6.382E+01    6.263E+01    6.146E+01    6.031E+01
     5.919E+01    5.809E+01    5.701E+01    5.596E+01    5.492E+01    5.391E+01    5.292E+01    5.194E+01    5.099E+01    5.005E+01
     4.913E+01    4.823E+01    4.735E+01    4.648E+01    4.562E+01    4.478E+01    4.396E+01    4.315E+01    4.235E+01    4.156E+01
     4.079E+01    4.003E+01    3.928E+01    3.853E+01    3.780E+01    3.708E+01    3.636E+01    3.566E+01    3.496E+01    3.426E+01
     3.358E+01    3.290E+01    3.222E+01    3.155E+01    3.088E+01    3.021E+01    2.955E+01    2.889E+01    2.823E+01    2.757E+01
     2.691E+01    2.625E+01    2.559E+01    2.493E+01    2.426E+01    2.360E+01    2.293E+01    2.225E+01    2.158E+01    2.090E+01
     2.021E+01    1.953E+01    1.884E+01    1.815E+01    1.746E+01    1.676E+01    1.607E+01    1.537E+01    1.467E+01    1.397E+01
     1.327E+01    1.257E+01    1.187E+01    1.117E+01    1.047E+01    9.772E+00    9.073E+00    8.374E+00    7.677E+00    6.981E+00
     6.287E+00    5.594E+00    4.904E+00    4.215E+00    3.529E+00    2.845E+00    2.165E+00    1.487E+00    8.125E-01    1.415E-01
    -5.257E-01   -1.189E+00   -1.848E+00   -2.503E+00   -3.153E+00   -3.798E+00   -4.439E+00   -5.074E+00   -5.704E+00   -6.328E+00
    -6.946E+00   -7.558E+00   -8.163E+00   -8.763E+00   -9.356E+00   -9.943E+00   -1.052E+01   -1.110E+01   -1.167E+01   -1.223E+01
    -1.279E+01   -1.334E+01   -1.388E+01   -1.442E+01   -1.495E+01   -1.548E+01   -1.599E+01   -1.651E+01   -1.702E+01   -1.752E+01
    -1.801E+01   -1.850E+01   -1.899E+01   -1.947E+01   -1.994E+01   -2.041E+01   -2.087E+01   -2.132E+01   -2.177E+01   -2.221E+01
    -2.265E+01   -2.308E+01   -2.351E+01   -2.393E+01   -2.434E+01   -2.475E+01   -2.515E+01   -2.555E+01   -2.594E+01   -2.633E+01
    -2.671E+01   -2.709E+01   -2.746E+01   -2.782E+01   -2.818E+01   -2.853E+01   -2.888E+01   -2.922E+01   -2.956E+01   -2.989E+01
    -3.021E+01   -3.053E+01   -3.085E+01   -3.116E+01   -3.146E+01   -3.175E+01   -3.204E+01   -3.233E+01   -3.261E+01   -3.288E+01
    -3.314E+01   -3.340E+01   -3.365E+01   -3.390E+01   -3.414E+01   -3.437E+01   -3.459E+01   -3.481E+01   -3.502E+01   -3.523E+01
    -3.542E+01   -3.561E+01   -3.580E+01   -3.597E+01   -3.614E+01   -3.630E+01   -3.646E+01   -3.660E+01   -3.674E+01   -3.687E+01
    -3.699E+01   -3.711E+01   -3.722E+01   -3.732E+01   -3.741E+01   -3.749E+01   -3.757E+01   -3.763E+01   -3.769E+01   -3.774E+01
    -3.778E+01   -3.782E+01   -3.784E+01   -3.786E+01   -3.787E+01   -3.787E+01   -3.786E+01   -3.786E+01   -3.784E+01   -3.782E+01
    -3.780E+01   -3.778E+01   -3.775E+01   -3.772E+01   -3.769E+01   -3.766E+01   -3.763E+01   -3.760E+01   -3.757E+01   -3.755E+01
    -3.753E+01   -3.751E+01   -3.749E+01   -3.748E+01   -3.747E+01   -3.748E+01   -3.748E+01   -3.750E+01   -3.752E+01   -3.755E+01
    -3.759E+01   -3.764E+01   -3.770E+01   -3.777E+01   -3.785E+01   -3.794E+01   -3.805E+01   -3.817E+01   -3.831E+01   -3.846E+01
    -3.862E+01   -3.880E+01   -3.900E+01   -3.922E+01   -3.945E+01   -3.970E+01   -3.997E+01   -4.026E+01   -4.057E+01   -4.090E+01
    -4.125E+01   -4.161E+01   -4.199E+01   -4.239E+01   -4.280E+01   -4.323E+01   -4.367E+01   -4.412E+01   -4.459E+01   -4.506E+01
    -4.555E+01   -4.605E+01   -4.656E+01   -4.708E+01   -4.760E+01   -4.814E+01   -4.867E+01   -4.922E+01   -4.977E+01   -5.033E+01
    -5.088E+01   -5.145E+01   -5.201E+01   -5.258E+01   -5.314E+01   -5.371E+01   -5.428E+01   -5.485E+01   -5.541E+01   -5.597E+01
    -5.653E+01   -5.708E+01   -5.763E+01   -5.818E+01   -5.872E+01   -5.925E+01   -5.977E+01   -6.029E+01   -6.079E+01   -6.129E+01
    -6.178E+01   -6.225E+01   -6.272E+01   -6.317E+01   -6.361E+01   -6.404E+01   -6.445E+01   -6.486E+01   -6.525E+01   -6.562E+01
    -6.599E+01   -6.634E+01   -6.668E+01   -6.701E+01   -6.733E+01   -6.763E+01   -6.792E+01   -6.819E+01   -6.846E+01   -6.871E+01
    -6.895E+01   -6.917E+01   -6.938E+01   -6.958E+01   -6.977E+01   -6.994E+01   -7.010E+01   -7.024E+01   -7.037E+01   -7.049E+01
    -7.059E+01   -7.069E+01   -7.076E+01   -7.083E+01   -7.088E+01   -7.091E+01   -7.093E+01   -7.094E+01   -7.094E+01   -7.091E+01
    -7.088E+01   -7.083E+01   -7.077E+01   -7.069E+01   -7.060E+01   -7.050E+01   -7.038E+01   -7.024E+01   -7.009E+01   -6.993E+01
    -6.975E+01   -6.956E+01   -6.936E+01   -6.915E+01   -6.892E+01   -6.868E+01   -6.844E+01   -6.818E+01   -6.791E+01   -6.763E+01
    -6.734E+01   -6.704E+01   -6.673E+01   -6.642E+01   -6.609E+01   -6.576E+01   -6.543E+01   -6.508E+01   -6.473E+01   -6.437E+01
    -6.401E+01   -6.365E+01   -6.328E+01   -6.290E+01   -6.252E+01   -6.214E+01   -6.175E+01   -6.137E+01   -6.098E+01   -6.059E+01
    -6.019E+01   -5.980E+01   -5.940E+01   -5.901E+01   -5.862E+01   -5.822E+01   -5.783E+01   -5.744E+01   -5.705E+01   -5.667E+01
    -5.628E+01   -5.590E+01   -5.552E+01   -5.515E+01   -5.478E+01   -5.442E+01   -5.405E+01   -5.370E+01   -5.334E+01   -5.298E+01
    -5.263E+01   -5.228E+01   -5.194E+01   -5.159E+01   -5.125E+01   -5.091E+01   -5.057E+01   -5.023E+01   -4.989E+01   -4.955E+01
    -4.921E+01   -4.887E+01   -4.854E+01   -4.820E+01   -4.786E+01   -4.752E+01   -4.718E+01   -4.684E+01   -4.650E+01   -4.616E+01
    -4.582E+01   -4.547E+01   -4.512E+01   -4.477E+01   -4.442E+01   -4.407E+01   -4.371E+01   -4.335E+01   -4.299E+01   -4.262E+01
    -4.225E+01   -4.187E+01   -4.150E+01   -4.111E+01   -4.073E+01   -4.034E+01   -3.994E+01   -3.954E+01
 PCr      Conc. = 6.02E+02
