 LCModel (Version 6.3-1L) Copyright: S.W. Provencher.          Ref.: Magn. Reson. Med. 30:672-679 (1993).                
 Slice#2 Row#5 Col#5  K_02_press_1_raw_act
 36 lines in following concentration table = NCONC+1
    Conc.  %SD /Cr+PCr  Metabolite                                         
   52.859 238% 2.6E-02 Ala                                                 
    0.000 999%   0.000 Asp                                                 
  926.151  25%   0.459 Cr                                                  
 1.09E+03  21%   0.541 PCr                                                 
    0.000 999%   0.000 GABA                                                
    0.000 999%   0.000 Glc                                                 
  572.440  45%   0.284 Gln                                                 
 1.87E+03  15%   0.925 Glu                                                 
  898.284   3%   0.445 GPC                                                 
    0.000 999%   0.000 PCh                                                 
  722.174  12%   0.358 GSH                                                 
 1.66E+03  21%   0.822 Ins                                                 
  438.842  35%   0.218 Lac                                                 
 3.20E+03   3%   1.586 NAA                                                 
  645.987  17%   0.320 NAAG                                                
  104.500  34% 5.2E-02 Scyllo                                              
    0.000 999%   0.000 Tau                                                 
    0.000 999%   0.000 -CrCH2                                              
  898.284   3%   0.445 GPC+PCh                                             
 3.84E+03   2%   1.906 NAA+NAAG                                            
 2.02E+03   3%   1.000 Cr+PCr                                              
 2.44E+03  16%   1.209 Glu+Gln                                             
    0.000 999%   0.000 Lip13a                                              
 1.59E+03   9%   0.790 Lip13b                                              
  317.900  45%   0.158 Lip09                                               
 1.74E+03  14%   0.860 MM09                                                
  243.782  41%   0.121 Lip20                                               
 2.47E+03  19%   1.226 MM20                                                
  431.025  36%   0.214 MM12                                                
 3.74E+03   6%   1.852+MM14                                                
 1.78E+03  14%   0.882 MM17                                                
 1.59E+03   9%   0.790 Lip13a+Lip13b                                       
 5.76E+03   6%   2.856 MM14+Lip13a+Lip13b+MM12                             
 2.05E+03  12%   1.018 MM09+Lip09                                          
 2.72E+03  17%   1.346 MM20+Lip20                                          
   6 lines in following misc. output table
  FWHM = 0.046 ppm    S/N =  15                                            
  Data shift = 0.023 ppm                                                   
  Ph: -15 deg      -9.0 deg/ppm                                            
  alphaB,S = 5.0E-01,   1.7E+02                                            
   14 spline knots.   Ns = 7(1)                                            
  (11) 4 infls.   ( 5) 1 extrs.                                            
  498 points on ppm-axis = NY
      4.000000     3.992357     3.984714     3.977070     3.969427     3.961784     3.954141     3.946497     3.938854     3.931211
      3.923568     3.915925     3.908281     3.900638     3.892995     3.885352     3.877708     3.870065     3.862422     3.854779
      3.847136     3.839492     3.831849     3.824206     3.816563     3.808919     3.801276     3.793633     3.785990     3.778347
      3.770703     3.763060     3.755417     3.747774     3.740130     3.732487     3.724844     3.717201     3.709558     3.701914
      3.694271     3.686628     3.678985     3.671341     3.663698     3.656055     3.648412     3.640769     3.633125     3.625482
      3.617839     3.610196     3.602552     3.594909     3.587266     3.579623     3.571980     3.564336     3.556693     3.549050
      3.541407     3.533763     3.526120     3.518477     3.510834     3.503191     3.495547     3.487904     3.480261     3.472618
      3.464974     3.457331     3.449688     3.442045     3.434402     3.426758     3.419115     3.411472     3.403829     3.396185
      3.388542     3.380899     3.373256     3.365613     3.357969     3.350326     3.342683     3.335040     3.327396     3.319753
      3.312110     3.304467     3.296824     3.289180     3.281537     3.273894     3.266251     3.258607     3.250964     3.243321
      3.235678     3.228034     3.220391     3.212748     3.205105     3.197462     3.189818     3.182175     3.174532     3.166889
      3.159245     3.151602     3.143959     3.136316     3.128673     3.121029     3.113386     3.105743     3.098100     3.090456
      3.082813     3.075170     3.067527     3.059884     3.052240     3.044597     3.036954     3.029311     3.021667     3.014024
      3.006381     2.998738     2.991095     2.983451     2.975808     2.968165     2.960522     2.952878     2.945235     2.937592
      2.929949     2.922306     2.914662     2.907019     2.899376     2.891733     2.884089     2.876446     2.868803     2.861160
      2.853517     2.845873     2.838230     2.830587     2.822944     2.815300     2.807657     2.800014     2.792371     2.784728
      2.777084     2.769441     2.761798     2.754155     2.746511     2.738868     2.731225     2.723582     2.715939     2.708295
      2.700652     2.693009     2.685366     2.677722     2.670079     2.662436     2.654793     2.647150     2.639506     2.631863
      2.624220     2.616577     2.608933     2.601290     2.593647     2.586004     2.578361     2.570717     2.563074     2.555431
      2.547788     2.540144     2.532501     2.524858     2.517215     2.509572     2.501928     2.494285     2.486642     2.478999
      2.471355     2.463712     2.456069     2.448426     2.440783     2.433139     2.425496     2.417853     2.410210     2.402566
      2.394923     2.387280     2.379637     2.371994     2.364350     2.356707     2.349064     2.341421     2.333777     2.326134
      2.318491     2.310848     2.303205     2.295561     2.287918     2.280275     2.272632     2.264988     2.257345     2.249702
      2.242059     2.234416     2.226772     2.219129     2.211486     2.203843     2.196199     2.188556     2.180913     2.173270
      2.165627     2.157983     2.150340     2.142697     2.135054     2.127410     2.119767     2.112124     2.104481     2.096838
      2.089194     2.081551     2.073908     2.066265     2.058621     2.050978     2.043335     2.035692     2.028049     2.020405
      2.012762     2.005119     1.997476     1.989833     1.982190     1.974546     1.966903     1.959260     1.951617     1.943974
      1.936331     1.928688     1.921045     1.913402     1.905759     1.898115     1.890472     1.882829     1.875186     1.867543
      1.859900     1.852257     1.844614     1.836971     1.829327     1.821684     1.814041     1.806398     1.798755     1.791112
      1.783469     1.775826     1.768183     1.760540     1.752896     1.745253     1.737610     1.729967     1.722324     1.714681
      1.707038     1.699395     1.691752     1.684108     1.676465     1.668822     1.661179     1.653536     1.645893     1.638250
      1.630607     1.622964     1.615321     1.607677     1.600034     1.592391     1.584748     1.577105     1.569462     1.561819
      1.554176     1.546533     1.538890     1.531246     1.523603     1.515960     1.508317     1.500674     1.493031     1.485388
      1.477745     1.470102     1.462458     1.454815     1.447172     1.439529     1.431886     1.424243     1.416600     1.408957
      1.401314     1.393671     1.386027     1.378384     1.370741     1.363098     1.355455     1.347812     1.340169     1.332526
      1.324883     1.317240     1.309596     1.301953     1.294310     1.286667     1.279024     1.271381     1.263738     1.256095
      1.248452     1.240808     1.233165     1.225522     1.217879     1.210236     1.202593     1.194950     1.187307     1.179664
      1.172021     1.164377     1.156734     1.149091     1.141448     1.133805     1.126162     1.118519     1.110876     1.103233
      1.095590     1.087946     1.080303     1.072660     1.065017     1.057374     1.049731     1.042088     1.034445     1.026802
      1.019158     1.011515     1.003872     0.996229     0.988586     0.980943     0.973300     0.965657     0.958014     0.950371
      0.942727     0.935084     0.927441     0.919798     0.912155     0.904512     0.896869     0.889226     0.881583     0.873940
      0.866296     0.858653     0.851010     0.843367     0.835724     0.828081     0.820438     0.812795     0.805152     0.797508
      0.789865     0.782222     0.774579     0.766936     0.759293     0.751650     0.744007     0.736364     0.728721     0.721077
      0.713434     0.705791     0.698148     0.690505     0.682862     0.675219     0.667576     0.659933     0.652290     0.644646
      0.637003     0.629360     0.621717     0.614074     0.606431     0.598788     0.591145     0.583502     0.575858     0.568215
      0.560572     0.552929     0.545286     0.537643     0.530000     0.522357     0.514714     0.507071     0.499427     0.491784
      0.484141     0.476498     0.468855     0.461212     0.453569     0.445925     0.438282     0.430639     0.422996     0.415353
      0.407710     0.400067     0.392424     0.384780     0.377137     0.369494     0.361851     0.354208     0.346565     0.338922
      0.331278     0.323635     0.315992     0.308349     0.300706     0.293063     0.285420     0.277777     0.270133     0.262490
      0.254847     0.247204     0.239561     0.231918     0.224275     0.216631     0.208988     0.201345
 NY phased data points follow
  -5.35823E+01 -5.44556E+01 -5.34352E+01 -4.05526E+01 -4.26663E+01 -3.24458E+01 -2.53874E+01 -2.01196E+01 -9.90262E+00 -4.55457E+00
   4.33459E+00  3.37315E-02 -7.95127E-01 -1.20470E+01 -2.59185E+01 -3.40270E+01 -3.64675E+01 -3.78959E+01 -4.10645E+01 -3.82074E+01
  -4.15460E+01 -3.88863E+01 -3.74328E+01 -3.73893E+01 -3.50462E+01 -2.94551E+01 -2.96746E+01 -2.76565E+01 -2.67473E+01 -2.40410E+01
  -2.46838E+01 -1.94973E+01 -2.35798E+01 -2.01745E+01 -2.55854E+01 -2.67050E+01 -2.60349E+01 -2.83084E+01 -2.75679E+01 -2.48620E+01
  -2.06772E+01 -2.13199E+01 -2.25881E+01 -1.83095E+01 -2.07893E+01 -1.48947E+01 -1.31866E+01 -1.01446E+01 -1.03633E+01 -1.76487E+01
  -2.00938E+01 -2.10734E+01 -2.12608E+01 -2.59485E+01 -2.68700E+01 -2.44290E+01 -2.51329E+01 -2.00053E+01 -2.24810E+01 -2.00523E+01
  -2.62817E+01 -3.04732E+01 -2.84351E+01 -3.18248E+01 -3.24627E+01 -2.99533E+01 -3.21768E+01 -3.14309E+01 -2.43116E+01 -3.09924E+01
  -2.79415E+01 -2.34994E+01 -2.53142E+01 -2.42540E+01 -2.46954E+01 -2.29996E+01 -2.70426E+01 -2.11347E+01 -1.91535E+01 -2.16002E+01
  -1.52916E+01 -1.95369E+01 -1.60158E+01 -2.21924E+01 -1.74311E+01 -2.24243E+01 -1.59854E+01 -1.60299E+01 -1.72415E+01 -1.67113E+01
  -1.15674E+01 -1.41064E+01 -1.20591E+01 -8.48756E+00 -1.09174E+01 -6.80900E+00 -1.42213E+00  6.42971E+00  1.36287E+01  2.85400E+01
   3.93935E+01  5.68978E+01  6.81688E+01  6.58802E+01  5.57404E+01  4.75650E+01  2.69531E+01  1.06938E+01 -1.62935E-01  8.48476E-01
   2.50508E-01 -1.31397E+01 -1.23398E+01 -8.40781E+00 -8.17159E+00 -1.29649E+01 -1.11742E+01 -5.70180E+00 -2.31546E+00 -4.21936E-01
  -3.13348E+00  2.03271E+00  1.15776E+01  1.26913E+01  2.27333E+01  4.44292E+01  5.55334E+01  6.19986E+01  5.77494E+01  4.77503E+01
   2.84993E+01  1.63440E+01  3.07841E+00  1.68719E+00 -1.22931E+00 -8.63933E+00 -7.54550E+00 -1.17315E+01 -1.16298E+01 -1.13109E+01
  -5.47163E+00 -9.21633E+00 -8.29321E+00 -9.68304E+00 -6.23645E+00 -3.48634E+00 -9.08568E+00 -9.85116E+00 -7.21434E+00 -5.92059E+00
  -9.15609E+00 -6.33519E+00 -3.94484E+00 -4.01792E+00 -7.62674E+00 -8.25003E+00 -1.12587E+01 -6.91361E+00 -7.10178E+00 -5.33959E+00
  -7.98728E+00 -1.86773E+01 -1.48832E+01 -1.24186E+01 -1.29351E+01 -7.08639E+00 -1.12337E+01 -1.25313E+01 -1.47219E+01 -1.54918E+01
  -1.78141E+01 -2.60721E+01 -2.13715E+01 -2.17304E+01 -2.56448E+01 -2.90062E+01 -2.72300E+01 -2.06382E+01 -2.18025E+01 -2.01571E+01
  -2.29267E+01 -2.03941E+01 -2.26803E+01 -1.79673E+01 -1.63796E+01 -1.79392E+01 -2.13223E+01 -9.83047E+00 -1.06115E+01 -6.65273E+00
   4.65062E+00  6.88630E+00  6.29127E-01  2.15669E-02 -5.36473E-01  2.20903E+00 -4.48977E+00 -5.92311E+00 -9.21348E+00 -6.96424E+00
  -9.28103E+00 -1.78209E+00  8.66707E-01  2.98282E-01 -1.08596E+00 -1.73086E+00 -3.52960E+00 -4.51205E+00 -4.37887E+00 -8.18411E+00
  -6.14936E+00 -8.31437E+00 -3.96141E+00  1.06795E+00  4.92449E+00  9.86852E+00  1.71139E+01  1.11107E+01  6.48581E+00  3.05389E+00
   1.69251E+00 -3.01075E+00 -5.40766E+00 -3.41831E+00 -1.68335E+00  2.98775E+00  6.40776E+00  1.04400E+01  1.29231E+01  5.85530E+00
   1.06346E+01  1.04625E+01  7.88614E+00  1.10536E+01  8.60891E+00  8.65968E+00  1.05438E+01  1.09442E+01  9.18187E+00  2.54513E+00
   8.83071E+00  4.88367E+00  5.80921E+00  2.94953E+00  7.30097E+00  2.00190E+01  1.68480E+01  1.88535E+01  2.40459E+01  2.39832E+01
   2.62362E+01  3.19622E+01  3.77883E+01  4.73956E+01  5.95716E+01  7.23430E+01  7.36684E+01  7.49714E+01  9.50390E+01  1.21805E+02
   1.45796E+02  1.33174E+02  1.15925E+02  9.22834E+01  6.40443E+01  5.42132E+01  3.60637E+01  2.71432E+01  2.05099E+01  2.20710E+01
   1.70499E+01  2.11261E+01  1.95969E+01  1.51349E+01  1.67300E+01  1.92361E+01  1.60889E+01  1.79752E+01  1.57145E+01  1.59072E+01
   1.03364E+01  1.15420E+01  9.03942E+00  1.16532E+01  8.67597E+00  1.30842E+01  1.71183E+01  1.39887E+01  1.67872E+01  1.79551E+01
   1.94063E+01  2.05302E+01  1.71976E+01  1.96745E+01  1.78384E+01  2.06905E+01  2.28744E+01  2.51334E+01  2.35823E+01  2.49106E+01
   2.88550E+01  2.59223E+01  2.31368E+01  2.45879E+01  2.27318E+01  2.57393E+01  3.11694E+01  2.55930E+01  2.64426E+01  2.64463E+01
   2.86711E+01  2.84606E+01  2.86579E+01  3.21348E+01  2.85539E+01  2.38749E+01  3.11605E+01  2.30336E+01  2.69508E+01  3.24462E+01
   2.97969E+01  2.91215E+01  2.99147E+01  2.96752E+01  3.55519E+01  3.34048E+01  3.87655E+01  3.62425E+01  4.00607E+01  3.89436E+01
   3.97649E+01  3.90337E+01  3.70176E+01  3.78725E+01  3.89236E+01  3.64900E+01  3.62254E+01  3.54705E+01  3.09847E+01  3.17291E+01
   2.71832E+01  3.30428E+01  3.40622E+01  3.27146E+01  3.13942E+01  3.50726E+01  3.13803E+01  3.14733E+01  2.89856E+01  2.68635E+01
   2.99023E+01  2.73380E+01  2.33613E+01  2.64611E+01  2.98401E+01  1.86654E+01  1.62728E+01  2.01687E+01  1.69890E+01  8.39110E+00
   1.39069E+01  9.93176E+00  4.08865E+00  6.00609E+00  3.31710E+00  5.81546E-01 -1.53869E+00  6.76627E-01 -3.34338E+00 -1.63246E+00
  -1.40608E+00  3.18061E-01 -1.81905E+00 -6.52006E-01 -3.26756E+00 -2.28654E-01  5.90070E+00  1.73813E+00 -1.59754E+00  5.80461E+00
   1.19846E+00  3.35196E+00  7.98485E-01  1.35432E+00 -5.14329E+00 -1.28774E-01 -2.80841E+00  1.04240E+00  1.63877E+00 -4.25787E+00
  -1.69243E+00 -3.25649E+00  1.71330E+00  3.15652E-01  7.79214E+00  6.73640E+00  3.41345E+00  9.87990E+00  3.34107E+00  9.34705E+00
   6.28252E+00  7.81114E+00  1.07093E+01  9.72102E+00  1.12903E+01  1.11663E+01  1.23782E+01  1.30317E+01  1.45098E+01  1.40651E+01
   1.33846E+01  1.19095E+01  1.22835E+01  1.09120E+01  6.83811E+00  9.37196E+00  5.85786E+00  7.84623E+00  4.95124E+00  3.43921E+00
   5.41236E+00  5.07540E+00 -6.14835E-02  4.80649E+00  5.30352E+00  7.61114E-01  2.06325E+00  4.55514E-01  2.69355E+00  4.00218E+00
   1.53162E+00  4.36225E-01 -4.60318E-01  1.03005E+00  3.42979E+00  9.17008E-01  4.12010E+00  4.33273E+00  3.78687E+00  3.11087E+00
   1.22861E+00  5.13200E+00  4.79261E+00  1.86145E-01  4.06547E+00  3.20968E+00  4.86774E+00  2.48594E+00  2.55982E+00  3.31468E+00
   1.43925E+00  4.63702E+00  5.01628E+00 -1.74667E+00  3.09865E+00  1.35623E+00  4.62045E+00 -1.63788E+00  5.98352E+00  2.84178E+00
   5.42497E+00  2.35338E+00  6.26985E-01  2.21372E+00  4.19527E+00  6.68367E+00  1.88243E+00  1.51143E+00  2.66350E+00  6.38620E+00
   1.00265E+01  7.67839E+00  6.00311E+00  8.47596E+00 -5.71012E-01  7.65686E+00  6.13630E+00  2.60448E+00  7.02749E+00  2.72133E+00
   6.04169E+00  5.49611E+00  6.63022E+00  7.11232E+00  2.27536E+00  9.91400E-01  7.70537E+00  1.10329E+01  7.19062E+00  9.09228E+00
   4.14735E+00  8.57556E+00  5.59096E+00  6.87699E+00  4.08496E+00  4.82083E+00  8.08597E+00  1.86578E+00
 NY points of the fit to the data follow
  -5.10346E+01 -5.01042E+01 -4.77486E+01 -4.38843E+01 -3.89046E+01 -3.33966E+01 -2.70171E+01 -1.90087E+01 -9.94246E+00 -2.21922E+00
   1.37302E+00 -3.78641E-01 -6.40856E+00 -1.43272E+01 -2.18913E+01 -2.78484E+01 -3.21073E+01 -3.51859E+01 -3.72537E+01 -3.84178E+01
  -3.88384E+01 -3.90268E+01 -3.89560E+01 -3.80053E+01 -3.67041E+01 -3.53786E+01 -3.35220E+01 -3.04793E+01 -2.63073E+01 -2.21559E+01
  -1.92159E+01 -1.80690E+01 -1.87001E+01 -2.06879E+01 -2.33357E+01 -2.60045E+01 -2.83434E+01 -3.04278E+01 -3.18632E+01 -3.17867E+01
  -3.03029E+01 -2.81915E+01 -2.60376E+01 -2.37681E+01 -2.11114E+01 -1.83558E+01 -1.63118E+01 -1.57782E+01 -1.69377E+01 -1.93107E+01
  -2.21297E+01 -2.45652E+01 -2.60682E+01 -2.67240E+01 -2.67953E+01 -2.64365E+01 -2.56660E+01 -2.45993E+01 -2.35107E+01 -2.27234E+01
  -2.24917E+01 -2.28889E+01 -2.37238E+01 -2.46348E+01 -2.51673E+01 -2.51285E+01 -2.46459E+01 -2.38945E+01 -2.29806E+01 -2.20190E+01
  -2.11437E+01 -2.05247E+01 -2.02401E+01 -2.02310E+01 -2.03706E+01 -2.05194E+01 -2.05785E+01 -2.05190E+01 -2.03566E+01 -2.00884E+01
  -1.95897E+01 -1.91191E+01 -1.87384E+01 -1.82626E+01 -1.75714E+01 -1.68213E+01 -1.63414E+01 -1.63325E+01 -1.66496E+01 -1.69463E+01
  -1.70055E+01 -1.67074E+01 -1.60360E+01 -1.50127E+01 -1.33245E+01 -9.06868E+00 -1.73101E+00  5.67275E+00  1.34069E+01  2.45635E+01
   4.05317E+01  5.76060E+01  6.87693E+01  6.91408E+01  5.92601E+01  4.34520E+01  2.67269E+01  1.26964E+01  2.62229E+00 -4.17245E+00
  -8.94975E+00 -1.17194E+01 -1.24807E+01 -1.25423E+01 -1.23981E+01 -1.21452E+01 -1.18044E+01 -1.13450E+01 -1.05903E+01 -8.55473E+00
  -3.29252E+00  3.33015E+00  9.58615E+00  1.71948E+01  2.85823E+01  4.29414E+01  5.53848E+01  6.03746E+01  5.60264E+01  4.48682E+01
   3.12583E+01  1.88669E+01  9.36167E+00  2.43023E+00 -3.12212E+00 -7.63029E+00 -1.01536E+01 -1.09844E+01 -1.06979E+01 -9.62083E+00
  -8.27401E+00 -7.18161E+00 -6.60002E+00 -6.54368E+00 -6.90375E+00 -7.45621E+00 -8.02315E+00 -8.56106E+00 -9.03597E+00 -9.44441E+00
  -9.80109E+00 -1.01128E+01 -1.04034E+01 -1.06416E+01 -1.08612E+01 -1.10058E+01 -1.09971E+01 -1.09692E+01 -1.11105E+01 -1.16493E+01
  -1.25070E+01 -1.31729E+01 -1.32601E+01 -1.28501E+01 -1.23669E+01 -1.22885E+01 -1.27813E+01 -1.36534E+01 -1.45867E+01 -1.53400E+01
  -1.58832E+01 -1.61430E+01 -1.63550E+01 -1.68203E+01 -1.75575E+01 -1.82053E+01 -1.82281E+01 -1.75895E+01 -1.68461E+01 -1.64731E+01
  -1.65219E+01 -1.65758E+01 -1.61596E+01 -1.53435E+01 -1.44065E+01 -1.34566E+01 -1.23251E+01 -1.06184E+01 -8.25736E+00 -5.67008E+00
  -3.56864E+00 -2.58873E+00 -2.68877E+00 -3.50222E+00 -4.61036E+00 -5.63661E+00 -6.29402E+00 -6.22231E+00 -5.35372E+00 -3.95194E+00
  -2.30318E+00 -6.36872E-01  8.62837E-01  1.75420E+00  1.82725E+00  1.01986E+00 -7.60794E-01 -3.20247E+00 -5.47819E+00 -6.75083E+00
  -6.75828E+00 -5.86252E+00 -4.05007E+00 -1.11123E+00  2.53516E+00  5.64221E+00  6.93120E+00  6.15061E+00  3.89076E+00  5.99753E-01
  -3.02528E+00 -5.91888E+00 -7.08369E+00 -6.04428E+00 -3.23387E+00  4.65205E-01  4.20399E+00  7.18248E+00  8.96391E+00  9.56500E+00
   9.58961E+00  9.63279E+00  9.88344E+00  1.04710E+01  1.14280E+01  1.25314E+01  1.33112E+01  1.34792E+01  1.30639E+01  1.22372E+01
   1.11355E+01  1.01582E+01  9.91761E+00  1.07657E+01  1.25290E+01  1.46846E+01  1.68328E+01  1.88061E+01  2.09835E+01  2.34149E+01
   2.56197E+01  2.81665E+01  3.24646E+01  4.16359E+01  5.61831E+01  6.88029E+01  7.77823E+01  8.80224E+01  1.03825E+02  1.22177E+02
   1.34122E+02  1.32475E+02  1.17379E+02  9.44106E+01  7.05854E+01  5.09686E+01  3.70458E+01  2.77523E+01  2.10102E+01  1.67165E+01
   1.54190E+01  1.50823E+01  1.50240E+01  1.51058E+01  1.51977E+01  1.51998E+01  1.51331E+01  1.50225E+01  1.48964E+01  1.47937E+01
   1.47546E+01  1.47838E+01  1.48619E+01  1.49730E+01  1.51146E+01  1.52736E+01  1.54435E+01  1.56393E+01  1.58919E+01  1.62322E+01
   1.66703E+01  1.71972E+01  1.77955E+01  1.84451E+01  1.91289E+01  1.98343E+01  2.05569E+01  2.13002E+01  2.20657E+01  2.28451E+01
   2.36239E+01  2.43790E+01  2.50811E+01  2.57028E+01  2.62230E+01  2.66295E+01  2.69180E+01  2.70897E+01  2.71537E+01  2.71279E+01
   2.70334E+01  2.68959E+01  2.67458E+01  2.66168E+01  2.65430E+01  2.65568E+01  2.66870E+01  2.69575E+01  2.73875E+01  2.79918E+01
   2.87788E+01  2.97071E+01  3.07317E+01  3.18465E+01  3.30284E+01  3.42003E+01  3.52497E+01  3.60908E+01  3.67332E+01  3.72244E+01
   3.75576E+01  3.77184E+01  3.77136E+01  3.75571E+01  3.72333E+01  3.66962E+01  3.59135E+01  3.48943E+01  3.37207E+01  3.25688E+01
   3.16817E+01  3.09957E+01  3.03821E+01  3.01113E+01  3.04004E+01  3.10199E+01  3.13385E+01  3.08695E+01  2.98827E+01  2.87652E+01
   2.75805E+01  2.64158E+01  2.54826E+01  2.48964E+01  2.44153E+01  2.35419E+01  2.19492E+01  1.95566E+01  1.65532E+01  1.33990E+01
   1.05094E+01  8.11495E+00  6.22381E+00  4.73137E+00  3.64582E+00  2.91476E+00  2.40459E+00  2.03180E+00  1.74463E+00  1.51024E+00
   1.30853E+00  1.12794E+00  9.62633E-01  8.10473E-01  6.71556E-01  5.47118E-01  4.38917E-01  3.49059E-01  2.80049E-01  2.34787E-01
   2.16381E-01  2.27952E-01  2.72602E-01  3.53580E-01  4.74433E-01  6.38922E-01  8.50757E-01  1.11332E+00  1.42959E+00  1.80212E+00
   2.23287E+00  2.72286E+00  3.27161E+00  3.87679E+00  4.53406E+00  5.23702E+00  5.97707E+00  6.74318E+00  7.52182E+00  8.29724E+00
   9.05208E+00  9.76809E+00  1.04267E+01  1.10098E+01  1.15002E+01  1.18831E+01  1.21466E+01  1.22827E+01  1.22873E+01  1.21607E+01
   1.19072E+01  1.15352E+01  1.10572E+01  1.04884E+01  9.84659E+00  9.15029E+00  8.41852E+00  7.66991E+00  6.92203E+00  6.19071E+00
   5.48937E+00  4.82881E+00  4.21720E+00  3.66031E+00  3.16165E+00  2.72259E+00  2.34258E+00  2.01951E+00  1.75029E+00  1.53121E+00
   1.35820E+00  1.22687E+00  1.13267E+00  1.07117E+00  1.03829E+00  1.03042E+00  1.04426E+00  1.07676E+00  1.12508E+00  1.18676E+00
   1.25980E+00  1.34253E+00  1.43345E+00  1.53111E+00  1.63419E+00  1.74164E+00  1.85263E+00  1.96650E+00  2.08250E+00  2.19988E+00
   2.31795E+00  2.43624E+00  2.55438E+00  2.67208E+00  2.78910E+00  2.90520E+00  3.02022E+00  3.13419E+00  3.24714E+00  3.35905E+00
   3.46977E+00  3.57916E+00  3.68724E+00  3.79411E+00  3.89987E+00  4.00446E+00  4.10778E+00  4.20978E+00  4.31055E+00  4.41025E+00
   4.50892E+00  4.60653E+00  4.70297E+00  4.79830E+00  4.89268E+00  4.98622E+00  5.07896E+00  5.17080E+00  5.26174E+00  5.35186E+00
   5.44136E+00  5.53032E+00  5.61872E+00  5.70650E+00  5.79369E+00  5.88047E+00  5.96699E+00  6.05331E+00  6.13937E+00  6.22514E+00
   6.31075E+00  6.39638E+00  6.48216E+00  6.56811E+00  6.65417E+00  6.74041E+00  6.82698E+00  6.91411E+00
 NY background values follow
    -5.639E+01   -5.589E+01   -5.538E+01   -5.488E+01   -5.438E+01   -5.388E+01   -5.338E+01   -5.288E+01   -5.239E+01   -5.189E+01
    -5.140E+01   -5.091E+01   -5.042E+01   -4.994E+01   -4.945E+01   -4.897E+01   -4.849E+01   -4.801E+01   -4.753E+01   -4.706E+01
    -4.659E+01   -4.612E+01   -4.565E+01   -4.518E+01   -4.472E+01   -4.426E+01   -4.380E+01   -4.335E+01   -4.290E+01   -4.245E+01
    -4.200E+01   -4.155E+01   -4.111E+01   -4.067E+01   -4.024E+01   -3.981E+01   -3.938E+01   -3.895E+01   -3.853E+01   -3.811E+01
    -3.769E+01   -3.728E+01   -3.687E+01   -3.646E+01   -3.606E+01   -3.566E+01   -3.526E+01   -3.487E+01   -3.448E+01   -3.410E+01
    -3.371E+01   -3.334E+01   -3.296E+01   -3.259E+01   -3.222E+01   -3.186E+01   -3.149E+01   -3.113E+01   -3.078E+01   -3.043E+01
    -3.008E+01   -2.973E+01   -2.939E+01   -2.905E+01   -2.871E+01   -2.837E+01   -2.804E+01   -2.771E+01   -2.738E+01   -2.706E+01
    -2.674E+01   -2.642E+01   -2.610E+01   -2.579E+01   -2.548E+01   -2.517E+01   -2.486E+01   -2.456E+01   -2.425E+01   -2.396E+01
    -2.366E+01   -2.336E+01   -2.307E+01   -2.278E+01   -2.249E+01   -2.220E+01   -2.192E+01   -2.163E+01   -2.135E+01   -2.107E+01
    -2.079E+01   -2.052E+01   -2.024E+01   -1.997E+01   -1.970E+01   -1.943E+01   -1.917E+01   -1.890E+01   -1.864E+01   -1.838E+01
    -1.813E+01   -1.788E+01   -1.763E+01   -1.738E+01   -1.714E+01   -1.690E+01   -1.666E+01   -1.643E+01   -1.620E+01   -1.598E+01
    -1.576E+01   -1.554E+01   -1.533E+01   -1.512E+01   -1.491E+01   -1.472E+01   -1.452E+01   -1.433E+01   -1.415E+01   -1.397E+01
    -1.379E+01   -1.362E+01   -1.346E+01   -1.330E+01   -1.315E+01   -1.300E+01   -1.286E+01   -1.273E+01   -1.260E+01   -1.248E+01
    -1.236E+01   -1.225E+01   -1.215E+01   -1.205E+01   -1.196E+01   -1.188E+01   -1.181E+01   -1.174E+01   -1.168E+01   -1.162E+01
    -1.157E+01   -1.153E+01   -1.149E+01   -1.146E+01   -1.143E+01   -1.141E+01   -1.139E+01   -1.137E+01   -1.136E+01   -1.135E+01
    -1.134E+01   -1.133E+01   -1.133E+01   -1.133E+01   -1.133E+01   -1.133E+01   -1.133E+01   -1.133E+01   -1.133E+01   -1.133E+01
    -1.133E+01   -1.133E+01   -1.132E+01   -1.132E+01   -1.131E+01   -1.130E+01   -1.129E+01   -1.127E+01   -1.125E+01   -1.123E+01
    -1.120E+01   -1.117E+01   -1.113E+01   -1.109E+01   -1.104E+01   -1.099E+01   -1.093E+01   -1.086E+01   -1.079E+01   -1.071E+01
    -1.062E+01   -1.052E+01   -1.042E+01   -1.030E+01   -1.018E+01   -1.005E+01   -9.919E+00   -9.776E+00   -9.626E+00   -9.469E+00
    -9.306E+00   -9.136E+00   -8.960E+00   -8.778E+00   -8.591E+00   -8.397E+00   -8.198E+00   -7.994E+00   -7.785E+00   -7.571E+00
    -7.353E+00   -7.130E+00   -6.902E+00   -6.671E+00   -6.435E+00   -6.196E+00   -5.954E+00   -5.708E+00   -5.459E+00   -5.208E+00
    -4.953E+00   -4.696E+00   -4.437E+00   -4.176E+00   -3.912E+00   -3.648E+00   -3.381E+00   -3.113E+00   -2.844E+00   -2.574E+00
    -2.304E+00   -2.033E+00   -1.761E+00   -1.489E+00   -1.218E+00   -9.463E-01   -6.753E-01   -4.049E-01   -1.353E-01    1.336E-01
     4.017E-01    6.688E-01    9.349E-01    1.200E+00    1.464E+00    1.726E+00    1.988E+00    2.248E+00    2.506E+00    2.763E+00
     3.018E+00    3.272E+00    3.523E+00    3.773E+00    4.021E+00    4.267E+00    4.511E+00    4.752E+00    4.992E+00    5.229E+00
     5.464E+00    5.696E+00    5.925E+00    6.152E+00    6.376E+00    6.598E+00    6.816E+00    7.032E+00    7.245E+00    7.454E+00
     7.660E+00    7.863E+00    8.063E+00    8.259E+00    8.452E+00    8.641E+00    8.827E+00    9.009E+00    9.187E+00    9.361E+00
     9.531E+00    9.697E+00    9.859E+00    1.002E+01    1.017E+01    1.032E+01    1.046E+01    1.060E+01    1.074E+01    1.087E+01
     1.099E+01    1.111E+01    1.123E+01    1.134E+01    1.144E+01    1.154E+01    1.163E+01    1.172E+01    1.180E+01    1.188E+01
     1.195E+01    1.201E+01    1.207E+01    1.212E+01    1.216E+01    1.220E+01    1.223E+01    1.225E+01    1.227E+01    1.228E+01
     1.228E+01    1.228E+01    1.226E+01    1.224E+01    1.222E+01    1.218E+01    1.214E+01    1.209E+01    1.203E+01    1.196E+01
     1.189E+01    1.180E+01    1.171E+01    1.161E+01    1.150E+01    1.138E+01    1.125E+01    1.112E+01    1.097E+01    1.082E+01
     1.066E+01    1.049E+01    1.031E+01    1.013E+01    9.934E+00    9.736E+00    9.532E+00    9.322E+00    9.106E+00    8.885E+00
     8.658E+00    8.427E+00    8.192E+00    7.953E+00    7.710E+00    7.463E+00    7.214E+00    6.961E+00    6.706E+00    6.449E+00
     6.191E+00    5.930E+00    5.669E+00    5.406E+00    5.144E+00    4.880E+00    4.617E+00    4.355E+00    4.093E+00    3.832E+00
     3.572E+00    3.314E+00    3.059E+00    2.805E+00    2.554E+00    2.306E+00    2.061E+00    1.820E+00    1.583E+00    1.350E+00
     1.122E+00    8.981E-01    6.796E-01    4.666E-01    2.588E-01    5.650E-02   -1.404E-01   -3.319E-01   -5.178E-01   -6.983E-01
    -8.732E-01   -1.043E+00   -1.206E+00   -1.365E+00   -1.517E+00   -1.664E+00   -1.805E+00   -1.940E+00   -2.070E+00   -2.194E+00
    -2.312E+00   -2.424E+00   -2.530E+00   -2.630E+00   -2.725E+00   -2.813E+00   -2.896E+00   -2.972E+00   -3.042E+00   -3.107E+00
    -3.165E+00   -3.217E+00   -3.263E+00   -3.302E+00   -3.336E+00   -3.363E+00   -3.384E+00   -3.398E+00   -3.407E+00   -3.409E+00
    -3.404E+00   -3.393E+00   -3.376E+00   -3.352E+00   -3.321E+00   -3.285E+00   -3.241E+00   -3.191E+00   -3.134E+00   -3.071E+00
    -3.002E+00   -2.927E+00   -2.846E+00   -2.760E+00   -2.669E+00   -2.572E+00   -2.470E+00   -2.364E+00   -2.253E+00   -2.138E+00
    -2.019E+00   -1.896E+00   -1.770E+00   -1.639E+00   -1.506E+00   -1.370E+00   -1.230E+00   -1.088E+00   -9.441E-01   -7.975E-01
    -6.489E-01   -4.984E-01   -3.463E-01   -1.928E-01   -3.812E-02    1.176E-01    2.741E-01    4.312E-01    5.887E-01    7.464E-01
     9.040E-01    1.061E+00    1.219E+00    1.375E+00    1.530E+00    1.685E+00    1.838E+00    1.990E+00    2.140E+00    2.288E+00
     2.435E+00    2.579E+00    2.720E+00    2.859E+00    2.995E+00    3.129E+00    3.260E+00    3.389E+00    3.516E+00    3.640E+00
     3.763E+00    3.883E+00    4.001E+00    4.117E+00    4.231E+00    4.343E+00    4.453E+00    4.562E+00    4.668E+00    4.774E+00
     4.877E+00    4.979E+00    5.080E+00    5.179E+00    5.277E+00    5.374E+00    5.469E+00    5.564E+00    5.657E+00    5.749E+00
     5.841E+00    5.931E+00    6.020E+00    6.109E+00    6.197E+00    6.285E+00    6.371E+00    6.458E+00    6.544E+00    6.629E+00
     6.714E+00    6.799E+00    6.883E+00    6.968E+00    7.052E+00    7.137E+00    7.221E+00    7.305E+00
 Ala      Conc. = 5.29E+01
