 LCModel (Version 6.3-1L) Copyright: S.W. Provencher.          Ref.: Magn. Reson. Med. 30:672-679 (1993).                
 Slice#3 Row#13 Col#6  K_02_press_1_raw_act
 36 lines in following concentration table = NCONC+1
    Conc.  %SD /Cr+PCr  Metabolite                                         
    0.000 999%   0.000 Ala                                                 
    0.000 999%   0.000 Asp                                                 
  365.846  14%   1.000 Cr                                                  
    0.000 999%   0.000 PCr                                                 
   44.229 139%   0.121 GABA                                                
    0.000 999%   0.000 Glc                                                 
 4.86E+03  14%  13.288 Gln                                                 
 5.46E+03  14%  14.912 Glu                                                 
  169.042  12%   0.462 GPC                                                 
    0.000 999%   0.000 PCh                                                 
    0.000 999%   0.000 GSH                                                 
 1.32E+03  25%   3.610 Ins                                                 
    0.000 999%   0.000 Lac                                                 
  112.651 132%   0.308 NAA                                                 
  568.614  30%   1.554 NAAG                                                
   35.131  52% 9.6E-02 Scyllo                                              
    0.000 999%   0.000 Tau                                                 
    0.000 999%   0.000 -CrCH2                                              
  169.042  12%   0.462 GPC+PCh                                             
  681.265   9%   1.862 NAA+NAAG                                            
  365.846  14%   1.000 Cr+PCr                                              
 1.03E+04  13%  28.200 Glu+Gln                                             
   25.288 916% 6.9E-02 Lip13a                                              
    0.000 999%   0.000 Lip13b                                              
    7.609 840% 2.1E-02 Lip09                                               
  143.077  73%   0.391 MM09                                                
    4.526 809% 1.2E-02 Lip20                                               
  193.688  95%   0.529 MM20                                                
   42.878 107%   0.117 MM12                                                
  127.788  91%   0.349 MM14                                                
    0.000 999%   0.000 MM17                                                
   25.288 916% 6.9E-02 Lip13a+Lip13b                                       
  195.954 120%   0.536 MM14+Lip13a+Lip13b+MM12                             
  150.686  64%   0.412 MM09+Lip09                                          
  198.214  89%   0.542 MM20+Lip20                                          
   6 lines in following misc. output table
  FWHM = 0.138 ppm    S/N =   3                                            
  Data shift = 0.061 ppm                                                   
  Ph: -24 deg     -16.5 deg/ppm                                            
  alphaB,S = 5.9E-01,   1.9E+02                                            
   14 spline knots.   Ns = 7(2)                                            
  (11) 2 infls.   ( 5) 1 extrs.                                            
  498 points on ppm-axis = NY
      4.000000     3.992357     3.984714     3.977070     3.969427     3.961784     3.954141     3.946497     3.938854     3.931211
      3.923568     3.915925     3.908281     3.900638     3.892995     3.885352     3.877708     3.870065     3.862422     3.854779
      3.847136     3.839492     3.831849     3.824206     3.816563     3.808919     3.801276     3.793633     3.785990     3.778347
      3.770703     3.763060     3.755417     3.747774     3.740130     3.732487     3.724844     3.717201     3.709558     3.701914
      3.694271     3.686628     3.678985     3.671341     3.663698     3.656055     3.648412     3.640769     3.633125     3.625482
      3.617839     3.610196     3.602552     3.594909     3.587266     3.579623     3.571980     3.564336     3.556693     3.549050
      3.541407     3.533763     3.526120     3.518477     3.510834     3.503191     3.495547     3.487904     3.480261     3.472618
      3.464974     3.457331     3.449688     3.442045     3.434402     3.426758     3.419115     3.411472     3.403829     3.396185
      3.388542     3.380899     3.373256     3.365613     3.357969     3.350326     3.342683     3.335040     3.327396     3.319753
      3.312110     3.304467     3.296824     3.289180     3.281537     3.273894     3.266251     3.258607     3.250964     3.243321
      3.235678     3.228034     3.220391     3.212748     3.205105     3.197462     3.189818     3.182175     3.174532     3.166889
      3.159245     3.151602     3.143959     3.136316     3.128673     3.121029     3.113386     3.105743     3.098100     3.090456
      3.082813     3.075170     3.067527     3.059884     3.052240     3.044597     3.036954     3.029311     3.021667     3.014024
      3.006381     2.998738     2.991095     2.983451     2.975808     2.968165     2.960522     2.952878     2.945235     2.937592
      2.929949     2.922306     2.914662     2.907019     2.899376     2.891733     2.884089     2.876446     2.868803     2.861160
      2.853517     2.845873     2.838230     2.830587     2.822944     2.815300     2.807657     2.800014     2.792371     2.784728
      2.777084     2.769441     2.761798     2.754155     2.746511     2.738868     2.731225     2.723582     2.715939     2.708295
      2.700652     2.693009     2.685366     2.677722     2.670079     2.662436     2.654793     2.647150     2.639506     2.631863
      2.624220     2.616577     2.608933     2.601290     2.593647     2.586004     2.578361     2.570717     2.563074     2.555431
      2.547788     2.540144     2.532501     2.524858     2.517215     2.509572     2.501928     2.494285     2.486642     2.478999
      2.471355     2.463712     2.456069     2.448426     2.440783     2.433139     2.425496     2.417853     2.410210     2.402566
      2.394923     2.387280     2.379637     2.371994     2.364350     2.356707     2.349064     2.341421     2.333777     2.326134
      2.318491     2.310848     2.303205     2.295561     2.287918     2.280275     2.272632     2.264988     2.257345     2.249702
      2.242059     2.234416     2.226772     2.219129     2.211486     2.203843     2.196199     2.188556     2.180913     2.173270
      2.165627     2.157983     2.150340     2.142697     2.135054     2.127410     2.119767     2.112124     2.104481     2.096838
      2.089194     2.081551     2.073908     2.066265     2.058621     2.050978     2.043335     2.035692     2.028049     2.020405
      2.012762     2.005119     1.997476     1.989833     1.982190     1.974546     1.966903     1.959260     1.951617     1.943974
      1.936331     1.928688     1.921045     1.913402     1.905759     1.898115     1.890472     1.882829     1.875186     1.867543
      1.859900     1.852257     1.844614     1.836971     1.829327     1.821684     1.814041     1.806398     1.798755     1.791112
      1.783469     1.775826     1.768183     1.760540     1.752896     1.745253     1.737610     1.729967     1.722324     1.714681
      1.707038     1.699395     1.691752     1.684108     1.676465     1.668822     1.661179     1.653536     1.645893     1.638250
      1.630607     1.622964     1.615321     1.607677     1.600034     1.592391     1.584748     1.577105     1.569462     1.561819
      1.554176     1.546533     1.538890     1.531246     1.523603     1.515960     1.508317     1.500674     1.493031     1.485388
      1.477745     1.470102     1.462458     1.454815     1.447172     1.439529     1.431886     1.424243     1.416600     1.408957
      1.401314     1.393671     1.386027     1.378384     1.370741     1.363098     1.355455     1.347812     1.340169     1.332526
      1.324883     1.317240     1.309596     1.301953     1.294310     1.286667     1.279024     1.271381     1.263738     1.256095
      1.248452     1.240808     1.233165     1.225522     1.217879     1.210236     1.202593     1.194950     1.187307     1.179664
      1.172021     1.164377     1.156734     1.149091     1.141448     1.133805     1.126162     1.118519     1.110876     1.103233
      1.095590     1.087946     1.080303     1.072660     1.065017     1.057374     1.049731     1.042088     1.034445     1.026802
      1.019158     1.011515     1.003872     0.996229     0.988586     0.980943     0.973300     0.965657     0.958014     0.950371
      0.942727     0.935084     0.927441     0.919798     0.912155     0.904512     0.896869     0.889226     0.881583     0.873940
      0.866296     0.858653     0.851010     0.843367     0.835724     0.828081     0.820438     0.812795     0.805152     0.797508
      0.789865     0.782222     0.774579     0.766936     0.759293     0.751650     0.744007     0.736364     0.728721     0.721077
      0.713434     0.705791     0.698148     0.690505     0.682862     0.675219     0.667576     0.659933     0.652290     0.644646
      0.637003     0.629360     0.621717     0.614074     0.606431     0.598788     0.591145     0.583502     0.575858     0.568215
      0.560572     0.552929     0.545286     0.537643     0.530000     0.522357     0.514714     0.507071     0.499427     0.491784
      0.484141     0.476498     0.468855     0.461212     0.453569     0.445925     0.438282     0.430639     0.422996     0.415353
      0.407710     0.400067     0.392424     0.384780     0.377137     0.369494     0.361851     0.354208     0.346565     0.338922
      0.331278     0.323635     0.315992     0.308349     0.300706     0.293063     0.285420     0.277777     0.270133     0.262490
      0.254847     0.247204     0.239561     0.231918     0.224275     0.216631     0.208988     0.201345
 NY phased data points follow
  -2.64282E+02 -2.60589E+02 -2.57525E+02 -2.53301E+02 -2.45075E+02 -2.44890E+02 -2.38441E+02 -2.35320E+02 -2.29101E+02 -2.28302E+02
  -2.26840E+02 -2.21667E+02 -2.21844E+02 -2.18783E+02 -2.13796E+02 -2.11017E+02 -2.10956E+02 -2.07072E+02 -2.03239E+02 -2.02763E+02
  -1.97590E+02 -1.97881E+02 -1.95809E+02 -1.91979E+02 -1.91652E+02 -1.86371E+02 -1.85640E+02 -1.82198E+02 -1.81404E+02 -1.76291E+02
  -1.73569E+02 -1.69922E+02 -1.68942E+02 -1.64625E+02 -1.63216E+02 -1.58107E+02 -1.58653E+02 -1.54743E+02 -1.53262E+02 -1.50879E+02
  -1.47734E+02 -1.47477E+02 -1.42288E+02 -1.40764E+02 -1.38610E+02 -1.39444E+02 -1.34386E+02 -1.34015E+02 -1.32094E+02 -1.29433E+02
  -1.28381E+02 -1.25929E+02 -1.26876E+02 -1.23900E+02 -1.24389E+02 -1.22555E+02 -1.20171E+02 -1.17750E+02 -1.17538E+02 -1.16943E+02
  -1.14827E+02 -1.15304E+02 -1.14525E+02 -1.12435E+02 -1.11245E+02 -1.12050E+02 -1.10058E+02 -1.10115E+02 -1.09207E+02 -1.06020E+02
  -1.05905E+02 -1.04837E+02 -1.03310E+02 -9.95962E+01 -1.01446E+02 -9.70056E+01 -9.93107E+01 -9.61613E+01 -9.51501E+01 -9.43838E+01
  -9.29851E+01 -9.35556E+01 -8.94900E+01 -9.21815E+01 -8.72932E+01 -8.99396E+01 -8.65071E+01 -8.48446E+01 -8.27681E+01 -8.40765E+01
  -8.19899E+01 -8.30817E+01 -7.88662E+01 -7.79605E+01 -7.69656E+01 -7.43541E+01 -7.57202E+01 -7.47476E+01 -7.22727E+01 -6.76762E+01
  -6.82029E+01 -6.74811E+01 -6.75833E+01 -6.62808E+01 -6.45511E+01 -6.41130E+01 -6.15784E+01 -6.35775E+01 -6.53359E+01 -6.17453E+01
  -6.06371E+01 -6.07570E+01 -6.05805E+01 -6.16013E+01 -6.24092E+01 -5.81492E+01 -5.99457E+01 -5.53999E+01 -5.56621E+01 -5.74156E+01
  -5.58452E+01 -5.44236E+01 -5.37257E+01 -4.99555E+01 -5.10882E+01 -4.92525E+01 -4.68402E+01 -4.70091E+01 -4.85141E+01 -4.76012E+01
  -4.31486E+01 -4.59927E+01 -4.84274E+01 -4.49314E+01 -4.51339E+01 -4.32335E+01 -4.32858E+01 -4.36802E+01 -4.25164E+01 -4.42113E+01
  -4.40405E+01 -4.55158E+01 -4.43516E+01 -4.50492E+01 -4.12682E+01 -3.88770E+01 -4.63430E+01 -3.83290E+01 -4.16696E+01 -3.80481E+01
  -3.90995E+01 -3.92648E+01 -3.83486E+01 -3.85285E+01 -3.59659E+01 -3.46285E+01 -3.41692E+01 -3.46925E+01 -3.56609E+01 -3.39931E+01
  -3.56284E+01 -3.15056E+01 -3.26572E+01 -3.23525E+01 -2.99277E+01 -3.22824E+01 -2.98893E+01 -3.00851E+01 -3.12039E+01 -3.17769E+01
  -2.95599E+01 -3.01666E+01 -3.25183E+01 -3.04975E+01 -3.07832E+01 -3.20744E+01 -3.21753E+01 -3.00278E+01 -2.84984E+01 -2.95779E+01
  -3.22441E+01 -2.93302E+01 -2.85921E+01 -2.65939E+01 -3.04274E+01 -2.67470E+01 -2.73150E+01 -2.75906E+01 -2.65914E+01 -2.49348E+01
  -2.48338E+01 -2.28485E+01 -2.37745E+01 -2.22868E+01 -2.21506E+01 -2.32163E+01 -1.98882E+01 -1.91917E+01 -2.37953E+01 -2.18806E+01
  -1.87408E+01 -1.99838E+01 -1.94469E+01 -2.30882E+01 -1.75318E+01 -2.05048E+01 -1.65184E+01 -1.92776E+01 -1.75245E+01 -1.69100E+01
  -1.59503E+01 -1.51404E+01 -1.66287E+01 -1.64510E+01 -1.57839E+01 -1.60560E+01 -1.43571E+01 -1.28315E+01 -1.23362E+01 -1.46108E+01
  -1.28699E+01 -1.53380E+01 -1.32624E+01 -1.42794E+01 -1.06767E+01 -9.80593E+00 -1.24546E+01 -1.01640E+01 -8.28991E+00 -1.22108E+01
  -1.12881E+01 -1.00094E+01 -7.29797E+00 -1.08881E+01 -8.84929E+00 -9.89688E+00 -7.88461E+00 -6.63209E+00 -8.79583E+00 -4.49436E+00
  -9.96972E+00 -8.97324E+00 -5.89749E+00 -6.12489E+00 -7.11530E+00 -7.50154E+00 -5.14090E+00 -4.17158E+00 -2.83587E+00 -2.48960E+00
  -3.13302E+00  1.23350E+00  3.16074E+00  2.52809E+00  1.88239E+00  9.73083E-01  5.18850E+00  6.90739E+00  5.80934E+00  9.81786E+00
   9.24047E+00  6.24630E+00  9.35004E+00  5.18113E+00  4.61950E+00  4.64012E+00  3.88834E+00  3.28676E+00  3.26612E+00  7.51728E-01
   1.10058E+00  2.30281E+00  2.10493E+00  2.47217E+00  1.20845E+00  2.61228E+00 -1.16419E-01  6.01284E-01  5.10826E+00  4.86315E+00
   3.34373E+00  1.21190E+00  2.42449E+00  1.70147E+00  2.18548E+00  4.70995E+00  3.17107E+00  2.91287E+00  1.86170E+00  3.03821E-01
   2.21271E+00  1.33385E+00  1.60047E+00  1.56813E+00  3.35789E+00  6.99538E+00  2.21109E+00  4.28662E+00  1.88498E+00  2.48026E-01
   5.61689E+00  3.00300E+00  1.47372E+00  3.88725E+00  4.28069E+00  2.59670E+00  4.08393E+00  5.25566E+00  2.27220E+00  4.71761E+00
   5.55364E+00  4.32028E+00  6.22703E+00  6.52106E+00  6.38470E+00  4.74597E+00  4.61798E+00  5.31744E+00  4.41727E+00  4.69051E+00
   6.13573E+00  5.74087E+00  4.20129E+00  8.25326E+00  7.64080E+00  7.92667E+00  8.28514E+00  9.10438E+00  8.38647E+00  8.03694E+00
   9.83370E+00  7.44736E+00  9.15851E+00  9.30066E+00  6.14307E+00  6.81570E+00  7.43695E+00  1.10515E+01  6.32455E+00  6.69691E+00
   6.90025E+00  9.98220E+00  9.86234E+00  8.65384E+00  1.06490E+01  9.15635E+00  1.19811E+01  8.78584E+00  1.25405E+01  1.03507E+01
   9.86538E+00  1.22268E+01  9.87562E+00  9.61463E+00  1.06908E+01  1.02690E+01  1.00146E+01  9.44145E+00  9.56941E+00  8.97642E+00
   1.10176E+01  1.18886E+01  1.14356E+01  1.17768E+01  1.06414E+01  1.39312E+01  1.04607E+01  1.13318E+01  1.15183E+01  9.37437E+00
   1.19101E+01  1.40850E+01  1.22097E+01  1.20335E+01  1.17381E+01  1.14247E+01  1.14254E+01  1.21789E+01  1.34056E+01  1.32982E+01
   1.49121E+01  1.38888E+01  1.06571E+01  1.63629E+01  1.30921E+01  1.27508E+01  1.38759E+01  1.36948E+01  1.47245E+01  1.34630E+01
   1.38896E+01  1.19512E+01  1.20348E+01  1.08835E+01  1.13011E+01  1.12570E+01  1.13432E+01  1.25094E+01  1.48047E+01  1.49412E+01
   1.49054E+01  1.50297E+01  1.42078E+01  1.12255E+01  1.23550E+01  1.38323E+01  1.37656E+01  1.53960E+01  1.71207E+01  1.78166E+01
   1.56019E+01  1.56875E+01  1.70046E+01  1.45836E+01  1.69775E+01  1.47185E+01  1.49420E+01  1.62853E+01  1.41166E+01  1.50410E+01
   1.22749E+01  1.24689E+01  1.52121E+01  1.62101E+01  1.40982E+01  1.48785E+01  1.52734E+01  1.69892E+01  1.79981E+01  1.42696E+01
   1.50592E+01  1.36841E+01  1.25933E+01  1.38181E+01  1.33987E+01  1.60311E+01  1.30943E+01  1.27701E+01  1.24674E+01  1.34719E+01
   1.25275E+01  1.54947E+01  1.25360E+01  1.30875E+01  1.53382E+01  1.66871E+01  1.42194E+01  1.52458E+01  1.62013E+01  1.42232E+01
   1.58755E+01  1.53584E+01  1.43305E+01  1.60657E+01  1.99825E+01  1.84257E+01  1.60946E+01  1.54649E+01  1.78578E+01  1.73450E+01
   1.73038E+01  1.84037E+01  1.61560E+01  1.87545E+01  1.48637E+01  1.34371E+01  1.42777E+01  1.74830E+01  1.71568E+01  1.83408E+01
   1.47331E+01  1.49777E+01  1.60326E+01  1.59829E+01  1.71613E+01  1.69534E+01  1.51939E+01  1.57700E+01  1.49660E+01  1.75803E+01
   1.57594E+01  1.63448E+01  1.46913E+01  1.53058E+01  1.52360E+01  1.66990E+01  1.46475E+01  1.51536E+01  1.62186E+01  1.57409E+01
   1.71710E+01  1.69870E+01  1.76937E+01  1.56934E+01  1.55088E+01  1.69159E+01  1.84087E+01  1.92398E+01
 NY points of the fit to the data follow
  -2.58218E+02 -2.55260E+02 -2.52313E+02 -2.49342E+02 -2.46314E+02 -2.43338E+02 -2.40219E+02 -2.37235E+02 -2.33983E+02 -2.31010E+02
  -2.27570E+02 -2.24502E+02 -2.21143E+02 -2.18337E+02 -2.15431E+02 -2.12930E+02 -2.10461E+02 -2.07956E+02 -2.05176E+02 -2.02314E+02
  -1.99450E+02 -1.96504E+02 -1.93887E+02 -1.91101E+02 -1.88926E+02 -1.86120E+02 -1.83945E+02 -1.80982E+02 -1.78757E+02 -1.75659E+02
  -1.73456E+02 -1.70476E+02 -1.68296E+02 -1.65298E+02 -1.63081E+02 -1.60244E+02 -1.58158E+02 -1.55553E+02 -1.53538E+02 -1.51099E+02
  -1.48978E+02 -1.46555E+02 -1.44279E+02 -1.42012E+02 -1.39966E+02 -1.38157E+02 -1.36630E+02 -1.35097E+02 -1.33652E+02 -1.32059E+02
  -1.30241E+02 -1.28553E+02 -1.26853E+02 -1.25406E+02 -1.24114E+02 -1.22888E+02 -1.21893E+02 -1.20606E+02 -1.19497E+02 -1.18148E+02
  -1.17019E+02 -1.15659E+02 -1.14508E+02 -1.13102E+02 -1.11854E+02 -1.10340E+02 -1.09043E+02 -1.07592E+02 -1.06348E+02 -1.04988E+02
  -1.03791E+02 -1.02512E+02 -1.01329E+02 -1.00192E+02 -9.90616E+01 -9.80566E+01 -9.69471E+01 -9.59973E+01 -9.48892E+01 -9.39976E+01
  -9.29036E+01 -9.21026E+01 -9.10109E+01 -9.03077E+01 -8.92295E+01 -8.85833E+01 -8.74958E+01 -8.68338E+01 -8.55708E+01 -8.44312E+01
  -8.31083E+01 -8.16977E+01 -8.04207E+01 -7.87536E+01 -7.75815E+01 -7.56822E+01 -7.46852E+01 -7.26194E+01 -7.18466E+01 -6.97010E+01
  -6.91970E+01 -6.71077E+01 -6.68648E+01 -6.49834E+01 -6.49482E+01 -6.33826E+01 -6.35419E+01 -6.23514E+01 -6.25735E+01 -6.16893E+01
  -6.18424E+01 -6.11197E+01 -6.10530E+01 -6.01365E+01 -5.98048E+01 -5.88904E+01 -5.83747E+01 -5.74701E+01 -5.67321E+01 -5.56854E+01
  -5.47076E+01 -5.33713E+01 -5.23616E+01 -5.10933E+01 -5.01560E+01 -4.90719E+01 -4.82565E+01 -4.74345E+01 -4.67589E+01 -4.61906E+01
  -4.56540E+01 -4.53477E+01 -4.49305E+01 -4.48054E+01 -4.44583E+01 -4.43966E+01 -4.40783E+01 -4.40295E+01 -4.37189E+01 -4.36549E+01
  -4.33513E+01 -4.32695E+01 -4.29292E+01 -4.27039E+01 -4.22589E+01 -4.17608E+01 -4.12603E+01 -4.07637E+01 -4.02749E+01 -3.97905E+01
  -3.93195E+01 -3.88491E+01 -3.84001E+01 -3.79476E+01 -3.75206E+01 -3.70894E+01 -3.66994E+01 -3.62764E+01 -3.58994E+01 -3.54815E+01
  -3.51165E+01 -3.47165E+01 -3.43755E+01 -3.39827E+01 -3.36507E+01 -3.32612E+01 -3.29316E+01 -3.25467E+01 -3.22212E+01 -3.18434E+01
  -3.14939E+01 -3.11165E+01 -3.07491E+01 -3.03724E+01 -2.99574E+01 -2.95742E+01 -2.91106E+01 -2.87170E+01 -2.82100E+01 -2.78460E+01
  -2.74169E+01 -2.71033E+01 -2.68667E+01 -2.66715E+01 -2.65860E+01 -2.64597E+01 -2.64483E+01 -2.61453E+01 -2.59307E+01 -2.53736E+01
  -2.49888E+01 -2.40254E+01 -2.34690E+01 -2.24138E+01 -2.18989E+01 -2.11781E+01 -2.15283E+01 -2.08632E+01 -2.14426E+01 -2.06918E+01
  -2.13231E+01 -2.02089E+01 -2.03116E+01 -1.92724E+01 -1.91614E+01 -1.84493E+01 -1.81358E+01 -1.80020E+01 -1.77115E+01 -1.81916E+01
  -1.72379E+01 -1.79548E+01 -1.65544E+01 -1.74221E+01 -1.57279E+01 -1.68079E+01 -1.50792E+01 -1.62755E+01 -1.47057E+01 -1.56320E+01
  -1.41090E+01 -1.45577E+01 -1.34598E+01 -1.31316E+01 -1.21943E+01 -1.13884E+01 -1.09533E+01 -9.77262E+00 -1.03208E+01 -9.14721E+00
  -9.77057E+00 -8.51655E+00 -8.89679E+00 -7.70481E+00 -7.40964E+00 -6.89735E+00 -6.42068E+00 -6.80481E+00 -6.27158E+00 -7.59361E+00
  -6.93332E+00 -8.65305E+00 -6.91433E+00 -8.61162E+00 -6.36557E+00 -7.93489E+00 -5.08037E+00 -6.22102E+00 -3.03398E+00 -3.76330E+00
  -4.53171E-01 -9.78130E-01  2.06626E+00  1.63081E+00  4.00968E+00  3.74063E+00  5.59341E+00  5.56576E+00  6.74919E+00  6.80055E+00
   7.21960E+00  6.95387E+00  6.82246E+00  6.47197E+00  5.90925E+00  5.49786E+00  4.68662E+00  4.24676E+00  3.29138E+00  2.99908E+00
   2.12178E+00  2.11172E+00  1.53252E+00  1.75111E+00  1.55124E+00  1.70685E+00  1.53249E+00  1.60112E+00  1.59803E+00  1.69442E+00
   1.78186E+00  1.85045E+00  2.02388E+00  2.02976E+00  2.20980E+00  2.20735E+00  2.37176E+00  2.34542E+00  2.47687E+00  2.44373E+00
   2.55738E+00  2.56517E+00  2.70444E+00  2.75033E+00  2.89445E+00  2.96071E+00  3.09722E+00  3.17650E+00  3.29794E+00  3.38330E+00
   3.50345E+00  3.60297E+00  3.72720E+00  3.83734E+00  3.96467E+00  4.08314E+00  4.20911E+00  4.33186E+00  4.45876E+00  4.58506E+00
   4.71703E+00  4.84961E+00  4.98542E+00  5.12344E+00  5.26266E+00  5.40463E+00  5.54681E+00  5.69057E+00  5.83666E+00  5.98463E+00
   6.13489E+00  6.28762E+00  6.44178E+00  6.59778E+00  6.75469E+00  6.91249E+00  7.07039E+00  7.22817E+00  7.38517E+00  7.54095E+00
   7.69502E+00  7.84687E+00  7.99606E+00  8.14220E+00  8.28498E+00  8.42414E+00  8.55953E+00  8.69105E+00  8.81873E+00  8.94264E+00
   9.06296E+00  9.17988E+00  9.29371E+00  9.40476E+00  9.51335E+00  9.61982E+00  9.72449E+00  9.82766E+00  9.92959E+00  1.00305E+01
   1.01305E+01  1.02297E+01  1.03281E+01  1.04258E+01  1.05225E+01  1.06183E+01  1.07129E+01  1.08061E+01  1.08977E+01  1.09876E+01
   1.10754E+01  1.11610E+01  1.12442E+01  1.13249E+01  1.14031E+01  1.14787E+01  1.15520E+01  1.16229E+01  1.16916E+01  1.17582E+01
   1.18230E+01  1.18862E+01  1.19480E+01  1.20087E+01  1.20685E+01  1.21277E+01  1.21866E+01  1.22455E+01  1.23047E+01  1.23645E+01
   1.24253E+01  1.24872E+01  1.25507E+01  1.26162E+01  1.26839E+01  1.27542E+01  1.28274E+01  1.29039E+01  1.29839E+01  1.30678E+01
   1.31555E+01  1.32472E+01  1.33428E+01  1.34419E+01  1.35443E+01  1.36492E+01  1.37558E+01  1.38631E+01  1.39699E+01  1.40749E+01
   1.41766E+01  1.42735E+01  1.43642E+01  1.44473E+01  1.45217E+01  1.45864E+01  1.46408E+01  1.46845E+01  1.47177E+01  1.47406E+01
   1.47539E+01  1.47585E+01  1.47558E+01  1.47470E+01  1.47337E+01  1.47175E+01  1.46996E+01  1.46817E+01  1.46648E+01  1.46500E+01
   1.46382E+01  1.46301E+01  1.46259E+01  1.46261E+01  1.46306E+01  1.46393E+01  1.46522E+01  1.46688E+01  1.46890E+01  1.47124E+01
   1.47385E+01  1.47671E+01  1.47978E+01  1.48303E+01  1.48642E+01  1.48993E+01  1.49354E+01  1.49722E+01  1.50096E+01  1.50474E+01
   1.50854E+01  1.51236E+01  1.51618E+01  1.51999E+01  1.52378E+01  1.52755E+01  1.53128E+01  1.53498E+01  1.53864E+01  1.54225E+01
   1.54580E+01  1.54930E+01  1.55273E+01  1.55610E+01  1.55941E+01  1.56266E+01  1.56585E+01  1.56898E+01  1.57206E+01  1.57509E+01
   1.57807E+01  1.58101E+01  1.58390E+01  1.58676E+01  1.58958E+01  1.59236E+01  1.59511E+01  1.59784E+01  1.60054E+01  1.60323E+01
   1.60589E+01  1.60854E+01  1.61118E+01  1.61381E+01  1.61644E+01  1.61906E+01  1.62169E+01  1.62432E+01  1.62697E+01  1.62962E+01
   1.63229E+01  1.63498E+01  1.63770E+01  1.64044E+01  1.64321E+01  1.64602E+01  1.64887E+01  1.65176E+01  1.65470E+01  1.65769E+01
   1.66074E+01  1.66386E+01  1.66704E+01  1.67029E+01  1.67363E+01  1.67705E+01  1.68056E+01  1.68419E+01
 NY background values follow
    -2.635E+02   -2.606E+02   -2.577E+02   -2.549E+02   -2.520E+02   -2.492E+02   -2.463E+02   -2.435E+02   -2.407E+02   -2.378E+02
    -2.350E+02   -2.322E+02   -2.294E+02   -2.266E+02   -2.239E+02   -2.211E+02   -2.184E+02   -2.156E+02   -2.129E+02   -2.102E+02
    -2.075E+02   -2.049E+02   -2.022E+02   -1.996E+02   -1.970E+02   -1.944E+02   -1.918E+02   -1.892E+02   -1.867E+02   -1.842E+02
    -1.817E+02   -1.793E+02   -1.768E+02   -1.744E+02   -1.721E+02   -1.697E+02   -1.674E+02   -1.651E+02   -1.628E+02   -1.606E+02
    -1.584E+02   -1.562E+02   -1.541E+02   -1.520E+02   -1.499E+02   -1.479E+02   -1.458E+02   -1.439E+02   -1.420E+02   -1.401E+02
    -1.382E+02   -1.364E+02   -1.346E+02   -1.328E+02   -1.311E+02   -1.294E+02   -1.277E+02   -1.260E+02   -1.244E+02   -1.228E+02
    -1.213E+02   -1.197E+02   -1.182E+02   -1.167E+02   -1.153E+02   -1.139E+02   -1.124E+02   -1.111E+02   -1.097E+02   -1.083E+02
    -1.070E+02   -1.057E+02   -1.044E+02   -1.032E+02   -1.019E+02   -1.007E+02   -9.951E+01   -9.832E+01   -9.714E+01   -9.598E+01
    -9.484E+01   -9.371E+01   -9.260E+01   -9.149E+01   -9.040E+01   -8.933E+01   -8.826E+01   -8.721E+01   -8.616E+01   -8.513E+01
    -8.410E+01   -8.308E+01   -8.207E+01   -8.107E+01   -8.007E+01   -7.909E+01   -7.811E+01   -7.714E+01   -7.618E+01   -7.523E+01
    -7.428E+01   -7.335E+01   -7.242E+01   -7.150E+01   -7.059E+01   -6.968E+01   -6.879E+01   -6.790E+01   -6.702E+01   -6.615E+01
    -6.529E+01   -6.444E+01   -6.360E+01   -6.276E+01   -6.193E+01   -6.112E+01   -6.031E+01   -5.950E+01   -5.871E+01   -5.793E+01
    -5.715E+01   -5.639E+01   -5.563E+01   -5.488E+01   -5.414E+01   -5.341E+01   -5.269E+01   -5.197E+01   -5.127E+01   -5.057E+01
    -4.988E+01   -4.921E+01   -4.854E+01   -4.788E+01   -4.722E+01   -4.658E+01   -4.595E+01   -4.532E+01   -4.471E+01   -4.410E+01
    -4.350E+01   -4.292E+01   -4.233E+01   -4.176E+01   -4.120E+01   -4.064E+01   -4.009E+01   -3.955E+01   -3.902E+01   -3.849E+01
    -3.797E+01   -3.746E+01   -3.696E+01   -3.646E+01   -3.597E+01   -3.549E+01   -3.501E+01   -3.454E+01   -3.407E+01   -3.362E+01
    -3.317E+01   -3.272E+01   -3.228E+01   -3.185E+01   -3.142E+01   -3.100E+01   -3.058E+01   -3.017E+01   -2.976E+01   -2.936E+01
    -2.896E+01   -2.857E+01   -2.818E+01   -2.780E+01   -2.742E+01   -2.705E+01   -2.668E+01   -2.631E+01   -2.595E+01   -2.559E+01
    -2.524E+01   -2.489E+01   -2.454E+01   -2.420E+01   -2.386E+01   -2.352E+01   -2.319E+01   -2.286E+01   -2.253E+01   -2.221E+01
    -2.189E+01   -2.157E+01   -2.125E+01   -2.094E+01   -2.063E+01   -2.033E+01   -2.002E+01   -1.972E+01   -1.942E+01   -1.913E+01
    -1.884E+01   -1.855E+01   -1.826E+01   -1.797E+01   -1.769E+01   -1.741E+01   -1.713E+01   -1.686E+01   -1.659E+01   -1.632E+01
    -1.605E+01   -1.578E+01   -1.552E+01   -1.525E+01   -1.499E+01   -1.474E+01   -1.448E+01   -1.422E+01   -1.397E+01   -1.372E+01
    -1.347E+01   -1.322E+01   -1.298E+01   -1.273E+01   -1.249E+01   -1.225E+01   -1.201E+01   -1.177E+01   -1.154E+01   -1.130E+01
    -1.107E+01   -1.083E+01   -1.060E+01   -1.037E+01   -1.014E+01   -9.918E+00   -9.692E+00   -9.468E+00   -9.246E+00   -9.024E+00
    -8.805E+00   -8.587E+00   -8.370E+00   -8.154E+00   -7.941E+00   -7.728E+00   -7.517E+00   -7.308E+00   -7.100E+00   -6.893E+00
    -6.688E+00   -6.484E+00   -6.282E+00   -6.082E+00   -5.882E+00   -5.685E+00   -5.489E+00   -5.294E+00   -5.101E+00   -4.909E+00
    -4.718E+00   -4.530E+00   -4.342E+00   -4.157E+00   -3.972E+00   -3.789E+00   -3.608E+00   -3.428E+00   -3.250E+00   -3.073E+00
    -2.898E+00   -2.724E+00   -2.552E+00   -2.381E+00   -2.212E+00   -2.044E+00   -1.878E+00   -1.712E+00   -1.548E+00   -1.386E+00
    -1.224E+00   -1.064E+00   -9.044E-01   -7.461E-01   -5.890E-01   -4.328E-01   -2.775E-01   -1.232E-01    3.025E-02    1.829E-01
     3.347E-01    4.858E-01    6.363E-01    7.860E-01    9.351E-01    1.084E+00    1.232E+00    1.379E+00    1.526E+00    1.673E+00
     1.819E+00    1.965E+00    2.111E+00    2.256E+00    2.401E+00    2.546E+00    2.691E+00    2.836E+00    2.980E+00    3.125E+00
     3.270E+00    3.415E+00    3.559E+00    3.705E+00    3.850E+00    3.995E+00    4.141E+00    4.287E+00    4.433E+00    4.580E+00
     4.727E+00    4.874E+00    5.021E+00    5.167E+00    5.314E+00    5.461E+00    5.607E+00    5.753E+00    5.899E+00    6.045E+00
     6.190E+00    6.334E+00    6.478E+00    6.622E+00    6.764E+00    6.906E+00    7.047E+00    7.187E+00    7.327E+00    7.465E+00
     7.602E+00    7.738E+00    7.873E+00    8.007E+00    8.139E+00    8.270E+00    8.400E+00    8.528E+00    8.655E+00    8.780E+00
     8.903E+00    9.025E+00    9.145E+00    9.263E+00    9.379E+00    9.493E+00    9.605E+00    9.715E+00    9.823E+00    9.928E+00
     1.003E+01    1.013E+01    1.023E+01    1.033E+01    1.042E+01    1.051E+01    1.060E+01    1.069E+01    1.078E+01    1.086E+01
     1.094E+01    1.102E+01    1.110E+01    1.117E+01    1.125E+01    1.132E+01    1.139E+01    1.146E+01    1.153E+01    1.159E+01
     1.166E+01    1.172E+01    1.178E+01    1.184E+01    1.190E+01    1.196E+01    1.202E+01    1.208E+01    1.213E+01    1.219E+01
     1.224E+01    1.230E+01    1.235E+01    1.240E+01    1.245E+01    1.251E+01    1.256E+01    1.261E+01    1.266E+01    1.271E+01
     1.276E+01    1.281E+01    1.286E+01    1.291E+01    1.296E+01    1.301E+01    1.306E+01    1.311E+01    1.316E+01    1.321E+01
     1.326E+01    1.331E+01    1.336E+01    1.342E+01    1.347E+01    1.352E+01    1.357E+01    1.362E+01    1.367E+01    1.373E+01
     1.378E+01    1.383E+01    1.388E+01    1.393E+01    1.399E+01    1.404E+01    1.409E+01    1.414E+01    1.419E+01    1.424E+01
     1.429E+01    1.434E+01    1.439E+01    1.444E+01    1.449E+01    1.454E+01    1.459E+01    1.464E+01    1.468E+01    1.473E+01
     1.478E+01    1.482E+01    1.487E+01    1.491E+01    1.496E+01    1.500E+01    1.504E+01    1.508E+01    1.513E+01    1.517E+01
     1.521E+01    1.525E+01    1.528E+01    1.532E+01    1.536E+01    1.539E+01    1.543E+01    1.546E+01    1.550E+01    1.553E+01
     1.556E+01    1.560E+01    1.563E+01    1.566E+01    1.569E+01    1.572E+01    1.575E+01    1.578E+01    1.581E+01    1.584E+01
     1.587E+01    1.590E+01    1.592E+01    1.595E+01    1.598E+01    1.601E+01    1.604E+01    1.606E+01    1.609E+01    1.612E+01
     1.615E+01    1.618E+01    1.620E+01    1.623E+01    1.626E+01    1.629E+01    1.632E+01    1.635E+01    1.638E+01    1.641E+01
     1.644E+01    1.647E+01    1.650E+01    1.653E+01    1.657E+01    1.660E+01    1.663E+01    1.667E+01
 Cr       Conc. = 3.66E+02
