 LCModel (Version 6.3-1L) Copyright: S.W. Provencher.          Ref.: Magn. Reson. Med. 30:672-679 (1993).                
 Slice#3 Row#11 Col#1  K_02_press_1_raw_act
 36 lines in following concentration table = NCONC+1
    Conc.  %SD /Cr+PCr  Metabolite                                         
  715.216  46%   0.000 Ala                                                 
   10.334 178%   0.000 Asp                                                 
    0.000 999%   0.000 Cr                                                  
    0.000 999%   0.000 PCr                                                 
    8.109 137%   0.000 GABA                                                
    7.624 145%   0.000 Glc                                                 
 3.62E+03   9%   0.000 Gln                                                 
 4.21E+03   9%   0.000 Glu                                                 
   60.831  23%   0.000 GPC                                                 
    0.000 999%   0.000 PCh                                                 
    0.000 999%   0.000 GSH                                                 
 1.37E+03  11%   0.000 Ins                                                 
  129.208 250%   0.000 Lac                                                 
    0.000 999%   0.000 NAA                                                 
   74.119  78%   0.000 NAAG                                                
    4.181  86%   0.000 Scyllo                                              
   11.973 152%   0.000 Tau                                                 
    0.000 999%   0.000 -CrCH2                                              
   60.831  23%   0.000 GPC+PCh                                             
   74.119  78%   0.000 NAA+NAAG                                            
    0.000 999%   0.000 Cr+PCr                                              
 7.84E+03   7%   0.000 Glu+Gln                                             
   75.999 209%   0.000 Lip13a                                              
    0.000 999%   0.000 Lip13b                                              
    7.352 912%   0.000 Lip09                                               
  358.082  22%   0.000 MM09                                                
   26.905 179%   0.000 Lip20                                               
  507.103  29%   0.000 MM20                                                
  126.608  35%   0.000 MM12                                                
   11.561 999%   0.000 MM14                                                
  309.341  24%   0.000 MM17                                                
   75.999 209%   0.000 Lip13a+Lip13b                                       
  214.169 104%   0.000 MM14+Lip13a+Lip13b+MM12                             
  365.434  18%   0.000 MM09+Lip09                                          
  534.008  28%   0.000 MM20+Lip20                                          
   6 lines in following misc. output table
  FWHM = 0.199 ppm    S/N =   3                                            
  Data shift = 0.237 ppm                                                   
  Ph:-144 deg       1.8 deg/ppm                                            
  alphaB,S = 6.8E+01,   4.9E+02                                            
    6 spline knots.   Ns = 9(2)                                            
  ( 4) 2 infls.   ( 1) 1 extrs.                                            
  498 points on ppm-axis = NY
      4.000000     3.992357     3.984714     3.977070     3.969427     3.961784     3.954141     3.946497     3.938854     3.931211
      3.923568     3.915925     3.908281     3.900638     3.892995     3.885352     3.877708     3.870065     3.862422     3.854779
      3.847136     3.839492     3.831849     3.824206     3.816563     3.808919     3.801276     3.793633     3.785990     3.778347
      3.770703     3.763060     3.755417     3.747774     3.740130     3.732487     3.724844     3.717201     3.709558     3.701914
      3.694271     3.686628     3.678985     3.671341     3.663698     3.656055     3.648412     3.640769     3.633125     3.625482
      3.617839     3.610196     3.602552     3.594909     3.587266     3.579623     3.571980     3.564336     3.556693     3.549050
      3.541407     3.533763     3.526120     3.518477     3.510834     3.503191     3.495547     3.487904     3.480261     3.472618
      3.464974     3.457331     3.449688     3.442045     3.434402     3.426758     3.419115     3.411472     3.403829     3.396185
      3.388542     3.380899     3.373256     3.365613     3.357969     3.350326     3.342683     3.335040     3.327396     3.319753
      3.312110     3.304467     3.296824     3.289180     3.281537     3.273894     3.266251     3.258607     3.250964     3.243321
      3.235678     3.228034     3.220391     3.212748     3.205105     3.197462     3.189818     3.182175     3.174532     3.166889
      3.159245     3.151602     3.143959     3.136316     3.128673     3.121029     3.113386     3.105743     3.098100     3.090456
      3.082813     3.075170     3.067527     3.059884     3.052240     3.044597     3.036954     3.029311     3.021667     3.014024
      3.006381     2.998738     2.991095     2.983451     2.975808     2.968165     2.960522     2.952878     2.945235     2.937592
      2.929949     2.922306     2.914662     2.907019     2.899376     2.891733     2.884089     2.876446     2.868803     2.861160
      2.853517     2.845873     2.838230     2.830587     2.822944     2.815300     2.807657     2.800014     2.792371     2.784728
      2.777084     2.769441     2.761798     2.754155     2.746511     2.738868     2.731225     2.723582     2.715939     2.708295
      2.700652     2.693009     2.685366     2.677722     2.670079     2.662436     2.654793     2.647150     2.639506     2.631863
      2.624220     2.616577     2.608933     2.601290     2.593647     2.586004     2.578361     2.570717     2.563074     2.555431
      2.547788     2.540144     2.532501     2.524858     2.517215     2.509572     2.501928     2.494285     2.486642     2.478999
      2.471355     2.463712     2.456069     2.448426     2.440783     2.433139     2.425496     2.417853     2.410210     2.402566
      2.394923     2.387280     2.379637     2.371994     2.364350     2.356707     2.349064     2.341421     2.333777     2.326134
      2.318491     2.310848     2.303205     2.295561     2.287918     2.280275     2.272632     2.264988     2.257345     2.249702
      2.242059     2.234416     2.226772     2.219129     2.211486     2.203843     2.196199     2.188556     2.180913     2.173270
      2.165627     2.157983     2.150340     2.142697     2.135054     2.127410     2.119767     2.112124     2.104481     2.096838
      2.089194     2.081551     2.073908     2.066265     2.058621     2.050978     2.043335     2.035692     2.028049     2.020405
      2.012762     2.005119     1.997476     1.989833     1.982190     1.974546     1.966903     1.959260     1.951617     1.943974
      1.936331     1.928688     1.921045     1.913402     1.905759     1.898115     1.890472     1.882829     1.875186     1.867543
      1.859900     1.852257     1.844614     1.836971     1.829327     1.821684     1.814041     1.806398     1.798755     1.791112
      1.783469     1.775826     1.768183     1.760540     1.752896     1.745253     1.737610     1.729967     1.722324     1.714681
      1.707038     1.699395     1.691752     1.684108     1.676465     1.668822     1.661179     1.653536     1.645893     1.638250
      1.630607     1.622964     1.615321     1.607677     1.600034     1.592391     1.584748     1.577105     1.569462     1.561819
      1.554176     1.546533     1.538890     1.531246     1.523603     1.515960     1.508317     1.500674     1.493031     1.485388
      1.477745     1.470102     1.462458     1.454815     1.447172     1.439529     1.431886     1.424243     1.416600     1.408957
      1.401314     1.393671     1.386027     1.378384     1.370741     1.363098     1.355455     1.347812     1.340169     1.332526
      1.324883     1.317240     1.309596     1.301953     1.294310     1.286667     1.279024     1.271381     1.263738     1.256095
      1.248452     1.240808     1.233165     1.225522     1.217879     1.210236     1.202593     1.194950     1.187307     1.179664
      1.172021     1.164377     1.156734     1.149091     1.141448     1.133805     1.126162     1.118519     1.110876     1.103233
      1.095590     1.087946     1.080303     1.072660     1.065017     1.057374     1.049731     1.042088     1.034445     1.026802
      1.019158     1.011515     1.003872     0.996229     0.988586     0.980943     0.973300     0.965657     0.958014     0.950371
      0.942727     0.935084     0.927441     0.919798     0.912155     0.904512     0.896869     0.889226     0.881583     0.873940
      0.866296     0.858653     0.851010     0.843367     0.835724     0.828081     0.820438     0.812795     0.805152     0.797508
      0.789865     0.782222     0.774579     0.766936     0.759293     0.751650     0.744007     0.736364     0.728721     0.721077
      0.713434     0.705791     0.698148     0.690505     0.682862     0.675219     0.667576     0.659933     0.652290     0.644646
      0.637003     0.629360     0.621717     0.614074     0.606431     0.598788     0.591145     0.583502     0.575858     0.568215
      0.560572     0.552929     0.545286     0.537643     0.530000     0.522357     0.514714     0.507071     0.499427     0.491784
      0.484141     0.476498     0.468855     0.461212     0.453569     0.445925     0.438282     0.430639     0.422996     0.415353
      0.407710     0.400067     0.392424     0.384780     0.377137     0.369494     0.361851     0.354208     0.346565     0.338922
      0.331278     0.323635     0.315992     0.308349     0.300706     0.293063     0.285420     0.277777     0.270133     0.262490
      0.254847     0.247204     0.239561     0.231918     0.224275     0.216631     0.208988     0.201345
 NY phased data points follow
   3.56364E+00  8.18564E-01  3.28633E+00  2.72203E+00  4.82551E+00  3.56650E+00  3.19457E+00  3.83418E+00  2.06753E+00  4.36186E+00
   1.64583E+00  3.13707E+00  3.70459E+00  3.68081E+00  3.01590E+00  3.51954E+00  3.55470E+00  4.40084E+00  3.45481E+00  4.44004E+00
   1.44993E+00  4.26242E+00  4.56085E+00  3.48529E+00  3.77625E+00  4.94026E+00  4.16083E+00  5.49077E+00  4.62944E+00  3.38212E+00
   3.69840E+00  5.85707E+00  4.36710E+00  4.01739E+00  3.70725E+00  2.94495E+00  4.78696E+00  4.57670E+00  3.56217E+00  4.65905E+00
   5.27368E+00  3.01012E+00  3.95442E+00  5.33661E+00  5.25229E+00  4.04107E+00  4.22155E+00  3.39772E+00  3.90972E+00  3.83588E+00
   3.76593E+00  3.14024E+00  4.27730E+00  3.32406E+00  3.17876E+00  4.25679E+00  3.85005E+00  4.66995E+00  2.67718E+00  3.63916E+00
   3.56906E+00  3.40122E+00  3.42061E+00  2.63273E+00  2.18148E+00  1.18939E+00  1.04306E+00  1.69667E+00 -1.68693E+00  6.76676E-01
   2.26438E+00  4.15281E-01  2.64095E+00  7.27259E-01  3.22910E-01 -3.27019E-01  1.06377E+00 -6.43428E-01 -6.40536E-01 -3.21630E-01
  -1.23404E+00  6.92181E-01  2.64144E-01  1.11881E+00 -3.09087E-01 -5.18749E-01  2.37027E-01  6.26816E-02  3.52816E-01 -5.02494E-01
  -7.44391E-01 -6.21164E-02 -2.73444E+00 -1.23618E+00  2.79074E-01 -1.67846E-01 -1.97107E+00 -7.86105E-01 -1.03296E+00  1.11567E+00
   9.97358E-01 -2.51649E+00 -1.06917E-01 -1.67931E+00 -7.26197E-01 -1.17748E+00 -2.58789E+00 -1.79025E+00 -1.44472E+00 -9.41025E-01
  -4.16794E+00 -3.82053E-01 -1.82351E+00 -3.78343E+00 -2.99925E+00 -2.89159E+00 -6.03906E-01 -6.92810E-01 -1.34720E+00 -1.88096E+00
  -2.72054E+00 -4.00982E+00 -2.97444E+00 -2.84627E+00 -4.43146E-01 -3.18834E+00 -3.03027E+00 -3.46182E+00 -4.42813E+00 -4.59634E+00
  -3.45333E+00 -6.00423E+00 -4.34864E+00 -3.06990E+00 -4.39077E+00 -3.08362E+00 -3.37365E+00 -4.51547E+00 -2.72891E+00 -2.59790E+00
  -4.68612E+00 -3.56616E+00 -3.93304E+00 -5.33838E+00 -2.07800E+00 -2.99675E+00 -1.81993E+00 -4.49404E+00 -4.72067E+00 -2.75918E+00
  -3.01893E+00 -3.04921E+00 -1.59519E+00 -2.74343E+00 -1.65376E+00 -2.29458E-01 -6.70208E-01 -2.26519E+00 -1.38155E+00 -8.45011E-01
  -2.28038E+00 -1.61315E+00 -2.43528E+00 -1.73760E+00 -1.04415E+00 -1.13828E+00 -2.21549E+00 -2.64548E+00 -1.67227E+00 -3.45217E+00
  -1.45745E+00 -8.47736E-01 -1.30729E+00  2.51236E-01 -1.95396E+00 -4.46149E+00 -2.70724E+00 -3.98519E-01 -2.89539E+00 -3.35909E+00
  -2.93018E+00 -1.97291E+00 -3.17569E+00 -1.53327E+00 -3.52886E+00 -3.37823E+00 -3.43556E+00 -4.11147E+00 -2.26413E+00 -3.38014E+00
  -3.56848E+00 -3.71618E+00 -2.16592E+00 -4.38293E+00 -3.23047E+00 -5.27236E+00 -4.41679E+00 -1.68137E+00 -4.36135E+00 -3.21373E+00
  -1.97412E+00 -2.97598E+00 -2.51881E+00 -4.15879E+00 -1.51221E+00 -1.56956E+00 -3.42798E+00 -8.77309E-01 -1.58286E+00 -2.38491E+00
  -1.98902E+00 -1.07651E+00 -1.10004E+00 -1.91381E+00 -1.72657E+00 -1.27793E+00 -9.46040E-01 -1.26242E+00 -1.25675E+00  1.60223E-01
   5.78812E-01 -1.61386E-01 -8.16859E-01 -1.32409E+00  2.03680E-01 -4.41403E-01 -3.22593E-01 -4.34438E-01  8.76548E-02  9.56470E-01
   1.14357E+00  2.86815E-01  2.67660E-01  6.90613E-01 -3.68422E-02 -3.88029E-02  1.07546E-02  9.65543E-01  3.29696E-01  1.86164E+00
   3.89622E+00  8.65714E-01  2.53319E+00  2.02751E+00  3.19494E+00  2.71021E+00  2.35324E+00  3.37788E+00  2.52336E+00  5.28547E-01
   2.14096E+00  3.21731E+00  1.31100E+00  3.33831E+00  2.91539E+00  2.14246E+00  1.58317E+00  1.91453E+00  1.40114E+00  2.37098E+00
   1.42625E+00  9.11625E-01  2.49680E+00  2.05554E+00  1.47062E+00  2.08441E+00  3.93531E+00  2.82933E+00  3.90269E+00  2.61608E+00
   3.57360E+00  3.53957E+00  4.50444E+00  3.52810E+00  1.41414E+00  4.58484E+00  3.33981E+00  1.71677E+00  3.29261E+00  1.83609E+00
   2.34313E+00  3.97224E+00  1.65764E+00 -1.54935E+00  3.14787E+00  1.17067E+00  1.94696E+00  1.22687E+00  1.32979E+00  2.38446E+00
   3.12998E+00  1.65856E+00  1.93685E+00  3.43125E-01  1.32116E+00  2.91761E+00  1.09992E+00  3.79318E+00  3.77029E+00  3.88315E+00
   4.95182E+00  2.36311E+00  3.73643E+00  5.78610E+00  4.62973E+00  4.58674E+00  5.74346E+00  5.06607E+00  5.05464E+00  3.29101E+00
   3.79806E+00  3.55653E+00  3.69648E+00  5.19201E+00  4.22039E+00  3.62846E+00  3.84670E+00  4.28553E+00  4.64834E+00  4.08463E+00
   2.28195E+00  2.45768E+00  4.73381E+00  2.84875E+00  2.55948E+00  2.00227E+00  3.39800E+00  3.59921E+00  1.79486E+00  3.78316E+00
   3.56511E+00  2.54871E+00  1.11597E+00  2.52623E+00  2.10450E+00  2.22052E+00  3.10131E+00  1.32321E+00  9.48649E-01  2.48439E+00
   1.95678E-01  2.32988E+00  2.64318E+00  1.77727E+00  2.21883E+00  1.36357E+00  3.87811E+00  2.83676E+00  3.39284E+00  3.94196E+00
   5.07897E+00  3.34950E+00  3.16376E+00  3.95972E+00  3.02849E+00  2.27819E+00  3.18596E+00  2.96616E+00  3.82541E-01  2.64680E+00
   3.94140E+00  2.62905E+00  1.59675E+00  3.23801E+00  3.71112E+00  5.24590E+00  1.69385E+00  3.04990E+00  1.65448E+00  4.77986E+00
   2.71863E+00  3.55625E+00  4.59808E+00  2.80143E+00  5.35008E+00  2.04223E+00  1.80776E+00  2.23316E+00  3.42656E+00  3.82300E+00
   2.88818E+00  3.44766E+00  2.77838E+00  3.93894E+00  2.82120E+00  3.80729E+00  3.34119E+00  4.57470E+00  4.39002E+00  5.52311E+00
   3.08030E+00  3.35981E+00  3.86452E+00  4.61865E+00  3.35612E+00  3.40845E+00  3.86268E+00  4.95882E+00  3.57997E+00  4.26882E+00
   3.32694E+00  2.52989E+00  4.47400E+00  2.89499E+00  3.89069E+00  2.30804E+00  1.36635E+00  5.16696E+00  2.86207E+00  2.70606E+00
   4.04352E+00  2.43051E+00  1.10615E+00  3.45395E+00  3.30159E+00  2.80547E+00  4.30187E+00  2.90437E+00  5.08851E+00  2.73065E+00
   1.13577E+00  3.41289E+00  2.97900E+00  3.01808E+00  2.52088E+00  2.78728E+00  3.58913E+00  1.78400E+00  3.56638E-01  2.42728E+00
   1.61263E+00  2.96291E+00  2.96245E+00  2.42297E+00  3.98965E+00  1.90199E+00  2.96130E+00  3.32300E+00  4.20221E+00  2.12789E+00
   3.66512E+00  5.33133E-01  2.05833E+00  1.33912E+00  1.88770E+00  2.68521E+00  2.72458E+00  3.40586E+00  1.49907E+00  3.10922E+00
   3.49030E+00  3.31617E+00  2.17069E+00  2.51640E+00  2.43657E+00  4.28071E+00  4.97101E+00  2.77201E+00  1.40113E+00  2.48289E+00
   2.97982E+00  1.38212E+00  3.53655E+00  2.10920E+00  2.23564E+00  2.23898E+00  2.58639E+00  2.16809E+00  1.47474E+00  2.61244E+00
   3.34452E+00  2.48164E+00  1.89948E+00  2.48338E+00  1.64780E+00  3.40462E+00  3.71481E-01  7.40254E-01  4.66127E-01  3.11411E+00
   1.79090E+00  2.73092E+00  3.01791E+00  2.63841E+00  2.36566E+00  2.71824E+00  5.42829E-01  2.76615E+00  1.04494E+00  2.56521E+00
   8.41503E-01  1.40629E+00  1.15148E+00  1.68392E+00 -7.56986E-02  2.11852E+00  1.17518E+00  7.37389E-01
 NY points of the fit to the data follow
   2.52876E+00  2.55706E+00  2.49005E+00  2.50234E+00  2.42259E+00  2.45537E+00  2.42998E+00  2.57483E+00  2.44968E+00  2.38787E+00
   2.14994E+00  1.89472E+00  1.66428E+00  1.45314E+00  1.65533E+00  1.62803E+00  2.16567E+00  2.06487E+00  2.68539E+00  2.34660E+00
   2.96947E+00  2.67395E+00  3.36140E+00  3.10577E+00  3.79830E+00  3.51703E+00  4.10096E+00  3.73950E+00  4.21010E+00  3.81632E+00
   4.31104E+00  4.04113E+00  4.60528E+00  4.38936E+00  4.96094E+00  4.79295E+00  5.29403E+00  5.14032E+00  5.46444E+00  5.30437E+00
   5.39352E+00  5.27598E+00  5.21725E+00  5.26415E+00  5.12754E+00  5.36317E+00  5.10477E+00  5.37709E+00  4.82281E+00  4.81427E+00
   4.15087E+00  4.13862E+00  3.63200E+00  3.81023E+00  3.66808E+00  3.94788E+00  3.73716E+00  3.77609E+00  3.38470E+00  3.24423E+00
   2.74458E+00  2.75363E+00  2.28180E+00  2.31672E+00  1.85127E+00  1.90578E+00  1.45442E+00  1.53871E+00  1.14897E+00  1.29358E+00
   9.93061E-01  1.21201E+00  8.92830E-01  1.04273E+00  6.53977E-01  7.49492E-01  3.24380E-01  3.88000E-01 -4.03430E-02  9.75606E-03
  -3.78495E-01 -3.54240E-01 -6.75052E-01 -6.29341E-01 -8.17598E-01 -7.36070E-01 -9.00320E-01 -8.35950E-01 -1.01272E+00 -9.60205E-01
  -1.14643E+00 -1.07365E+00 -1.26735E+00 -1.14741E+00 -1.35241E+00 -1.16211E+00 -1.37968E+00 -1.15053E+00 -1.37130E+00 -1.12012E+00
  -1.33056E+00 -1.07026E+00 -1.26146E+00 -9.98975E-01 -1.17385E+00 -9.17024E-01 -1.09160E+00 -8.53363E-01 -1.05635E+00 -8.63746E-01
  -1.13879E+00 -1.01056E+00 -1.32926E+00 -1.23300E+00 -1.54870E+00 -1.46791E+00 -1.75824E+00 -1.68881E+00 -1.93689E+00 -1.89254E+00
  -2.07941E+00 -2.07723E+00 -2.18575E+00 -2.19200E+00 -2.18252E+00 -2.16759E+00 -2.15694E+00 -2.15479E+00 -2.14596E+00 -2.14672E+00
  -2.14198E+00 -2.14652E+00 -2.14632E+00 -2.15321E+00 -2.15646E+00 -2.16444E+00 -2.17153E+00 -2.18169E+00 -2.19206E+00 -2.20553E+00
  -2.21831E+00 -2.23485E+00 -2.25179E+00 -2.27075E+00 -2.29069E+00 -2.31035E+00 -2.33185E+00 -2.35096E+00 -2.37280E+00 -2.39020E+00
  -2.41204E+00 -2.42751E+00 -2.45068E+00 -2.46404E+00 -2.48669E+00 -2.49729E+00 -2.51833E+00 -2.52732E+00 -2.54730E+00 -2.55421E+00
  -2.57406E+00 -2.57920E+00 -2.59837E+00 -2.60110E+00 -2.61949E+00 -2.61964E+00 -2.63308E+00 -2.62896E+00 -2.63761E+00 -2.62626E+00
  -2.62727E+00 -2.61183E+00 -2.60549E+00 -2.58561E+00 -2.57071E+00 -2.55902E+00 -2.58812E+00 -2.60078E+00 -2.72050E+00 -2.79521E+00
  -2.96890E+00 -3.08657E+00 -3.26141E+00 -3.30155E+00 -3.32271E+00 -3.23277E+00 -3.11524E+00 -2.83762E+00 -2.65849E+00 -2.33388E+00
  -2.20416E+00 -2.15177E+00 -2.40018E+00 -2.54889E+00 -2.83077E+00 -2.99143E+00 -3.09327E+00 -2.93999E+00 -2.90921E+00 -2.64112E+00
  -2.55846E+00 -2.26336E+00 -2.20895E+00 -2.08461E+00 -2.13758E+00 -2.00200E+00 -2.01265E+00 -1.90697E+00 -1.88865E+00 -1.90580E+00
  -1.87799E+00 -2.00675E+00 -1.93340E+00 -2.09692E+00 -1.88461E+00 -1.95906E+00 -1.58339E+00 -1.63879E+00 -1.34029E+00 -1.44170E+00
  -1.13163E+00 -1.25409E+00 -8.39238E-01 -7.53407E-01 -2.01352E-01 -1.99727E-02  5.81224E-01  7.70287E-01  1.21192E+00  1.16866E+00
   1.33388E+00  8.37066E-01  6.28585E-01  1.37628E-01  2.21642E-01  7.52014E-02  4.72439E-01  7.85388E-01  1.23661E+00  1.42366E+00
   1.72033E+00  1.63808E+00  1.74770E+00  1.34539E+00  1.41341E+00  1.04354E+00  1.34984E+00  9.29471E-01  1.45643E+00  9.69542E-01
   1.66736E+00  1.12128E+00  1.92397E+00  1.28824E+00  2.18626E+00  1.48694E+00  2.44633E+00  1.67148E+00  2.57894E+00  1.83763E+00
   2.87763E+00  2.22979E+00  3.31362E+00  2.79210E+00  3.76163E+00  3.15432E+00  3.99198E+00  3.32247E+00  3.91703E+00  3.22871E+00
   3.62927E+00  2.94699E+00  3.19152E+00  2.68821E+00  2.90469E+00  2.58832E+00  2.75000E+00  2.54245E+00  2.63680E+00  2.41929E+00
   2.44279E+00  2.27899E+00  2.29466E+00  2.21886E+00  2.22175E+00  2.22978E+00  2.21089E+00  2.23709E+00  2.23291E+00  2.27229E+00
   2.27610E+00  2.32496E+00  2.34804E+00  2.41450E+00  2.48627E+00  2.60352E+00  2.72701E+00  2.87642E+00  3.03339E+00  3.19769E+00
   3.36691E+00  3.52535E+00  3.68245E+00  3.82602E+00  3.96176E+00  4.08226E+00  4.19549E+00  4.30599E+00  4.44879E+00  4.63284E+00
   4.63283E+00  4.76816E+00  4.59045E+00  4.65226E+00  4.29642E+00  4.26762E+00  3.72312E+00  3.79181E+00  3.22041E+00  3.36980E+00
   2.80413E+00  3.00379E+00  2.48719E+00  2.74794E+00  2.30921E+00  2.63701E+00  2.28716E+00  2.66546E+00  2.38867E+00  2.77366E+00
   2.49309E+00  2.81757E+00  2.50465E+00  2.74078E+00  2.41406E+00  2.57000E+00  2.29123E+00  2.43905E+00  2.25909E+00  2.40518E+00
   2.33838E+00  2.45875E+00  2.50849E+00  2.59219E+00  2.74890E+00  2.82904E+00  3.08257E+00  3.19897E+00  3.49324E+00  3.63177E+00
   3.74036E+00  3.72261E+00  3.67107E+00  3.54784E+00  3.36394E+00  3.21568E+00  2.97248E+00  2.97779E+00  2.83583E+00  2.88442E+00
   2.78225E+00  2.83994E+00  2.76436E+00  2.81587E+00  2.76356E+00  2.80813E+00  2.77927E+00  2.82144E+00  2.81115E+00  2.84890E+00
   2.82610E+00  2.82325E+00  2.79538E+00  2.76597E+00  2.74068E+00  2.70649E+00  2.69593E+00  2.70078E+00  2.71727E+00  2.74427E+00
   2.78136E+00  2.82831E+00  2.88486E+00  2.95067E+00  3.02516E+00  3.10756E+00  3.19680E+00  3.29155E+00  3.39020E+00  3.49092E+00
   3.59162E+00  3.69009E+00  3.78398E+00  3.87096E+00  3.94874E+00  4.01520E+00  4.06848E+00  4.10704E+00  4.12974E+00  4.13588E+00
   4.12525E+00  4.09813E+00  4.05525E+00  3.99780E+00  3.92727E+00  3.84549E+00  3.75447E+00  3.65635E+00  3.55327E+00  3.44731E+00
   3.34043E+00  3.23442E+00  3.13081E+00  3.03091E+00  2.93574E+00  2.84609E+00  2.76248E+00  2.68522E+00  2.61444E+00  2.55009E+00
   2.49198E+00  2.43986E+00  2.39338E+00  2.35216E+00  2.31578E+00  2.28382E+00  2.25589E+00  2.23157E+00  2.21052E+00  2.19237E+00
   2.17683E+00  2.16359E+00  2.15242E+00  2.14307E+00  2.13536E+00  2.12909E+00  2.12413E+00  2.12031E+00  2.11754E+00  2.11568E+00
   2.11466E+00  2.11439E+00  2.11481E+00  2.11583E+00  2.11741E+00  2.11949E+00  2.12204E+00  2.12500E+00  2.12836E+00  2.13207E+00
   2.13610E+00  2.14043E+00  2.14505E+00  2.14991E+00  2.15502E+00  2.16033E+00  2.16586E+00  2.17157E+00  2.17747E+00  2.18352E+00
   2.18974E+00  2.19608E+00  2.20258E+00  2.20919E+00  2.21593E+00  2.22277E+00  2.22973E+00  2.23677E+00  2.24392E+00  2.25116E+00
   2.25849E+00  2.26588E+00  2.27337E+00  2.28092E+00  2.28855E+00  2.29623E+00  2.30400E+00  2.31181E+00  2.31970E+00  2.32763E+00
   2.33564E+00  2.34369E+00  2.35181E+00  2.35998E+00  2.36821E+00  2.37649E+00  2.38484E+00  2.39326E+00  2.40174E+00  2.41029E+00
   2.41893E+00  2.42766E+00  2.43649E+00  2.44544E+00  2.45453E+00  2.46379E+00  2.47327E+00  2.48304E+00
 NY background values follow
    -2.027E+00   -2.026E+00   -2.025E+00   -2.024E+00   -2.023E+00   -2.022E+00   -2.021E+00   -2.020E+00   -2.019E+00   -2.018E+00
    -2.017E+00   -2.016E+00   -2.014E+00   -2.013E+00   -2.012E+00   -2.011E+00   -2.010E+00   -2.008E+00   -2.007E+00   -2.006E+00
    -2.005E+00   -2.003E+00   -2.002E+00   -2.001E+00   -1.999E+00   -1.998E+00   -1.996E+00   -1.995E+00   -1.993E+00   -1.992E+00
    -1.990E+00   -1.989E+00   -1.987E+00   -1.986E+00   -1.984E+00   -1.982E+00   -1.981E+00   -1.979E+00   -1.977E+00   -1.976E+00
    -1.974E+00   -1.972E+00   -1.970E+00   -1.968E+00   -1.967E+00   -1.965E+00   -1.963E+00   -1.961E+00   -1.959E+00   -1.957E+00
    -1.955E+00   -1.953E+00   -1.951E+00   -1.949E+00   -1.946E+00   -1.944E+00   -1.942E+00   -1.940E+00   -1.937E+00   -1.935E+00
    -1.933E+00   -1.930E+00   -1.928E+00   -1.926E+00   -1.923E+00   -1.921E+00   -1.918E+00   -1.915E+00   -1.913E+00   -1.910E+00
    -1.907E+00   -1.905E+00   -1.902E+00   -1.899E+00   -1.896E+00   -1.893E+00   -1.891E+00   -1.888E+00   -1.885E+00   -1.882E+00
    -1.878E+00   -1.875E+00   -1.872E+00   -1.869E+00   -1.866E+00   -1.863E+00   -1.859E+00   -1.856E+00   -1.852E+00   -1.849E+00
    -1.846E+00   -1.842E+00   -1.838E+00   -1.835E+00   -1.831E+00   -1.828E+00   -1.824E+00   -1.820E+00   -1.816E+00   -1.812E+00
    -1.808E+00   -1.804E+00   -1.800E+00   -1.796E+00   -1.792E+00   -1.788E+00   -1.784E+00   -1.780E+00   -1.775E+00   -1.771E+00
    -1.767E+00   -1.762E+00   -1.758E+00   -1.753E+00   -1.748E+00   -1.744E+00   -1.739E+00   -1.734E+00   -1.730E+00   -1.725E+00
    -1.720E+00   -1.715E+00   -1.710E+00   -1.705E+00   -1.700E+00   -1.695E+00   -1.689E+00   -1.684E+00   -1.679E+00   -1.673E+00
    -1.668E+00   -1.662E+00   -1.657E+00   -1.651E+00   -1.645E+00   -1.640E+00   -1.634E+00   -1.628E+00   -1.622E+00   -1.616E+00
    -1.610E+00   -1.604E+00   -1.598E+00   -1.592E+00   -1.586E+00   -1.579E+00   -1.573E+00   -1.566E+00   -1.560E+00   -1.553E+00
    -1.547E+00   -1.540E+00   -1.533E+00   -1.526E+00   -1.520E+00   -1.513E+00   -1.506E+00   -1.498E+00   -1.491E+00   -1.484E+00
    -1.477E+00   -1.470E+00   -1.462E+00   -1.455E+00   -1.447E+00   -1.440E+00   -1.432E+00   -1.424E+00   -1.416E+00   -1.408E+00
    -1.401E+00   -1.393E+00   -1.384E+00   -1.376E+00   -1.368E+00   -1.360E+00   -1.352E+00   -1.343E+00   -1.335E+00   -1.326E+00
    -1.318E+00   -1.309E+00   -1.300E+00   -1.292E+00   -1.283E+00   -1.274E+00   -1.265E+00   -1.256E+00   -1.247E+00   -1.238E+00
    -1.229E+00   -1.219E+00   -1.210E+00   -1.201E+00   -1.191E+00   -1.182E+00   -1.172E+00   -1.163E+00   -1.153E+00   -1.144E+00
    -1.134E+00   -1.124E+00   -1.114E+00   -1.105E+00   -1.095E+00   -1.085E+00   -1.075E+00   -1.065E+00   -1.054E+00   -1.044E+00
    -1.034E+00   -1.024E+00   -1.014E+00   -1.003E+00   -9.929E-01   -9.824E-01   -9.720E-01   -9.615E-01   -9.509E-01   -9.403E-01
    -9.296E-01   -9.189E-01   -9.082E-01   -8.974E-01   -8.866E-01   -8.758E-01   -8.649E-01   -8.539E-01   -8.430E-01   -8.320E-01
    -8.209E-01   -8.098E-01   -7.987E-01   -7.875E-01   -7.763E-01   -7.651E-01   -7.538E-01   -7.425E-01   -7.312E-01   -7.198E-01
    -7.084E-01   -6.970E-01   -6.855E-01   -6.740E-01   -6.625E-01   -6.509E-01   -6.393E-01   -6.277E-01   -6.160E-01   -6.043E-01
    -5.926E-01   -5.809E-01   -5.691E-01   -5.573E-01   -5.455E-01   -5.336E-01   -5.218E-01   -5.099E-01   -4.979E-01   -4.860E-01
    -4.740E-01   -4.620E-01   -4.500E-01   -4.380E-01   -4.259E-01   -4.138E-01   -4.017E-01   -3.896E-01   -3.774E-01   -3.652E-01
    -3.531E-01   -3.408E-01   -3.286E-01   -3.164E-01   -3.041E-01   -2.918E-01   -2.795E-01   -2.672E-01   -2.549E-01   -2.426E-01
    -2.302E-01   -2.178E-01   -2.054E-01   -1.931E-01   -1.806E-01   -1.682E-01   -1.558E-01   -1.433E-01   -1.309E-01   -1.184E-01
    -1.059E-01   -9.345E-02   -8.095E-02   -6.845E-02   -5.593E-02   -4.341E-02   -3.089E-02   -1.835E-02   -5.813E-03    6.734E-03
     1.929E-02    3.184E-02    4.440E-02    5.697E-02    6.953E-02    8.211E-02    9.468E-02    1.073E-01    1.198E-01    1.324E-01
     1.450E-01    1.576E-01    1.701E-01    1.827E-01    1.953E-01    2.079E-01    2.204E-01    2.330E-01    2.456E-01    2.581E-01
     2.707E-01    2.833E-01    2.958E-01    3.084E-01    3.209E-01    3.334E-01    3.459E-01    3.585E-01    3.710E-01    3.835E-01
     3.960E-01    4.085E-01    4.209E-01    4.334E-01    4.458E-01    4.583E-01    4.707E-01    4.831E-01    4.956E-01    5.080E-01
     5.204E-01    5.327E-01    5.451E-01    5.575E-01    5.698E-01    5.822E-01    5.945E-01    6.068E-01    6.191E-01    6.314E-01
     6.437E-01    6.560E-01    6.683E-01    6.805E-01    6.928E-01    7.050E-01    7.172E-01    7.294E-01    7.416E-01    7.538E-01
     7.660E-01    7.782E-01    7.903E-01    8.025E-01    8.146E-01    8.267E-01    8.389E-01    8.510E-01    8.630E-01    8.751E-01
     8.872E-01    8.992E-01    9.113E-01    9.233E-01    9.353E-01    9.474E-01    9.593E-01    9.713E-01    9.833E-01    9.953E-01
     1.007E+00    1.019E+00    1.031E+00    1.043E+00    1.055E+00    1.067E+00    1.079E+00    1.091E+00    1.102E+00    1.114E+00
     1.126E+00    1.138E+00    1.150E+00    1.161E+00    1.173E+00    1.185E+00    1.197E+00    1.208E+00    1.220E+00    1.232E+00
     1.244E+00    1.255E+00    1.267E+00    1.279E+00    1.290E+00    1.302E+00    1.314E+00    1.325E+00    1.337E+00    1.348E+00
     1.360E+00    1.371E+00    1.383E+00    1.395E+00    1.406E+00    1.418E+00    1.429E+00    1.440E+00    1.452E+00    1.463E+00
     1.475E+00    1.486E+00    1.498E+00    1.509E+00    1.520E+00    1.532E+00    1.543E+00    1.554E+00    1.566E+00    1.577E+00
     1.588E+00    1.600E+00    1.611E+00    1.622E+00    1.633E+00    1.645E+00    1.656E+00    1.667E+00    1.678E+00    1.689E+00
     1.700E+00    1.712E+00    1.723E+00    1.734E+00    1.745E+00    1.756E+00    1.767E+00    1.778E+00    1.789E+00    1.800E+00
     1.811E+00    1.822E+00    1.833E+00    1.844E+00    1.855E+00    1.866E+00    1.877E+00    1.888E+00    1.899E+00    1.909E+00
     1.920E+00    1.931E+00    1.942E+00    1.953E+00    1.963E+00    1.974E+00    1.985E+00    1.996E+00    2.006E+00    2.017E+00
     2.028E+00    2.038E+00    2.049E+00    2.060E+00    2.070E+00    2.081E+00    2.092E+00    2.102E+00    2.113E+00    2.123E+00
     2.134E+00    2.144E+00    2.155E+00    2.165E+00    2.176E+00    2.186E+00    2.197E+00    2.207E+00    2.217E+00    2.228E+00
     2.238E+00    2.248E+00    2.259E+00    2.269E+00    2.279E+00    2.290E+00    2.300E+00    2.310E+00
 Ala      Conc. = 7.15E+02
