 LCModel (Version 6.3-1L) Copyright: S.W. Provencher.          Ref.: Magn. Reson. Med. 30:672-679 (1993).                
 Slice#2 Row#14 Col#8  K_02_press_1_raw_act
 36 lines in following concentration table = NCONC+1
    Conc.  %SD /Cr+PCr  Metabolite                                         
   30.812 101%   0.365 Ala                                                 
    8.558 203%   0.101 Asp                                                 
   22.534 154%   0.267 Cr                                                  
   61.851  60%   0.733 PCr                                                 
    4.772 218% 5.7E-02 GABA                                                
    3.892 270% 4.6E-02 Glc                                                 
    0.000 999%   0.000 Gln                                                 
  160.238  45%   1.899 Glu                                                 
   18.799  36%   0.223 GPC                                                 
    0.000 999%   0.000 PCh                                                 
   28.596  79%   0.339 GSH                                                 
   59.208 126%   0.702 Ins                                                 
   37.785  88%   0.448 Lac                                                 
   83.874  24%   0.994 NAA                                                 
    0.000 999%   0.000 NAAG                                                
    0.979 340% 1.2E-02 Scyllo                                              
    5.193 330% 6.2E-02 Tau                                                 
    2.287 999% 2.7E-02 -CrCH2                                              
   18.799  36%   0.223 GPC+PCh                                             
   83.874  24%   0.994 NAA+NAAG                                            
   84.384  23%   1.000 Cr+PCr                                              
  160.238  45%   1.899 Glu+Gln                                             
  652.241  20%   7.729 Lip13a                                              
    0.000 999%   0.000 Lip13b                                              
    0.000 999%   0.000 Lip09                                               
    3.277 311% 3.9E-02 MM09                                                
    1.088 999% 1.3E-02 Lip20                                               
    0.000 999%   0.000 MM20                                                
    1.079 475% 1.3E-02 MM12                                                
   19.335 102%   0.229 MM14                                                
    9.680 133%   0.115 MM17                                                
  652.241  20%   7.729 Lip13a+Lip13b                                       
  672.655  20%   7.971 MM14+Lip13a+Lip13b+MM12                             
    3.277 311% 3.9E-02 MM09+Lip09                                          
    1.088 999% 1.3E-02 MM20+Lip20                                          
   6 lines in following misc. output table
  FWHM = 0.023 ppm    S/N =   1                                            
  Data shift =-0.015 ppm                                                   
  Ph:  56 deg     -14.4 deg/ppm                                            
  alphaB,S = 3.4E-01,   8.4E+00                                            
   14 spline knots.   Ns = 5(1)                                            
   1 inflections.     2 extrema                                            
  498 points on ppm-axis = NY
      4.000000     3.992357     3.984714     3.977070     3.969427     3.961784     3.954141     3.946497     3.938854     3.931211
      3.923568     3.915925     3.908281     3.900638     3.892995     3.885352     3.877708     3.870065     3.862422     3.854779
      3.847136     3.839492     3.831849     3.824206     3.816563     3.808919     3.801276     3.793633     3.785990     3.778347
      3.770703     3.763060     3.755417     3.747774     3.740130     3.732487     3.724844     3.717201     3.709558     3.701914
      3.694271     3.686628     3.678985     3.671341     3.663698     3.656055     3.648412     3.640769     3.633125     3.625482
      3.617839     3.610196     3.602552     3.594909     3.587266     3.579623     3.571980     3.564336     3.556693     3.549050
      3.541407     3.533763     3.526120     3.518477     3.510834     3.503191     3.495547     3.487904     3.480261     3.472618
      3.464974     3.457331     3.449688     3.442045     3.434402     3.426758     3.419115     3.411472     3.403829     3.396185
      3.388542     3.380899     3.373256     3.365613     3.357969     3.350326     3.342683     3.335040     3.327396     3.319753
      3.312110     3.304467     3.296824     3.289180     3.281537     3.273894     3.266251     3.258607     3.250964     3.243321
      3.235678     3.228034     3.220391     3.212748     3.205105     3.197462     3.189818     3.182175     3.174532     3.166889
      3.159245     3.151602     3.143959     3.136316     3.128673     3.121029     3.113386     3.105743     3.098100     3.090456
      3.082813     3.075170     3.067527     3.059884     3.052240     3.044597     3.036954     3.029311     3.021667     3.014024
      3.006381     2.998738     2.991095     2.983451     2.975808     2.968165     2.960522     2.952878     2.945235     2.937592
      2.929949     2.922306     2.914662     2.907019     2.899376     2.891733     2.884089     2.876446     2.868803     2.861160
      2.853517     2.845873     2.838230     2.830587     2.822944     2.815300     2.807657     2.800014     2.792371     2.784728
      2.777084     2.769441     2.761798     2.754155     2.746511     2.738868     2.731225     2.723582     2.715939     2.708295
      2.700652     2.693009     2.685366     2.677722     2.670079     2.662436     2.654793     2.647150     2.639506     2.631863
      2.624220     2.616577     2.608933     2.601290     2.593647     2.586004     2.578361     2.570717     2.563074     2.555431
      2.547788     2.540144     2.532501     2.524858     2.517215     2.509572     2.501928     2.494285     2.486642     2.478999
      2.471355     2.463712     2.456069     2.448426     2.440783     2.433139     2.425496     2.417853     2.410210     2.402566
      2.394923     2.387280     2.379637     2.371994     2.364350     2.356707     2.349064     2.341421     2.333777     2.326134
      2.318491     2.310848     2.303205     2.295561     2.287918     2.280275     2.272632     2.264988     2.257345     2.249702
      2.242059     2.234416     2.226772     2.219129     2.211486     2.203843     2.196199     2.188556     2.180913     2.173270
      2.165627     2.157983     2.150340     2.142697     2.135054     2.127410     2.119767     2.112124     2.104481     2.096838
      2.089194     2.081551     2.073908     2.066265     2.058621     2.050978     2.043335     2.035692     2.028049     2.020405
      2.012762     2.005119     1.997476     1.989833     1.982190     1.974546     1.966903     1.959260     1.951617     1.943974
      1.936331     1.928688     1.921045     1.913402     1.905759     1.898115     1.890472     1.882829     1.875186     1.867543
      1.859900     1.852257     1.844614     1.836971     1.829327     1.821684     1.814041     1.806398     1.798755     1.791112
      1.783469     1.775826     1.768183     1.760540     1.752896     1.745253     1.737610     1.729967     1.722324     1.714681
      1.707038     1.699395     1.691752     1.684108     1.676465     1.668822     1.661179     1.653536     1.645893     1.638250
      1.630607     1.622964     1.615321     1.607677     1.600034     1.592391     1.584748     1.577105     1.569462     1.561819
      1.554176     1.546533     1.538890     1.531246     1.523603     1.515960     1.508317     1.500674     1.493031     1.485388
      1.477745     1.470102     1.462458     1.454815     1.447172     1.439529     1.431886     1.424243     1.416600     1.408957
      1.401314     1.393671     1.386027     1.378384     1.370741     1.363098     1.355455     1.347812     1.340169     1.332526
      1.324883     1.317240     1.309596     1.301953     1.294310     1.286667     1.279024     1.271381     1.263738     1.256095
      1.248452     1.240808     1.233165     1.225522     1.217879     1.210236     1.202593     1.194950     1.187307     1.179664
      1.172021     1.164377     1.156734     1.149091     1.141448     1.133805     1.126162     1.118519     1.110876     1.103233
      1.095590     1.087946     1.080303     1.072660     1.065017     1.057374     1.049731     1.042088     1.034445     1.026802
      1.019158     1.011515     1.003872     0.996229     0.988586     0.980943     0.973300     0.965657     0.958014     0.950371
      0.942727     0.935084     0.927441     0.919798     0.912155     0.904512     0.896869     0.889226     0.881583     0.873940
      0.866296     0.858653     0.851010     0.843367     0.835724     0.828081     0.820438     0.812795     0.805152     0.797508
      0.789865     0.782222     0.774579     0.766936     0.759293     0.751650     0.744007     0.736364     0.728721     0.721077
      0.713434     0.705791     0.698148     0.690505     0.682862     0.675219     0.667576     0.659933     0.652290     0.644646
      0.637003     0.629360     0.621717     0.614074     0.606431     0.598788     0.591145     0.583502     0.575858     0.568215
      0.560572     0.552929     0.545286     0.537643     0.530000     0.522357     0.514714     0.507071     0.499427     0.491784
      0.484141     0.476498     0.468855     0.461212     0.453569     0.445925     0.438282     0.430639     0.422996     0.415353
      0.407710     0.400067     0.392424     0.384780     0.377137     0.369494     0.361851     0.354208     0.346565     0.338922
      0.331278     0.323635     0.315992     0.308349     0.300706     0.293063     0.285420     0.277777     0.270133     0.262490
      0.254847     0.247204     0.239561     0.231918     0.224275     0.216631     0.208988     0.201345
 NY phased data points follow
   1.66225E+01  1.53914E+01  1.38252E+01  1.21414E+01  1.42231E+01  1.30107E+01  1.49626E+01  1.34630E+01  1.18565E+01  1.49723E+01
   1.47679E+01  1.35410E+01  1.44501E+01  1.47758E+01  1.16173E+01  1.05181E+01  1.32396E+01  1.32470E+01  1.41882E+01  1.45390E+01
   1.04939E+01  1.17161E+01  9.07846E+00  1.26692E+01  1.21408E+01  1.19306E+01  9.86477E+00  9.81900E+00  1.02635E+01  9.55553E+00
   1.13890E+01  1.07825E+01  1.18420E+01  9.07227E+00  1.07470E+01  1.18640E+01  1.20987E+01  1.13242E+01  1.24194E+01  1.12069E+01
   9.84001E+00  8.85935E+00  7.19374E+00  9.55477E+00  9.55566E+00  8.61392E+00  8.52508E+00  1.10914E+01  1.12518E+01  8.92815E+00
   8.83552E+00  1.12660E+01  1.00479E+01  8.06098E+00  1.01128E+01  9.12080E+00  6.75399E+00  1.03851E+01  8.54880E+00  7.31847E+00
   7.60291E+00  8.36219E+00  7.97734E+00  6.58160E+00  9.37400E+00  8.38801E+00  9.26003E+00  7.13450E+00  7.86393E+00  7.73975E+00
   6.90456E+00  7.21611E+00  8.78332E+00  7.15176E+00  7.94878E+00  8.82996E+00  5.85746E+00  7.60344E+00  5.97088E+00  4.79714E+00
   6.07579E+00  8.01925E+00  7.97431E+00  7.01265E+00  5.47295E+00  8.39641E+00  7.18495E+00  7.33234E+00  4.85301E+00  5.75190E+00
   6.67412E+00  6.63872E+00  6.08637E+00  7.59649E+00  6.42324E+00  6.57630E+00  6.10818E+00  4.71685E+00  7.42517E+00  6.35440E+00
   7.10769E+00  7.77292E+00  5.63535E+00  7.99347E+00  1.15977E+01  7.95088E+00  7.82061E+00  5.95929E+00  7.79768E+00  6.99818E+00
   8.14562E+00  5.91423E+00  7.02639E+00  3.90365E+00  5.29209E+00  8.03115E+00  6.48559E+00  7.34625E+00  5.66472E+00  3.90905E+00
   3.99876E+00  7.86978E+00  4.26548E+00  8.10478E+00  5.56340E+00  5.03860E+00  7.42170E+00  1.08926E+01  1.11900E+01  7.30200E+00
   6.21391E+00  8.54207E+00  8.62694E+00  5.00511E+00  7.93525E+00  7.77759E+00  4.64541E+00  9.14511E+00  7.69028E+00  6.42185E+00
   4.93653E+00  4.44144E+00  5.40674E+00  6.70730E+00  3.95265E+00  5.48973E+00  4.79748E+00  7.49647E+00  6.25342E+00  4.52111E+00
   5.75196E+00  6.10920E+00  6.72668E+00  7.15476E+00  8.07347E+00  5.29135E+00  8.04942E+00  3.39265E+00  7.22918E+00  7.63182E+00
   5.68692E+00  4.44384E+00  6.39082E+00  6.78566E+00  3.75908E+00  3.90456E+00  7.57792E+00  6.89329E+00  6.31654E+00  4.68443E+00
   3.05680E+00  4.96385E+00  5.18751E+00  4.37455E+00  5.23193E+00  6.89887E+00  3.26593E+00  1.88426E+00  5.50570E+00  5.71255E+00
   3.55354E+00  5.35483E+00  3.16799E+00  3.13464E+00  4.78940E+00  4.07082E+00  4.06231E+00  2.04713E+00  5.00554E+00  6.28654E+00
   1.83447E+00  5.09658E+00  4.93304E+00  5.50850E+00  6.24403E+00  3.24171E+00  5.57183E+00  3.32224E+00  4.13547E+00  4.91710E+00
   4.56855E+00  6.24265E+00  4.31661E+00  5.81078E+00  6.28890E+00  6.33892E+00  7.12273E+00  6.57043E+00  5.33748E+00  2.21481E+00
   4.46761E+00  4.36376E+00  6.31868E+00  5.94221E+00  6.55534E+00  6.00426E+00  6.53860E+00  5.56584E+00  3.86337E+00  2.51072E+00
   3.69480E+00  4.96468E+00  2.50114E+00  3.76550E+00  2.72062E+00  5.35872E+00  4.22912E+00  4.25466E+00  3.26248E+00  7.75066E+00
   4.68943E+00  3.27270E+00  4.09193E+00  5.65704E+00  4.15782E+00  5.11598E+00  4.53925E+00  6.48698E+00  4.64657E+00  7.43897E+00
   3.16509E-01  1.42430E+00  5.85300E+00  2.89235E+00  4.85430E+00  4.87730E+00  3.97498E+00  2.79769E+00  4.51836E+00  5.23020E+00
   4.71962E+00  4.49117E+00  2.64104E+00  1.79669E+00  4.52408E-01  1.86269E+00  6.92204E+00  6.49696E+00  4.70090E+00  5.69493E+00
   8.06363E+00  1.12441E+01  1.22751E+01  8.90116E+00  4.76304E+00  5.95229E+00  5.46805E+00  6.86111E+00  7.34618E+00  9.33919E+00
   8.27871E+00  4.98833E+00  8.25765E+00  4.76930E+00  5.89670E+00  5.20995E+00  5.98747E+00  3.48998E+00  7.53353E+00  4.02936E+00
   4.49808E+00  7.53631E+00  4.39944E+00  7.07956E+00  7.87753E+00  5.10807E+00  4.64751E+00  7.64101E+00  4.54088E+00  6.93909E+00
   7.92659E+00  7.16038E+00  7.59096E+00  4.50911E+00  7.28214E+00  7.22292E+00  8.11950E+00  4.45257E+00  9.22433E+00  7.70784E+00
   9.66154E+00  7.46625E+00  7.13879E+00  8.53179E+00  8.94561E+00  8.78041E+00  8.57378E+00  6.36030E+00  8.78718E+00  6.27784E+00
   6.26653E+00  7.64023E+00  6.36988E+00  4.62927E+00  6.73201E+00  5.44445E+00  7.01308E+00  1.01296E+01  7.95295E+00  8.61979E+00
   8.99637E+00  9.21234E+00  7.68245E+00  1.08344E+01  1.04245E+01  1.03081E+01  6.06209E+00  1.02536E+01  9.33592E+00  9.97068E+00
   8.59511E+00  8.90084E+00  8.55890E+00  7.15672E+00  7.78355E+00  6.87596E+00  6.59909E+00  8.60317E+00  7.69081E+00  7.44548E+00
   4.14027E+00  5.45889E+00  7.11627E+00  6.89361E+00  6.00139E+00  9.10689E+00  9.19480E+00  9.07008E+00  7.03486E+00  5.64783E+00
   7.26029E+00  7.58741E+00  5.28962E+00  8.17201E+00  5.66979E+00  6.15699E+00  5.32022E+00  8.68827E+00  5.81517E+00  5.48232E+00
   8.39502E+00  6.66267E+00  4.11274E+00  8.04477E+00  6.75577E+00  5.68976E+00  5.49548E+00  9.00755E+00  4.91709E+00  4.25002E+00
   7.66799E+00  6.93363E+00  7.69671E+00  5.31915E+00  4.28510E+00  3.39692E+00  4.09791E+00  3.74193E+00  1.92228E+00  5.50668E+00
   3.94462E+00  4.61792E+00  7.38036E+00  3.00815E+00  3.68125E+00  2.68284E+00  3.66161E+00  3.36753E+00  1.56870E+00  2.84865E+00
   3.29310E+00 -4.01069E-02  1.03493E+00  3.12997E+00  2.27707E+00  2.00188E+00  4.28574E+00  2.76755E+00  4.41918E+00  3.19564E+00
   3.41155E+00  2.61182E+00  4.01851E+00  1.45141E+00  2.05926E+00  4.66948E+00  2.61447E+00  3.34536E+00  2.08992E+00  3.43912E+00
   1.53566E+00  2.64209E+00  1.80332E+00  3.26840E+00  1.74654E+00  2.25195E+00  8.04688E-01  2.10648E+00 -9.01430E-02  1.99485E+00
   8.01977E-01  3.69414E-01  1.93139E+00  2.12324E+00  2.25537E+00 -6.19312E-01  1.63926E+00  3.47536E+00  3.32286E+00  2.47306E+00
   2.04057E+00  1.54563E+00  2.02177E+00  1.20835E+00  3.03522E+00  2.55995E-01  4.42397E-01  1.49724E+00 -3.51215E-01  3.80387E+00
   2.44255E+00  6.95769E-01  1.73154E+00  2.76819E+00 -1.73728E+00  8.80018E-01  2.29485E+00  2.51087E-01  1.95287E+00  8.04747E-01
   1.41649E+00  1.52945E+00  2.92181E+00  5.53533E-01  1.16983E+00  1.85302E+00  1.00510E+00 -7.13590E-01  9.24369E-01  1.66600E+00
   9.53749E-01  1.35185E+00  1.97166E+00  2.54160E+00  1.85840E-01  1.69673E-01  2.26501E+00  2.05836E+00  5.04381E-01  7.91850E-01
   2.46891E+00 -5.42876E-01  1.78701E+00  3.00648E+00 -3.62327E-01  1.46069E+00 -2.31232E-01  1.92478E+00  1.09970E+00  9.04919E-01
   1.12882E+00 -2.68180E-01  2.66524E+00 -1.70596E-01  1.83712E+00 -1.94550E-01  2.37917E+00  8.92042E-01  8.47728E-01  3.23873E+00
   1.10522E+00  7.49125E-01  2.08531E+00  5.38266E-01 -3.54841E-01  8.68887E-01  2.21423E+00  2.17731E+00
 NY points of the fit to the data follow
   1.26488E+01  1.25706E+01  1.24681E+01  1.23836E+01  1.23797E+01  1.24384E+01  1.23802E+01  1.24376E+01  1.30190E+01  1.39409E+01
   1.44458E+01  1.42293E+01  1.37524E+01  1.33730E+01  1.29179E+01  1.23775E+01  1.21180E+01  1.19258E+01  1.17063E+01  1.15324E+01
   1.14232E+01  1.13914E+01  1.13848E+01  1.13202E+01  1.12281E+01  1.12426E+01  1.13150E+01  1.11067E+01  1.06370E+01  1.05158E+01
   1.10029E+01  1.14625E+01  1.14242E+01  1.12985E+01  1.14123E+01  1.13621E+01  1.08925E+01  1.03786E+01  1.00906E+01  9.95883E+00
   9.90476E+00  9.89757E+00  9.88156E+00  9.86560E+00  9.86391E+00  9.80846E+00  9.78185E+00  9.96938E+00  1.01833E+01  1.01322E+01
   9.84157E+00  9.55536E+00  9.37154E+00  9.21198E+00  9.05043E+00  8.95067E+00  8.90573E+00  8.85657E+00  8.80137E+00  8.79204E+00
   8.83578E+00  8.85354E+00  8.78309E+00  8.65096E+00  8.50993E+00  8.38053E+00  8.28072E+00  8.22142E+00  8.19057E+00  8.16499E+00
   8.12430E+00  8.09491E+00  8.09154E+00  8.07143E+00  8.00781E+00  7.93196E+00  7.88184E+00  7.82816E+00  7.73995E+00  7.65331E+00
   7.58591E+00  7.52882E+00  7.47946E+00  7.42844E+00  7.37486E+00  7.33635E+00  7.30065E+00  7.20955E+00  7.05582E+00  6.92188E+00
   6.87303E+00  6.87605E+00  6.87430E+00  6.86544E+00  6.85285E+00  6.84198E+00  6.82804E+00  6.80712E+00  6.81132E+00  6.90079E+00
   6.86739E+00  6.82209E+00  7.43084E+00  8.73972E+00  9.56867E+00  9.03643E+00  7.92235E+00  7.37538E+00  7.24766E+00  6.85306E+00
   6.48410E+00  6.36206E+00  6.30129E+00  6.25829E+00  6.21869E+00  6.18206E+00  6.14668E+00  6.11689E+00  6.09084E+00  6.05809E+00
   6.02308E+00  6.03031E+00  6.17533E+00  6.38449E+00  6.33358E+00  6.63545E+00  8.13968E+00  1.00876E+01  1.05235E+01  9.13058E+00
   7.68569E+00  7.25607E+00  7.01373E+00  6.42195E+00  6.12322E+00  5.93479E+00  5.69566E+00  5.50794E+00  5.43792E+00  5.44059E+00
   5.49640E+00  5.60151E+00  5.67908E+00  5.68306E+00  5.64249E+00  5.59603E+00  5.56000E+00  5.51983E+00  5.46313E+00  5.42470E+00
   5.39568E+00  5.36247E+00  5.32732E+00  5.29956E+00  5.27367E+00  5.24689E+00  5.23168E+00  5.22494E+00  5.21878E+00  5.20454E+00
   5.16150E+00  5.08876E+00  5.02180E+00  5.01606E+00  5.07614E+00  5.13476E+00  5.13326E+00  5.08313E+00  5.03067E+00  5.00603E+00
   4.99309E+00  4.96099E+00  4.93090E+00  4.91743E+00  4.90949E+00  4.87106E+00  4.79382E+00  4.74280E+00  4.78419E+00  4.86688E+00
   4.87166E+00  4.78689E+00  4.72905E+00  4.75728E+00  4.80543E+00  4.80945E+00  4.75079E+00  4.70258E+00  4.73880E+00  4.86445E+00
   5.02010E+00  5.13003E+00  5.16332E+00  5.13555E+00  5.06475E+00  5.00178E+00  4.96288E+00  4.89453E+00  4.81299E+00  4.81466E+00
   4.91400E+00  4.99791E+00  5.01496E+00  5.04813E+00  5.17291E+00  5.26406E+00  5.21425E+00  5.08280E+00  4.96850E+00  4.86200E+00
   4.72989E+00  4.65423E+00  4.71273E+00  4.82837E+00  5.08622E+00  5.65113E+00  6.19625E+00  6.10939E+00  5.44967E+00  4.86924E+00
   4.57372E+00  4.10010E+00  3.38825E+00  3.21789E+00  3.81180E+00  4.62995E+00  5.08185E+00  5.22967E+00  5.42108E+00  5.58556E+00
   5.50799E+00  5.28130E+00  5.12224E+00  5.12560E+00  5.24609E+00  5.34217E+00  5.41173E+00  5.52857E+00  5.58544E+00  5.43567E+00
   5.17079E+00  4.97058E+00  4.88921E+00  4.89182E+00  5.02830E+00  5.30258E+00  5.54640E+00  5.64104E+00  5.67070E+00  5.65961E+00
   5.50664E+00  5.31628E+00  5.29355E+00  5.44987E+00  5.61439E+00  5.77858E+00  6.05101E+00  6.24681E+00  6.14496E+00  6.68928E+00
   8.56187E+00  1.03863E+01  1.02049E+01  8.45137E+00  7.19972E+00  6.94649E+00  6.54847E+00  5.87726E+00  5.70301E+00  5.67158E+00
   5.62924E+00  5.62214E+00  5.64847E+00  5.71447E+00  5.81522E+00  5.89263E+00  5.92344E+00  5.94030E+00  5.96250E+00  5.96759E+00
   5.95321E+00  5.94463E+00  5.95457E+00  5.97594E+00  5.99657E+00  6.01643E+00  6.04203E+00  6.06705E+00  6.08493E+00  6.10168E+00
   6.12091E+00  6.13948E+00  6.15540E+00  6.17154E+00  6.18946E+00  6.20691E+00  6.22349E+00  6.24052E+00  6.25758E+00  6.27408E+00
   6.29008E+00  6.30535E+00  6.32047E+00  6.33578E+00  6.35062E+00  6.36415E+00  6.37663E+00  6.38886E+00  6.40108E+00  6.41312E+00
   6.42528E+00  6.43773E+00  6.45054E+00  6.46393E+00  6.47821E+00  6.49371E+00  6.51075E+00  6.52965E+00  6.55093E+00  6.57543E+00
   6.60446E+00  6.64035E+00  6.68781E+00  6.74752E+00  6.78580E+00  6.82411E+00  6.97331E+00  7.14655E+00  7.06380E+00  6.67224E+00
   6.31968E+00  6.28905E+00  6.40517E+00  6.35970E+00  6.34115E+00  6.66524E+00  7.20259E+00  7.57646E+00  7.60107E+00  7.51563E+00
   7.55568E+00  7.61903E+00  7.60966E+00  7.63852E+00  7.65412E+00  7.71619E+00  7.92610E+00  8.07659E+00  7.82169E+00  7.24382E+00
   6.84422E+00  6.83762E+00  6.83131E+00  6.64889E+00  6.72761E+00  7.20312E+00  7.63047E+00  7.63591E+00  7.35457E+00  7.15199E+00
   7.04321E+00  6.83007E+00  6.60238E+00  6.42345E+00  6.26227E+00  6.10827E+00  5.95856E+00  5.81239E+00  5.66986E+00  5.53130E+00
   5.39706E+00  5.26744E+00  5.14268E+00  5.02301E+00  4.90860E+00  4.79951E+00  4.69566E+00  4.59687E+00  4.50295E+00  4.41370E+00
   4.32891E+00  4.24834E+00  4.17168E+00  4.09858E+00  4.02876E+00  3.96199E+00  3.89805E+00  3.83671E+00  3.77769E+00  3.72073E+00
   3.66567E+00  3.61235E+00  3.56064E+00  3.51036E+00  3.46133E+00  3.41338E+00  3.36643E+00  3.32040E+00  3.27520E+00  3.23071E+00
   3.18681E+00  3.14342E+00  3.10053E+00  3.05812E+00  3.01615E+00  2.97458E+00  2.93336E+00  2.89251E+00  2.85208E+00  2.81208E+00
   2.77252E+00  2.73336E+00  2.69461E+00  2.65632E+00  2.61853E+00  2.58125E+00  2.54447E+00  2.50816E+00  2.47232E+00  2.43699E+00
   2.40217E+00  2.36785E+00  2.33398E+00  2.30054E+00  2.26751E+00  2.23493E+00  2.20278E+00  2.17104E+00  2.13965E+00  2.10859E+00
   2.07789E+00  2.04756E+00  2.01759E+00  1.98793E+00  1.95856E+00  1.92947E+00  1.90071E+00  1.87226E+00  1.84413E+00  1.81626E+00
   1.78864E+00  1.76130E+00  1.73425E+00  1.70751E+00  1.68103E+00  1.65479E+00  1.62880E+00  1.60307E+00  1.57763E+00  1.55247E+00
   1.52755E+00  1.50285E+00  1.47839E+00  1.45420E+00  1.43027E+00  1.40659E+00  1.38311E+00  1.35984E+00  1.33679E+00  1.31397E+00
   1.29137E+00  1.26896E+00  1.24673E+00  1.22466E+00  1.20279E+00  1.18113E+00  1.15964E+00  1.13830E+00  1.11709E+00  1.09603E+00
   1.07514E+00  1.05441E+00  1.03382E+00  1.01334E+00  9.92969E-01  9.72725E-01  9.52620E-01  9.32637E-01  9.12749E-01  8.92938E-01
   8.73213E-01  8.53592E-01  8.34079E-01  8.14650E-01  7.95278E-01  7.75959E-01  7.56707E-01  7.37538E-01  7.18443E-01  6.99396E-01
   6.80379E-01  6.61395E-01  6.42464E-01  6.23592E-01  6.04767E-01  5.85963E-01  5.67172E-01  5.48407E-01
 NY background values follow
     1.266E+01    1.259E+01    1.252E+01    1.245E+01    1.238E+01    1.230E+01    1.223E+01    1.216E+01    1.209E+01    1.201E+01
     1.194E+01    1.187E+01    1.180E+01    1.173E+01    1.165E+01    1.158E+01    1.151E+01    1.144E+01    1.137E+01    1.130E+01
     1.122E+01    1.115E+01    1.108E+01    1.101E+01    1.094E+01    1.087E+01    1.080E+01    1.073E+01    1.066E+01    1.058E+01
     1.051E+01    1.044E+01    1.038E+01    1.031E+01    1.024E+01    1.017E+01    1.010E+01    1.003E+01    9.963E+00    9.895E+00
     9.828E+00    9.761E+00    9.694E+00    9.628E+00    9.562E+00    9.496E+00    9.431E+00    9.366E+00    9.301E+00    9.237E+00
     9.173E+00    9.110E+00    9.047E+00    8.985E+00    8.923E+00    8.861E+00    8.800E+00    8.739E+00    8.679E+00    8.619E+00
     8.560E+00    8.501E+00    8.443E+00    8.385E+00    8.327E+00    8.270E+00    8.214E+00    8.158E+00    8.103E+00    8.048E+00
     7.993E+00    7.939E+00    7.886E+00    7.833E+00    7.781E+00    7.729E+00    7.678E+00    7.628E+00    7.577E+00    7.528E+00
     7.479E+00    7.431E+00    7.383E+00    7.336E+00    7.289E+00    7.243E+00    7.198E+00    7.153E+00    7.109E+00    7.066E+00
     7.023E+00    6.981E+00    6.939E+00    6.898E+00    6.858E+00    6.818E+00    6.779E+00    6.741E+00    6.703E+00    6.665E+00
     6.629E+00    6.592E+00    6.557E+00    6.522E+00    6.487E+00    6.453E+00    6.419E+00    6.386E+00    6.354E+00    6.322E+00
     6.290E+00    6.259E+00    6.229E+00    6.199E+00    6.169E+00    6.140E+00    6.111E+00    6.083E+00    6.055E+00    6.028E+00
     6.001E+00    5.974E+00    5.948E+00    5.922E+00    5.897E+00    5.872E+00    5.847E+00    5.822E+00    5.798E+00    5.775E+00
     5.751E+00    5.728E+00    5.706E+00    5.683E+00    5.661E+00    5.639E+00    5.618E+00    5.597E+00    5.576E+00    5.555E+00
     5.535E+00    5.514E+00    5.495E+00    5.475E+00    5.456E+00    5.437E+00    5.418E+00    5.399E+00    5.381E+00    5.363E+00
     5.346E+00    5.329E+00    5.312E+00    5.295E+00    5.278E+00    5.262E+00    5.246E+00    5.231E+00    5.216E+00    5.201E+00
     5.186E+00    5.171E+00    5.157E+00    5.143E+00    5.130E+00    5.117E+00    5.104E+00    5.091E+00    5.079E+00    5.067E+00
     5.055E+00    5.043E+00    5.032E+00    5.021E+00    5.011E+00    5.000E+00    4.991E+00    4.981E+00    4.971E+00    4.962E+00
     4.954E+00    4.945E+00    4.937E+00    4.929E+00    4.921E+00    4.914E+00    4.907E+00    4.901E+00    4.894E+00    4.888E+00
     4.883E+00    4.877E+00    4.873E+00    4.868E+00    4.864E+00    4.860E+00    4.856E+00    4.853E+00    4.850E+00    4.848E+00
     4.846E+00    4.844E+00    4.843E+00    4.842E+00    4.841E+00    4.841E+00    4.841E+00    4.842E+00    4.843E+00    4.844E+00
     4.846E+00    4.848E+00    4.851E+00    4.854E+00    4.857E+00    4.861E+00    4.865E+00    4.870E+00    4.875E+00    4.881E+00
     4.887E+00    4.894E+00    4.901E+00    4.908E+00    4.916E+00    4.924E+00    4.933E+00    4.942E+00    4.952E+00    4.962E+00
     4.973E+00    4.984E+00    4.995E+00    5.007E+00    5.019E+00    5.032E+00    5.045E+00    5.058E+00    5.071E+00    5.085E+00
     5.099E+00    5.114E+00    5.128E+00    5.143E+00    5.158E+00    5.173E+00    5.189E+00    5.205E+00    5.221E+00    5.237E+00
     5.253E+00    5.269E+00    5.286E+00    5.302E+00    5.319E+00    5.336E+00    5.352E+00    5.369E+00    5.386E+00    5.403E+00
     5.420E+00    5.437E+00    5.454E+00    5.471E+00    5.488E+00    5.504E+00    5.521E+00    5.538E+00    5.554E+00    5.571E+00
     5.587E+00    5.603E+00    5.619E+00    5.635E+00    5.651E+00    5.666E+00    5.681E+00    5.696E+00    5.711E+00    5.725E+00
     5.740E+00    5.753E+00    5.767E+00    5.780E+00    5.793E+00    5.805E+00    5.817E+00    5.829E+00    5.840E+00    5.850E+00
     5.861E+00    5.870E+00    5.879E+00    5.888E+00    5.896E+00    5.904E+00    5.910E+00    5.917E+00    5.922E+00    5.927E+00
     5.932E+00    5.935E+00    5.938E+00    5.941E+00    5.942E+00    5.943E+00    5.943E+00    5.942E+00    5.941E+00    5.938E+00
     5.935E+00    5.931E+00    5.926E+00    5.920E+00    5.913E+00    5.906E+00    5.897E+00    5.887E+00    5.877E+00    5.865E+00
     5.853E+00    5.840E+00    5.825E+00    5.810E+00    5.794E+00    5.778E+00    5.760E+00    5.742E+00    5.722E+00    5.702E+00
     5.682E+00    5.660E+00    5.638E+00    5.615E+00    5.591E+00    5.567E+00    5.542E+00    5.516E+00    5.490E+00    5.463E+00
     5.435E+00    5.407E+00    5.378E+00    5.349E+00    5.319E+00    5.289E+00    5.258E+00    5.226E+00    5.195E+00    5.162E+00
     5.129E+00    5.096E+00    5.063E+00    5.029E+00    4.994E+00    4.959E+00    4.924E+00    4.888E+00    4.853E+00    4.816E+00
     4.780E+00    4.743E+00    4.706E+00    4.669E+00    4.631E+00    4.594E+00    4.556E+00    4.517E+00    4.479E+00    4.440E+00
     4.402E+00    4.363E+00    4.324E+00    4.285E+00    4.245E+00    4.206E+00    4.166E+00    4.127E+00    4.087E+00    4.048E+00
     4.008E+00    3.968E+00    3.928E+00    3.888E+00    3.849E+00    3.809E+00    3.769E+00    3.729E+00    3.690E+00    3.650E+00
     3.611E+00    3.571E+00    3.532E+00    3.493E+00    3.454E+00    3.415E+00    3.376E+00    3.337E+00    3.299E+00    3.260E+00
     3.222E+00    3.184E+00    3.147E+00    3.109E+00    3.072E+00    3.035E+00    2.998E+00    2.962E+00    2.926E+00    2.890E+00
     2.855E+00    2.819E+00    2.784E+00    2.750E+00    2.715E+00    2.681E+00    2.647E+00    2.614E+00    2.580E+00    2.547E+00
     2.514E+00    2.482E+00    2.450E+00    2.418E+00    2.386E+00    2.354E+00    2.323E+00    2.292E+00    2.262E+00    2.231E+00
     2.201E+00    2.171E+00    2.142E+00    2.112E+00    2.083E+00    2.054E+00    2.026E+00    1.998E+00    1.970E+00    1.942E+00
     1.914E+00    1.887E+00    1.860E+00    1.833E+00    1.806E+00    1.780E+00    1.754E+00    1.728E+00    1.702E+00    1.677E+00
     1.652E+00    1.627E+00    1.602E+00    1.578E+00    1.554E+00    1.530E+00    1.506E+00    1.483E+00    1.459E+00    1.436E+00
     1.413E+00    1.391E+00    1.368E+00    1.346E+00    1.323E+00    1.301E+00    1.280E+00    1.258E+00    1.236E+00    1.215E+00
     1.194E+00    1.172E+00    1.151E+00    1.131E+00    1.110E+00    1.089E+00    1.069E+00    1.048E+00    1.028E+00    1.008E+00
     9.875E-01    9.674E-01    9.474E-01    9.274E-01    9.075E-01    8.877E-01    8.680E-01    8.482E-01    8.286E-01    8.089E-01
     7.893E-01    7.698E-01    7.502E-01    7.307E-01    7.111E-01    6.916E-01    6.721E-01    6.526E-01
 Ala      Conc. = 3.08E+01
