 LCModel (Version 6.3-1L) Copyright: S.W. Provencher.          Ref.: Magn. Reson. Med. 30:672-679 (1993).                
 Slice#2 Row#14 Col#10  K_02_press_1_raw_act
 36 lines in following concentration table = NCONC+1
    Conc.  %SD /Cr+PCr  Metabolite                                         
    0.000 999%   0.000 Ala                                                 
    7.945 239%   0.132 Asp                                                 
   60.395  44%   1.000 Cr                                                  
    0.000 999%   0.000 PCr                                                 
    3.588 320% 5.9E-02 GABA                                                
    5.665 203% 9.4E-02 Glc                                                 
  608.591  37%  10.077 Gln                                                 
 1.20E+03  22%  19.797 Glu                                                 
   27.660  36%   0.458 GPC                                                 
    0.000 999%   0.000 PCh                                                 
    0.000 999%   0.000 GSH                                                 
  166.049  65%   2.749 Ins                                                 
  318.874  52%   5.280 Lac                                                 
    0.000 999%   0.000 NAA                                                 
    0.000 999%   0.000 NAAG                                                
    1.850 200% 3.1E-02 Scyllo                                              
   11.607 161%   0.192 Tau                                                 
    0.000 999%   0.000 -CrCH2                                              
   27.660  36%   0.458 GPC+PCh                                             
    0.000 999%   0.000 NAA+NAAG                                            
   60.395  44%   1.000 Cr+PCr                                              
 1.80E+03  20%  29.874 Glu+Gln                                             
    0.000 999%   0.000 Lip13a                                              
    0.000 999%   0.000 Lip13b                                              
    0.000 999%   0.000 Lip09                                               
  195.804  20%   3.242 MM09                                                
    0.000 999%   0.000 Lip20                                               
  203.175  35%   3.364 MM20                                                
   51.224  53%   0.848 MM12                                                
  407.893  18%   6.754 MM14                                                
  187.568  29%   3.106 MM17                                                
    0.000 999%   0.000 Lip13a+Lip13b                                       
  459.117  18%   7.602 MM14+Lip13a+Lip13b+MM12                             
  195.804  20%   3.242 MM09+Lip09                                          
  203.175  35%   3.364 MM20+Lip20                                          
   6 lines in following misc. output table
  FWHM = 0.168 ppm    S/N =   2                                            
  Data shift =-0.008 ppm                                                   
  Ph:-157 deg       6.5 deg/ppm                                            
  alphaB,S = 8.5E+01,   1.0E+02                                            
   12 spline knots.   Ns = 9(2)                                            
   2 inflections.     1 extrema                                            
  498 points on ppm-axis = NY
      4.000000     3.992357     3.984714     3.977070     3.969427     3.961784     3.954141     3.946497     3.938854     3.931211
      3.923568     3.915925     3.908281     3.900638     3.892995     3.885352     3.877708     3.870065     3.862422     3.854779
      3.847136     3.839492     3.831849     3.824206     3.816563     3.808919     3.801276     3.793633     3.785990     3.778347
      3.770703     3.763060     3.755417     3.747774     3.740130     3.732487     3.724844     3.717201     3.709558     3.701914
      3.694271     3.686628     3.678985     3.671341     3.663698     3.656055     3.648412     3.640769     3.633125     3.625482
      3.617839     3.610196     3.602552     3.594909     3.587266     3.579623     3.571980     3.564336     3.556693     3.549050
      3.541407     3.533763     3.526120     3.518477     3.510834     3.503191     3.495547     3.487904     3.480261     3.472618
      3.464974     3.457331     3.449688     3.442045     3.434402     3.426758     3.419115     3.411472     3.403829     3.396185
      3.388542     3.380899     3.373256     3.365613     3.357969     3.350326     3.342683     3.335040     3.327396     3.319753
      3.312110     3.304467     3.296824     3.289180     3.281537     3.273894     3.266251     3.258607     3.250964     3.243321
      3.235678     3.228034     3.220391     3.212748     3.205105     3.197462     3.189818     3.182175     3.174532     3.166889
      3.159245     3.151602     3.143959     3.136316     3.128673     3.121029     3.113386     3.105743     3.098100     3.090456
      3.082813     3.075170     3.067527     3.059884     3.052240     3.044597     3.036954     3.029311     3.021667     3.014024
      3.006381     2.998738     2.991095     2.983451     2.975808     2.968165     2.960522     2.952878     2.945235     2.937592
      2.929949     2.922306     2.914662     2.907019     2.899376     2.891733     2.884089     2.876446     2.868803     2.861160
      2.853517     2.845873     2.838230     2.830587     2.822944     2.815300     2.807657     2.800014     2.792371     2.784728
      2.777084     2.769441     2.761798     2.754155     2.746511     2.738868     2.731225     2.723582     2.715939     2.708295
      2.700652     2.693009     2.685366     2.677722     2.670079     2.662436     2.654793     2.647150     2.639506     2.631863
      2.624220     2.616577     2.608933     2.601290     2.593647     2.586004     2.578361     2.570717     2.563074     2.555431
      2.547788     2.540144     2.532501     2.524858     2.517215     2.509572     2.501928     2.494285     2.486642     2.478999
      2.471355     2.463712     2.456069     2.448426     2.440783     2.433139     2.425496     2.417853     2.410210     2.402566
      2.394923     2.387280     2.379637     2.371994     2.364350     2.356707     2.349064     2.341421     2.333777     2.326134
      2.318491     2.310848     2.303205     2.295561     2.287918     2.280275     2.272632     2.264988     2.257345     2.249702
      2.242059     2.234416     2.226772     2.219129     2.211486     2.203843     2.196199     2.188556     2.180913     2.173270
      2.165627     2.157983     2.150340     2.142697     2.135054     2.127410     2.119767     2.112124     2.104481     2.096838
      2.089194     2.081551     2.073908     2.066265     2.058621     2.050978     2.043335     2.035692     2.028049     2.020405
      2.012762     2.005119     1.997476     1.989833     1.982190     1.974546     1.966903     1.959260     1.951617     1.943974
      1.936331     1.928688     1.921045     1.913402     1.905759     1.898115     1.890472     1.882829     1.875186     1.867543
      1.859900     1.852257     1.844614     1.836971     1.829327     1.821684     1.814041     1.806398     1.798755     1.791112
      1.783469     1.775826     1.768183     1.760540     1.752896     1.745253     1.737610     1.729967     1.722324     1.714681
      1.707038     1.699395     1.691752     1.684108     1.676465     1.668822     1.661179     1.653536     1.645893     1.638250
      1.630607     1.622964     1.615321     1.607677     1.600034     1.592391     1.584748     1.577105     1.569462     1.561819
      1.554176     1.546533     1.538890     1.531246     1.523603     1.515960     1.508317     1.500674     1.493031     1.485388
      1.477745     1.470102     1.462458     1.454815     1.447172     1.439529     1.431886     1.424243     1.416600     1.408957
      1.401314     1.393671     1.386027     1.378384     1.370741     1.363098     1.355455     1.347812     1.340169     1.332526
      1.324883     1.317240     1.309596     1.301953     1.294310     1.286667     1.279024     1.271381     1.263738     1.256095
      1.248452     1.240808     1.233165     1.225522     1.217879     1.210236     1.202593     1.194950     1.187307     1.179664
      1.172021     1.164377     1.156734     1.149091     1.141448     1.133805     1.126162     1.118519     1.110876     1.103233
      1.095590     1.087946     1.080303     1.072660     1.065017     1.057374     1.049731     1.042088     1.034445     1.026802
      1.019158     1.011515     1.003872     0.996229     0.988586     0.980943     0.973300     0.965657     0.958014     0.950371
      0.942727     0.935084     0.927441     0.919798     0.912155     0.904512     0.896869     0.889226     0.881583     0.873940
      0.866296     0.858653     0.851010     0.843367     0.835724     0.828081     0.820438     0.812795     0.805152     0.797508
      0.789865     0.782222     0.774579     0.766936     0.759293     0.751650     0.744007     0.736364     0.728721     0.721077
      0.713434     0.705791     0.698148     0.690505     0.682862     0.675219     0.667576     0.659933     0.652290     0.644646
      0.637003     0.629360     0.621717     0.614074     0.606431     0.598788     0.591145     0.583502     0.575858     0.568215
      0.560572     0.552929     0.545286     0.537643     0.530000     0.522357     0.514714     0.507071     0.499427     0.491784
      0.484141     0.476498     0.468855     0.461212     0.453569     0.445925     0.438282     0.430639     0.422996     0.415353
      0.407710     0.400067     0.392424     0.384780     0.377137     0.369494     0.361851     0.354208     0.346565     0.338922
      0.331278     0.323635     0.315992     0.308349     0.300706     0.293063     0.285420     0.277777     0.270133     0.262490
      0.254847     0.247204     0.239561     0.231918     0.224275     0.216631     0.208988     0.201345
 NY phased data points follow
  -1.81865E-01  1.35387E+00 -6.07900E-02 -6.17239E-01 -8.04147E-01  3.65024E-01  8.50540E-01  2.42378E+00  1.73208E+00  1.32629E+00
   7.94864E-01  7.46614E-02  4.42979E-01  2.04712E+00  1.28327E+00  1.76563E+00  1.70371E+00  2.43944E+00  3.23846E+00  7.89656E-01
   1.03856E+00  1.29898E+00  2.63974E+00  8.75397E-01  4.84730E-01  3.76421E-01  2.20461E+00  2.60392E+00  6.87535E-01  2.55887E+00
   5.23280E-01  6.58620E-01  1.15774E+00  1.36798E+00  8.26775E-01  3.77653E+00  8.38980E-01  1.52798E+00  1.21477E+00  2.02534E+00
   1.89119E-01  3.32734E-01  3.16601E+00  2.12069E+00  1.01674E+00  1.53701E+00  5.25180E-01  1.71908E+00  1.83582E+00  1.95318E+00
   1.37086E+00  1.03709E-01  6.16600E-01  2.10077E+00  4.06191E-01  2.68614E-02  7.42895E-01  3.44961E-01  8.81298E-01  2.10813E+00
   2.08200E+00  2.01448E+00  1.37089E-01 -5.45958E-03  4.71975E-03  1.32245E+00  4.13821E-01  5.67284E-01 -9.98911E-01  3.40845E-01
   3.30121E+00  6.90741E-01  1.96696E+00  1.17832E+00  1.45168E+00 -8.91758E-01  1.59042E+00  1.74984E+00 -4.50647E-02  1.76346E+00
   1.21262E+00  3.41213E-01  3.29373E-01  1.04857E+00  1.02815E+00  2.21298E+00  3.24493E-01  1.03977E+00  5.78161E-01  1.01241E+00
  -1.78173E+00  2.47872E-01 -1.25163E-01 -1.63018E+00 -6.47593E-02 -3.67060E-01  2.71844E+00  1.92818E+00  1.49834E+00  1.69197E+00
  -2.44956E+00  1.91154E+00  1.25340E+00 -1.79613E-01  3.43736E-01 -5.18415E-02  8.84939E-01  1.77771E+00  1.90779E+00  2.87040E+00
   1.80070E-01  7.10095E-01  1.71884E+00  2.71944E+00  1.63898E+00  1.62045E+00 -1.36981E-02  1.57528E-01 -2.27442E-01  1.77178E+00
   1.16499E-01  7.32605E-01  3.16729E+00  4.56403E-01  3.52910E-01  3.26499E-01 -2.73993E-01  8.82583E-01  1.82101E+00  5.19960E-01
   1.40387E+00  1.92726E-01  5.03776E-01  9.42472E-01 -5.19559E-01  1.20024E+00  2.15130E+00 -1.64164E-01  1.41331E+00  8.54528E-01
  -4.33426E-01  2.26532E+00 -8.56352E-02  2.89446E+00  7.27052E-01  6.82110E-01  3.15642E-01  1.10534E+00  3.37436E-01 -1.40980E+00
  -4.53697E-01  6.10940E-01 -5.09555E-01 -2.66849E-01 -8.73412E-01 -9.18190E-01 -1.97604E+00  6.28764E-01  1.02900E+00  9.35465E-01
  -1.78990E+00  9.64696E-01  1.45792E-01 -1.12028E-01  1.37195E+00  2.61758E+00 -2.73844E-01 -2.50995E+00  2.16424E+00  1.45331E+00
   9.06734E-02 -1.31971E+00 -3.48336E-04  9.88968E-01  1.12756E+00 -9.58267E-01 -8.52326E-01  6.45933E-01  5.98864E-01 -1.88083E+00
   4.62293E-01 -2.64207E-01  7.03039E-01 -1.21912E+00  6.44653E-01  2.17433E+00  1.12895E+00  7.88751E-01  3.08348E-01  1.48563E+00
  -1.76962E+00 -2.64161E-01 -3.42113E-01 -2.93051E-01  2.71695E-01 -7.12129E-01 -8.68525E-01  8.15080E-01 -1.83033E+00 -1.13469E+00
   1.02742E+00 -8.60693E-01  6.78138E-01  1.31550E+00  1.26234E+00 -8.01766E-01  1.11308E+00  6.96162E-01  4.45482E-01  2.27760E-01
  -2.20861E-01  2.64277E+00  1.25157E+00 -3.96151E-01  1.22839E+00  1.20374E+00  2.27143E-01  1.57006E+00  4.11772E-01 -2.52907E-01
   9.71333E-01  1.59393E-01 -3.41393E-01 -5.16440E-01 -7.76759E-01  4.55342E-01  6.73150E-01 -3.02608E-01  5.20216E-01  2.59291E-02
   1.32735E+00  1.70178E+00 -4.63854E-01 -2.20435E-01  1.58190E+00  1.10230E+00  2.24539E+00 -9.04060E-02  2.65613E-01  2.13002E+00
   1.28358E+00 -5.45124E-01  1.26957E+00  7.19832E-01  2.06011E+00  1.65836E+00  1.61868E+00 -1.88361E-01  7.44718E-02  6.68559E-01
   3.86788E-01  1.53524E+00  1.14262E+00  1.38057E-01  5.13659E-01  2.61349E+00  1.48036E+00  1.59298E+00  1.24334E+00  1.80163E+00
   1.96702E+00  9.46898E-01  1.04333E+00  2.77145E+00  9.98286E-01  1.91955E+00  7.91825E-01  1.28356E+00  1.96940E+00  1.94910E+00
   1.75590E+00 -3.84239E-01  7.58306E-02  1.05423E+00  2.00518E+00  2.19129E+00  1.19646E+00  5.26450E-01  1.50641E+00  5.70600E-01
   2.25332E+00  1.84550E+00  2.69693E+00  3.24204E+00  9.88282E-01  1.31189E+00  1.38506E+00  9.27929E-01  1.31771E+00  1.51987E+00
   2.53111E-01 -1.07646E+00  2.86499E+00  1.80578E+00  1.41974E+00  1.04049E+00  1.92911E+00  7.29125E-01  2.77392E+00  3.28672E+00
   2.84200E+00  1.69651E+00  7.54067E-01  2.05405E+00  2.50102E+00  3.84030E+00  3.75014E+00  2.92149E+00  3.06859E+00  2.24812E+00
   1.51867E+00  2.06285E+00  3.68273E+00  2.80116E+00  2.73622E+00  2.10101E+00  2.39762E+00  3.37310E+00 -3.16197E-02  2.84221E+00
   3.20638E+00  3.35533E+00  4.60561E+00  3.12368E+00  3.06756E+00  4.91356E+00  4.44388E+00  4.06219E+00  2.86017E+00  4.28583E+00
   2.60459E+00  5.71540E+00  4.25226E+00  6.02347E+00  6.50450E+00  5.91671E+00  4.70732E+00  4.04891E+00  4.46109E+00  5.09719E+00
   3.50322E+00  2.92966E+00  2.75754E+00  2.77581E+00  2.27015E+00  2.23474E+00  2.20910E+00  2.60960E+00  3.03589E+00  7.57699E-01
   1.96049E+00  1.03867E+00  1.78561E+00  1.70405E+00  1.48673E+00  1.90437E+00  2.13088E+00  3.18630E+00  1.61600E+00  7.56169E-01
   4.78828E-02  2.35684E+00  9.95103E-01  2.23434E+00  2.93855E-01  8.30151E-01  1.66959E+00  3.47882E+00  2.95476E+00  2.28210E+00
   3.44734E+00  2.24182E+00  2.73247E+00  1.71768E+00  2.61829E+00  7.43637E-01  1.19043E+00  3.12729E+00  3.79315E-01  1.49781E+00
  -5.81241E-02  3.68633E-01 -9.52904E-01  3.17355E-01  2.89568E+00  1.26259E+00  4.42125E-02  4.17825E+00  1.63895E+00  2.26467E+00
   2.12969E+00  1.02548E+00  1.47899E+00  1.33936E+00  1.12837E+00  3.57079E+00  4.09735E+00  2.11503E+00  2.48380E+00  2.68429E+00
   2.37313E+00  1.15378E+00  2.55498E+00  1.02220E+00  2.84765E+00  2.52517E+00  1.31972E+00  1.46815E+00  1.63221E+00  2.99923E+00
   2.82445E+00  2.13514E+00  3.17445E+00  2.41271E+00  2.02119E+00  2.38477E+00  2.13653E+00  6.21357E-01  2.40134E+00  2.00850E+00
   7.50090E-01  2.64994E+00  1.50398E+00  4.06523E+00  8.02014E-01  1.56678E+00  8.38695E-01  2.60139E+00  2.11284E+00  2.75831E+00
   3.78583E+00  1.57686E+00  1.14678E+00 -1.09898E+00  1.88036E+00  9.02628E-01  1.94263E+00  3.21031E+00  2.84590E+00  1.84202E+00
   3.07418E+00  2.04792E+00  1.46718E+00  1.03650E+00  1.32176E+00  2.26457E+00  3.27805E+00  1.18817E+00  8.67566E-01  1.10200E+00
   1.42401E+00  4.32241E-01  1.58455E-01  1.55566E+00  1.99849E+00  2.20694E+00  1.12467E+00  1.52288E+00  1.34076E+00  2.19940E+00
   1.94475E+00  3.13053E+00  1.10352E+00  7.56056E-01  1.44266E+00  1.35997E+00  7.40703E-01  2.98254E-01  5.30125E-01  1.24802E+00
  -2.61068E-01  8.72778E-01  1.42467E+00  2.26533E+00  1.66491E+00  6.56849E-01 -1.01214E-01  1.48569E+00  1.14243E+00  2.09334E-01
   1.56222E+00  1.56793E+00 -1.10649E+00 -3.80924E-01  1.22121E+00  7.88894E-01  1.59365E+00  1.06295E+00 -5.34817E-02  6.73672E-01
   1.56322E+00 -1.29483E-01  9.19333E-01  9.67075E-01  5.51494E-02  3.01773E+00 -2.38496E-01  4.73588E-01
 NY points of the fit to the data follow
   4.86331E-01  6.19502E-01  5.82233E-01  7.08955E-01  7.02249E-01  8.13429E-01  8.18639E-01  8.93832E-01  9.10857E-01  9.58906E-01
   9.78713E-01  1.00418E+00  1.02253E+00  1.04176E+00  1.07456E+00  1.11538E+00  1.15976E+00  1.22905E+00  1.25863E+00  1.34200E+00
   1.29704E+00  1.38806E+00  1.29004E+00  1.41407E+00  1.29594E+00  1.48129E+00  1.32641E+00  1.54749E+00  1.30348E+00  1.54386E+00
   1.26257E+00  1.55700E+00  1.30564E+00  1.66595E+00  1.41720E+00  1.75116E+00  1.44299E+00  1.70228E+00  1.38540E+00  1.61539E+00
   1.38978E+00  1.62083E+00  1.48149E+00  1.69155E+00  1.56558E+00  1.70080E+00  1.58027E+00  1.64347E+00  1.53650E+00  1.51293E+00
   1.40772E+00  1.32852E+00  1.25834E+00  1.17529E+00  1.19688E+00  1.16039E+00  1.20067E+00  1.15780E+00  1.15258E+00  1.07437E+00
   1.02078E+00  9.28727E-01  8.96943E-01  8.16208E-01  7.96133E-01  7.27056E-01  7.18437E-01  6.64911E-01  6.72702E-01  6.39267E-01
   6.64037E-01  6.30342E-01  6.51044E-01  6.07040E-01  6.19808E-01  5.68833E-01  5.75295E-01  5.21441E-01  5.24921E-01  4.69753E-01
   4.70658E-01  4.17192E-01  4.20738E-01  3.69309E-01  3.79788E-01  3.45712E-01  3.56172E-01  3.43044E-01  3.49228E-01  3.69182E-01
   3.66769E-01  4.21678E-01  4.13310E-01  5.14176E-01  4.99320E-01  6.51094E-01  6.14038E-01  8.04071E-01  7.30653E-01  9.37045E-01
   8.35139E-01  1.05985E+00  9.32936E-01  1.16722E+00  1.00782E+00  1.21689E+00  1.03057E+00  1.19653E+00  1.00642E+00  1.14869E+00
   9.69924E-01  1.09694E+00  9.39332E-01  1.05791E+00  9.13555E-01  9.94267E-01  8.75692E-01  9.34382E-01  8.49466E-01  8.93466E-01
   8.44568E-01  8.78749E-01  8.62685E-01  8.90730E-01  9.09843E-01  9.70022E-01  9.91088E-01  1.04479E+00  1.05578E+00  1.07927E+00
   1.07335E+00  1.06239E+00  1.04216E+00  1.01264E+00  9.84921E-01  9.46808E-01  9.15469E-01  8.72005E-01  8.34170E-01  7.68430E-01
   7.22379E-01  6.46199E-01  5.96478E-01  5.15468E-01  4.67087E-01  3.93174E-01  3.52299E-01  2.97356E-01  2.71544E-01  2.55584E-01
   2.41920E-01  2.30600E-01  2.19301E-01  2.10256E-01  2.00362E-01  1.93005E-01  1.84152E-01  1.78268E-01  1.70312E-01  1.65976E-01
   1.58829E-01  1.56133E-01  1.49809E-01  1.48330E-01  1.42740E-01  1.42303E-01  1.37887E-01  1.38754E-01  1.35487E-01  1.37175E-01
   1.34953E-01  1.36989E-01  1.36027E-01  1.38430E-01  1.39273E-01  1.41866E-01  1.41544E-01  1.42461E-01  1.37782E-01  1.31111E-01
   1.22322E-01  1.06037E-01  9.55662E-02  7.39969E-02  7.33924E-02  5.26822E-02  6.29778E-02  4.79163E-02  7.88851E-02  6.07598E-02
   1.08778E-01  8.43680E-02  1.19327E-01  8.91641E-02  1.17684E-01  9.37341E-02  1.23927E-01  1.20548E-01  1.99990E-01  2.15017E-01
   3.05427E-01  3.23464E-01  3.97282E-01  3.97461E-01  4.26539E-01  3.90487E-01  4.45489E-01  3.90396E-01  4.60769E-01  3.97801E-01
   4.77155E-01  4.20572E-01  5.10353E-01  4.49115E-01  5.45364E-01  4.67671E-01  5.24823E-01  4.15962E-01  3.62970E-01  2.53637E-01
   1.13057E-01  5.09984E-02 -3.65694E-02  2.47246E-02  6.35309E-02  2.46173E-01  3.65519E-01  5.78395E-01  6.42704E-01  7.60888E-01
   7.46480E-01  7.62693E-01  6.68454E-01  6.23358E-01  6.61822E-01  6.21927E-01  8.24938E-01  7.65952E-01  1.17599E+00  1.04047E+00
   1.48198E+00  1.18757E+00  1.59424E+00  1.13779E+00  1.46894E+00  9.38409E-01  1.29479E+00  8.51082E-01  1.22795E+00  8.70905E-01
   1.22672E+00  9.36261E-01  1.25509E+00  1.01823E+00  1.27983E+00  1.12946E+00  1.30672E+00  1.22499E+00  1.28978E+00  1.30441E+00
   1.30574E+00  1.42575E+00  1.38730E+00  1.57008E+00  1.49295E+00  1.64437E+00  1.53103E+00  1.67169E+00  1.53485E+00  1.65048E+00
   1.52566E+00  1.62623E+00  1.50074E+00  1.58381E+00  1.47949E+00  1.56085E+00  1.47411E+00  1.54171E+00  1.46260E+00  1.49898E+00
   1.41826E+00  1.42692E+00  1.37794E+00  1.38648E+00  1.37582E+00  1.38384E+00  1.40407E+00  1.40964E+00  1.43824E+00  1.45189E+00
   1.48764E+00  1.50754E+00  1.55021E+00  1.58046E+00  1.62937E+00  1.67542E+00  1.73841E+00  1.79894E+00  1.86804E+00  1.93464E+00
   2.00262E+00  2.06701E+00  2.12607E+00  2.17950E+00  2.22656E+00  2.26659E+00  2.29978E+00  2.32621E+00  2.34730E+00  2.36397E+00
   2.37860E+00  2.39290E+00  2.41052E+00  2.43281E+00  2.46374E+00  2.50446E+00  2.55817E+00  2.62529E+00  2.70759E+00  2.80428E+00
   2.91539E+00  3.03877E+00  3.17263E+00  3.31376E+00  3.45903E+00  3.60491E+00  3.74811E+00  3.88649E+00  4.02187E+00  4.15810E+00
   4.25455E+00  4.35792E+00  4.39658E+00  4.45353E+00  4.41570E+00  4.40514E+00  4.29609E+00  4.27052E+00  4.10118E+00  4.07284E+00
   3.83488E+00  3.80094E+00  3.49827E+00  3.44229E+00  3.10342E+00  3.08099E+00  2.72358E+00  2.76054E+00  2.39008E+00  2.45889E+00
   2.10342E+00  2.19001E+00  1.87652E+00  2.02974E+00  1.77210E+00  1.99913E+00  1.79040E+00  2.01893E+00  1.81652E+00  1.96280E+00
   1.78152E+00  1.89128E+00  1.74573E+00  1.84423E+00  1.75491E+00  1.87793E+00  1.84873E+00  1.95306E+00  1.95660E+00  2.05004E+00
   2.01828E+00  2.00629E+00  1.94777E+00  1.86692E+00  1.79465E+00  1.68424E+00  1.61736E+00  1.57440E+00  1.54476E+00  1.52441E+00
   1.51146E+00  1.50495E+00  1.50438E+00  1.50956E+00  1.52044E+00  1.53707E+00  1.55951E+00  1.58786E+00  1.62216E+00  1.66242E+00
   1.70853E+00  1.76026E+00  1.81719E+00  1.87875E+00  1.94418E+00  2.01248E+00  2.08249E+00  2.15285E+00  2.22203E+00  2.28842E+00
   2.35037E+00  2.40623E+00  2.45445E+00  2.49363E+00  2.52262E+00  2.54054E+00  2.54685E+00  2.54136E+00  2.52427E+00  2.49611E+00
   2.45772E+00  2.41025E+00  2.35504E+00  2.29356E+00  2.22738E+00  2.15805E+00  2.08708E+00  2.01585E+00  1.94559E+00  1.87735E+00
   1.81197E+00  1.75011E+00  1.69221E+00  1.63855E+00  1.58927E+00  1.54433E+00  1.50363E+00  1.46697E+00  1.43410E+00  1.40474E+00
   1.37859E+00  1.35533E+00  1.33467E+00  1.31632E+00  1.30003E+00  1.28556E+00  1.27269E+00  1.26123E+00  1.25100E+00  1.24186E+00
   1.23368E+00  1.22635E+00  1.21976E+00  1.21384E+00  1.20851E+00  1.20371E+00  1.19938E+00  1.19547E+00  1.19195E+00  1.18877E+00
   1.18590E+00  1.18333E+00  1.18100E+00  1.17892E+00  1.17706E+00  1.17539E+00  1.17391E+00  1.17260E+00  1.17145E+00  1.17044E+00
   1.16956E+00  1.16882E+00  1.16819E+00  1.16767E+00  1.16725E+00  1.16693E+00  1.16669E+00  1.16655E+00  1.16648E+00  1.16649E+00
   1.16656E+00  1.16671E+00  1.16691E+00  1.16718E+00  1.16750E+00  1.16788E+00  1.16830E+00  1.16877E+00  1.16929E+00  1.16986E+00
   1.17046E+00  1.17110E+00  1.17178E+00  1.17250E+00  1.17325E+00  1.17403E+00  1.17484E+00  1.17569E+00  1.17656E+00  1.17745E+00
   1.17838E+00  1.17933E+00  1.18031E+00  1.18131E+00  1.18234E+00  1.18339E+00  1.18447E+00  1.18558E+00
 NY background values follow
     1.414E-02    1.633E-02    1.851E-02    2.070E-02    2.288E-02    2.507E-02    2.725E-02    2.944E-02    3.162E-02    3.381E-02
     3.599E-02    3.818E-02    4.036E-02    4.255E-02    4.473E-02    4.692E-02    4.911E-02    5.129E-02    5.348E-02    5.567E-02
     5.785E-02    6.004E-02    6.223E-02    6.442E-02    6.660E-02    6.879E-02    7.098E-02    7.317E-02    7.535E-02    7.754E-02
     7.973E-02    8.192E-02    8.411E-02    8.630E-02    8.849E-02    9.067E-02    9.286E-02    9.505E-02    9.724E-02    9.943E-02
     1.016E-01    1.038E-01    1.060E-01    1.082E-01    1.104E-01    1.126E-01    1.148E-01    1.170E-01    1.191E-01    1.213E-01
     1.235E-01    1.257E-01    1.279E-01    1.301E-01    1.323E-01    1.345E-01    1.367E-01    1.389E-01    1.411E-01    1.433E-01
     1.454E-01    1.476E-01    1.498E-01    1.520E-01    1.542E-01    1.564E-01    1.586E-01    1.608E-01    1.630E-01    1.652E-01
     1.674E-01    1.696E-01    1.718E-01    1.740E-01    1.762E-01    1.783E-01    1.805E-01    1.827E-01    1.849E-01    1.871E-01
     1.893E-01    1.915E-01    1.937E-01    1.959E-01    1.981E-01    2.003E-01    2.025E-01    2.047E-01    2.069E-01    2.091E-01
     2.113E-01    2.135E-01    2.157E-01    2.179E-01    2.201E-01    2.223E-01    2.245E-01    2.267E-01    2.289E-01    2.311E-01
     2.333E-01    2.355E-01    2.376E-01    2.398E-01    2.420E-01    2.442E-01    2.464E-01    2.486E-01    2.508E-01    2.530E-01
     2.552E-01    2.574E-01    2.596E-01    2.618E-01    2.640E-01    2.662E-01    2.684E-01    2.706E-01    2.728E-01    2.750E-01
     2.772E-01    2.794E-01    2.816E-01    2.838E-01    2.860E-01    2.882E-01    2.904E-01    2.926E-01    2.948E-01    2.970E-01
     2.992E-01    3.014E-01    3.036E-01    3.058E-01    3.080E-01    3.102E-01    3.124E-01    3.147E-01    3.169E-01    3.191E-01
     3.213E-01    3.235E-01    3.257E-01    3.279E-01    3.301E-01    3.323E-01    3.345E-01    3.367E-01    3.389E-01    3.411E-01
     3.433E-01    3.455E-01    3.477E-01    3.499E-01    3.521E-01    3.543E-01    3.565E-01    3.587E-01    3.609E-01    3.631E-01
     3.653E-01    3.675E-01    3.697E-01    3.719E-01    3.741E-01    3.764E-01    3.786E-01    3.808E-01    3.830E-01    3.852E-01
     3.874E-01    3.896E-01    3.918E-01    3.940E-01    3.962E-01    3.984E-01    4.006E-01    4.028E-01    4.050E-01    4.072E-01
     4.094E-01    4.116E-01    4.139E-01    4.161E-01    4.183E-01    4.205E-01    4.227E-01    4.249E-01    4.271E-01    4.293E-01
     4.315E-01    4.337E-01    4.359E-01    4.381E-01    4.403E-01    4.426E-01    4.448E-01    4.470E-01    4.492E-01    4.514E-01
     4.536E-01    4.558E-01    4.580E-01    4.602E-01    4.624E-01    4.646E-01    4.668E-01    4.691E-01    4.713E-01    4.735E-01
     4.757E-01    4.779E-01    4.801E-01    4.823E-01    4.845E-01    4.867E-01    4.889E-01    4.912E-01    4.934E-01    4.956E-01
     4.978E-01    5.000E-01    5.022E-01    5.044E-01    5.066E-01    5.088E-01    5.110E-01    5.133E-01    5.155E-01    5.177E-01
     5.199E-01    5.221E-01    5.243E-01    5.265E-01    5.287E-01    5.309E-01    5.332E-01    5.354E-01    5.376E-01    5.398E-01
     5.420E-01    5.442E-01    5.464E-01    5.486E-01    5.509E-01    5.531E-01    5.553E-01    5.575E-01    5.597E-01    5.619E-01
     5.641E-01    5.663E-01    5.686E-01    5.708E-01    5.730E-01    5.752E-01    5.774E-01    5.796E-01    5.818E-01    5.841E-01
     5.863E-01    5.885E-01    5.907E-01    5.929E-01    5.951E-01    5.973E-01    5.995E-01    6.018E-01    6.040E-01    6.062E-01
     6.084E-01    6.106E-01    6.128E-01    6.150E-01    6.173E-01    6.195E-01    6.217E-01    6.239E-01    6.261E-01    6.283E-01
     6.306E-01    6.328E-01    6.350E-01    6.372E-01    6.394E-01    6.416E-01    6.438E-01    6.461E-01    6.483E-01    6.505E-01
     6.527E-01    6.549E-01    6.571E-01    6.594E-01    6.616E-01    6.638E-01    6.660E-01    6.682E-01    6.704E-01    6.726E-01
     6.749E-01    6.771E-01    6.793E-01    6.815E-01    6.837E-01    6.859E-01    6.882E-01    6.904E-01    6.926E-01    6.948E-01
     6.970E-01    6.992E-01    7.015E-01    7.037E-01    7.059E-01    7.081E-01    7.103E-01    7.125E-01    7.148E-01    7.170E-01
     7.192E-01    7.214E-01    7.236E-01    7.259E-01    7.281E-01    7.303E-01    7.325E-01    7.347E-01    7.369E-01    7.392E-01
     7.414E-01    7.436E-01    7.458E-01    7.480E-01    7.502E-01    7.525E-01    7.547E-01    7.569E-01    7.591E-01    7.613E-01
     7.636E-01    7.658E-01    7.680E-01    7.702E-01    7.724E-01    7.746E-01    7.769E-01    7.791E-01    7.813E-01    7.835E-01
     7.857E-01    7.880E-01    7.902E-01    7.924E-01    7.946E-01    7.968E-01    7.991E-01    8.013E-01    8.035E-01    8.057E-01
     8.079E-01    8.102E-01    8.124E-01    8.146E-01    8.168E-01    8.190E-01    8.212E-01    8.235E-01    8.257E-01    8.279E-01
     8.301E-01    8.323E-01    8.346E-01    8.368E-01    8.390E-01    8.412E-01    8.434E-01    8.457E-01    8.479E-01    8.501E-01
     8.523E-01    8.545E-01    8.568E-01    8.590E-01    8.612E-01    8.634E-01    8.656E-01    8.679E-01    8.701E-01    8.723E-01
     8.745E-01    8.767E-01    8.790E-01    8.812E-01    8.834E-01    8.856E-01    8.878E-01    8.901E-01    8.923E-01    8.945E-01
     8.967E-01    8.989E-01    9.012E-01    9.034E-01    9.056E-01    9.078E-01    9.101E-01    9.123E-01    9.145E-01    9.167E-01
     9.189E-01    9.212E-01    9.234E-01    9.256E-01    9.278E-01    9.300E-01    9.323E-01    9.345E-01    9.367E-01    9.389E-01
     9.411E-01    9.434E-01    9.456E-01    9.478E-01    9.500E-01    9.522E-01    9.545E-01    9.567E-01    9.589E-01    9.611E-01
     9.634E-01    9.656E-01    9.678E-01    9.700E-01    9.722E-01    9.745E-01    9.767E-01    9.789E-01    9.811E-01    9.833E-01
     9.856E-01    9.878E-01    9.900E-01    9.922E-01    9.944E-01    9.967E-01    9.989E-01    1.001E+00    1.003E+00    1.006E+00
     1.008E+00    1.010E+00    1.012E+00    1.014E+00    1.017E+00    1.019E+00    1.021E+00    1.023E+00    1.026E+00    1.028E+00
     1.030E+00    1.032E+00    1.034E+00    1.037E+00    1.039E+00    1.041E+00    1.043E+00    1.046E+00    1.048E+00    1.050E+00
     1.052E+00    1.054E+00    1.057E+00    1.059E+00    1.061E+00    1.063E+00    1.066E+00    1.068E+00    1.070E+00    1.072E+00
     1.074E+00    1.077E+00    1.079E+00    1.081E+00    1.083E+00    1.086E+00    1.088E+00    1.090E+00    1.092E+00    1.094E+00
     1.097E+00    1.099E+00    1.101E+00    1.103E+00    1.106E+00    1.108E+00    1.110E+00    1.112E+00
 Asp      Conc. = 7.95E+00
