 LCModel (Version 6.3-1L) Copyright: S.W. Provencher.          Ref.: Magn. Reson. Med. 30:672-679 (1993).                
 Slice#1 Row#1 Col#6  K_02_press_1_raw_act
 36 lines in following concentration table = NCONC+1
    Conc.  %SD /Cr+PCr  Metabolite                                         
   12.497 120%   0.000 Ala                                                 
    6.166  36%   0.000 Asp                                                 
    0.000 999%   0.000 Cr                                                  
    0.000 999%   0.000 PCr                                                 
    3.696  36%   0.000 GABA                                                
    3.706  36%   0.000 Glc                                                 
    0.000 999%   0.000 Gln                                                 
   30.139 102%   0.000 Glu                                                 
    0.000 999%   0.000 GPC                                                 
   12.056  43%   0.000 PCh                                                 
   15.852  80%   0.000 GSH                                                 
   16.939 218%   0.000 Ins                                                 
   13.108 118%   0.000 Lac                                                 
   55.015  36%   0.000 NAA                                                 
   31.981  43%   0.000 NAAG                                                
    1.230  36%   0.000 Scyllo                                              
    6.143  36%   0.000 Tau                                                 
    0.103 999%   0.000 -CrCH2                                              
   12.056  43%   0.000 GPC+PCh                                             
   86.996  33%   0.000 NAA+NAAG                                            
    0.000 999%   0.000 Cr+PCr                                              
   30.139 102%   0.000 Glu+Gln                                             
    0.000 999%   0.000 Lip13a                                              
    0.000 999%   0.000 Lip13b                                              
  609.456  28%   0.000 Lip09                                               
  811.095  18%   0.000 MM09                                                
   23.996 657%   0.000 Lip20                                               
 1.25E+03  18%   0.000 MM20                                                
  234.809  22%   0.000 MM12                                                
  229.533  70%   0.000-MM14                                                
  522.390  17%   0.000 MM17                                                
    0.000 999%   0.000 Lip13a+Lip13b                                       
  464.343  42%   0.000 MM14+Lip13a+Lip13b+MM12                             
 1.42E+03  13%   0.000 MM09+Lip09                                          
 1.28E+03  18%   0.000 MM20+Lip20                                          
   6 lines in following misc. output table
  FWHM = 0.031 ppm    S/N =   2                                            
  Data shift = 0.031 ppm                                                   
  Ph: 122 deg     112.1 deg/ppm                                            
  alphaB,S = 6.8E-01,   4.9E+00                                            
   14 spline knots.   Ns = 5(1)                                            
  ( 3) 2 infls.   ( 2) 2 extrs.                                            
  498 points on ppm-axis = NY
      4.000000     3.992357     3.984714     3.977070     3.969427     3.961784     3.954141     3.946497     3.938854     3.931211
      3.923568     3.915925     3.908281     3.900638     3.892995     3.885352     3.877708     3.870065     3.862422     3.854779
      3.847136     3.839492     3.831849     3.824206     3.816563     3.808919     3.801276     3.793633     3.785990     3.778347
      3.770703     3.763060     3.755417     3.747774     3.740130     3.732487     3.724844     3.717201     3.709558     3.701914
      3.694271     3.686628     3.678985     3.671341     3.663698     3.656055     3.648412     3.640769     3.633125     3.625482
      3.617839     3.610196     3.602552     3.594909     3.587266     3.579623     3.571980     3.564336     3.556693     3.549050
      3.541407     3.533763     3.526120     3.518477     3.510834     3.503191     3.495547     3.487904     3.480261     3.472618
      3.464974     3.457331     3.449688     3.442045     3.434402     3.426758     3.419115     3.411472     3.403829     3.396185
      3.388542     3.380899     3.373256     3.365613     3.357969     3.350326     3.342683     3.335040     3.327396     3.319753
      3.312110     3.304467     3.296824     3.289180     3.281537     3.273894     3.266251     3.258607     3.250964     3.243321
      3.235678     3.228034     3.220391     3.212748     3.205105     3.197462     3.189818     3.182175     3.174532     3.166889
      3.159245     3.151602     3.143959     3.136316     3.128673     3.121029     3.113386     3.105743     3.098100     3.090456
      3.082813     3.075170     3.067527     3.059884     3.052240     3.044597     3.036954     3.029311     3.021667     3.014024
      3.006381     2.998738     2.991095     2.983451     2.975808     2.968165     2.960522     2.952878     2.945235     2.937592
      2.929949     2.922306     2.914662     2.907019     2.899376     2.891733     2.884089     2.876446     2.868803     2.861160
      2.853517     2.845873     2.838230     2.830587     2.822944     2.815300     2.807657     2.800014     2.792371     2.784728
      2.777084     2.769441     2.761798     2.754155     2.746511     2.738868     2.731225     2.723582     2.715939     2.708295
      2.700652     2.693009     2.685366     2.677722     2.670079     2.662436     2.654793     2.647150     2.639506     2.631863
      2.624220     2.616577     2.608933     2.601290     2.593647     2.586004     2.578361     2.570717     2.563074     2.555431
      2.547788     2.540144     2.532501     2.524858     2.517215     2.509572     2.501928     2.494285     2.486642     2.478999
      2.471355     2.463712     2.456069     2.448426     2.440783     2.433139     2.425496     2.417853     2.410210     2.402566
      2.394923     2.387280     2.379637     2.371994     2.364350     2.356707     2.349064     2.341421     2.333777     2.326134
      2.318491     2.310848     2.303205     2.295561     2.287918     2.280275     2.272632     2.264988     2.257345     2.249702
      2.242059     2.234416     2.226772     2.219129     2.211486     2.203843     2.196199     2.188556     2.180913     2.173270
      2.165627     2.157983     2.150340     2.142697     2.135054     2.127410     2.119767     2.112124     2.104481     2.096838
      2.089194     2.081551     2.073908     2.066265     2.058621     2.050978     2.043335     2.035692     2.028049     2.020405
      2.012762     2.005119     1.997476     1.989833     1.982190     1.974546     1.966903     1.959260     1.951617     1.943974
      1.936331     1.928688     1.921045     1.913402     1.905759     1.898115     1.890472     1.882829     1.875186     1.867543
      1.859900     1.852257     1.844614     1.836971     1.829327     1.821684     1.814041     1.806398     1.798755     1.791112
      1.783469     1.775826     1.768183     1.760540     1.752896     1.745253     1.737610     1.729967     1.722324     1.714681
      1.707038     1.699395     1.691752     1.684108     1.676465     1.668822     1.661179     1.653536     1.645893     1.638250
      1.630607     1.622964     1.615321     1.607677     1.600034     1.592391     1.584748     1.577105     1.569462     1.561819
      1.554176     1.546533     1.538890     1.531246     1.523603     1.515960     1.508317     1.500674     1.493031     1.485388
      1.477745     1.470102     1.462458     1.454815     1.447172     1.439529     1.431886     1.424243     1.416600     1.408957
      1.401314     1.393671     1.386027     1.378384     1.370741     1.363098     1.355455     1.347812     1.340169     1.332526
      1.324883     1.317240     1.309596     1.301953     1.294310     1.286667     1.279024     1.271381     1.263738     1.256095
      1.248452     1.240808     1.233165     1.225522     1.217879     1.210236     1.202593     1.194950     1.187307     1.179664
      1.172021     1.164377     1.156734     1.149091     1.141448     1.133805     1.126162     1.118519     1.110876     1.103233
      1.095590     1.087946     1.080303     1.072660     1.065017     1.057374     1.049731     1.042088     1.034445     1.026802
      1.019158     1.011515     1.003872     0.996229     0.988586     0.980943     0.973300     0.965657     0.958014     0.950371
      0.942727     0.935084     0.927441     0.919798     0.912155     0.904512     0.896869     0.889226     0.881583     0.873940
      0.866296     0.858653     0.851010     0.843367     0.835724     0.828081     0.820438     0.812795     0.805152     0.797508
      0.789865     0.782222     0.774579     0.766936     0.759293     0.751650     0.744007     0.736364     0.728721     0.721077
      0.713434     0.705791     0.698148     0.690505     0.682862     0.675219     0.667576     0.659933     0.652290     0.644646
      0.637003     0.629360     0.621717     0.614074     0.606431     0.598788     0.591145     0.583502     0.575858     0.568215
      0.560572     0.552929     0.545286     0.537643     0.530000     0.522357     0.514714     0.507071     0.499427     0.491784
      0.484141     0.476498     0.468855     0.461212     0.453569     0.445925     0.438282     0.430639     0.422996     0.415353
      0.407710     0.400067     0.392424     0.384780     0.377137     0.369494     0.361851     0.354208     0.346565     0.338922
      0.331278     0.323635     0.315992     0.308349     0.300706     0.293063     0.285420     0.277777     0.270133     0.262490
      0.254847     0.247204     0.239561     0.231918     0.224275     0.216631     0.208988     0.201345
 NY phased data points follow
  -1.90846E+00 -2.37304E+00 -2.16595E+00 -1.87365E-01 -1.22651E+00 -3.12724E+00 -3.21846E+00 -2.92487E+00 -4.85374E+00 -3.70297E+00
  -4.34611E+00 -3.76555E+00 -3.29639E+00 -1.59941E+00 -1.17897E+00 -4.74942E+00 -4.23608E-01  6.34058E-01  2.77952E-01 -8.32888E-01
   1.19309E+00 -3.98251E+00  4.83745E-01 -2.58533E+00 -2.33938E+00 -4.24222E-01 -2.22395E+00 -9.40528E-01  1.72385E+00  1.20491E+00
  -2.27811E+00 -6.78625E-01  3.99396E-01 -5.79718E-01 -3.41753E+00  2.05681E+00 -3.86601E-01  9.25056E-01  2.44211E+00 -2.40311E+00
  -9.83287E-01 -2.42854E+00  2.52879E+00  3.07052E-01  1.36484E+00  1.37545E+00 -1.91654E+00 -2.24111E+00 -1.29591E+00  1.88625E+00
   6.07598E-01 -9.48517E-01  4.16937E-01  2.50143E+00 -1.04915E+00  3.80530E+00  1.36248E+00  2.88442E+00  2.99387E+00 -8.40807E-01
   2.55285E+00 -5.05490E-01  1.70818E+00  6.04103E+00  6.36008E-01  1.60352E+00 -2.79134E+00  4.84796E+00 -1.09921E-01 -4.89902E-01
   2.40743E+00  5.39392E+00  1.23270E+00 -4.33986E-01  2.54887E+00  4.04207E+00  2.82391E+00  4.56126E+00  8.09272E-01  2.82603E+00
  -1.94416E+00  5.01466E-01  1.91233E-01 -6.35299E-01  1.42791E+00  2.86004E+00  2.23821E-01  1.38069E+00 -9.31211E-01 -2.45625E+00
   4.09100E+00  1.08576E+00  4.00103E-01  1.11827E+00  8.50848E-01  1.62569E+00  6.12389E+00 -2.25734E-01 -1.02473E+00 -3.23979E+00
  -3.12855E+00  7.98783E-01  4.43765E+00  3.43217E+00  6.43777E+00  9.33270E+00  9.38126E+00  4.14912E+00  2.91112E+00  1.73236E+00
   1.96328E+00  4.49295E+00  3.83816E+00  4.33511E+00  5.15433E+00  4.74658E+00  4.02980E-01  2.77711E+00  3.72464E+00  5.48181E-01
   4.55014E+00  3.32178E+00  5.04931E-01  2.84948E+00 -8.98311E-01 -2.22858E+00  3.24762E+00 -6.13338E-01  5.88148E+00  5.59236E+00
   8.45098E+00  8.11297E+00  6.46119E+00  4.53672E+00  6.32685E+00  6.52248E+00  2.73322E+00  1.62647E+00  5.03004E+00  3.62392E+00
   2.15981E+00  3.83090E+00  1.18131E+00  9.82108E+00  8.59803E+00  1.25669E+00  4.13899E+00  6.15146E-01  2.87227E+00  1.73074E+00
   3.69889E+00 -7.73946E-01 -3.70818E-01  4.38386E+00  5.87273E-01  4.30737E+00  5.38711E+00  3.02421E+00  2.65967E+00  4.81136E+00
   3.05857E+00  1.79990E+00 -7.03626E-02 -1.47306E+00  1.29948E+00  5.47900E-01  3.47553E+00  2.08039E+00  6.09924E+00  3.77851E+00
   2.18545E+00  5.34978E+00  4.93576E+00  4.40466E+00  1.08332E+00  3.06032E+00  5.32537E+00  5.11560E+00  2.24718E+00  2.09430E+00
   2.02157E+00  3.94108E+00  4.67007E+00 -3.27286E-01  2.97802E+00  4.70820E+00  6.20482E-01  1.91272E+00  3.39545E+00  5.72219E+00
   5.57744E+00  3.86200E+00  6.51346E+00  4.45534E+00  5.09013E+00  7.01049E+00  5.57828E+00  3.54105E+00  4.95308E+00  4.18297E+00
   2.11390E+00  6.49174E+00  1.87407E-01  6.22469E+00  8.46518E-01  1.52291E+00  7.91231E+00 -9.32671E-02  6.15986E+00  5.48220E+00
  -1.44075E-01  4.14950E+00  1.06986E+00  5.31823E+00  3.56833E+00  2.10589E+00  5.96850E+00  2.42365E+00  3.24311E+00  8.16593E+00
   5.10330E+00  3.56563E+00  4.24610E+00 -8.33241E-01  2.95503E+00  3.56897E+00  3.28613E+00  1.39168E+00  4.92650E+00  6.66635E+00
  -1.40647E-01  1.85101E+00  2.56668E+00  7.93489E+00  8.28661E+00  1.41459E+00  1.88418E-02  4.21445E+00  4.62427E+00  7.39592E+00
   7.33341E+00  3.06494E+00  5.63569E+00  1.99193E+00  4.97844E+00  3.99037E+00  5.41484E+00  6.99780E+00  4.76065E+00  5.10972E-01
   4.61860E+00 -7.72794E-01 -5.78185E-01  1.24109E+00  1.71794E+00  2.36966E+00  2.80402E+00  1.06056E+00  3.21605E+00  2.67187E+00
   8.40417E+00  1.07581E+01  1.10403E+01  7.44298E+00  3.06485E+00  3.89901E+00  2.14085E+00  1.35122E+00  5.99911E+00  2.85150E+00
   6.26364E+00  2.08068E+00  3.10502E+00  7.68985E-01  3.54298E-01  4.18251E+00  2.93346E+00 -1.00755E+00 -7.16126E-01  2.39262E+00
   2.74861E+00  3.77360E+00  3.01145E+00  3.77989E+00  4.35358E+00  5.23635E+00  5.37291E+00  2.87917E+00  4.64522E+00  1.78031E+00
   3.76173E+00  5.09444E+00  3.34440E+00  1.73276E+00  2.71148E+00  5.40456E+00  1.65016E-01 -4.66125E-02  2.24420E+00  3.89524E+00
   1.47790E+00  3.33095E+00  1.15958E-01 -7.46297E-01  2.29427E+00 -1.86784E+00 -2.41648E-01  1.06631E+00 -4.13580E+00  5.15237E-02
  -2.10251E+00 -1.75452E+00  3.63791E-01 -5.78224E+00 -1.60952E-01 -4.83603E-01 -1.97525E+00 -5.01045E+00 -3.48147E+00 -1.90388E+00
  -6.28138E+00 -7.67249E+00 -4.96386E+00 -5.12592E+00 -3.49940E+00 -6.43303E+00 -5.75794E+00 -5.48925E+00 -4.68948E+00 -4.18621E+00
  -4.08973E+00 -6.11446E+00 -5.09516E+00 -6.08607E+00 -7.85141E+00 -9.68066E+00 -7.34713E+00 -6.39460E+00 -4.85834E+00 -6.53155E+00
  -8.64229E+00 -6.40084E+00 -6.98169E+00 -1.67993E+00 -4.84506E+00 -7.90563E+00 -9.15745E+00 -6.34183E+00 -7.89142E+00 -6.56309E+00
  -8.08490E+00 -1.06639E+01 -1.66676E+01 -1.05900E+01 -1.05269E+01 -1.24124E+01 -1.46217E+01 -1.04172E+01 -1.09457E+01 -7.29350E+00
  -1.22993E+01 -1.12448E+01 -1.18510E+01 -1.07130E+01 -1.16909E+01 -9.96298E+00 -9.30539E+00 -9.85496E+00 -4.20745E+00 -8.35536E+00
  -6.50703E+00 -6.87858E+00 -7.99531E+00 -9.54508E+00 -1.02015E+01 -6.54437E+00 -7.91872E+00 -9.83650E+00 -8.51547E+00 -4.29850E+00
  -3.48144E+00 -6.98781E+00  7.43345E-01 -8.48581E+00 -6.65364E+00 -1.95691E+00 -3.55869E+00 -7.08739E+00 -1.95484E+00 -1.63139E+00
   4.30689E-01 -4.75621E+00 -4.40099E+00 -5.37683E+00 -6.56980E-01 -2.99295E+00 -6.81264E+00 -3.17987E+00 -6.99862E+00  7.42919E-02
  -3.96676E+00 -3.06890E+00 -3.19989E+00 -1.34068E+00  3.45587E-01 -1.12312E+00 -3.49015E+00  2.37147E+00 -1.34397E+00  5.26731E-01
   2.92734E+00 -1.40692E+00 -8.24320E-01  8.76338E-01  1.10406E+00  6.56174E-01 -1.37047E+00  3.00821E-02 -3.38701E-01 -1.98120E+00
   3.04114E+00 -7.10262E-01 -3.57874E+00  5.31792E+00 -5.10993E-01  2.13413E+00 -2.42476E-01 -3.99590E+00 -7.76156E-01 -2.83881E+00
   9.77422E-01  4.89205E+00  1.01873E+00 -1.12019E+00  3.34070E+00  1.07873E+00  2.80284E+00  3.29804E-01 -3.65711E-01  1.89548E+00
   4.59694E+00  4.31785E+00 -1.13582E+00  1.03157E+00  3.43212E+00  1.12195E+00  9.85577E-01  2.12366E+00  4.79939E+00 -1.14661E-01
   6.42610E+00  2.91603E+00  2.80846E+00  2.06905E+00  2.03199E+00 -1.72532E+00 -6.77836E-01  2.08589E+00  5.73452E+00  2.41549E+00
   4.99045E+00 -4.69272E+00 -4.95081E-02  1.34174E+00  8.43356E-02  2.60013E+00  6.88338E-01  3.56024E+00  4.47347E+00  4.43003E-01
   2.05315E+00  3.73935E+00  1.63462E+00  5.72259E+00  7.62533E-02  9.91492E-01  6.19507E+00  1.78660E+00  1.34344E+00 -2.59513E-02
   1.29382E+00  2.58745E+00  3.14229E-01  3.37094E+00  3.19509E+00  2.30036E+00 -5.47744E-01  1.72124E+00 -6.63086E-01  1.77632E-01
   3.09789E+00  1.82864E+00 -1.60256E+00  1.72096E+00 -1.18400E+00  3.61620E+00  2.60930E+00  2.51289E+00
 NY points of the fit to the data follow
  -3.89331E+00 -3.74929E+00 -3.60430E+00 -3.47713E+00 -3.38317E+00 -3.31501E+00 -3.26115E+00 -3.20053E+00 -3.11491E+00 -3.00363E+00
  -2.87964E+00 -2.75746E+00 -2.64311E+00 -2.54918E+00 -2.48672E+00 -2.44646E+00 -2.40960E+00 -2.34483E+00 -2.22325E+00 -2.06185E+00
  -1.89650E+00 -1.74813E+00 -1.64100E+00 -1.62488E+00 -1.74486E+00 -1.79453E+00 -1.51329E+00 -9.87330E-01 -4.42190E-01 -5.98018E-02
   4.25996E-02 -1.73350E-01 -5.94742E-01 -1.00562E+00 -1.29369E+00 -1.44907E+00 -1.42794E+00 -1.29890E+00 -1.14639E+00 -9.50008E-01
  -7.36688E-01 -5.66992E-01 -4.70490E-01 -3.59688E-01 -1.48398E-01  1.26853E-01  3.78355E-01  5.14973E-01  4.79801E-01  3.13257E-01
   1.18978E-01  1.26230E-02  4.32500E-02  1.81957E-01  3.67923E-01  5.41605E-01  6.82770E-01  8.16769E-01  9.51626E-01  1.07041E+00
   1.15018E+00  1.17030E+00  1.14940E+00  1.12651E+00  1.13131E+00  1.18872E+00  1.28383E+00  1.38694E+00  1.48922E+00  1.57914E+00
   1.65114E+00  1.72995E+00  1.83516E+00  1.95420E+00  2.05611E+00  2.11918E+00  2.12948E+00  2.08994E+00  2.04665E+00  2.03845E+00
   2.06870E+00  2.14499E+00  2.30085E+00  2.50234E+00  2.67776E+00  2.77694E+00  2.78195E+00  2.71319E+00  2.63055E+00  2.59244E+00
   2.61709E+00  2.68076E+00  2.75931E+00  2.82303E+00  2.85242E+00  2.86987E+00  2.86834E+00  2.79319E+00  2.50888E+00  2.03247E+00
   2.19881E+00  3.45974E+00  5.42616E+00  7.32400E+00  8.38694E+00  8.15680E+00  6.74903E+00  4.84919E+00  3.25575E+00  2.32273E+00
   2.10977E+00  2.48042E+00  2.87732E+00  3.13791E+00  3.32932E+00  3.48219E+00  3.59752E+00  3.67869E+00  3.73353E+00  3.76567E+00
   3.78527E+00  3.80886E+00  3.84544E+00  3.89400E+00  3.94700E+00  3.99209E+00  4.01787E+00  4.02010E+00  4.00848E+00  4.03521E+00
   4.14618E+00  4.29878E+00  4.40487E+00  4.38037E+00  4.17268E+00  3.83097E+00  3.47451E+00  3.25277E+00  3.24542E+00  3.42239E+00
   3.68877E+00  3.91420E+00  4.01695E+00  4.00313E+00  3.90841E+00  3.78985E+00  3.69643E+00  3.63251E+00  3.60146E+00  3.59402E+00
   3.58030E+00  3.53382E+00  3.45649E+00  3.37118E+00  3.31726E+00  3.35143E+00  3.47413E+00  3.59892E+00  3.64105E+00  3.56780E+00
   3.41392E+00  3.27970E+00  3.24383E+00  3.31828E+00  3.44911E+00  3.56122E+00  3.57713E+00  3.48055E+00  3.34002E+00  3.25205E+00
   3.26913E+00  3.37847E+00  3.47591E+00  3.45842E+00  3.34227E+00  3.21130E+00  3.15271E+00  3.18288E+00  3.25823E+00  3.28807E+00
   3.24795E+00  3.18106E+00  3.13533E+00  3.10096E+00  3.06885E+00  3.02487E+00  2.97179E+00  2.96067E+00  3.07399E+00  3.33015E+00
   3.64499E+00  3.90146E+00  4.01692E+00  3.97606E+00  3.76009E+00  3.44312E+00  3.14312E+00  2.93878E+00  2.84705E+00  2.85903E+00
   2.95727E+00  3.10777E+00  3.27958E+00  3.45508E+00  3.59711E+00  3.66148E+00  3.64271E+00  3.54519E+00  3.39040E+00  3.17404E+00
   2.91396E+00  2.63380E+00  2.45143E+00  2.50202E+00  2.79811E+00  3.25154E+00  3.71932E+00  4.06023E+00  4.16210E+00  3.94307E+00
   3.44830E+00  2.87085E+00  2.40188E+00  2.20328E+00  2.29826E+00  2.62565E+00  3.08916E+00  3.52850E+00  3.78543E+00  3.78680E+00
   3.56922E+00  3.26831E+00  3.03165E+00  2.97393E+00  3.17163E+00  3.57950E+00  4.06793E+00  4.48125E+00  4.68328E+00  4.60972E+00
   4.29281E+00  3.85275E+00  3.47669E+00  3.30393E+00  3.39016E+00  3.69636E+00  4.09665E+00  4.43276E+00  4.57242E+00  4.44516E+00
   3.89946E+00  2.71848E+00  1.51159E+00  1.08396E+00  1.55535E+00  2.04033E+00  2.12886E+00  2.46282E+00  3.45241E+00  5.12426E+00
   7.23015E+00  9.00695E+00  9.60415E+00  8.83712E+00  7.00397E+00  4.77978E+00  2.77207E+00  1.57155E+00  1.09144E+00  7.79521E-01
   5.10556E-01  2.94163E-01  1.50936E-01  7.90511E-02  6.20314E-02  6.98880E-02  7.99627E-02  7.96539E-02  7.27823E-02  7.65557E-02
   1.13863E-01  1.97939E-01  3.32092E-01  5.09444E-01  7.13041E-01  9.26462E-01  1.13369E+00  1.31278E+00  1.44678E+00  1.53273E+00
   1.57725E+00  1.58538E+00  1.55639E+00  1.48963E+00  1.38088E+00  1.22069E+00  1.00323E+00  7.29302E-01  4.06120E-01  5.00617E-02
  -3.22498E-01 -6.97172E-01 -1.06262E+00 -1.41257E+00 -1.74362E+00 -2.05418E+00 -2.34479E+00 -2.61327E+00 -2.85751E+00 -3.07711E+00
  -3.27239E+00 -3.44466E+00 -3.59595E+00 -3.72864E+00 -3.84520E+00 -3.94805E+00 -4.03946E+00 -4.12168E+00 -4.19721E+00 -4.26933E+00
  -4.34398E+00 -4.43767E+00 -4.59212E+00 -4.75671E+00 -4.77364E+00 -4.58743E+00 -4.26327E+00 -3.92693E+00 -3.70910E+00 -3.68046E+00
  -3.87318E+00 -4.31522E+00 -4.89914E+00 -5.45455E+00 -5.80938E+00 -5.89217E+00 -5.74854E+00 -5.46234E+00 -5.17485E+00 -5.00086E+00
  -4.97302E+00 -5.10189E+00 -5.38411E+00 -5.66440E+00 -5.76635E+00 -5.63296E+00 -5.32628E+00 -4.97613E+00 -4.72319E+00 -4.66274E+00
  -4.90292E+00 -5.43605E+00 -6.09364E+00 -6.67576E+00 -6.99971E+00 -7.01487E+00 -6.80053E+00 -6.47514E+00 -6.18436E+00 -6.00924E+00
  -5.96282E+00 -6.02977E+00 -6.12265E+00 -6.18787E+00 -6.23676E+00 -6.27786E+00 -6.31533E+00 -6.35147E+00 -6.38758E+00 -6.42436E+00
  -6.46206E+00 -6.50057E+00 -6.53942E+00 -6.57776E+00 -6.61442E+00 -6.64789E+00 -6.67641E+00 -6.69790E+00 -6.71007E+00 -6.71043E+00
  -6.69631E+00 -6.66500E+00 -6.61382E+00 -6.54022E+00 -6.44185E+00 -6.31671E+00 -6.16323E+00 -5.98044E+00 -5.76804E+00 -5.52647E+00
  -5.25696E+00 -4.96153E+00 -4.64297E+00 -4.30481E+00 -3.95114E+00 -3.58654E+00 -3.21579E+00 -2.84376E+00 -2.47520E+00 -2.11457E+00
  -1.76583E+00 -1.43235E+00 -1.11682E+00 -8.21212E-01 -5.46805E-01 -2.94261E-01 -6.36955E-02  1.45220E-01  3.33115E-01  5.00793E-01
   6.49114E-01  7.78910E-01  8.90941E-01  9.85865E-01  1.06423E+00  1.12649E+00  1.17305E+00  1.20429E+00  1.22070E+00  1.22286E+00
   1.21149E+00  1.18747E+00  1.15186E+00  1.10587E+00  1.05089E+00  9.88404E-01  9.19971E-01  8.47155E-01  7.71496E-01  6.94483E-01
   6.17511E-01  5.41844E-01  4.68589E-01  3.98688E-01  3.32928E-01  2.71945E-01  2.16233E-01  1.66136E-01  1.21874E-01  8.35560E-02
   5.12166E-02  2.48253E-02  4.29473E-03 -1.05150E-02 -1.97806E-02 -2.36946E-02 -2.24518E-02 -1.62493E-02 -5.28948E-03  1.02161E-02
   3.00631E-02  5.40599E-02  8.20335E-02  1.13819E-01  1.49250E-01  1.88168E-01  2.30422E-01  2.75886E-01  3.24445E-01  3.75985E-01
   4.30392E-01  4.87555E-01  5.47377E-01  6.09778E-01  6.74680E-01  7.42006E-01  8.11673E-01  8.83608E-01  9.57748E-01  1.03404E+00
   1.11244E+00  1.19288E+00  1.27530E+00  1.35965E+00  1.44589E+00  1.53398E+00  1.62390E+00  1.71557E+00  1.80897E+00  1.90406E+00
   2.00081E+00  2.09920E+00  2.19919E+00  2.30073E+00  2.40380E+00  2.50838E+00  2.61444E+00  2.72196E+00  2.83091E+00  2.94125E+00
   3.05296E+00  3.16604E+00  3.28045E+00  3.39619E+00  3.51321E+00  3.63149E+00  3.75102E+00  3.87179E+00
 NY background values follow
    -4.752E+00   -4.670E+00   -4.589E+00   -4.509E+00   -4.428E+00   -4.348E+00   -4.268E+00   -4.188E+00   -4.108E+00   -4.029E+00
    -3.950E+00   -3.871E+00   -3.793E+00   -3.715E+00   -3.637E+00   -3.559E+00   -3.482E+00   -3.405E+00   -3.328E+00   -3.252E+00
    -3.176E+00   -3.100E+00   -3.025E+00   -2.950E+00   -2.875E+00   -2.801E+00   -2.727E+00   -2.653E+00   -2.580E+00   -2.507E+00
    -2.435E+00   -2.363E+00   -2.291E+00   -2.220E+00   -2.149E+00   -2.079E+00   -2.009E+00   -1.939E+00   -1.870E+00   -1.802E+00
    -1.733E+00   -1.666E+00   -1.598E+00   -1.531E+00   -1.465E+00   -1.399E+00   -1.333E+00   -1.268E+00   -1.204E+00   -1.140E+00
    -1.076E+00   -1.013E+00   -9.504E-01   -8.883E-01   -8.267E-01   -7.656E-01   -7.051E-01   -6.450E-01   -5.855E-01   -5.265E-01
    -4.681E-01   -4.102E-01   -3.528E-01   -2.959E-01   -2.396E-01   -1.839E-01   -1.287E-01   -7.410E-02   -2.004E-02    3.345E-02
     8.637E-02    1.387E-01    1.905E-01    2.417E-01    2.923E-01    3.423E-01    3.917E-01    4.405E-01    4.888E-01    5.364E-01
     5.834E-01    6.298E-01    6.756E-01    7.208E-01    7.654E-01    8.094E-01    8.527E-01    8.954E-01    9.375E-01    9.789E-01
     1.020E+00    1.060E+00    1.099E+00    1.138E+00    1.177E+00    1.214E+00    1.251E+00    1.288E+00    1.323E+00    1.358E+00
     1.393E+00    1.426E+00    1.459E+00    1.492E+00    1.523E+00    1.554E+00    1.585E+00    1.614E+00    1.644E+00    1.672E+00
     1.700E+00    1.727E+00    1.753E+00    1.779E+00    1.803E+00    1.828E+00    1.851E+00    1.874E+00    1.896E+00    1.918E+00
     1.939E+00    1.959E+00    1.978E+00    1.997E+00    2.015E+00    2.033E+00    2.049E+00    2.065E+00    2.081E+00    2.095E+00
     2.109E+00    2.122E+00    2.135E+00    2.147E+00    2.158E+00    2.168E+00    2.178E+00    2.187E+00    2.195E+00    2.203E+00
     2.210E+00    2.216E+00    2.221E+00    2.226E+00    2.230E+00    2.234E+00    2.236E+00    2.238E+00    2.240E+00    2.240E+00
     2.240E+00    2.239E+00    2.238E+00    2.236E+00    2.233E+00    2.229E+00    2.225E+00    2.220E+00    2.214E+00    2.207E+00
     2.200E+00    2.193E+00    2.184E+00    2.175E+00    2.165E+00    2.154E+00    2.143E+00    2.131E+00    2.118E+00    2.105E+00
     2.091E+00    2.076E+00    2.061E+00    2.045E+00    2.028E+00    2.010E+00    1.992E+00    1.973E+00    1.954E+00    1.934E+00
     1.913E+00    1.891E+00    1.869E+00    1.846E+00    1.823E+00    1.799E+00    1.774E+00    1.748E+00    1.722E+00    1.695E+00
     1.668E+00    1.640E+00    1.611E+00    1.582E+00    1.552E+00    1.521E+00    1.490E+00    1.458E+00    1.426E+00    1.392E+00
     1.359E+00    1.324E+00    1.289E+00    1.254E+00    1.218E+00    1.181E+00    1.144E+00    1.106E+00    1.067E+00    1.028E+00
     9.886E-01    9.484E-01    9.077E-01    8.663E-01    8.245E-01    7.820E-01    7.391E-01    6.956E-01    6.515E-01    6.070E-01
     5.619E-01    5.163E-01    4.702E-01    4.236E-01    3.765E-01    3.289E-01    2.808E-01    2.322E-01    1.832E-01    1.336E-01
     8.366E-02    3.322E-02   -1.766E-02   -6.899E-02   -1.208E-01   -1.729E-01   -2.256E-01   -2.786E-01   -3.320E-01   -3.858E-01
    -4.401E-01   -4.947E-01   -5.497E-01   -6.050E-01   -6.607E-01   -7.168E-01   -7.732E-01   -8.299E-01   -8.870E-01   -9.444E-01
    -1.002E+00   -1.060E+00   -1.118E+00   -1.177E+00   -1.236E+00   -1.295E+00   -1.354E+00   -1.414E+00   -1.474E+00   -1.534E+00
    -1.595E+00   -1.655E+00   -1.716E+00   -1.777E+00   -1.838E+00   -1.899E+00   -1.961E+00   -2.023E+00   -2.084E+00   -2.146E+00
    -2.208E+00   -2.271E+00   -2.333E+00   -2.395E+00   -2.458E+00   -2.520E+00   -2.583E+00   -2.646E+00   -2.708E+00   -2.771E+00
    -2.834E+00   -2.897E+00   -2.959E+00   -3.022E+00   -3.085E+00   -3.147E+00   -3.210E+00   -3.272E+00   -3.334E+00   -3.396E+00
    -3.458E+00   -3.520E+00   -3.582E+00   -3.643E+00   -3.705E+00   -3.766E+00   -3.827E+00   -3.887E+00   -3.948E+00   -4.008E+00
    -4.068E+00   -4.127E+00   -4.186E+00   -4.245E+00   -4.304E+00   -4.362E+00   -4.420E+00   -4.478E+00   -4.535E+00   -4.591E+00
    -4.648E+00   -4.704E+00   -4.759E+00   -4.814E+00   -4.868E+00   -4.922E+00   -4.976E+00   -5.029E+00   -5.081E+00   -5.133E+00
    -5.184E+00   -5.235E+00   -5.285E+00   -5.335E+00   -5.384E+00   -5.432E+00   -5.479E+00   -5.526E+00   -5.573E+00   -5.618E+00
    -5.663E+00   -5.707E+00   -5.751E+00   -5.793E+00   -5.835E+00   -5.877E+00   -5.917E+00   -5.956E+00   -5.995E+00   -6.033E+00
    -6.070E+00   -6.106E+00   -6.142E+00   -6.176E+00   -6.210E+00   -6.242E+00   -6.274E+00   -6.305E+00   -6.335E+00   -6.364E+00
    -6.392E+00   -6.419E+00   -6.445E+00   -6.470E+00   -6.494E+00   -6.517E+00   -6.539E+00   -6.560E+00   -6.580E+00   -6.598E+00
    -6.616E+00   -6.633E+00   -6.648E+00   -6.663E+00   -6.676E+00   -6.688E+00   -6.700E+00   -6.710E+00   -6.718E+00   -6.726E+00
    -6.733E+00   -6.738E+00   -6.743E+00   -6.746E+00   -6.748E+00   -6.749E+00   -6.749E+00   -6.747E+00   -6.745E+00   -6.741E+00
    -6.736E+00   -6.730E+00   -6.722E+00   -6.714E+00   -6.704E+00   -6.693E+00   -6.681E+00   -6.668E+00   -6.653E+00   -6.638E+00
    -6.621E+00   -6.602E+00   -6.583E+00   -6.562E+00   -6.541E+00   -6.518E+00   -6.493E+00   -6.468E+00   -6.441E+00   -6.413E+00
    -6.384E+00   -6.353E+00   -6.321E+00   -6.288E+00   -6.254E+00   -6.219E+00   -6.182E+00   -6.144E+00   -6.105E+00   -6.064E+00
    -6.023E+00   -5.980E+00   -5.935E+00   -5.890E+00   -5.843E+00   -5.795E+00   -5.746E+00   -5.695E+00   -5.644E+00   -5.591E+00
    -5.536E+00   -5.481E+00   -5.424E+00   -5.366E+00   -5.307E+00   -5.246E+00   -5.184E+00   -5.121E+00   -5.057E+00   -4.991E+00
    -4.925E+00   -4.856E+00   -4.787E+00   -4.717E+00   -4.645E+00   -4.572E+00   -4.498E+00   -4.422E+00   -4.345E+00   -4.267E+00
    -4.188E+00   -4.108E+00   -4.026E+00   -3.943E+00   -3.859E+00   -3.774E+00   -3.687E+00   -3.600E+00   -3.511E+00   -3.420E+00
    -3.329E+00   -3.237E+00   -3.143E+00   -3.048E+00   -2.952E+00   -2.855E+00   -2.756E+00   -2.657E+00   -2.556E+00   -2.454E+00
    -2.351E+00   -2.247E+00   -2.141E+00   -2.035E+00   -1.927E+00   -1.818E+00   -1.708E+00   -1.597E+00   -1.485E+00   -1.372E+00
    -1.258E+00   -1.142E+00   -1.026E+00   -9.081E-01   -7.894E-01   -6.697E-01   -5.489E-01   -4.270E-01   -3.041E-01   -1.801E-01
    -5.511E-02    7.092E-02    1.980E-01    3.260E-01    4.551E-01    5.851E-01    7.162E-01    8.482E-01    9.812E-01    1.115E+00
     1.250E+00    1.386E+00    1.523E+00    1.661E+00    1.799E+00    1.939E+00    2.079E+00    2.221E+00
 Ala      Conc. = 1.25E+01
