 LCModel (Version 6.3-1L) Copyright: S.W. Provencher.          Ref.: Magn. Reson. Med. 30:672-679 (1993).                
 Slice#1 Row#8 Col#3  K_02_press_1_raw_act
 36 lines in following concentration table = NCONC+1
    Conc.  %SD /Cr+PCr  Metabolite                                         
    0.000 999%   0.000 Ala                                                 
    0.000 999%   0.000 Asp                                                 
    0.000 999%   0.000 Cr                                                  
 1.24E+03   5%   1.000 PCr                                                 
  115.301 119% 9.3E-02 GABA                                                
   20.903 636% 1.7E-02 Glc                                                 
  501.591  44%   0.404 Gln                                                 
 1.45E+03  18%   1.167 Glu                                                 
  428.222   5%   0.345 GPC                                                 
    0.000 999%   0.000 PCh                                                 
  409.022  18%   0.330 GSH                                                 
  976.539  26%   0.787 Ins                                                 
    0.000 999%   0.000 Lac                                                 
 2.11E+03   5%   1.704 NAA                                                 
  473.823  22%   0.382 NAAG                                                
   71.478  36% 5.8E-02 Scyllo                                              
    0.000 999%   0.000 Tau                                                 
  335.351  30%   0.270 -CrCH2                                              
  428.222   5%   0.345 GPC+PCh                                             
 2.59E+03   3%   2.086 NAA+NAAG                                            
 1.24E+03   5%   1.000 Cr+PCr                                              
 1.95E+03  19%   1.571 Glu+Gln                                             
  136.865 143%   0.110 Lip13a                                              
    0.000 999%   0.000 Lip13b                                              
    0.000 999%   0.000 Lip09                                               
  880.382  22%   0.709 MM09                                                
   51.317 118% 4.1E-02 Lip20                                               
 1.42E+03  21%   1.148 MM20                                                
  265.692  23%   0.214 MM12                                                
  626.597  27%   0.505 MM14                                                
  351.787  28%   0.283 MM17                                                
  136.865 143%   0.110 Lip13a+Lip13b                                       
 1.03E+03  30%   0.829 MM14+Lip13a+Lip13b+MM12                             
  880.382  22%   0.709 MM09+Lip09                                          
 1.48E+03  20%   1.189 MM20+Lip20                                          
   6 lines in following misc. output table
  FWHM = 0.054 ppm    S/N =  12                                            
  Data shift = 0.000 ppm                                                   
  Ph: -38 deg      -8.2 deg/ppm                                            
  alphaB,S = 5.0E-01,   1.5E+02                                            
   14 spline knots.   Ns = 7(1)                                            
  (13) 4 infls.   ( 7) 1 extrs.                                            
  498 points on ppm-axis = NY
      4.000000     3.992357     3.984714     3.977070     3.969427     3.961784     3.954141     3.946497     3.938854     3.931211
      3.923568     3.915925     3.908281     3.900638     3.892995     3.885352     3.877708     3.870065     3.862422     3.854779
      3.847136     3.839492     3.831849     3.824206     3.816563     3.808919     3.801276     3.793633     3.785990     3.778347
      3.770703     3.763060     3.755417     3.747774     3.740130     3.732487     3.724844     3.717201     3.709558     3.701914
      3.694271     3.686628     3.678985     3.671341     3.663698     3.656055     3.648412     3.640769     3.633125     3.625482
      3.617839     3.610196     3.602552     3.594909     3.587266     3.579623     3.571980     3.564336     3.556693     3.549050
      3.541407     3.533763     3.526120     3.518477     3.510834     3.503191     3.495547     3.487904     3.480261     3.472618
      3.464974     3.457331     3.449688     3.442045     3.434402     3.426758     3.419115     3.411472     3.403829     3.396185
      3.388542     3.380899     3.373256     3.365613     3.357969     3.350326     3.342683     3.335040     3.327396     3.319753
      3.312110     3.304467     3.296824     3.289180     3.281537     3.273894     3.266251     3.258607     3.250964     3.243321
      3.235678     3.228034     3.220391     3.212748     3.205105     3.197462     3.189818     3.182175     3.174532     3.166889
      3.159245     3.151602     3.143959     3.136316     3.128673     3.121029     3.113386     3.105743     3.098100     3.090456
      3.082813     3.075170     3.067527     3.059884     3.052240     3.044597     3.036954     3.029311     3.021667     3.014024
      3.006381     2.998738     2.991095     2.983451     2.975808     2.968165     2.960522     2.952878     2.945235     2.937592
      2.929949     2.922306     2.914662     2.907019     2.899376     2.891733     2.884089     2.876446     2.868803     2.861160
      2.853517     2.845873     2.838230     2.830587     2.822944     2.815300     2.807657     2.800014     2.792371     2.784728
      2.777084     2.769441     2.761798     2.754155     2.746511     2.738868     2.731225     2.723582     2.715939     2.708295
      2.700652     2.693009     2.685366     2.677722     2.670079     2.662436     2.654793     2.647150     2.639506     2.631863
      2.624220     2.616577     2.608933     2.601290     2.593647     2.586004     2.578361     2.570717     2.563074     2.555431
      2.547788     2.540144     2.532501     2.524858     2.517215     2.509572     2.501928     2.494285     2.486642     2.478999
      2.471355     2.463712     2.456069     2.448426     2.440783     2.433139     2.425496     2.417853     2.410210     2.402566
      2.394923     2.387280     2.379637     2.371994     2.364350     2.356707     2.349064     2.341421     2.333777     2.326134
      2.318491     2.310848     2.303205     2.295561     2.287918     2.280275     2.272632     2.264988     2.257345     2.249702
      2.242059     2.234416     2.226772     2.219129     2.211486     2.203843     2.196199     2.188556     2.180913     2.173270
      2.165627     2.157983     2.150340     2.142697     2.135054     2.127410     2.119767     2.112124     2.104481     2.096838
      2.089194     2.081551     2.073908     2.066265     2.058621     2.050978     2.043335     2.035692     2.028049     2.020405
      2.012762     2.005119     1.997476     1.989833     1.982190     1.974546     1.966903     1.959260     1.951617     1.943974
      1.936331     1.928688     1.921045     1.913402     1.905759     1.898115     1.890472     1.882829     1.875186     1.867543
      1.859900     1.852257     1.844614     1.836971     1.829327     1.821684     1.814041     1.806398     1.798755     1.791112
      1.783469     1.775826     1.768183     1.760540     1.752896     1.745253     1.737610     1.729967     1.722324     1.714681
      1.707038     1.699395     1.691752     1.684108     1.676465     1.668822     1.661179     1.653536     1.645893     1.638250
      1.630607     1.622964     1.615321     1.607677     1.600034     1.592391     1.584748     1.577105     1.569462     1.561819
      1.554176     1.546533     1.538890     1.531246     1.523603     1.515960     1.508317     1.500674     1.493031     1.485388
      1.477745     1.470102     1.462458     1.454815     1.447172     1.439529     1.431886     1.424243     1.416600     1.408957
      1.401314     1.393671     1.386027     1.378384     1.370741     1.363098     1.355455     1.347812     1.340169     1.332526
      1.324883     1.317240     1.309596     1.301953     1.294310     1.286667     1.279024     1.271381     1.263738     1.256095
      1.248452     1.240808     1.233165     1.225522     1.217879     1.210236     1.202593     1.194950     1.187307     1.179664
      1.172021     1.164377     1.156734     1.149091     1.141448     1.133805     1.126162     1.118519     1.110876     1.103233
      1.095590     1.087946     1.080303     1.072660     1.065017     1.057374     1.049731     1.042088     1.034445     1.026802
      1.019158     1.011515     1.003872     0.996229     0.988586     0.980943     0.973300     0.965657     0.958014     0.950371
      0.942727     0.935084     0.927441     0.919798     0.912155     0.904512     0.896869     0.889226     0.881583     0.873940
      0.866296     0.858653     0.851010     0.843367     0.835724     0.828081     0.820438     0.812795     0.805152     0.797508
      0.789865     0.782222     0.774579     0.766936     0.759293     0.751650     0.744007     0.736364     0.728721     0.721077
      0.713434     0.705791     0.698148     0.690505     0.682862     0.675219     0.667576     0.659933     0.652290     0.644646
      0.637003     0.629360     0.621717     0.614074     0.606431     0.598788     0.591145     0.583502     0.575858     0.568215
      0.560572     0.552929     0.545286     0.537643     0.530000     0.522357     0.514714     0.507071     0.499427     0.491784
      0.484141     0.476498     0.468855     0.461212     0.453569     0.445925     0.438282     0.430639     0.422996     0.415353
      0.407710     0.400067     0.392424     0.384780     0.377137     0.369494     0.361851     0.354208     0.346565     0.338922
      0.331278     0.323635     0.315992     0.308349     0.300706     0.293063     0.285420     0.277777     0.270133     0.262490
      0.254847     0.247204     0.239561     0.231918     0.224275     0.216631     0.208988     0.201345
 NY phased data points follow
  -3.72171E+00 -8.08223E+00 -4.85585E+00 -3.27722E+00  3.43942E+00  4.10587E+00  4.99133E+00  9.06031E+00  1.52692E+01  1.31796E+01
   1.52375E+01  1.13489E+01  1.06814E+01  7.91562E+00 -3.07223E+00 -6.06786E-01 -2.15797E+00 -1.01576E+01 -6.37219E+00 -3.42677E+00
   8.06600E-02  8.57662E-02 -1.26818E+00 -4.46806E+00 -6.73290E+00 -1.42388E+00  3.69947E-01  1.34304E+00  4.61187E+00  3.98392E+00
   6.70097E-01  2.48202E+00  2.78664E+00  3.27890E+00 -8.00321E-01 -1.95604E+00 -9.63117E-01 -2.83545E+00  9.07257E-02 -1.53718E+00
   1.02645E+00  1.97116E+00 -4.57719E-01  2.52874E+00  1.48667E+00  6.38187E+00  8.24629E+00  1.02327E+01  9.85019E-01  4.36608E+00
   3.26868E+00 -3.99852E+00 -2.09738E+00  1.37722E+00  8.29096E-01  1.03790E+00  4.48003E+00 -3.32192E+00 -8.42912E-01 -4.24827E+00
  -2.48006E+00 -5.78748E+00 -4.49724E+00 -8.90596E+00 -6.37316E+00 -8.68228E+00 -7.24942E+00 -9.58488E+00 -3.18931E+00 -1.69371E+00
  -7.31018E-01 -4.59202E+00  1.03580E-01 -5.08529E+00 -6.61047E+00 -1.99152E+00 -5.75331E+00 -1.58703E+00 -4.52911E+00 -3.85045E+00
  -2.39172E+00 -3.89773E+00 -1.56386E+00 -4.83466E+00 -1.50999E+00 -1.16937E+00 -2.94857E+00 -3.72092E+00  6.55583E-01 -2.21274E+00
  -2.06311E+00  1.62173E+00  1.78532E+00  1.00549E+00  1.55886E+00 -7.27871E-01  5.57709E+00  5.53954E+00  1.05486E+01  1.93616E+01
   3.12425E+01  3.48925E+01  4.12215E+01  3.34305E+01  2.77409E+01  1.63082E+01  1.09336E+01  7.78455E+00  6.72691E+00  5.37424E+00
   1.69754E+00  4.93085E+00  7.62261E-01  2.84505E+00  3.12956E+00 -1.83528E+00 -4.00865E-01  3.39746E+00  9.59374E-01  7.04544E-01
   2.86697E+00  4.03164E+00  1.26743E+01  1.81148E+01  2.19109E+01  2.83525E+01  3.98083E+01  4.14882E+01  3.96830E+01  3.13757E+01
   1.93232E+01  1.43254E+01  1.24841E+01  9.06530E+00  3.20915E+00  2.06389E+00  3.13557E+00  1.13229E+00  5.92759E-01  1.92943E+00
   2.37864E+00 -1.13765E-02  1.79436E+00  5.23404E+00  1.47288E+00  7.65289E-02 -2.52859E+00  5.82910E-01 -3.08739E+00 -3.45890E+00
  -5.41908E+00  1.22032E+00 -1.42946E+00 -1.95968E+00 -2.04120E+00 -2.51516E+00 -3.11592E+00  1.77811E+00 -2.05160E+00 -6.56897E+00
   5.18675E-03 -4.36371E+00 -5.84457E+00 -2.87644E+00 -2.71084E-01 -1.04142E+00 -3.07496E+00 -4.82064E+00 -4.15039E+00 -8.14725E+00
  -1.23667E+01 -9.42326E+00 -8.66387E+00 -1.09991E+01 -1.59482E+01 -1.41508E+01 -1.55766E+01 -1.63707E+01 -1.51263E+01 -1.03433E+01
  -1.27574E+01 -1.38054E+01 -9.53988E+00 -1.19467E+01 -1.18992E+01 -3.22091E+00 -5.02969E+00 -2.86282E+00  2.12144E+00 -1.82165E+00
   9.79451E-01 -1.19386E+00 -4.42089E+00 -4.74838E+00 -3.58126E+00 -7.58326E+00 -8.11993E+00 -9.99873E+00 -1.30427E+01 -6.29346E+00
  -6.27002E+00 -4.74465E+00 -2.07691E+00  1.32729E+00  2.23298E+00 -2.36096E+00  2.36834E+00 -6.37628E+00 -4.17323E+00 -1.26502E+00
  -3.13290E+00  2.77255E+00  7.41318E-01  1.04045E+01  7.73415E+00  1.10934E+01  1.12178E+01  9.06430E+00  6.57073E+00  1.12528E+00
  -4.21139E+00 -1.19814E+00  1.23058E+00 -9.61756E-01 -2.00060E-01  2.27272E+00  5.13700E+00  6.22375E+00  4.80158E+00  1.24281E+01
   2.98325E+00  5.33742E+00  9.36256E+00  4.33279E+00  4.35347E+00  7.93375E+00  7.22178E+00  4.98157E+00  3.95256E+00  4.64264E+00
   4.51869E+00  4.01358E+00  2.09010E+00  9.83295E+00  7.04440E+00  1.14464E+01  1.16266E+01  1.46892E+01  7.89307E+00  1.44583E+01
   1.40527E+01  2.04135E+01  1.94784E+01  2.71537E+01  3.31632E+01  3.67995E+01  4.83658E+01  5.46953E+01  6.57968E+01  8.07946E+01
   8.62581E+01  8.16323E+01  6.81186E+01  4.83364E+01  3.89367E+01  2.62872E+01  2.19543E+01  1.65807E+01  1.02587E+01  5.72346E+00
   3.25278E+00  7.48549E+00  8.70632E+00  4.99836E+00  6.82801E+00  6.28214E+00  3.10297E+00  1.15998E+01  1.08413E+01  7.20801E+00
   6.33735E+00  4.16980E+00  1.11313E+00  5.37494E+00  4.72654E+00  4.49669E+00  8.21572E-01  1.26752E+00  2.02872E+00  3.05756E+00
   5.52361E+00  3.75237E-01  1.88795E+00  3.47124E+00  3.89338E+00  4.06470E+00  4.84510E-01  4.91610E+00  4.31479E+00  1.35327E+00
   1.80308E+00  2.56717E+00  5.22593E+00  3.96612E+00  4.96710E-01  6.98121E+00  7.03026E+00  2.40928E+00  6.22514E+00  6.32384E+00
   3.16609E+00  4.35562E+00  6.89697E+00  4.71665E+00  5.90500E+00  5.59581E+00  4.19430E+00  5.92678E+00  4.13308E+00  2.23953E+00
   7.41170E-01  3.48474E+00  6.88352E-01  3.98275E+00  4.25345E+00 -6.25809E-01 -8.90744E-01  1.27647E+00  1.58236E+00 -7.00625E-01
   5.64146E+00  2.99609E+00  7.63001E+00  4.84833E+00  2.71431E+00  3.45813E+00  2.02746E-01  4.11003E+00  4.94514E+00  5.31821E+00
   1.36839E+00 -2.62723E+00 -1.86258E-01  1.32930E+00 -5.09039E-01  1.96817E+00  4.08505E+00  3.91183E+00  4.64558E+00  3.06517E+00
   7.12763E+00  7.57602E+00  3.88175E+00 -7.12941E-02 -8.71047E-01  8.52664E-01 -1.23611E+00  1.76282E+00  1.32149E+00 -1.10924E+00
  -1.22909E+00  2.22490E+00  6.92544E-01  2.17658E+00  5.15343E+00  4.37533E+00  6.63869E+00  2.78130E+00  3.31471E+00  2.68778E+00
   1.65541E+00  2.36306E+00  3.85696E+00  2.02542E+00  1.11067E+00  2.69658E+00  7.22511E+00 -8.51061E-02 -2.96746E+00  6.83778E-01
   3.12988E+00  3.15152E+00  2.15789E+00  2.78831E+00  4.73947E+00 -3.13379E+00  3.17705E+00 -3.90592E+00  2.86714E+00 -1.18937E+00
  -6.50113E+00  4.83152E+00 -1.75726E+00  4.44862E-01  6.30146E-01  1.36835E-01  5.12706E+00 -2.75385E+00  4.06701E-01 -1.73241E+00
   5.83181E+00  5.05824E+00 -1.23158E+00  1.08381E+00 -1.21257E+00  2.86282E+00  3.09266E+00  4.64994E+00  9.67675E-01  3.86521E+00
   8.37924E-01 -4.90223E-01  2.72936E+00  2.59050E+00  5.39995E-01 -3.29167E+00  6.87029E-01 -2.30529E+00 -1.72391E+00 -2.86920E+00
  -3.05360E+00 -2.72878E+00 -1.45813E+00  1.17507E+00 -5.92631E-01 -1.53390E+00 -3.42936E+00  3.34464E+00 -7.08759E-01  1.38725E+00
   1.37665E+00  3.50383E-01  1.13200E+00  2.53165E+00 -1.10894E+00  5.36597E+00 -2.66311E-01  4.82172E+00 -8.18994E-01  2.07866E+00
  -1.41892E+00 -3.61498E+00  1.51842E+00  7.71554E-01 -1.60286E+00 -1.53035E+00  6.87101E-01  9.76749E-01 -2.72424E+00  3.15581E+00
  -1.97863E+00  1.67672E-01 -3.18158E+00 -1.16211E+00  1.10111E+00  1.54977E+00  1.06665E+00  5.24099E-01 -9.91682E-01  1.24099E+00
   3.18355E-02  5.41297E-01  2.23388E+00 -2.25068E+00 -4.06639E+00  1.55973E+00 -6.47656E-01 -2.49291E+00 -1.46472E+00 -1.62026E+00
  -3.20134E+00  9.38875E-01 -1.05829E+00 -8.60077E-01  1.31975E+00 -1.19782E+00 -3.45590E+00  8.51737E-01  6.20981E+00  1.85144E-01
  -2.45345E-01  1.22137E+00 -7.86863E-01 -9.78406E-03 -1.04916E+00 -1.20901E+00 -6.58777E-01 -2.25240E+00  1.99098E+00 -1.83339E+00
  -2.08248E+00  1.05577E+00  1.01394E+00 -1.50414E+00  2.49883E+00  1.33592E+00  9.33024E-01  1.74000E+00
 NY points of the fit to the data follow
  -6.24868E+00 -6.11597E+00 -5.25422E+00 -3.39360E+00 -7.34036E-01  2.64182E+00  6.59802E+00  1.06655E+01  1.38898E+01  1.52335E+01
   1.42667E+01  1.14939E+01  8.05606E+00  5.01275E+00  2.78393E+00  1.16415E+00 -2.83024E-01 -1.67927E+00 -2.67727E+00 -3.13323E+00
  -3.38596E+00 -3.61722E+00 -3.69539E+00 -3.40348E+00 -2.81424E+00 -1.85913E+00 -4.20801E-01  1.44484E+00  3.43941E+00  5.05940E+00
   5.95635E+00  5.99541E+00  5.23586E+00  3.89181E+00  2.22907E+00  4.61984E-01 -1.22359E+00 -2.64504E+00 -3.42503E+00 -3.37947E+00
  -2.72301E+00 -1.65125E+00 -3.52763E-01  1.04869E+00  2.48547E+00  3.75331E+00  4.52099E+00  4.43420E+00  3.40912E+00  1.77009E+00
   4.23639E-02 -1.34462E+00 -2.21644E+00 -2.68408E+00 -2.86686E+00 -2.79473E+00 -2.47349E+00 -2.00256E+00 -1.57486E+00 -1.38357E+00
  -1.53065E+00 -1.99784E+00 -2.62874E+00 -3.21302E+00 -3.55582E+00 -3.59064E+00 -3.40530E+00 -3.10929E+00 -2.76477E+00 -2.42862E+00
  -2.15096E+00 -1.99018E+00 -1.97874E+00 -2.09674E+00 -2.28537E+00 -2.47636E+00 -2.62279E+00 -2.72521E+00 -2.79168E+00 -2.78544E+00
  -2.61864E+00 -2.35182E+00 -2.02914E+00 -1.66348E+00 -1.32127E+00 -1.15171E+00 -1.29393E+00 -1.74437E+00 -2.32992E+00 -2.79395E+00
  -2.99107E+00 -2.94909E+00 -2.80223E+00 -2.65984E+00 -2.36294E+00 -9.03941E-01  2.43368E+00  7.22553E+00  1.34706E+01  2.11057E+01
   2.91234E+01  3.53212E+01  3.73916E+01  3.45181E+01  2.79819E+01  2.03359E+01  1.37673E+01  9.03589E+00  5.61788E+00  2.66277E+00
   3.27834E-02 -1.55103E+00 -2.02415E+00 -2.17289E+00 -2.23714E+00 -2.26333E+00 -2.26865E+00 -2.23327E+00 -2.07772E+00 -1.47791E+00
   6.27416E-01  4.60892E+00  1.00591E+01  1.69145E+01  2.49244E+01  3.28907E+01  3.86200E+01  4.00418E+01  3.66700E+01  3.00245E+01
   2.25753E+01  1.61526E+01  1.11874E+01  7.06318E+00  3.22880E+00  3.21051E-03 -1.64613E+00 -1.83467E+00 -1.39995E+00 -7.98459E-01
  -3.29593E-01 -1.19401E-01 -1.35242E-01 -3.16182E-01 -5.82835E-01 -8.52545E-01 -1.11893E+00 -1.41557E+00 -1.73144E+00 -2.04919E+00
  -2.32737E+00 -2.55062E+00 -2.70145E+00 -2.76421E+00 -2.77203E+00 -2.79595E+00 -2.87517E+00 -3.06582E+00 -3.37927E+00 -3.77006E+00
  -4.14382E+00 -4.33320E+00 -4.26503E+00 -4.05763E+00 -3.93018E+00 -4.07175E+00 -4.50229E+00 -5.05695E+00 -5.53255E+00 -5.85232E+00
  -6.12453E+00 -6.43610E+00 -6.81853E+00 -7.25552E+00 -7.63998E+00 -7.85897E+00 -7.80867E+00 -7.51744E+00 -7.19683E+00 -7.03843E+00
  -7.07006E+00 -7.13788E+00 -6.98432E+00 -6.53128E+00 -5.85998E+00 -5.04378E+00 -4.05607E+00 -2.78878E+00 -1.32131E+00  2.03425E-03
   7.73730E-01  8.18212E-01  3.14588E-01 -4.08228E-01 -1.02948E+00 -1.33446E+00 -1.28163E+00 -8.58431E-01 -6.68918E-02  9.54295E-01
   2.03964E+00  3.01723E+00  3.71319E+00  3.85068E+00  3.29255E+00  2.04213E+00  2.14842E-01 -1.82955E+00 -3.51715E+00 -4.26056E+00
  -3.81261E+00 -2.38435E+00 -2.69641E-01  2.17225E+00  4.39430E+00  5.65164E+00  5.37937E+00  3.62914E+00  9.95172E-01 -1.84074E+00
  -4.10162E+00 -5.20017E+00 -4.94371E+00 -3.49436E+00 -1.31995E+00  9.80114E-01  2.81608E+00  3.84405E+00  4.21337E+00  4.27578E+00
   4.40051E+00  4.70248E+00  5.14150E+00  5.70398E+00  6.28226E+00  6.65062E+00  6.61972E+00  6.23360E+00  5.65738E+00  5.01729E+00
   4.41777E+00  4.08887E+00  4.26220E+00  4.95386E+00  5.94441E+00  6.93205E+00  7.74257E+00  8.35097E+00  9.09261E+00  1.05101E+01
   1.26564E+01  1.55332E+01  1.91783E+01  2.42591E+01  3.18802E+01  4.06393E+01  4.96157E+01  5.92565E+01  6.96488E+01  7.87089E+01
   8.26704E+01  7.87766E+01  6.75598E+01  5.27395E+01  3.89376E+01  2.86988E+01  2.15516E+01  1.58166E+01  1.05684E+01  6.62858E+00
   5.06083E+00  4.63288E+00  4.51787E+00  4.52516E+00  4.52385E+00  4.42043E+00  4.22776E+00  3.98263E+00  3.72719E+00  3.49726E+00
   3.31348E+00  3.17068E+00  3.06590E+00  3.00028E+00  2.96324E+00  2.93783E+00  2.91704E+00  2.90490E+00  2.91237E+00  2.94625E+00
   3.00291E+00  3.07517E+00  3.15024E+00  3.21431E+00  3.26509E+00  3.30949E+00  3.35484E+00  3.40674E+00  3.46862E+00  3.53992E+00
   3.61947E+00  3.70299E+00  3.78113E+00  3.84482E+00  3.89046E+00  3.91814E+00  3.92890E+00  3.92187E+00  3.89696E+00  3.85714E+00
   3.80479E+00  3.74228E+00  3.67294E+00  3.59996E+00  3.52639E+00  3.45490E+00  3.38831E+00  3.32896E+00  3.27896E+00  3.23951E+00
   3.21141E+00  3.19474E+00  3.18946E+00  3.19487E+00  3.21006E+00  3.23328E+00  3.26266E+00  3.29594E+00  3.33122E+00  3.36636E+00
   3.39938E+00  3.42802E+00  3.45044E+00  3.46495E+00  3.47056E+00  3.46637E+00  3.45191E+00  3.42673E+00  3.39107E+00  3.34543E+00
   3.29090E+00  3.22849E+00  3.15951E+00  3.08513E+00  3.00695E+00  2.92648E+00  2.84538E+00  2.76482E+00  2.68595E+00  2.60947E+00
   2.53622E+00  2.46662E+00  2.40101E+00  2.33909E+00  2.28055E+00  2.22471E+00  2.17111E+00  2.11893E+00  2.06745E+00  2.01559E+00
   1.96258E+00  1.90762E+00  1.85036E+00  1.79039E+00  1.72759E+00  1.66179E+00  1.59339E+00  1.52287E+00  1.45120E+00  1.37928E+00
   1.30827E+00  1.23929E+00  1.17388E+00  1.11350E+00  1.05987E+00  1.01437E+00  9.78528E-01  9.53623E-01  9.41172E-01  9.42395E-01
   9.58539E-01  9.90367E-01  1.03867E+00  1.10389E+00  1.18652E+00  1.28654E+00  1.40375E+00  1.53729E+00  1.68615E+00  1.84875E+00
   2.02331E+00  2.20730E+00  2.39784E+00  2.59134E+00  2.78410E+00  2.97196E+00  3.15075E+00  3.31593E+00  3.46315E+00  3.58809E+00
   3.68711E+00  3.75694E+00  3.79520E+00  3.79999E+00  3.77049E+00  3.70665E+00  3.60962E+00  3.48126E+00  3.32434E+00  3.14201E+00
   2.93816E+00  2.71690E+00  2.48280E+00  2.24021E+00  1.99347E+00  1.74640E+00  1.50270E+00  1.26545E+00  1.03748E+00  8.20797E-01
   6.17040E-01  4.27124E-01  2.51795E-01  9.12434E-02 -5.44728E-02 -1.85857E-01 -3.03457E-01 -4.08159E-01 -5.00659E-01 -5.81890E-01
  -6.52633E-01 -7.13941E-01 -7.66645E-01 -8.11684E-01 -8.49671E-01 -8.81367E-01 -9.07326E-01 -9.28300E-01 -9.44757E-01 -9.57251E-01
  -9.66036E-01 -9.71559E-01 -9.74088E-01 -9.74086E-01 -9.71731E-01 -9.67317E-01 -9.60897E-01 -9.52761E-01 -9.43031E-01 -9.32010E-01
  -9.19719E-01 -9.06322E-01 -8.91793E-01 -8.76356E-01 -8.60044E-01 -8.43049E-01 -8.25290E-01 -8.06868E-01 -7.87721E-01 -7.68042E-01
  -7.47820E-01 -7.27185E-01 -7.06011E-01 -6.84387E-01 -6.62259E-01 -6.39810E-01 -6.16993E-01 -5.93898E-01 -5.70387E-01 -5.46558E-01
  -5.22365E-01 -4.97974E-01 -4.73302E-01 -4.48410E-01 -4.23161E-01 -3.97677E-01 -3.71920E-01 -3.46036E-01 -3.19910E-01 -2.93590E-01
  -2.66958E-01 -2.40149E-01 -2.13122E-01 -1.85990E-01 -1.58613E-01 -1.31039E-01 -1.03169E-01 -7.51512E-02 -4.69275E-02 -1.85770E-02
   1.00581E-02  3.89214E-02  6.80931E-02  9.74325E-02  1.27030E-01  1.56844E-01  1.87046E-01  2.17575E-01
 NY background values follow
    -8.429E+00   -8.379E+00   -8.330E+00   -8.280E+00   -8.231E+00   -8.181E+00   -8.131E+00   -8.082E+00   -8.032E+00   -7.982E+00
    -7.932E+00   -7.882E+00   -7.832E+00   -7.782E+00   -7.732E+00   -7.682E+00   -7.632E+00   -7.582E+00   -7.533E+00   -7.483E+00
    -7.433E+00   -7.383E+00   -7.333E+00   -7.283E+00   -7.233E+00   -7.183E+00   -7.133E+00   -7.083E+00   -7.033E+00   -6.984E+00
    -6.934E+00   -6.884E+00   -6.835E+00   -6.785E+00   -6.736E+00   -6.686E+00   -6.637E+00   -6.587E+00   -6.538E+00   -6.489E+00
    -6.440E+00   -6.391E+00   -6.342E+00   -6.293E+00   -6.244E+00   -6.195E+00   -6.147E+00   -6.098E+00   -6.050E+00   -6.002E+00
    -5.954E+00   -5.906E+00   -5.858E+00   -5.810E+00   -5.763E+00   -5.715E+00   -5.668E+00   -5.621E+00   -5.574E+00   -5.528E+00
    -5.482E+00   -5.436E+00   -5.390E+00   -5.344E+00   -5.299E+00   -5.254E+00   -5.209E+00   -5.165E+00   -5.121E+00   -5.077E+00
    -5.034E+00   -4.990E+00   -4.948E+00   -4.905E+00   -4.863E+00   -4.821E+00   -4.780E+00   -4.739E+00   -4.699E+00   -4.658E+00
    -4.619E+00   -4.579E+00   -4.541E+00   -4.502E+00   -4.464E+00   -4.427E+00   -4.390E+00   -4.353E+00   -4.317E+00   -4.282E+00
    -4.247E+00   -4.212E+00   -4.178E+00   -4.145E+00   -4.112E+00   -4.079E+00   -4.048E+00   -4.016E+00   -3.985E+00   -3.955E+00
    -3.926E+00   -3.897E+00   -3.868E+00   -3.840E+00   -3.812E+00   -3.786E+00   -3.759E+00   -3.733E+00   -3.708E+00   -3.684E+00
    -3.660E+00   -3.636E+00   -3.613E+00   -3.591E+00   -3.569E+00   -3.548E+00   -3.527E+00   -3.507E+00   -3.488E+00   -3.469E+00
    -3.451E+00   -3.433E+00   -3.416E+00   -3.400E+00   -3.384E+00   -3.369E+00   -3.354E+00   -3.340E+00   -3.327E+00   -3.314E+00
    -3.302E+00   -3.290E+00   -3.279E+00   -3.269E+00   -3.259E+00   -3.250E+00   -3.242E+00   -3.234E+00   -3.227E+00   -3.220E+00
    -3.214E+00   -3.208E+00   -3.203E+00   -3.197E+00   -3.193E+00   -3.188E+00   -3.183E+00   -3.179E+00   -3.174E+00   -3.170E+00
    -3.166E+00   -3.161E+00   -3.156E+00   -3.151E+00   -3.146E+00   -3.141E+00   -3.135E+00   -3.129E+00   -3.122E+00   -3.115E+00
    -3.107E+00   -3.099E+00   -3.090E+00   -3.080E+00   -3.070E+00   -3.058E+00   -3.046E+00   -3.033E+00   -3.019E+00   -3.004E+00
    -2.988E+00   -2.971E+00   -2.953E+00   -2.933E+00   -2.912E+00   -2.890E+00   -2.867E+00   -2.842E+00   -2.815E+00   -2.787E+00
    -2.758E+00   -2.727E+00   -2.694E+00   -2.660E+00   -2.624E+00   -2.586E+00   -2.548E+00   -2.507E+00   -2.466E+00   -2.423E+00
    -2.379E+00   -2.334E+00   -2.287E+00   -2.240E+00   -2.191E+00   -2.142E+00   -2.091E+00   -2.040E+00   -1.988E+00   -1.935E+00
    -1.881E+00   -1.827E+00   -1.772E+00   -1.716E+00   -1.660E+00   -1.604E+00   -1.547E+00   -1.489E+00   -1.432E+00   -1.374E+00
    -1.315E+00   -1.257E+00   -1.198E+00   -1.140E+00   -1.081E+00   -1.023E+00   -9.642E-01   -9.058E-01   -8.476E-01   -7.897E-01
    -7.320E-01   -6.746E-01   -6.176E-01   -5.611E-01   -5.050E-01   -4.495E-01   -3.946E-01   -3.402E-01   -2.866E-01   -2.335E-01
    -1.812E-01   -1.296E-01   -7.863E-02   -2.842E-02    2.106E-02    6.978E-02    1.177E-01    1.649E-01    2.113E-01    2.568E-01
     3.015E-01    3.454E-01    3.884E-01    4.306E-01    4.718E-01    5.121E-01    5.516E-01    5.900E-01    6.276E-01    6.641E-01
     6.997E-01    7.343E-01    7.678E-01    8.004E-01    8.319E-01    8.623E-01    8.916E-01    9.199E-01    9.470E-01    9.731E-01
     9.980E-01    1.022E+00    1.044E+00    1.066E+00    1.086E+00    1.105E+00    1.123E+00    1.139E+00    1.154E+00    1.168E+00
     1.181E+00    1.192E+00    1.202E+00    1.211E+00    1.219E+00    1.225E+00    1.230E+00    1.234E+00    1.236E+00    1.238E+00
     1.238E+00    1.237E+00    1.235E+00    1.231E+00    1.227E+00    1.222E+00    1.215E+00    1.208E+00    1.200E+00    1.190E+00
     1.180E+00    1.168E+00    1.156E+00    1.143E+00    1.129E+00    1.114E+00    1.098E+00    1.081E+00    1.064E+00    1.046E+00
     1.026E+00    1.007E+00    9.861E-01    9.649E-01    9.429E-01    9.203E-01    8.970E-01    8.731E-01    8.485E-01    8.234E-01
     7.976E-01    7.713E-01    7.445E-01    7.172E-01    6.893E-01    6.610E-01    6.322E-01    6.029E-01    5.733E-01    5.432E-01
     5.127E-01    4.819E-01    4.507E-01    4.191E-01    3.873E-01    3.551E-01    3.227E-01    2.900E-01    2.570E-01    2.238E-01
     1.904E-01    1.568E-01    1.230E-01    8.901E-02    5.491E-02    2.067E-02   -1.368E-02   -4.812E-02   -8.264E-02   -1.172E-01
    -1.518E-01   -1.865E-01   -2.211E-01   -2.558E-01   -2.904E-01   -3.250E-01   -3.595E-01   -3.939E-01   -4.282E-01   -4.624E-01
    -4.965E-01   -5.305E-01   -5.642E-01   -5.978E-01   -6.312E-01   -6.644E-01   -6.973E-01   -7.300E-01   -7.624E-01   -7.945E-01
    -8.263E-01   -8.578E-01   -8.889E-01   -9.197E-01   -9.501E-01   -9.802E-01   -1.010E+00   -1.039E+00   -1.068E+00   -1.096E+00
    -1.124E+00   -1.151E+00   -1.178E+00   -1.204E+00   -1.230E+00   -1.255E+00   -1.280E+00   -1.304E+00   -1.328E+00   -1.350E+00
    -1.373E+00   -1.394E+00   -1.415E+00   -1.435E+00   -1.455E+00   -1.474E+00   -1.492E+00   -1.509E+00   -1.526E+00   -1.542E+00
    -1.556E+00   -1.571E+00   -1.584E+00   -1.597E+00   -1.608E+00   -1.619E+00   -1.629E+00   -1.638E+00   -1.646E+00   -1.653E+00
    -1.659E+00   -1.664E+00   -1.668E+00   -1.671E+00   -1.674E+00   -1.675E+00   -1.675E+00   -1.674E+00   -1.671E+00   -1.668E+00
    -1.664E+00   -1.659E+00   -1.653E+00   -1.646E+00   -1.637E+00   -1.628E+00   -1.619E+00   -1.608E+00   -1.596E+00   -1.584E+00
    -1.570E+00   -1.556E+00   -1.542E+00   -1.526E+00   -1.510E+00   -1.493E+00   -1.475E+00   -1.457E+00   -1.438E+00   -1.419E+00
    -1.399E+00   -1.378E+00   -1.357E+00   -1.335E+00   -1.313E+00   -1.291E+00   -1.268E+00   -1.244E+00   -1.220E+00   -1.196E+00
    -1.171E+00   -1.146E+00   -1.121E+00   -1.096E+00   -1.070E+00   -1.044E+00   -1.018E+00   -9.913E-01   -9.647E-01   -9.379E-01
    -9.110E-01   -8.840E-01   -8.569E-01   -8.298E-01   -8.026E-01   -7.753E-01   -7.480E-01   -7.206E-01   -6.932E-01   -6.656E-01
    -6.381E-01   -6.105E-01   -5.828E-01   -5.550E-01   -5.272E-01   -4.994E-01   -4.715E-01   -4.436E-01   -4.156E-01   -3.875E-01
    -3.594E-01   -3.313E-01   -3.031E-01   -2.749E-01   -2.466E-01   -2.183E-01   -1.899E-01   -1.615E-01   -1.331E-01   -1.046E-01
    -7.607E-02   -4.751E-02   -1.892E-02    9.702E-03    3.836E-02    6.705E-02    9.578E-02    1.245E-01    1.533E-01    1.821E-01
     2.110E-01    2.398E-01    2.687E-01    2.977E-01    3.266E-01    3.556E-01    3.845E-01    4.136E-01
 PCr      Conc. = 1.24E+03
