 LCModel (Version 6.3-1L) Copyright: S.W. Provencher.          Ref.: Magn. Reson. Med. 30:672-679 (1993).                
 Slice#1 Row#5 Col#3  K_02_press_1_raw_act
 36 lines in following concentration table = NCONC+1
    Conc.  %SD /Cr+PCr  Metabolite                                         
  665.239  22%   0.795 Ala                                                 
    0.000 999%   0.000 Asp                                                 
    0.000 999%   0.000 Cr                                                  
  836.736   6%   1.000 PCr                                                 
  144.434  86%   0.173 GABA                                                
    0.000 999%   0.000 Glc                                                 
  828.558  43%   0.990 Gln                                                 
 1.79E+03  23%   2.145 Glu                                                 
  253.854   7%   0.303 GPC                                                 
    0.000 999%   0.000 PCh                                                 
  295.101  26%   0.353 GSH                                                 
  427.240  51%   0.511 Ins                                                 
    0.000 999%   0.000 Lac                                                 
 1.43E+03  10%   1.708 NAA                                                 
  503.039  32%   0.601 NAAG                                                
   29.538  78% 3.5E-02 Scyllo                                              
    0.000 999%   0.000 Tau                                                 
   41.764 231% 5.0E-02 -CrCH2                                              
  253.854   7%   0.303 GPC+PCh                                             
 1.93E+03   3%   2.309 NAA+NAAG                                            
  836.736   6%   1.000 Cr+PCr                                              
 2.62E+03  25%   3.135 Glu+Gln                                             
    0.000 999%   0.000 Lip13a                                              
   80.421  78% 9.6E-02 Lip13b                                              
    0.000 999%   0.000 Lip09                                               
  669.485  15%   0.800 MM09                                                
   17.934 133% 2.1E-02 Lip20                                               
 1.03E+03  15%   1.232 MM20                                                
  200.063  16%   0.239 MM12                                                
  509.035  17%   0.608 MM14                                                
  310.737  15%   0.371 MM17                                                
   80.421  78% 9.6E-02 Lip13a+Lip13b                                       
  789.519  16%   0.944 MM14+Lip13a+Lip13b+MM12                             
  669.485  15%   0.800 MM09+Lip09                                          
 1.05E+03  15%   1.253 MM20+Lip20                                          
   6 lines in following misc. output table
  FWHM = 0.084 ppm    S/N =   8                                            
  Data shift = 0.069 ppm                                                   
  Ph:   5 deg       2.2 deg/ppm                                            
  alphaB,S = 8.5E+01,   2.4E+02                                            
   14 spline knots.   Ns = 9(1)                                            
  (11) 2 infls.   ( 5) 1 extrs.                                            
  498 points on ppm-axis = NY
      4.000000     3.992357     3.984714     3.977070     3.969427     3.961784     3.954141     3.946497     3.938854     3.931211
      3.923568     3.915925     3.908281     3.900638     3.892995     3.885352     3.877708     3.870065     3.862422     3.854779
      3.847136     3.839492     3.831849     3.824206     3.816563     3.808919     3.801276     3.793633     3.785990     3.778347
      3.770703     3.763060     3.755417     3.747774     3.740130     3.732487     3.724844     3.717201     3.709558     3.701914
      3.694271     3.686628     3.678985     3.671341     3.663698     3.656055     3.648412     3.640769     3.633125     3.625482
      3.617839     3.610196     3.602552     3.594909     3.587266     3.579623     3.571980     3.564336     3.556693     3.549050
      3.541407     3.533763     3.526120     3.518477     3.510834     3.503191     3.495547     3.487904     3.480261     3.472618
      3.464974     3.457331     3.449688     3.442045     3.434402     3.426758     3.419115     3.411472     3.403829     3.396185
      3.388542     3.380899     3.373256     3.365613     3.357969     3.350326     3.342683     3.335040     3.327396     3.319753
      3.312110     3.304467     3.296824     3.289180     3.281537     3.273894     3.266251     3.258607     3.250964     3.243321
      3.235678     3.228034     3.220391     3.212748     3.205105     3.197462     3.189818     3.182175     3.174532     3.166889
      3.159245     3.151602     3.143959     3.136316     3.128673     3.121029     3.113386     3.105743     3.098100     3.090456
      3.082813     3.075170     3.067527     3.059884     3.052240     3.044597     3.036954     3.029311     3.021667     3.014024
      3.006381     2.998738     2.991095     2.983451     2.975808     2.968165     2.960522     2.952878     2.945235     2.937592
      2.929949     2.922306     2.914662     2.907019     2.899376     2.891733     2.884089     2.876446     2.868803     2.861160
      2.853517     2.845873     2.838230     2.830587     2.822944     2.815300     2.807657     2.800014     2.792371     2.784728
      2.777084     2.769441     2.761798     2.754155     2.746511     2.738868     2.731225     2.723582     2.715939     2.708295
      2.700652     2.693009     2.685366     2.677722     2.670079     2.662436     2.654793     2.647150     2.639506     2.631863
      2.624220     2.616577     2.608933     2.601290     2.593647     2.586004     2.578361     2.570717     2.563074     2.555431
      2.547788     2.540144     2.532501     2.524858     2.517215     2.509572     2.501928     2.494285     2.486642     2.478999
      2.471355     2.463712     2.456069     2.448426     2.440783     2.433139     2.425496     2.417853     2.410210     2.402566
      2.394923     2.387280     2.379637     2.371994     2.364350     2.356707     2.349064     2.341421     2.333777     2.326134
      2.318491     2.310848     2.303205     2.295561     2.287918     2.280275     2.272632     2.264988     2.257345     2.249702
      2.242059     2.234416     2.226772     2.219129     2.211486     2.203843     2.196199     2.188556     2.180913     2.173270
      2.165627     2.157983     2.150340     2.142697     2.135054     2.127410     2.119767     2.112124     2.104481     2.096838
      2.089194     2.081551     2.073908     2.066265     2.058621     2.050978     2.043335     2.035692     2.028049     2.020405
      2.012762     2.005119     1.997476     1.989833     1.982190     1.974546     1.966903     1.959260     1.951617     1.943974
      1.936331     1.928688     1.921045     1.913402     1.905759     1.898115     1.890472     1.882829     1.875186     1.867543
      1.859900     1.852257     1.844614     1.836971     1.829327     1.821684     1.814041     1.806398     1.798755     1.791112
      1.783469     1.775826     1.768183     1.760540     1.752896     1.745253     1.737610     1.729967     1.722324     1.714681
      1.707038     1.699395     1.691752     1.684108     1.676465     1.668822     1.661179     1.653536     1.645893     1.638250
      1.630607     1.622964     1.615321     1.607677     1.600034     1.592391     1.584748     1.577105     1.569462     1.561819
      1.554176     1.546533     1.538890     1.531246     1.523603     1.515960     1.508317     1.500674     1.493031     1.485388
      1.477745     1.470102     1.462458     1.454815     1.447172     1.439529     1.431886     1.424243     1.416600     1.408957
      1.401314     1.393671     1.386027     1.378384     1.370741     1.363098     1.355455     1.347812     1.340169     1.332526
      1.324883     1.317240     1.309596     1.301953     1.294310     1.286667     1.279024     1.271381     1.263738     1.256095
      1.248452     1.240808     1.233165     1.225522     1.217879     1.210236     1.202593     1.194950     1.187307     1.179664
      1.172021     1.164377     1.156734     1.149091     1.141448     1.133805     1.126162     1.118519     1.110876     1.103233
      1.095590     1.087946     1.080303     1.072660     1.065017     1.057374     1.049731     1.042088     1.034445     1.026802
      1.019158     1.011515     1.003872     0.996229     0.988586     0.980943     0.973300     0.965657     0.958014     0.950371
      0.942727     0.935084     0.927441     0.919798     0.912155     0.904512     0.896869     0.889226     0.881583     0.873940
      0.866296     0.858653     0.851010     0.843367     0.835724     0.828081     0.820438     0.812795     0.805152     0.797508
      0.789865     0.782222     0.774579     0.766936     0.759293     0.751650     0.744007     0.736364     0.728721     0.721077
      0.713434     0.705791     0.698148     0.690505     0.682862     0.675219     0.667576     0.659933     0.652290     0.644646
      0.637003     0.629360     0.621717     0.614074     0.606431     0.598788     0.591145     0.583502     0.575858     0.568215
      0.560572     0.552929     0.545286     0.537643     0.530000     0.522357     0.514714     0.507071     0.499427     0.491784
      0.484141     0.476498     0.468855     0.461212     0.453569     0.445925     0.438282     0.430639     0.422996     0.415353
      0.407710     0.400067     0.392424     0.384780     0.377137     0.369494     0.361851     0.354208     0.346565     0.338922
      0.331278     0.323635     0.315992     0.308349     0.300706     0.293063     0.285420     0.277777     0.270133     0.262490
      0.254847     0.247204     0.239561     0.231918     0.224275     0.216631     0.208988     0.201345
 NY phased data points follow
   6.36446E+00  3.04833E+00  8.73607E-01  3.86099E+00  2.94745E+00  8.40824E+00  7.73893E+00  9.91408E+00  1.16460E+01  1.75826E+01
   1.37242E+01  1.40628E+01  1.42759E+01  1.20766E+01  1.27263E+01  1.07471E+01  6.27908E+00  6.63502E+00  4.10937E+00  4.97771E+00
   7.09012E+00  6.97508E+00  9.07114E+00  4.51706E+00  7.07317E+00  9.54295E+00  5.78391E+00  8.25970E+00  7.56409E+00  6.59764E+00
   5.80064E+00  5.37767E+00  8.23767E+00  3.97853E+00  5.76967E+00  5.29991E+00  3.09316E+00  6.75213E+00  5.48575E+00  5.43140E+00
   4.84110E+00  4.44729E+00  1.10140E+01  7.59730E+00  4.91736E+00  6.86912E+00  9.35121E+00  6.92064E+00  6.31958E+00  5.50810E+00
   4.29764E+00  5.09179E+00  2.39557E+00  3.96719E+00  3.69685E+00  3.28851E+00  3.32429E+00  5.35577E+00  2.83209E+00  3.96854E+00
   3.25589E+00 -3.13313E+00  1.65591E+00  7.69538E-03  1.28585E+00 -3.01677E+00 -1.54975E+00  2.14084E-01  2.03413E+00  3.62027E+00
   1.63881E+00 -3.63325E+00  5.25394E-01  1.08243E+00  1.67599E+00  1.52536E-01 -1.58323E-01 -1.63046E+00  1.54899E+00 -1.65293E+00
  -1.29018E+00  4.10315E+00 -1.31981E+00  9.98874E-01 -1.59409E+00 -7.50641E-01  9.85435E-01  1.06080E+00  2.04670E+00  1.32490E+00
  -2.65492E+00 -9.10005E-01 -6.69829E-01  1.11394E+00 -2.89386E-01  4.10761E+00  3.09157E+00  5.43306E+00  9.67401E+00  8.42646E+00
   1.22456E+01  1.58043E+01  1.81621E+01  1.82261E+01  1.83122E+01  1.79593E+01  1.26704E+01  1.08670E+01  8.45227E+00  3.85721E+00
   1.46491E+00  1.29035E-02  2.59963E+00  1.85243E+00  3.59895E+00  8.64421E-01  5.55008E-01  2.63206E+00  1.84609E-01  3.28066E+00
   6.19342E+00  5.42784E+00  1.08913E+01  1.00060E+01  1.43004E+01  1.88010E+01  1.95662E+01  2.39501E+01  2.10994E+01  2.11915E+01
   1.75369E+01  1.72401E+01  1.35251E+01  8.96209E+00  7.30439E+00  5.60792E+00  2.35458E+00  2.18047E+00 -1.83354E+00  4.10252E+00
   3.20329E+00  3.32645E+00  1.61652E+00 -1.81114E-01  2.05767E+00  2.84287E+00  1.33519E+00  3.37726E+00  3.51335E+00  3.36409E+00
  -1.41316E+00  1.04818E+00  3.97375E+00 -3.78425E-01  1.52586E+00  1.91384E-01 -3.73341E+00  1.08801E+00 -1.31793E+00  2.06068E+00
  -1.47283E+00  6.36524E-01  9.43565E-01 -3.10423E-01  2.40374E-02  4.90262E-01 -2.73330E+00 -1.87563E+00 -7.32395E+00 -6.09007E+00
  -7.14358E+00 -4.36550E+00 -5.78234E+00 -2.82237E+00 -5.91717E+00 -5.47231E+00 -1.05558E+01 -6.66928E+00 -9.20245E+00 -1.14527E+01
  -6.30982E+00 -1.05401E+01 -7.71774E+00 -4.05431E+00 -6.21712E+00 -1.80473E+00 -6.38771E+00 -2.48331E-01 -4.02141E+00 -9.60019E-02
   1.87057E+00 -2.18130E+00 -4.72121E+00  1.77409E+00 -4.76971E+00 -6.19769E+00  4.31848E-01 -3.96019E+00 -5.14878E+00 -4.58351E+00
  -8.13258E+00 -2.15585E+00 -1.39989E+00 -3.67445E+00  6.35955E-01 -5.28895E+00 -1.64466E+00 -1.88342E+00 -7.23798E-01 -1.55101E+00
   1.28486E+00  1.74614E+00  1.97050E+00  4.35351E+00  6.19636E+00  5.79868E+00  1.01685E+00  8.88950E-01  3.30816E+00  3.92413E+00
   3.54441E-01  5.16967E+00  7.12013E-01 -3.17902E+00 -1.94205E+00 -3.32909E+00 -1.26702E+00  4.52181E+00  3.31971E-01  1.49230E+00
   4.17584E+00 -7.47139E-01  2.40973E+00  7.38000E+00  4.71183E+00  2.09746E+00  3.67454E+00  2.31787E+00  1.19363E+00  3.41980E+00
   3.77807E+00  3.84858E+00  2.55365E+00  2.24051E+00  4.00605E+00  5.03547E+00  3.77255E+00  3.95477E+00  9.44755E+00  7.25886E+00
   1.16758E+01  1.13020E+01  1.37231E+01  1.63009E+01  2.18797E+01  2.80496E+01  3.57222E+01  3.66769E+01  3.85536E+01  4.08037E+01
   4.60108E+01  4.12230E+01  3.92118E+01  3.41989E+01  3.34205E+01  2.71414E+01  2.09017E+01  1.93613E+01  9.53699E+00  3.23899E+00
   2.79170E+00  2.90983E+00  2.56060E+00 -5.59897E-01  4.96436E+00  3.35482E-01  1.84008E+00 -1.75304E+00  2.01634E+00  5.31025E-01
  -1.01627E+00 -2.48575E+00  1.38112E+00  1.20958E+00 -4.14173E+00  3.17365E+00  3.75629E-01  3.69640E-01  1.48105E+00 -1.84277E-02
   8.45514E-02  5.14596E-01  2.80757E-01  2.40073E+00  3.38942E+00  1.65975E+00  5.32556E+00 -1.14868E+00  1.05968E+00 -1.04983E+00
   1.60204E+00  3.44284E+00  2.94011E+00  4.07761E+00  1.68121E+00  6.16915E+00  1.39214E+00  2.66935E+00  1.46266E+00  5.56845E+00
   4.95431E+00  8.66500E+00  1.99681E+00  3.31905E+00  4.10346E+00  5.96162E+00  4.28388E-01  6.98701E+00  4.15089E+00  5.73604E+00
   2.56655E+00 -3.16282E+00  4.11494E+00  2.06748E+00  2.54514E+00 -5.22735E+00  2.94193E+00 -3.34976E-02 -2.49653E+00 -1.17719E+00
  -4.57289E+00 -6.59045E+00 -6.92494E+00 -8.43450E+00 -9.48233E+00 -8.89824E+00 -8.68888E+00 -8.57515E+00 -7.94396E+00 -3.11842E+00
  -4.01457E+00 -3.44041E+00 -1.93108E+00 -1.36992E+00  1.73469E-01 -2.92265E+00 -4.94467E+00 -2.11956E+00  2.62971E-01 -1.85099E+00
  -2.97639E+00 -3.09681E+00  3.85904E-01 -5.49418E+00  3.44821E-01  1.31858E+00 -2.80709E+00  4.10105E-01 -2.44302E+00  3.46319E-02
  -2.75195E+00  3.19002E+00 -2.27287E+00 -3.32333E+00  3.26406E-01  3.73445E-01 -5.02011E+00 -2.66259E+00 -1.02787E+00 -9.95722E-01
  -6.76845E+00 -3.53449E+00 -3.95771E+00 -5.42445E+00 -1.35376E+00 -3.22950E+00 -6.09390E+00 -4.22457E+00 -4.51527E+00 -1.68208E+00
   1.82724E+00 -2.74204E+00 -2.90037E+00  6.72980E-02 -5.16041E+00 -5.31559E+00 -2.42073E+00 -6.86170E-01 -1.39869E+00 -2.29230E+00
  -3.58675E+00 -4.01905E+00 -3.25683E+00 -3.96685E+00 -5.04136E+00 -4.51056E+00 -3.15851E+00 -2.77199E+00 -3.46361E+00 -3.88261E+00
  -3.81900E+00 -1.25451E+00 -3.86563E+00 -3.71025E+00 -5.27076E+00 -8.79794E-01 -2.75213E+00 -4.83561E+00 -6.99157E+00 -4.42883E+00
  -2.27517E+00 -3.57603E+00 -4.65311E+00 -2.71410E+00 -3.28276E+00 -9.89005E+00 -3.52365E+00 -1.88644E+00 -3.59290E+00 -5.26338E+00
  -5.31885E+00 -6.37417E+00 -6.43654E+00 -6.49660E+00 -6.21684E+00 -1.26492E+00 -4.50260E+00 -4.54434E+00 -7.39359E+00 -2.76932E+00
  -1.17764E+00 -6.42001E+00 -2.26502E+00 -4.25514E+00 -3.45154E+00 -8.42842E+00 -4.68972E+00 -5.74407E+00 -2.30724E+00 -4.34287E+00
  -6.63633E+00 -6.14106E+00 -4.65438E+00 -2.61697E+00 -7.31458E+00 -5.26682E+00  1.56798E-01 -8.79336E+00 -6.64438E+00 -4.25239E+00
  -4.89273E+00 -3.86575E+00 -6.02881E+00 -5.69166E+00 -4.53302E+00 -6.11715E+00 -2.17257E+00 -4.41402E+00 -6.74996E+00 -6.42571E+00
  -8.15647E+00 -4.97403E+00 -4.74315E+00 -2.17884E+00 -3.13446E+00 -2.34107E+00 -6.94547E+00 -3.84046E+00 -4.54238E+00 -7.93812E+00
  -8.29224E+00 -3.76217E+00 -5.88755E+00 -1.07414E+01 -4.70430E+00 -8.21708E+00 -4.97569E+00 -2.15086E+00 -3.15345E+00 -4.28770E+00
  -3.58209E+00 -8.15674E+00 -3.77359E+00 -6.32408E+00 -7.84809E+00 -5.02993E+00 -6.49524E+00 -6.70344E+00 -5.45196E+00 -6.98824E+00
  -2.33559E+00 -2.86879E+00 -4.93782E+00 -3.36280E+00 -4.14658E+00 -3.69048E+00 -7.46076E+00 -4.79941E+00
 NY points of the fit to the data follow
   1.02480E+00  1.75206E+00  2.83068E+00  4.17972E+00  5.69473E+00  7.29699E+00  8.99390E+00  1.07568E+01  1.23905E+01  1.36336E+01
   1.43145E+01  1.44011E+01  1.39439E+01  1.30204E+01  1.17196E+01  1.01480E+01  8.48244E+00  6.95197E+00  5.75360E+00  4.97309E+00
   4.60390E+00  4.46809E+00  4.43279E+00  4.50341E+00  4.71190E+00  5.03299E+00  5.45211E+00  5.92699E+00  6.42448E+00  6.89138E+00
   7.26343E+00  7.52407E+00  7.70723E+00  7.80645E+00  7.78129E+00  7.58371E+00  7.20074E+00  6.64967E+00  5.99599E+00  5.33079E+00
   4.80003E+00  4.47778E+00  4.32056E+00  4.35072E+00  4.55496E+00  4.86997E+00  5.22004E+00  5.47257E+00  5.54760E+00  5.42037E+00
   5.12884E+00  4.74763E+00  4.33616E+00  3.91234E+00  3.48631E+00  3.07467E+00  2.71271E+00  2.42915E+00  2.24150E+00  2.14132E+00
   2.08742E+00  2.02845E+00  1.94114E+00  1.82948E+00  1.70219E+00  1.56942E+00  1.43905E+00  1.31880E+00  1.21556E+00  1.13743E+00
   1.09494E+00  1.08400E+00  1.08498E+00  1.07747E+00  1.04458E+00  9.81794E-01  8.96571E-01  8.18552E-01  7.66406E-01  7.29085E-01
   6.95589E-01  6.59153E-01  6.17119E-01  5.75397E-01  5.35504E-01  4.88858E-01  4.14689E-01  3.01102E-01  1.51307E-01 -2.75464E-02
  -2.27374E-01 -4.30467E-01 -5.12854E-01 -7.11195E-02  1.00143E+00  2.56521E+00  4.47272E+00  6.55446E+00  8.65738E+00  1.07556E+01
   1.28567E+01  1.47819E+01  1.61994E+01  1.68611E+01  1.67239E+01  1.58660E+01  1.43900E+01  1.24098E+01  1.00585E+01  7.52970E+00
   5.10590E+00  3.07420E+00  1.65621E+00  9.42694E-01  6.03379E-01  3.80197E-01  2.67991E-01  5.61628E-01  1.57847E+00  3.20154E+00
   5.26080E+00  7.58269E+00  9.99746E+00  1.24434E+01  1.49606E+01  1.74346E+01  1.94964E+01  2.07663E+01  2.10679E+01  2.04287E+01
   1.89770E+01  1.68554E+01  1.42264E+01  1.12806E+01  8.29554E+00  5.62341E+00  3.56946E+00  2.34122E+00  1.80260E+00  1.54942E+00
   1.43728E+00  1.41784E+00  1.45694E+00  1.52067E+00  1.57289E+00  1.55948E+00  1.44513E+00  1.24564E+00  9.88220E-01  7.13382E-01
   4.70620E-01  2.70289E-01  9.63596E-02 -8.16249E-02 -2.67889E-01 -4.49807E-01 -6.03673E-01 -7.20649E-01 -8.25638E-01 -9.45284E-01
  -1.09560E+00 -1.27699E+00 -1.46742E+00 -1.64619E+00 -1.81575E+00 -1.99370E+00 -2.19455E+00 -2.42376E+00 -2.68173E+00 -2.94138E+00
  -3.18380E+00 -3.41449E+00 -3.65393E+00 -3.91256E+00 -4.16088E+00 -4.36124E+00 -4.48696E+00 -4.54148E+00 -4.56542E+00 -4.58398E+00
  -4.57020E+00 -4.47641E+00 -4.25472E+00 -3.89298E+00 -3.43826E+00 -2.96112E+00 -2.49776E+00 -2.06169E+00 -1.65298E+00 -1.26919E+00
  -9.41951E-01 -7.09234E-01 -5.78579E-01 -5.17875E-01 -4.76505E-01 -4.08203E-01 -2.70536E-01 -3.54331E-02  2.94807E-01  6.93064E-01
   1.11474E+00  1.41006E+00  1.51119E+00  1.41491E+00  1.08290E+00  5.13549E-01 -2.08544E-01 -9.29107E-01 -1.50409E+00 -1.86602E+00
  -1.93907E+00 -1.71108E+00 -1.24041E+00 -6.34735E-01 -1.92432E-02  5.18869E-01  8.95928E-01  9.86312E-01  7.26246E-01  1.20526E-01
  -7.80191E-01 -1.86908E+00 -2.88964E+00 -3.58946E+00 -3.81899E+00 -3.51154E+00 -2.69625E+00 -1.50607E+00 -1.52418E-01  1.11682E+00
   2.16693E+00  2.92464E+00  3.35777E+00  3.46071E+00  3.27945E+00  3.00656E+00  2.80142E+00  2.67902E+00  2.61369E+00  2.57707E+00
   2.51484E+00  2.37864E+00  2.18123E+00  2.00961E+00  1.95745E+00  2.08098E+00  2.49146E+00  3.41561E+00  4.85116E+00  6.63628E+00
   8.67075E+00  1.12010E+01  1.47351E+01  1.91035E+01  2.39234E+01  2.87853E+01  3.31964E+01  3.68480E+01  3.97829E+01  4.19864E+01
   4.30623E+01  4.25226E+01  4.02312E+01  3.64622E+01  3.16753E+01  2.63199E+01  2.07794E+01  1.53508E+01  1.02112E+01  5.74705E+00
   2.39222E+00  4.30653E-01 -2.94073E-01 -5.29212E-01 -6.21781E-01 -6.56065E-01 -6.78059E-01 -7.17897E-01 -7.76331E-01 -8.61990E-01
  -9.78473E-01 -1.11745E+00 -1.25999E+00 -1.38594E+00 -1.47504E+00 -1.51542E+00 -1.51133E+00 -1.47505E+00 -1.41666E+00 -1.34163E+00
  -1.25299E+00 -1.15172E+00 -1.03889E+00 -9.10935E-01 -7.64144E-01 -5.98855E-01 -4.17478E-01 -2.22997E-01 -2.05810E-02  1.84927E-01
   3.89772E-01  5.90061E-01  7.81967E-01  9.61968E-01  1.12395E+00  1.26175E+00  1.37134E+00  1.45030E+00  1.49794E+00  1.51562E+00
   1.50717E+00  1.47988E+00  1.44167E+00  1.40094E+00  1.36717E+00  1.35116E+00  1.36654E+00  1.43399E+00  1.59306E+00  1.91117E+00
   2.32055E+00  2.64765E+00  2.80402E+00  2.73647E+00  2.42026E+00  1.86167E+00  1.04814E+00  1.32687E-02 -1.12193E+00 -2.27799E+00
  -3.33310E+00 -4.17906E+00 -4.76853E+00 -5.05736E+00 -4.95733E+00 -4.40209E+00 -3.43401E+00 -2.20714E+00 -9.15253E-01  2.60419E-01
   1.10443E+00  1.50551E+00  1.51282E+00  1.18190E+00  5.96768E-01 -1.11193E-01 -7.91344E-01 -1.28115E+00 -1.52235E+00 -1.62031E+00
  -1.63784E+00 -1.60600E+00 -1.54741E+00 -1.48196E+00 -1.42759E+00 -1.39929E+00 -1.40753E+00 -1.45700E+00 -1.54626E+00 -1.66838E+00
  -1.81257E+00 -1.96631E+00 -2.11754E+00 -2.25651E+00 -2.37684E+00 -2.47567E+00 -2.55323E+00 -2.61182E+00 -2.65478E+00 -2.68560E+00
  -2.70732E+00 -2.72215E+00 -2.73143E+00 -2.73567E+00 -2.73473E+00 -2.72805E+00 -2.71488E+00 -2.69436E+00 -2.66568E+00 -2.62807E+00
  -2.58093E+00 -2.52384E+00 -2.45663E+00 -2.37936E+00 -2.29237E+00 -2.19625E+00 -2.09189E+00 -1.98053E+00 -1.86373E+00 -1.74341E+00
  -1.62173E+00 -1.50117E+00 -1.38442E+00 -1.27438E+00 -1.17408E+00 -1.08650E+00 -1.01456E+00 -9.60933E-01 -9.28023E-01 -9.17820E-01
  -9.31808E-01 -9.70875E-01 -1.03526E+00 -1.12456E+00 -1.23774E+00 -1.37319E+00 -1.52872E+00 -1.70169E+00 -1.88913E+00 -2.08784E+00
  -2.29454E+00 -2.50598E+00 -2.71902E+00 -2.93074E+00 -3.13853E+00 -3.34013E+00 -3.53371E+00 -3.71782E+00 -3.89138E+00 -4.05369E+00
  -4.20441E+00 -4.34348E+00 -4.47112E+00 -4.58770E+00 -4.69378E+00 -4.78997E+00 -4.87700E+00 -4.95563E+00 -5.02663E+00 -5.09071E+00
  -5.14859E+00 -5.20091E+00 -5.24829E+00 -5.29131E+00 -5.33048E+00 -5.36623E+00 -5.39897E+00 -5.42904E+00 -5.45677E+00 -5.48245E+00
  -5.50631E+00 -5.52855E+00 -5.54935E+00 -5.56888E+00 -5.58728E+00 -5.60468E+00 -5.62118E+00 -5.63686E+00 -5.65180E+00 -5.66609E+00
  -5.67978E+00 -5.69295E+00 -5.70562E+00 -5.71783E+00 -5.72962E+00 -5.74103E+00 -5.75210E+00 -5.76284E+00 -5.77328E+00 -5.78341E+00
  -5.79328E+00 -5.80291E+00 -5.81231E+00 -5.82149E+00 -5.83044E+00 -5.83918E+00 -5.84772E+00 -5.85608E+00 -5.86426E+00 -5.87226E+00
  -5.88006E+00 -5.88768E+00 -5.89513E+00 -5.90242E+00 -5.90953E+00 -5.91646E+00 -5.92319E+00 -5.92975E+00 -5.93613E+00 -5.94233E+00
  -5.94832E+00 -5.95411E+00 -5.95968E+00 -5.96503E+00 -5.97017E+00 -5.97507E+00 -5.97970E+00 -5.98405E+00 -5.98810E+00 -5.99185E+00
  -5.99528E+00 -5.99833E+00 -6.00099E+00 -6.00320E+00 -6.00494E+00 -6.00617E+00 -6.00682E+00 -6.00682E+00
 NY background values follow
     1.653E+00    1.640E+00    1.627E+00    1.613E+00    1.600E+00    1.586E+00    1.573E+00    1.559E+00    1.546E+00    1.532E+00
     1.518E+00    1.505E+00    1.491E+00    1.478E+00    1.464E+00    1.450E+00    1.436E+00    1.423E+00    1.409E+00    1.395E+00
     1.381E+00    1.368E+00    1.354E+00    1.340E+00    1.326E+00    1.312E+00    1.298E+00    1.284E+00    1.270E+00    1.256E+00
     1.242E+00    1.228E+00    1.214E+00    1.200E+00    1.186E+00    1.172E+00    1.158E+00    1.143E+00    1.129E+00    1.115E+00
     1.101E+00    1.087E+00    1.072E+00    1.058E+00    1.044E+00    1.030E+00    1.015E+00    1.001E+00    9.866E-01    9.723E-01
     9.579E-01    9.435E-01    9.291E-01    9.146E-01    9.002E-01    8.857E-01    8.712E-01    8.568E-01    8.422E-01    8.277E-01
     8.132E-01    7.986E-01    7.840E-01    7.694E-01    7.548E-01    7.402E-01    7.256E-01    7.109E-01    6.963E-01    6.816E-01
     6.669E-01    6.522E-01    6.374E-01    6.227E-01    6.079E-01    5.932E-01    5.784E-01    5.636E-01    5.488E-01    5.340E-01
     5.191E-01    5.043E-01    4.894E-01    4.746E-01    4.597E-01    4.448E-01    4.299E-01    4.149E-01    4.000E-01    3.851E-01
     3.701E-01    3.551E-01    3.401E-01    3.251E-01    3.101E-01    2.951E-01    2.801E-01    2.651E-01    2.500E-01    2.349E-01
     2.199E-01    2.048E-01    1.897E-01    1.746E-01    1.595E-01    1.443E-01    1.292E-01    1.141E-01    9.892E-02    8.375E-02
     6.858E-02    5.340E-02    3.821E-02    2.301E-02    7.801E-03   -7.416E-03   -2.264E-02   -3.788E-02   -5.312E-02   -6.837E-02
    -8.363E-02   -9.889E-02   -1.142E-01   -1.295E-01   -1.447E-01   -1.600E-01   -1.753E-01   -1.907E-01   -2.060E-01   -2.213E-01
    -2.366E-01   -2.520E-01   -2.673E-01   -2.827E-01   -2.980E-01   -3.134E-01   -3.288E-01   -3.441E-01   -3.595E-01   -3.749E-01
    -3.903E-01   -4.057E-01   -4.211E-01   -4.365E-01   -4.519E-01   -4.673E-01   -4.827E-01   -4.982E-01   -5.136E-01   -5.290E-01
    -5.445E-01   -5.599E-01   -5.754E-01   -5.908E-01   -6.063E-01   -6.217E-01   -6.372E-01   -6.526E-01   -6.681E-01   -6.836E-01
    -6.991E-01   -7.145E-01   -7.300E-01   -7.455E-01   -7.610E-01   -7.765E-01   -7.919E-01   -8.074E-01   -8.229E-01   -8.384E-01
    -8.539E-01   -8.694E-01   -8.849E-01   -9.004E-01   -9.159E-01   -9.314E-01   -9.469E-01   -9.624E-01   -9.779E-01   -9.934E-01
    -1.009E+00   -1.024E+00   -1.040E+00   -1.055E+00   -1.071E+00   -1.086E+00   -1.102E+00   -1.117E+00   -1.133E+00   -1.148E+00
    -1.164E+00   -1.179E+00   -1.195E+00   -1.210E+00   -1.226E+00   -1.241E+00   -1.257E+00   -1.272E+00   -1.288E+00   -1.303E+00
    -1.319E+00   -1.334E+00   -1.350E+00   -1.365E+00   -1.381E+00   -1.396E+00   -1.411E+00   -1.427E+00   -1.442E+00   -1.458E+00
    -1.473E+00   -1.489E+00   -1.504E+00   -1.520E+00   -1.535E+00   -1.550E+00   -1.566E+00   -1.581E+00   -1.597E+00   -1.612E+00
    -1.627E+00   -1.643E+00   -1.658E+00   -1.674E+00   -1.689E+00   -1.704E+00   -1.720E+00   -1.735E+00   -1.750E+00   -1.766E+00
    -1.781E+00   -1.796E+00   -1.812E+00   -1.827E+00   -1.842E+00   -1.858E+00   -1.873E+00   -1.888E+00   -1.903E+00   -1.919E+00
    -1.934E+00   -1.949E+00   -1.965E+00   -1.980E+00   -1.995E+00   -2.010E+00   -2.025E+00   -2.041E+00   -2.056E+00   -2.071E+00
    -2.086E+00   -2.101E+00   -2.116E+00   -2.132E+00   -2.147E+00   -2.162E+00   -2.177E+00   -2.192E+00   -2.207E+00   -2.222E+00
    -2.237E+00   -2.252E+00   -2.268E+00   -2.283E+00   -2.298E+00   -2.313E+00   -2.328E+00   -2.343E+00   -2.358E+00   -2.373E+00
    -2.388E+00   -2.403E+00   -2.417E+00   -2.432E+00   -2.447E+00   -2.462E+00   -2.477E+00   -2.492E+00   -2.507E+00   -2.522E+00
    -2.537E+00   -2.551E+00   -2.566E+00   -2.581E+00   -2.596E+00   -2.611E+00   -2.625E+00   -2.640E+00   -2.655E+00   -2.670E+00
    -2.684E+00   -2.699E+00   -2.714E+00   -2.728E+00   -2.743E+00   -2.757E+00   -2.772E+00   -2.787E+00   -2.801E+00   -2.816E+00
    -2.830E+00   -2.845E+00   -2.859E+00   -2.874E+00   -2.888E+00   -2.903E+00   -2.917E+00   -2.932E+00   -2.946E+00   -2.961E+00
    -2.975E+00   -2.989E+00   -3.004E+00   -3.018E+00   -3.032E+00   -3.047E+00   -3.061E+00   -3.075E+00   -3.089E+00   -3.104E+00
    -3.118E+00   -3.132E+00   -3.146E+00   -3.160E+00   -3.175E+00   -3.189E+00   -3.203E+00   -3.217E+00   -3.231E+00   -3.245E+00
    -3.259E+00   -3.273E+00   -3.287E+00   -3.301E+00   -3.315E+00   -3.329E+00   -3.343E+00   -3.357E+00   -3.370E+00   -3.384E+00
    -3.398E+00   -3.412E+00   -3.426E+00   -3.439E+00   -3.453E+00   -3.467E+00   -3.480E+00   -3.494E+00   -3.508E+00   -3.521E+00
    -3.535E+00   -3.549E+00   -3.562E+00   -3.576E+00   -3.589E+00   -3.603E+00   -3.616E+00   -3.630E+00   -3.643E+00   -3.656E+00
    -3.670E+00   -3.683E+00   -3.696E+00   -3.710E+00   -3.723E+00   -3.736E+00   -3.749E+00   -3.763E+00   -3.776E+00   -3.789E+00
    -3.802E+00   -3.815E+00   -3.828E+00   -3.841E+00   -3.854E+00   -3.867E+00   -3.880E+00   -3.893E+00   -3.906E+00   -3.919E+00
    -3.932E+00   -3.945E+00   -3.958E+00   -3.970E+00   -3.983E+00   -3.996E+00   -4.009E+00   -4.021E+00   -4.034E+00   -4.047E+00
    -4.059E+00   -4.072E+00   -4.084E+00   -4.097E+00   -4.109E+00   -4.122E+00   -4.134E+00   -4.147E+00   -4.159E+00   -4.172E+00
    -4.184E+00   -4.196E+00   -4.208E+00   -4.221E+00   -4.233E+00   -4.245E+00   -4.257E+00   -4.269E+00   -4.282E+00   -4.294E+00
    -4.306E+00   -4.318E+00   -4.330E+00   -4.342E+00   -4.353E+00   -4.365E+00   -4.377E+00   -4.389E+00   -4.401E+00   -4.413E+00
    -4.424E+00   -4.436E+00   -4.448E+00   -4.459E+00   -4.471E+00   -4.483E+00   -4.494E+00   -4.506E+00   -4.517E+00   -4.529E+00
    -4.540E+00   -4.551E+00   -4.563E+00   -4.574E+00   -4.585E+00   -4.597E+00   -4.608E+00   -4.619E+00   -4.630E+00   -4.641E+00
    -4.653E+00   -4.664E+00   -4.675E+00   -4.686E+00   -4.697E+00   -4.708E+00   -4.718E+00   -4.729E+00   -4.740E+00   -4.751E+00
    -4.762E+00   -4.773E+00   -4.783E+00   -4.794E+00   -4.804E+00   -4.815E+00   -4.826E+00   -4.836E+00   -4.847E+00   -4.857E+00
    -4.868E+00   -4.878E+00   -4.888E+00   -4.899E+00   -4.909E+00   -4.919E+00   -4.929E+00   -4.939E+00   -4.950E+00   -4.960E+00
    -4.970E+00   -4.980E+00   -4.990E+00   -5.000E+00   -5.010E+00   -5.020E+00   -5.029E+00   -5.039E+00   -5.049E+00   -5.059E+00
    -5.068E+00   -5.078E+00   -5.088E+00   -5.097E+00   -5.107E+00   -5.116E+00   -5.126E+00   -5.135E+00   -5.145E+00   -5.154E+00
    -5.163E+00   -5.172E+00   -5.182E+00   -5.191E+00   -5.200E+00   -5.209E+00   -5.218E+00   -5.227E+00
 Ala      Conc. = 6.65E+02
