 LCModel (Version 6.3-1L) Copyright: S.W. Provencher.          Ref.: Magn. Reson. Med. 30:672-679 (1993).                
 Slice#3 Row#5 Col#8  K_02_press_1_raw_act
 36 lines in following concentration table = NCONC+1
    Conc.  %SD /Cr+PCr  Metabolite                                         
    0.000 999%   0.000 Ala                                                 
    0.000 999%   0.000 Asp                                                 
 1.84E+03  13%   0.767 Cr                                                  
  558.311  43%   0.233 PCr                                                 
    0.000 999%   0.000 GABA                                                
    0.000 999%   0.000 Glc                                                 
  936.876  27%   0.391 Gln                                                 
 2.19E+03  13%   0.916 Glu                                                 
  698.014   4%   0.292 GPC                                                 
    0.000 999%   0.000 PCh                                                 
  689.360  12%   0.288 GSH                                                 
 1.64E+03  17%   0.685 Ins                                                 
    0.000 999%   0.000 Lac                                                 
 2.61E+03   5%   1.092 NAA                                                 
   34.355 425% 1.4E-02 NAAG                                                
    0.000 999%   0.000 Scyllo                                              
    0.000 999%   0.000 Tau                                                 
    0.000 999%   0.000 -CrCH2                                              
  698.014   4%   0.292 GPC+PCh                                             
 2.65E+03   4%   1.106 NAA+NAAG                                            
 2.39E+03   3%   1.000 Cr+PCr                                              
 3.13E+03  13%   1.307 Glu+Gln                                             
 9.19E+03  18%   3.837 Lip13a                                              
    0.000 999%   0.000 Lip13b                                              
 2.14E+03  28%   0.892 Lip09                                               
 2.18E+03  25%   0.909 MM09                                                
  977.505  47%   0.408 Lip20                                               
 3.78E+03  17%   1.578 MM20                                                
  772.502  61%   0.323 MM12                                                
 7.71E+03  15%   3.221 MM14                                                
 2.34E+03  29%   0.976 MM17                                                
 9.19E+03  18%   3.837 Lip13a+Lip13b                                       
 1.77E+04   7%   7.381 MM14+Lip13a+Lip13b+MM12                             
 4.31E+03  11%   1.801 MM09+Lip09                                          
 4.76E+03  12%   1.986 MM20+Lip20                                          
   6 lines in following misc. output table
  FWHM = 0.046 ppm    S/N =  13                                            
  Data shift = 0.023 ppm                                                   
  Ph:  14 deg       0.1 deg/ppm                                            
  alphaB,S = 1.1E+00,   9.1E+01                                            
   14 spline knots.   Ns = 6(1)                                            
  (11) 2 infls.   ( 3) 1 extrs.                                            
  498 points on ppm-axis = NY
      4.000000     3.992357     3.984714     3.977070     3.969427     3.961784     3.954141     3.946497     3.938854     3.931211
      3.923568     3.915925     3.908281     3.900638     3.892995     3.885352     3.877708     3.870065     3.862422     3.854779
      3.847136     3.839492     3.831849     3.824206     3.816563     3.808919     3.801276     3.793633     3.785990     3.778347
      3.770703     3.763060     3.755417     3.747774     3.740130     3.732487     3.724844     3.717201     3.709558     3.701914
      3.694271     3.686628     3.678985     3.671341     3.663698     3.656055     3.648412     3.640769     3.633125     3.625482
      3.617839     3.610196     3.602552     3.594909     3.587266     3.579623     3.571980     3.564336     3.556693     3.549050
      3.541407     3.533763     3.526120     3.518477     3.510834     3.503191     3.495547     3.487904     3.480261     3.472618
      3.464974     3.457331     3.449688     3.442045     3.434402     3.426758     3.419115     3.411472     3.403829     3.396185
      3.388542     3.380899     3.373256     3.365613     3.357969     3.350326     3.342683     3.335040     3.327396     3.319753
      3.312110     3.304467     3.296824     3.289180     3.281537     3.273894     3.266251     3.258607     3.250964     3.243321
      3.235678     3.228034     3.220391     3.212748     3.205105     3.197462     3.189818     3.182175     3.174532     3.166889
      3.159245     3.151602     3.143959     3.136316     3.128673     3.121029     3.113386     3.105743     3.098100     3.090456
      3.082813     3.075170     3.067527     3.059884     3.052240     3.044597     3.036954     3.029311     3.021667     3.014024
      3.006381     2.998738     2.991095     2.983451     2.975808     2.968165     2.960522     2.952878     2.945235     2.937592
      2.929949     2.922306     2.914662     2.907019     2.899376     2.891733     2.884089     2.876446     2.868803     2.861160
      2.853517     2.845873     2.838230     2.830587     2.822944     2.815300     2.807657     2.800014     2.792371     2.784728
      2.777084     2.769441     2.761798     2.754155     2.746511     2.738868     2.731225     2.723582     2.715939     2.708295
      2.700652     2.693009     2.685366     2.677722     2.670079     2.662436     2.654793     2.647150     2.639506     2.631863
      2.624220     2.616577     2.608933     2.601290     2.593647     2.586004     2.578361     2.570717     2.563074     2.555431
      2.547788     2.540144     2.532501     2.524858     2.517215     2.509572     2.501928     2.494285     2.486642     2.478999
      2.471355     2.463712     2.456069     2.448426     2.440783     2.433139     2.425496     2.417853     2.410210     2.402566
      2.394923     2.387280     2.379637     2.371994     2.364350     2.356707     2.349064     2.341421     2.333777     2.326134
      2.318491     2.310848     2.303205     2.295561     2.287918     2.280275     2.272632     2.264988     2.257345     2.249702
      2.242059     2.234416     2.226772     2.219129     2.211486     2.203843     2.196199     2.188556     2.180913     2.173270
      2.165627     2.157983     2.150340     2.142697     2.135054     2.127410     2.119767     2.112124     2.104481     2.096838
      2.089194     2.081551     2.073908     2.066265     2.058621     2.050978     2.043335     2.035692     2.028049     2.020405
      2.012762     2.005119     1.997476     1.989833     1.982190     1.974546     1.966903     1.959260     1.951617     1.943974
      1.936331     1.928688     1.921045     1.913402     1.905759     1.898115     1.890472     1.882829     1.875186     1.867543
      1.859900     1.852257     1.844614     1.836971     1.829327     1.821684     1.814041     1.806398     1.798755     1.791112
      1.783469     1.775826     1.768183     1.760540     1.752896     1.745253     1.737610     1.729967     1.722324     1.714681
      1.707038     1.699395     1.691752     1.684108     1.676465     1.668822     1.661179     1.653536     1.645893     1.638250
      1.630607     1.622964     1.615321     1.607677     1.600034     1.592391     1.584748     1.577105     1.569462     1.561819
      1.554176     1.546533     1.538890     1.531246     1.523603     1.515960     1.508317     1.500674     1.493031     1.485388
      1.477745     1.470102     1.462458     1.454815     1.447172     1.439529     1.431886     1.424243     1.416600     1.408957
      1.401314     1.393671     1.386027     1.378384     1.370741     1.363098     1.355455     1.347812     1.340169     1.332526
      1.324883     1.317240     1.309596     1.301953     1.294310     1.286667     1.279024     1.271381     1.263738     1.256095
      1.248452     1.240808     1.233165     1.225522     1.217879     1.210236     1.202593     1.194950     1.187307     1.179664
      1.172021     1.164377     1.156734     1.149091     1.141448     1.133805     1.126162     1.118519     1.110876     1.103233
      1.095590     1.087946     1.080303     1.072660     1.065017     1.057374     1.049731     1.042088     1.034445     1.026802
      1.019158     1.011515     1.003872     0.996229     0.988586     0.980943     0.973300     0.965657     0.958014     0.950371
      0.942727     0.935084     0.927441     0.919798     0.912155     0.904512     0.896869     0.889226     0.881583     0.873940
      0.866296     0.858653     0.851010     0.843367     0.835724     0.828081     0.820438     0.812795     0.805152     0.797508
      0.789865     0.782222     0.774579     0.766936     0.759293     0.751650     0.744007     0.736364     0.728721     0.721077
      0.713434     0.705791     0.698148     0.690505     0.682862     0.675219     0.667576     0.659933     0.652290     0.644646
      0.637003     0.629360     0.621717     0.614074     0.606431     0.598788     0.591145     0.583502     0.575858     0.568215
      0.560572     0.552929     0.545286     0.537643     0.530000     0.522357     0.514714     0.507071     0.499427     0.491784
      0.484141     0.476498     0.468855     0.461212     0.453569     0.445925     0.438282     0.430639     0.422996     0.415353
      0.407710     0.400067     0.392424     0.384780     0.377137     0.369494     0.361851     0.354208     0.346565     0.338922
      0.331278     0.323635     0.315992     0.308349     0.300706     0.293063     0.285420     0.277777     0.270133     0.262490
      0.254847     0.247204     0.239561     0.231918     0.224275     0.216631     0.208988     0.201345
 NY phased data points follow
   3.40082E+01  3.33780E+01  3.55439E+01  3.49318E+01  3.83832E+01  4.48613E+01  5.58806E+01  6.07743E+01  7.03088E+01  8.31688E+01
   8.29841E+01  9.24261E+01  8.57215E+01  8.54952E+01  7.67580E+01  6.74537E+01  4.69255E+01  3.77318E+01  4.17345E+01  3.36043E+01
   3.32829E+01  2.99784E+01  3.21551E+01  3.68020E+01  3.05583E+01  3.46760E+01  3.60088E+01  4.11994E+01  3.98650E+01  3.96591E+01
   3.89290E+01  4.51450E+01  5.10827E+01  4.41099E+01  4.25565E+01  3.72843E+01  3.34382E+01  3.41971E+01  3.21585E+01  3.36758E+01
   3.18607E+01  3.00258E+01  3.45013E+01  3.29624E+01  3.64769E+01  3.50263E+01  3.76586E+01  4.63227E+01  3.89021E+01  3.71522E+01
   3.00460E+01  2.89495E+01  3.17288E+01  2.46233E+01  2.26660E+01  2.59869E+01  2.53458E+01  2.42862E+01  2.62725E+01  2.45506E+01
   3.01123E+01  2.12249E+01  1.93934E+01  1.38228E+01  1.39036E+01  1.14983E+01  1.17800E+01  6.51671E+00  1.26837E+01  1.30401E+01
   1.10364E+01  1.48612E+01  1.56319E+01  1.58343E+01  9.81861E+00  1.15211E+01  1.21921E+01  8.33030E+00  4.14204E+00  5.15882E+00
   9.29136E+00  8.40846E-01  7.23092E+00  7.66592E+00  7.59093E+00  6.76436E+00  5.83889E+00  2.28277E+00  1.10203E+01  5.27156E+00
   8.51921E+00  1.25580E+01  1.53595E+01  1.58066E+01  1.67754E+01  1.48814E+01  1.39772E+01  1.61439E+01  2.27505E+01  2.90792E+01
   4.10615E+01  6.17410E+01  7.45423E+01  7.26015E+01  7.59405E+01  6.97908E+01  5.16100E+01  4.33563E+01  2.79426E+01  1.84714E+01
   1.38130E+01  1.06717E+01  9.03940E+00  1.27405E+01  1.04303E+01  7.57192E+00  1.33261E+01  1.15085E+01  7.57963E+00  1.22221E+01
   1.49257E+01  1.38904E+01  2.21011E+01  3.39200E+01  4.07869E+01  6.17231E+01  7.69711E+01  8.93575E+01  8.99301E+01  7.52771E+01
   6.30518E+01  4.83237E+01  3.50598E+01  3.16352E+01  1.88462E+01  1.70323E+01  1.19252E+01  1.52485E+01  4.57097E+00  1.13590E+01
   7.93846E+00  8.06993E+00  7.65660E+00  9.77485E+00  4.89324E+00  6.54665E+00  2.34752E+00  7.15484E+00  6.18931E+00  3.86603E+00
   5.08589E+00  5.03783E+00  2.95804E+00  5.41329E-01  4.81967E+00  7.25242E-01  2.49343E+00  4.32324E+00  1.56812E+00  5.31138E-01
  -2.40589E+00 -1.68452E+00 -3.45771E+00 -1.94082E+00 -3.40492E+00  7.77136E-01  2.77239E+00 -8.39376E-01 -2.60738E-01 -1.49073E+00
  -4.72401E+00 -6.94175E+00 -1.12082E+01 -8.11018E+00 -1.34192E+01 -1.38992E+01 -1.24273E+01 -1.05535E+01 -1.06427E+01 -1.12792E+01
  -1.52999E+01 -1.02796E+01 -1.40414E+01 -1.35137E+01 -1.16143E+01 -9.36603E+00 -1.20730E+01 -3.47028E+00 -1.09758E+00 -5.46148E+00
   6.61182E+00  5.59862E+00  1.01644E+01  6.55829E+00  7.42747E+00  6.41842E+00  4.69137E+00  1.89222E+00 -4.70167E+00  4.21751E+00
  -2.21043E+00 -7.45829E-01  2.60933E+00  1.01941E+01  7.16740E+00  6.42506E+00 -2.65878E+00 -4.36728E+00 -8.36395E+00 -3.85742E+00
  -1.01504E+01  2.60945E+00 -2.98694E+00  8.02166E+00  1.80713E+01  1.80821E+01  1.98210E+01  1.30261E+01  1.51728E+01  3.24260E+00
  -4.84882E-01 -6.78480E+00 -6.45758E+00 -2.32887E+00  5.88051E+00  2.62475E+00  9.58497E+00  1.25423E+01  1.70747E+01  1.63630E+01
   9.06553E+00  3.82702E+00  5.68218E+00  5.87818E+00  5.04935E+00  5.24329E+00  1.04319E+01  9.99004E+00  1.07576E+01  4.60411E+00
   8.47121E+00  5.21288E+00  6.41890E+00  7.22779E+00  1.19714E+01  1.31645E+01  1.70135E+01  1.72704E+01  1.49041E+01  1.23002E+01
   1.75185E+01  2.47568E+01  2.25721E+01  2.98115E+01  2.80291E+01  3.97871E+01  4.34674E+01  5.54278E+01  8.06045E+01  1.10487E+02
   1.14740E+02  1.10933E+02  9.11491E+01  6.74620E+01  4.96374E+01  2.96288E+01  2.51586E+01  1.45743E+01  1.94230E+01  1.05300E+01
   1.09338E+01  8.36325E+00  8.31021E+00  1.18908E+01  6.84007E+00  4.81600E+00  9.71265E+00  5.75648E+00  6.40436E+00  3.90437E+00
   7.36269E+00  6.17899E+00  8.73693E+00  5.06229E+00  1.40635E+01  1.08157E+01  1.13867E+01  9.86947E+00  1.09568E+01  7.05099E+00
   3.43028E+00  2.78236E+00  5.92745E+00  6.38568E+00  8.08543E+00  1.44769E+01  1.13677E+01  1.19197E+01  1.64113E+01  1.53944E+01
   1.67508E+01  1.25842E+01  1.25681E+01  2.04100E+01  2.18275E+01  1.69696E+01  1.60334E+01  2.08766E+01  2.98127E+01  2.27851E+01
   2.33106E+01  2.58514E+01  2.76414E+01  2.54093E+01  3.01735E+01  3.47991E+01  3.44687E+01  2.99943E+01  3.46120E+01  4.02399E+01
   3.62574E+01  3.49920E+01  4.58702E+01  5.04773E+01  4.52813E+01  4.27133E+01  5.01879E+01  5.21399E+01  5.38515E+01  5.73793E+01
   5.54320E+01  5.53677E+01  6.00667E+01  5.46509E+01  6.33344E+01  5.70127E+01  5.70706E+01  6.10545E+01  4.85378E+01  5.30910E+01
   4.88707E+01  5.76018E+01  4.95728E+01  5.26428E+01  5.50244E+01  4.88351E+01  4.95937E+01  5.12199E+01  4.28482E+01  4.57302E+01
   4.30094E+01  5.01043E+01  4.61984E+01  4.46897E+01  4.18083E+01  4.36208E+01  4.37901E+01  4.13931E+01  3.92477E+01  3.84737E+01
   3.86141E+01  3.69321E+01  3.98475E+01  3.78309E+01  3.83241E+01  3.86333E+01  3.28341E+01  3.23972E+01  3.21070E+01  3.25995E+01
   2.77925E+01  3.04733E+01  3.04177E+01  2.66984E+01  3.04834E+01  3.04731E+01  2.91120E+01  3.34314E+01  2.58491E+01  3.22672E+01
   3.12169E+01  2.76565E+01  3.07314E+01  2.73121E+01  2.81291E+01  2.80607E+01  2.13528E+01  2.96186E+01  2.81929E+01  2.85573E+01
   2.88293E+01  2.62696E+01  3.26882E+01  3.22200E+01  3.19174E+01  3.08636E+01  3.57961E+01  3.23467E+01  3.04012E+01  2.72901E+01
   3.03115E+01  2.83966E+01  2.86642E+01  2.89427E+01  2.60309E+01  2.51200E+01  2.62095E+01  2.91731E+01  2.58151E+01  2.86408E+01
   2.65601E+01  2.02009E+01  2.77570E+01  2.61515E+01  2.56342E+01  2.24947E+01  1.89620E+01  2.15474E+01  1.60322E+01  1.44342E+01
   2.28515E+01  2.23125E+01  2.19289E+01  1.45583E+01  1.57853E+01  1.49734E+01  1.54307E+01  1.59724E+01  1.95136E+01  1.35976E+01
   9.42310E+00  1.46771E+01  1.23299E+01  9.78558E+00  1.42670E+01  1.46899E+01  1.84338E+01  1.07274E+01  1.50813E+01  1.55163E+01
   1.21044E+01  1.53090E+01  1.40599E+01  1.33822E+01  1.10604E+01  1.21957E+01  1.24430E+01  9.92414E+00  1.16130E+01  8.03962E+00
   1.09812E+01  1.45978E+01  1.21080E+01  1.13852E+01  5.57406E+00  1.09077E+01  1.11135E+01  9.44551E+00  7.19126E+00  1.81131E+01
   4.14426E+00  7.45749E+00  1.10166E+01  1.06910E+01  1.10364E+01  6.31106E+00  9.84314E+00  1.07423E+01  9.40091E+00  1.22671E+01
   5.13710E+00  1.37075E+01  6.30954E+00  7.17898E+00  1.08058E+01  8.56778E+00  8.01107E+00  7.02290E+00  3.89170E+00  7.93289E+00
   8.07686E+00  9.00710E+00  1.38633E+01  1.22572E+01  2.47553E+00  1.23353E+01  4.64094E+00  1.15240E+01  8.65862E+00  1.02199E+01
   4.95018E+00  1.01494E+01  9.86744E+00  8.00566E+00  4.04287E+00  1.05446E+01  5.20185E+00  4.15758E+00
 NY points of the fit to the data follow
   3.57950E+01  3.54013E+01  3.55857E+01  3.67838E+01  3.90268E+01  4.27864E+01  4.92738E+01  5.72458E+01  6.59117E+01  7.51708E+01
   8.33714E+01  8.75393E+01  8.58287E+01  7.89470E+01  6.91996E+01  5.90638E+01  5.03091E+01  4.38527E+01  3.92325E+01  3.59625E+01
   3.43639E+01  3.34463E+01  3.24175E+01  3.13375E+01  3.07386E+01  3.07080E+01  3.11835E+01  3.30249E+01  3.69313E+01  4.21216E+01
   4.67574E+01  4.92978E+01  4.89215E+01  4.57211E+01  4.08379E+01  3.54864E+01  3.06465E+01  2.71596E+01  2.54767E+01  2.52721E+01
   2.60733E+01  2.77369E+01  2.97274E+01  3.16376E+01  3.37393E+01  3.61208E+01  3.78826E+01  3.79813E+01  3.62801E+01  3.32384E+01
   2.96557E+01  2.63404E+01  2.38234E+01  2.22262E+01  2.14241E+01  2.13871E+01  2.19306E+01  2.27057E+01  2.34397E+01  2.38328E+01
   2.35983E+01  2.26757E+01  2.12197E+01  1.96255E+01  1.82948E+01  1.75047E+01  1.73001E+01  1.75229E+01  1.79724E+01  1.85081E+01
   1.89660E+01  1.91443E+01  1.89574E+01  1.84497E+01  1.77477E+01  1.70153E+01  1.63537E+01  1.58139E+01  1.53491E+01  1.49394E+01
   1.45145E+01  1.39594E+01  1.32379E+01  1.23256E+01  1.11876E+01  9.85754E+00  8.54646E+00  7.58604E+00  7.22805E+00  7.50830E+00
   8.32937E+00  9.40449E+00  1.04618E+01  1.13610E+01  1.20095E+01  1.24188E+01  1.32372E+01  1.68771E+01  2.34316E+01  3.15757E+01
   4.31345E+01  5.83923E+01  7.27888E+01  8.02501E+01  7.81520E+01  6.80555E+01  5.37943E+01  3.94715E+01  2.78272E+01  1.93711E+01
   1.32616E+01  9.90697E+00  8.91375E+00  8.59400E+00  8.45681E+00  8.40221E+00  8.41758E+00  8.50672E+00  8.71278E+00  9.19949E+00
   1.05636E+01  1.49083E+01  2.30856E+01  3.31459E+01  4.62811E+01  6.34820E+01  8.07590E+01  9.13986E+01  9.15101E+01  8.19200E+01
   6.65511E+01  5.01934E+01  3.61587E+01  2.52162E+01  1.64956E+01  1.01816E+01  6.90162E+00  5.27876E+00  4.79947E+00  5.29373E+00
   6.34232E+00  7.41341E+00  8.14277E+00  8.33854E+00  8.00397E+00  7.34837E+00  6.58679E+00  5.85775E+00  5.23959E+00  4.68010E+00
   4.20875E+00  3.80876E+00  3.45167E+00  3.15284E+00  2.89577E+00  2.58330E+00  2.28142E+00  1.95043E+00  1.47850E+00  9.19325E-01
   3.66731E-01  1.10137E-01  3.06182E-01  7.09405E-01  8.89854E-01  6.07841E-01 -7.71191E-02 -9.21742E-01 -1.71581E+00 -2.45549E+00
  -3.17558E+00 -3.81699E+00 -4.34283E+00 -4.85930E+00 -5.42964E+00 -5.87034E+00 -5.87572E+00 -5.54613E+00 -5.25718E+00 -5.24571E+00
  -5.48438E+00 -5.80038E+00 -5.91916E+00 -5.89428E+00 -5.91259E+00 -5.73446E+00 -4.93306E+00 -3.38789E+00 -1.34523E+00  7.66923E-01
   2.51232E+00  3.47371E+00  3.32508E+00  2.35089E+00  9.82416E-01 -5.67896E-01 -1.91778E+00 -2.53192E+00 -2.01049E+00 -3.68837E-01
   2.05733E+00  4.65367E+00  6.79888E+00  7.88153E+00  7.34011E+00  5.47627E+00  2.50611E+00 -1.28788E+00 -4.83694E+00 -6.94492E+00
  -6.74571E+00 -4.55963E+00 -7.85744E-01  4.17948E+00  9.17435E+00  1.24227E+01  1.26722E+01  1.00239E+01  5.39735E+00  2.27900E-03
  -5.11413E+00 -8.62417E+00 -9.36938E+00 -7.26659E+00 -2.98501E+00  1.92363E+00  6.11322E+00  9.00769E+00  1.05014E+01  1.06811E+01
   9.81337E+00  8.71746E+00  8.19157E+00  8.37953E+00  9.11497E+00  1.04609E+01  1.20584E+01  1.31500E+01  1.34589E+01  1.28941E+01
   1.15350E+01  9.88816E+00  8.80203E+00  8.76010E+00  9.65850E+00  1.12470E+01  1.31258E+01  1.48087E+01  1.59286E+01  1.66263E+01
   1.72375E+01  1.79297E+01  1.89075E+01  2.11373E+01  2.80141E+01  3.79178E+01  4.90295E+01  6.46960E+01  8.51940E+01  1.03672E+02
   1.11981E+02  1.07393E+02  9.25324E+01  7.26842E+01  5.32747E+01  3.77247E+01  2.62129E+01  1.75005E+01  1.27736E+01  1.09852E+01
   9.93338E+00  9.24980E+00  8.90607E+00  8.76474E+00  8.65155E+00  8.49267E+00  8.24877E+00  7.91830E+00  7.53359E+00  7.14463E+00
   6.79414E+00  6.52981E+00  6.37868E+00  6.32986E+00  6.35960E+00  6.44589E+00  6.57953E+00  6.76581E+00  7.00823E+00  7.30859E+00
   7.67650E+00  8.11705E+00  8.63123E+00  9.21646E+00  9.86936E+00  1.05856E+01  1.13586E+01  1.21831E+01  1.30552E+01  1.39683E+01
   1.49153E+01  1.58880E+01  1.68771E+01  1.78733E+01  1.88690E+01  1.98590E+01  2.08412E+01  2.18167E+01  2.27903E+01  2.37701E+01
   2.47664E+01  2.57919E+01  2.68608E+01  2.79876E+01  2.91873E+01  3.04734E+01  3.18567E+01  3.33439E+01  3.49366E+01  3.66311E+01
   3.84177E+01  4.02804E+01  4.21969E+01  4.41390E+01  4.60740E+01  4.79664E+01  4.97789E+01  5.14741E+01  5.30161E+01  5.43721E+01
   5.55149E+01  5.64237E+01  5.70850E+01  5.74931E+01  5.76505E+01  5.75675E+01  5.72617E+01  5.67575E+01  5.60838E+01  5.52728E+01
   5.43584E+01  5.33747E+01  5.23546E+01  5.13283E+01  5.03216E+01  4.93557E+01  4.84460E+01  4.76030E+01  4.68315E+01  4.61313E+01
   4.54974E+01  4.49210E+01  4.43904E+01  4.38924E+01  4.34126E+01  4.29365E+01  4.24501E+01  4.19408E+01  4.13980E+01  4.08137E+01
   4.01824E+01  3.95012E+01  3.87698E+01  3.79906E+01  3.71685E+01  3.63106E+01  3.54258E+01  3.45241E+01  3.36166E+01  3.27153E+01
   3.18327E+01  3.09812E+01  3.01728E+01  2.94189E+01  2.87301E+01  2.81161E+01  2.75855E+01  2.71452E+01  2.68006E+01  2.65550E+01
   2.64100E+01  2.63653E+01  2.64184E+01  2.65645E+01  2.67964E+01  2.71046E+01  2.74781E+01  2.79037E+01  2.83667E+01  2.88513E+01
   2.93408E+01  2.98184E+01  3.02678E+01  3.06738E+01  3.10224E+01  3.13014E+01  3.15011E+01  3.16144E+01  3.16370E+01  3.15671E+01
   3.14057E+01  3.11557E+01  3.08223E+01  3.04123E+01  2.99335E+01  2.93945E+01  2.88041E+01  2.81709E+01  2.75033E+01  2.68093E+01
   2.60960E+01  2.53700E+01  2.46367E+01  2.39010E+01  2.31674E+01  2.24398E+01  2.17215E+01  2.10153E+01  2.03238E+01  1.96494E+01
   1.89942E+01  1.83601E+01  1.77488E+01  1.71616E+01  1.65996E+01  1.60636E+01  1.55543E+01  1.50722E+01  1.46173E+01  1.41892E+01
   1.37875E+01  1.34118E+01  1.30613E+01  1.27351E+01  1.24321E+01  1.21510E+01  1.18907E+01  1.16501E+01  1.14281E+01  1.12233E+01
   1.10345E+01  1.08606E+01  1.07005E+01  1.05533E+01  1.04180E+01  1.02937E+01  1.01793E+01  1.00743E+01  9.97780E+00  9.88934E+00
   9.80821E+00  9.73378E+00  9.66550E+00  9.60293E+00  9.54574E+00  9.49356E+00  9.44595E+00  9.40253E+00  9.36298E+00  9.32711E+00
   9.29473E+00  9.26557E+00  9.23936E+00  9.21586E+00  9.19493E+00  9.17649E+00  9.16040E+00  9.14647E+00  9.13449E+00  9.12434E+00
   9.11599E+00  9.10939E+00  9.10444E+00  9.10099E+00  9.09890E+00  9.09813E+00  9.09869E+00  9.10054E+00  9.10357E+00  9.10767E+00
   9.11275E+00  9.11884E+00  9.12596E+00  9.13406E+00  9.14304E+00  9.15281E+00  9.16337E+00  9.17474E+00  9.18695E+00  9.19993E+00
   9.21360E+00  9.22789E+00  9.24286E+00  9.25853E+00  9.27492E+00  9.29195E+00  9.30956E+00  9.32773E+00
 NY background values follow
     3.035E+01    3.010E+01    2.985E+01    2.960E+01    2.934E+01    2.909E+01    2.884E+01    2.859E+01    2.833E+01    2.808E+01
     2.783E+01    2.758E+01    2.732E+01    2.707E+01    2.682E+01    2.657E+01    2.631E+01    2.606E+01    2.581E+01    2.556E+01
     2.530E+01    2.505E+01    2.480E+01    2.455E+01    2.430E+01    2.405E+01    2.380E+01    2.354E+01    2.329E+01    2.304E+01
     2.279E+01    2.254E+01    2.230E+01    2.205E+01    2.180E+01    2.155E+01    2.130E+01    2.106E+01    2.081E+01    2.056E+01
     2.032E+01    2.007E+01    1.983E+01    1.958E+01    1.934E+01    1.909E+01    1.885E+01    1.861E+01    1.837E+01    1.812E+01
     1.788E+01    1.764E+01    1.741E+01    1.717E+01    1.693E+01    1.669E+01    1.646E+01    1.622E+01    1.599E+01    1.575E+01
     1.552E+01    1.529E+01    1.506E+01    1.483E+01    1.460E+01    1.437E+01    1.414E+01    1.392E+01    1.369E+01    1.347E+01
     1.324E+01    1.302E+01    1.280E+01    1.258E+01    1.236E+01    1.215E+01    1.193E+01    1.172E+01    1.150E+01    1.129E+01
     1.108E+01    1.087E+01    1.066E+01    1.046E+01    1.025E+01    1.005E+01    9.848E+00    9.647E+00    9.448E+00    9.251E+00
     9.055E+00    8.861E+00    8.668E+00    8.477E+00    8.288E+00    8.100E+00    7.914E+00    7.729E+00    7.546E+00    7.365E+00
     7.185E+00    7.007E+00    6.830E+00    6.655E+00    6.481E+00    6.309E+00    6.139E+00    5.970E+00    5.803E+00    5.637E+00
     5.473E+00    5.310E+00    5.149E+00    4.989E+00    4.831E+00    4.675E+00    4.520E+00    4.366E+00    4.214E+00    4.064E+00
     3.915E+00    3.768E+00    3.622E+00    3.478E+00    3.335E+00    3.194E+00    3.054E+00    2.916E+00    2.779E+00    2.643E+00
     2.510E+00    2.377E+00    2.247E+00    2.117E+00    1.989E+00    1.863E+00    1.738E+00    1.615E+00    1.493E+00    1.372E+00
     1.253E+00    1.135E+00    1.019E+00    9.049E-01    7.918E-01    6.803E-01    5.702E-01    4.617E-01    3.546E-01    2.491E-01
     1.451E-01    4.260E-02   -5.838E-02   -1.578E-01   -2.558E-01   -3.522E-01   -4.470E-01   -5.404E-01   -6.322E-01   -7.224E-01
    -8.111E-01   -8.983E-01   -9.839E-01   -1.068E+00   -1.150E+00   -1.231E+00   -1.311E+00   -1.388E+00   -1.465E+00   -1.539E+00
    -1.612E+00   -1.684E+00   -1.754E+00   -1.822E+00   -1.889E+00   -1.954E+00   -2.018E+00   -2.080E+00   -2.140E+00   -2.199E+00
    -2.256E+00   -2.311E+00   -2.365E+00   -2.418E+00   -2.468E+00   -2.517E+00   -2.565E+00   -2.611E+00   -2.656E+00   -2.699E+00
    -2.741E+00   -2.781E+00   -2.820E+00   -2.858E+00   -2.894E+00   -2.928E+00   -2.962E+00   -2.994E+00   -3.025E+00   -3.054E+00
    -3.082E+00   -3.109E+00   -3.135E+00   -3.159E+00   -3.183E+00   -3.205E+00   -3.226E+00   -3.246E+00   -3.264E+00   -3.282E+00
    -3.299E+00   -3.314E+00   -3.329E+00   -3.342E+00   -3.355E+00   -3.366E+00   -3.377E+00   -3.386E+00   -3.395E+00   -3.403E+00
    -3.409E+00   -3.415E+00   -3.421E+00   -3.425E+00   -3.428E+00   -3.431E+00   -3.433E+00   -3.434E+00   -3.435E+00   -3.434E+00
    -3.433E+00   -3.431E+00   -3.429E+00   -3.426E+00   -3.422E+00   -3.417E+00   -3.411E+00   -3.405E+00   -3.398E+00   -3.391E+00
    -3.382E+00   -3.373E+00   -3.363E+00   -3.353E+00   -3.342E+00   -3.330E+00   -3.317E+00   -3.304E+00   -3.290E+00   -3.275E+00
    -3.260E+00   -3.244E+00   -3.227E+00   -3.209E+00   -3.191E+00   -3.172E+00   -3.153E+00   -3.133E+00   -3.112E+00   -3.091E+00
    -3.069E+00   -3.046E+00   -3.022E+00   -2.998E+00   -2.974E+00   -2.948E+00   -2.922E+00   -2.896E+00   -2.868E+00   -2.841E+00
    -2.812E+00   -2.783E+00   -2.753E+00   -2.723E+00   -2.692E+00   -2.660E+00   -2.628E+00   -2.595E+00   -2.562E+00   -2.528E+00
    -2.493E+00   -2.458E+00   -2.423E+00   -2.387E+00   -2.350E+00   -2.313E+00   -2.275E+00   -2.237E+00   -2.199E+00   -2.159E+00
    -2.120E+00   -2.080E+00   -2.039E+00   -1.998E+00   -1.957E+00   -1.915E+00   -1.873E+00   -1.830E+00   -1.787E+00   -1.743E+00
    -1.700E+00   -1.655E+00   -1.611E+00   -1.566E+00   -1.520E+00   -1.474E+00   -1.428E+00   -1.382E+00   -1.335E+00   -1.288E+00
    -1.241E+00   -1.193E+00   -1.145E+00   -1.097E+00   -1.048E+00   -9.997E-01   -9.506E-01   -9.013E-01   -8.518E-01   -8.020E-01
    -7.520E-01   -7.017E-01   -6.512E-01   -6.005E-01   -5.496E-01   -4.985E-01   -4.471E-01   -3.956E-01   -3.438E-01   -2.919E-01
    -2.397E-01   -1.874E-01   -1.349E-01   -8.226E-02   -2.942E-02    2.358E-02    7.675E-02    1.301E-01    1.835E-01    2.372E-01
     2.909E-01    3.448E-01    3.988E-01    4.530E-01    5.073E-01    5.617E-01    6.162E-01    6.708E-01    7.255E-01    7.803E-01
     8.352E-01    8.902E-01    9.453E-01    1.000E+00    1.056E+00    1.111E+00    1.166E+00    1.222E+00    1.277E+00    1.333E+00
     1.388E+00    1.444E+00    1.500E+00    1.555E+00    1.611E+00    1.667E+00    1.723E+00    1.778E+00    1.834E+00    1.890E+00
     1.946E+00    2.002E+00    2.057E+00    2.113E+00    2.169E+00    2.225E+00    2.281E+00    2.336E+00    2.392E+00    2.448E+00
     2.503E+00    2.559E+00    2.615E+00    2.670E+00    2.726E+00    2.781E+00    2.837E+00    2.892E+00    2.947E+00    3.002E+00
     3.058E+00    3.113E+00    3.168E+00    3.223E+00    3.278E+00    3.332E+00    3.387E+00    3.442E+00    3.496E+00    3.551E+00
     3.605E+00    3.659E+00    3.713E+00    3.767E+00    3.821E+00    3.875E+00    3.928E+00    3.982E+00    4.035E+00    4.088E+00
     4.141E+00    4.194E+00    4.247E+00    4.300E+00    4.352E+00    4.404E+00    4.457E+00    4.509E+00    4.560E+00    4.612E+00
     4.664E+00    4.715E+00    4.766E+00    4.817E+00    4.868E+00    4.918E+00    4.968E+00    5.019E+00    5.068E+00    5.118E+00
     5.168E+00    5.217E+00    5.266E+00    5.315E+00    5.363E+00    5.412E+00    5.460E+00    5.508E+00    5.556E+00    5.603E+00
     5.650E+00    5.697E+00    5.744E+00    5.790E+00    5.836E+00    5.882E+00    5.928E+00    5.973E+00    6.018E+00    6.063E+00
     6.107E+00    6.152E+00    6.196E+00    6.239E+00    6.283E+00    6.326E+00    6.368E+00    6.411E+00    6.453E+00    6.495E+00
     6.537E+00    6.578E+00    6.620E+00    6.661E+00    6.702E+00    6.742E+00    6.783E+00    6.823E+00    6.863E+00    6.903E+00
     6.943E+00    6.982E+00    7.022E+00    7.061E+00    7.100E+00    7.139E+00    7.178E+00    7.217E+00    7.256E+00    7.294E+00
     7.333E+00    7.371E+00    7.410E+00    7.448E+00    7.486E+00    7.524E+00    7.562E+00    7.600E+00    7.638E+00    7.676E+00
     7.714E+00    7.752E+00    7.790E+00    7.828E+00    7.866E+00    7.904E+00    7.942E+00    7.980E+00
 Cr       Conc. = 1.84E+03
