 LCModel (Version 6.3-1L) Copyright: S.W. Provencher.          Ref.: Magn. Reson. Med. 30:672-679 (1993).                
 Slice#1 Row#12 Col#9  K_02_press_1_raw_act
 36 lines in following concentration table = NCONC+1
    Conc.  %SD /Cr+PCr  Metabolite                                         
   81.015  86% 8.3E-02 Ala                                                 
    0.000 999%   0.000 Asp                                                 
  219.845  74%   0.224 Cr                                                  
  761.820  22%   0.776 PCr                                                 
   19.394 527% 2.0E-02 GABA                                                
   38.669 264% 3.9E-02 Glc                                                 
  150.155  93%   0.153 Gln                                                 
  961.445  18%   0.979 Glu                                                 
  284.832   6%   0.290 GPC                                                 
    0.000 999%   0.000 PCh                                                 
  194.763  25%   0.198 GSH                                                 
  987.815  17%   1.006 Ins                                                 
  198.788  39%   0.203 Lac                                                 
 1.64E+03   6%   1.667 NAA                                                 
  416.115  23%   0.424 NAAG                                                
   63.310  29% 6.4E-02 Scyllo                                              
  147.454  95%   0.150 Tau                                                 
  400.352  19%   0.408 -CrCH2                                              
  284.832   6%   0.290 GPC+PCh                                             
 2.05E+03   3%   2.091 NAA+NAAG                                            
  981.666   4%   1.000 Cr+PCr                                              
 1.11E+03  21%   1.132 Glu+Gln                                             
  436.155  64%   0.444 Lip13a                                              
    0.000 999%   0.000 Lip13b                                              
    0.000 999%   0.000 Lip09                                               
 1.17E+03  14%   1.192 MM09                                                
   80.512 112% 8.2E-02 Lip20                                               
 2.44E+03  13%   2.481 MM20                                                
  452.687  28%   0.461 MM12                                                
 1.29E+03  20%   1.310 MM14                                                
  825.697  23%   0.841 MM17                                                
  436.155  64%   0.444 Lip13a+Lip13b                                       
 2.17E+03  13%   2.215 MM14+Lip13a+Lip13b+MM12                             
 1.17E+03  14%   1.192 MM09+Lip09                                          
 2.52E+03  12%   2.563 MM20+Lip20                                          
   6 lines in following misc. output table
  FWHM = 0.054 ppm    S/N =  14                                            
  Data shift =-0.008 ppm                                                   
  Ph: -60 deg     -12.4 deg/ppm                                            
  alphaB,S = 9.4E-01,   4.9E+01                                            
   14 spline knots.   Ns = 7(1)                                            
  (11) 4 infls.   ( 5) 1 extrs.                                            
  498 points on ppm-axis = NY
      4.000000     3.992357     3.984714     3.977070     3.969427     3.961784     3.954141     3.946497     3.938854     3.931211
      3.923568     3.915925     3.908281     3.900638     3.892995     3.885352     3.877708     3.870065     3.862422     3.854779
      3.847136     3.839492     3.831849     3.824206     3.816563     3.808919     3.801276     3.793633     3.785990     3.778347
      3.770703     3.763060     3.755417     3.747774     3.740130     3.732487     3.724844     3.717201     3.709558     3.701914
      3.694271     3.686628     3.678985     3.671341     3.663698     3.656055     3.648412     3.640769     3.633125     3.625482
      3.617839     3.610196     3.602552     3.594909     3.587266     3.579623     3.571980     3.564336     3.556693     3.549050
      3.541407     3.533763     3.526120     3.518477     3.510834     3.503191     3.495547     3.487904     3.480261     3.472618
      3.464974     3.457331     3.449688     3.442045     3.434402     3.426758     3.419115     3.411472     3.403829     3.396185
      3.388542     3.380899     3.373256     3.365613     3.357969     3.350326     3.342683     3.335040     3.327396     3.319753
      3.312110     3.304467     3.296824     3.289180     3.281537     3.273894     3.266251     3.258607     3.250964     3.243321
      3.235678     3.228034     3.220391     3.212748     3.205105     3.197462     3.189818     3.182175     3.174532     3.166889
      3.159245     3.151602     3.143959     3.136316     3.128673     3.121029     3.113386     3.105743     3.098100     3.090456
      3.082813     3.075170     3.067527     3.059884     3.052240     3.044597     3.036954     3.029311     3.021667     3.014024
      3.006381     2.998738     2.991095     2.983451     2.975808     2.968165     2.960522     2.952878     2.945235     2.937592
      2.929949     2.922306     2.914662     2.907019     2.899376     2.891733     2.884089     2.876446     2.868803     2.861160
      2.853517     2.845873     2.838230     2.830587     2.822944     2.815300     2.807657     2.800014     2.792371     2.784728
      2.777084     2.769441     2.761798     2.754155     2.746511     2.738868     2.731225     2.723582     2.715939     2.708295
      2.700652     2.693009     2.685366     2.677722     2.670079     2.662436     2.654793     2.647150     2.639506     2.631863
      2.624220     2.616577     2.608933     2.601290     2.593647     2.586004     2.578361     2.570717     2.563074     2.555431
      2.547788     2.540144     2.532501     2.524858     2.517215     2.509572     2.501928     2.494285     2.486642     2.478999
      2.471355     2.463712     2.456069     2.448426     2.440783     2.433139     2.425496     2.417853     2.410210     2.402566
      2.394923     2.387280     2.379637     2.371994     2.364350     2.356707     2.349064     2.341421     2.333777     2.326134
      2.318491     2.310848     2.303205     2.295561     2.287918     2.280275     2.272632     2.264988     2.257345     2.249702
      2.242059     2.234416     2.226772     2.219129     2.211486     2.203843     2.196199     2.188556     2.180913     2.173270
      2.165627     2.157983     2.150340     2.142697     2.135054     2.127410     2.119767     2.112124     2.104481     2.096838
      2.089194     2.081551     2.073908     2.066265     2.058621     2.050978     2.043335     2.035692     2.028049     2.020405
      2.012762     2.005119     1.997476     1.989833     1.982190     1.974546     1.966903     1.959260     1.951617     1.943974
      1.936331     1.928688     1.921045     1.913402     1.905759     1.898115     1.890472     1.882829     1.875186     1.867543
      1.859900     1.852257     1.844614     1.836971     1.829327     1.821684     1.814041     1.806398     1.798755     1.791112
      1.783469     1.775826     1.768183     1.760540     1.752896     1.745253     1.737610     1.729967     1.722324     1.714681
      1.707038     1.699395     1.691752     1.684108     1.676465     1.668822     1.661179     1.653536     1.645893     1.638250
      1.630607     1.622964     1.615321     1.607677     1.600034     1.592391     1.584748     1.577105     1.569462     1.561819
      1.554176     1.546533     1.538890     1.531246     1.523603     1.515960     1.508317     1.500674     1.493031     1.485388
      1.477745     1.470102     1.462458     1.454815     1.447172     1.439529     1.431886     1.424243     1.416600     1.408957
      1.401314     1.393671     1.386027     1.378384     1.370741     1.363098     1.355455     1.347812     1.340169     1.332526
      1.324883     1.317240     1.309596     1.301953     1.294310     1.286667     1.279024     1.271381     1.263738     1.256095
      1.248452     1.240808     1.233165     1.225522     1.217879     1.210236     1.202593     1.194950     1.187307     1.179664
      1.172021     1.164377     1.156734     1.149091     1.141448     1.133805     1.126162     1.118519     1.110876     1.103233
      1.095590     1.087946     1.080303     1.072660     1.065017     1.057374     1.049731     1.042088     1.034445     1.026802
      1.019158     1.011515     1.003872     0.996229     0.988586     0.980943     0.973300     0.965657     0.958014     0.950371
      0.942727     0.935084     0.927441     0.919798     0.912155     0.904512     0.896869     0.889226     0.881583     0.873940
      0.866296     0.858653     0.851010     0.843367     0.835724     0.828081     0.820438     0.812795     0.805152     0.797508
      0.789865     0.782222     0.774579     0.766936     0.759293     0.751650     0.744007     0.736364     0.728721     0.721077
      0.713434     0.705791     0.698148     0.690505     0.682862     0.675219     0.667576     0.659933     0.652290     0.644646
      0.637003     0.629360     0.621717     0.614074     0.606431     0.598788     0.591145     0.583502     0.575858     0.568215
      0.560572     0.552929     0.545286     0.537643     0.530000     0.522357     0.514714     0.507071     0.499427     0.491784
      0.484141     0.476498     0.468855     0.461212     0.453569     0.445925     0.438282     0.430639     0.422996     0.415353
      0.407710     0.400067     0.392424     0.384780     0.377137     0.369494     0.361851     0.354208     0.346565     0.338922
      0.331278     0.323635     0.315992     0.308349     0.300706     0.293063     0.285420     0.277777     0.270133     0.262490
      0.254847     0.247204     0.239561     0.231918     0.224275     0.216631     0.208988     0.201345
 NY phased data points follow
  -2.88085E+01 -2.45787E+01 -2.53894E+01 -2.44140E+01 -2.16312E+01 -2.17862E+01 -1.60093E+01 -1.57021E+01 -1.22126E+01 -1.17648E+01
  -6.89806E+00 -1.12626E+01 -1.03845E+01 -1.29416E+01 -1.62412E+01 -1.97401E+01 -2.13033E+01 -2.16472E+01 -2.13882E+01 -2.45331E+01
  -2.46817E+01 -2.39729E+01 -2.54008E+01 -2.19277E+01 -2.40894E+01 -2.04279E+01 -1.76629E+01 -1.93523E+01 -1.55105E+01 -1.52467E+01
  -1.65054E+01 -2.00569E+01 -1.46146E+01 -1.64200E+01 -1.33307E+01 -1.22197E+01 -1.72316E+01 -1.59614E+01 -1.44825E+01 -1.99846E+01
  -1.59134E+01 -1.26981E+01 -1.66822E+01 -1.20442E+01 -1.18635E+01 -1.10767E+01 -1.18386E+01 -8.71909E+00 -6.62943E+00 -1.39742E+01
  -1.03333E+01 -1.29142E+01 -1.52959E+01 -1.60006E+01 -1.19546E+01 -1.32712E+01 -1.30222E+01 -1.38913E+01 -1.32025E+01 -1.28669E+01
  -1.16851E+01 -1.27182E+01 -1.66171E+01 -1.38395E+01 -1.70052E+01 -1.82125E+01 -1.51319E+01 -1.73343E+01 -1.47461E+01 -1.81621E+01
  -1.37223E+01 -1.17743E+01 -1.48382E+01 -1.25365E+01 -1.43200E+01 -1.47832E+01 -1.22575E+01 -1.06565E+01 -1.30138E+01 -1.42226E+01
  -1.10990E+01 -1.26480E+01 -1.28426E+01 -9.33391E+00 -1.31355E+01 -1.39545E+01 -1.31688E+01 -1.32927E+01 -1.21011E+01 -7.22378E+00
  -1.04515E+01 -1.10755E+01 -8.85576E+00 -8.71080E+00 -7.37301E+00 -1.11632E+01 -6.33638E+00 -3.98937E+00 -3.82273E+00  4.47016E-01
   4.35437E+00  8.93529E+00  1.28257E+01  1.32856E+01  1.65538E+01  1.12980E+01  8.03958E+00 -7.21787E-01 -8.24443E+00 -8.67696E+00
  -6.41203E+00 -1.09330E+01 -7.95584E+00 -7.30462E+00 -7.79144E+00 -7.33012E+00 -9.98546E+00 -5.26163E+00 -7.46210E+00 -6.46891E+00
  -1.99269E+00 -1.18052E+00 -4.61926E-02  8.80446E+00  1.44994E+01  1.78081E+01  2.11571E+01  2.24765E+01  2.65471E+01  2.28641E+01
   1.31409E+01  9.67869E-01 -8.76602E-01 -3.83599E+00 -5.14867E+00 -6.42152E+00 -7.80389E+00 -5.47444E+00 -6.83806E+00 -4.54057E+00
  -5.43684E+00 -8.35070E+00 -3.60898E+00 -7.10976E+00 -7.06197E+00 -4.58266E+00 -3.53274E+00 -7.68141E+00 -6.98490E+00 -6.43328E+00
  -6.92640E+00 -7.03246E+00 -7.72128E+00 -5.57874E+00 -5.08618E+00 -6.08090E+00 -1.03975E+01 -5.75549E+00 -8.24454E+00 -7.93199E+00
  -8.16143E+00 -4.79504E+00 -7.91023E+00 -8.82941E+00 -9.56447E+00 -8.37606E+00 -1.17387E+01 -9.11531E+00 -1.05941E+01 -1.37041E+01
  -1.29268E+01 -1.45611E+01 -1.62636E+01 -1.36704E+01 -1.38358E+01 -1.68046E+01 -1.56043E+01 -1.66689E+01 -1.65663E+01 -1.52273E+01
  -1.13751E+01 -1.02738E+01 -9.85633E+00 -7.14530E+00 -8.49512E+00 -7.94411E+00 -1.00107E+01 -8.74923E+00 -8.79891E+00 -8.30592E+00
  -7.36501E+00 -6.08352E+00 -6.29041E+00 -7.50399E+00 -7.30492E+00 -8.69544E+00 -8.25712E+00 -6.32011E+00 -7.33412E+00 -7.47407E+00
  -8.17160E+00 -4.80371E+00 -3.71197E+00 -4.24250E+00 -1.94254E+00 -9.49811E-02 -3.47283E+00 -5.72103E+00 -5.37712E+00 -5.55323E+00
  -6.07492E+00 -1.26946E+00 -1.67358E+00 -3.20326E-01  2.06000E+00  1.50332E+00  2.93144E+00 -2.03857E-01 -3.01137E+00 -3.88992E+00
  -3.04016E+00 -8.04534E+00 -8.59373E+00 -4.77800E+00 -3.93703E+00  9.44733E-01  4.87716E-01  5.12700E+00  3.32053E+00  2.29714E+00
   1.97215E+00  1.67379E+00 -1.46308E+00  2.22367E+00  2.87953E+00  1.91998E+00  3.30756E+00  1.15880E+00  4.02133E+00  5.81995E-01
  -3.06682E+00  1.06554E+00 -4.30264E+00 -8.70737E-01  1.64411E+00  1.78934E+00  4.25247E+00  8.73523E+00  9.83899E+00  7.15350E+00
   1.23554E+01  1.67451E+01  1.53371E+01  1.98355E+01  2.58707E+01  3.71302E+01  4.52833E+01  5.50004E+01  5.91887E+01  6.22917E+01
   6.01167E+01  6.53491E+01  5.60147E+01  4.30101E+01  2.20682E+01  1.50368E+01  5.33085E+00 -1.19760E+00 -7.29384E-01  5.73988E-01
  -6.05055E-01  1.01925E+00 -2.11980E-01  3.88242E+00  7.54222E-01  3.23488E+00  1.50877E+00  1.58456E+00  1.18323E+00  2.07769E+00
   1.00115E+00  1.04404E+00  2.38598E+00 -5.35089E-02  9.65075E-02 -3.49626E-01  2.19865E+00  1.47975E-01 -7.99446E-01 -2.34956E+00
   2.19052E+00  1.39785E+00  1.64438E-01  3.36685E+00 -1.77080E+00  4.39901E-01  2.83270E+00  2.54243E+00  2.11377E+00  5.70425E-01
   4.35864E+00  2.19566E+00  2.41808E-02  1.93324E+00  5.22896E+00  4.16309E+00  4.55854E+00  4.85252E+00  4.73351E+00  2.25957E+00
   9.68181E-01  3.06690E+00  1.21486E+00  1.51900E+00  5.29847E+00  1.43120E-01  2.79360E+00 -3.49511E-01  3.65862E+00  3.90961E+00
   4.01464E-01 -3.69491E-01 -1.76712E+00 -2.44756E+00 -4.46750E-01 -3.04096E-01  1.40945E+00  1.19198E+00  3.45894E+00  1.30587E-01
   1.11381E+00  5.74176E+00  2.03868E+00  7.86532E+00  6.68666E+00  1.09451E+01  1.24833E+01  1.35342E+01  7.96414E+00  6.82215E+00
   9.16668E+00  1.23003E+01  1.18781E+01  7.68364E+00  9.70020E+00  1.15987E+01  1.17925E+01  7.13274E+00  6.42338E+00  6.98168E+00
   5.16825E+00  2.54939E+00  2.19960E+00  2.97168E+00  4.66561E+00  3.71396E+00  2.55078E+00  3.59058E+00  2.28868E+00  4.63357E+00
   7.62975E+00  3.62786E+00  5.01573E+00  8.21086E+00  4.79844E+00  3.37022E+00  6.15146E+00  3.08530E+00  3.62188E+00  4.27486E+00
   2.72116E+00  3.77691E+00  3.25206E+00  5.53501E+00  2.39026E+00  1.37640E+00  1.44403E+00  1.92734E+00 -5.72118E-01  6.16214E-01
   1.49115E+00  1.47575E+00 -1.27110E+00 -7.83480E-01 -1.77361E+00  1.34073E+00  1.08642E+00 -1.27145E+00 -9.36353E-01 -3.45792E+00
   1.08329E+00  1.83294E+00  5.40788E+00  2.53607E+00  5.17183E+00  4.24312E+00  5.48401E+00  4.65871E+00  6.08741E+00  7.11008E+00
   3.69985E+00  4.52234E+00  3.92612E+00  7.16626E+00  5.58988E+00  7.66183E+00  8.10068E+00  7.04689E+00  1.09661E+01  1.00978E+01
   6.42546E+00  1.07656E+01  1.06222E+01  4.76597E+00  6.78388E+00  8.21242E+00  5.41229E+00  3.33011E+00  5.18588E+00  6.17830E+00
   1.57146E+00 -3.32725E-01  3.04018E+00  2.96834E+00  4.24224E+00  7.68294E-01  3.84159E+00  4.65643E-01  3.92564E+00  2.75636E+00
  -5.77922E-01 -2.33294E-01  2.71990E+00  3.40631E+00  2.68462E+00  8.88998E-01  1.84194E+00  6.36712E-01  6.31313E-01  5.82842E-01
  -2.53059E-01 -1.35256E+00  4.87181E-01  2.20095E+00 -1.58837E+00  2.77486E+00  2.00512E+00 -3.08079E+00  8.77486E-01  2.59261E+00
  -3.45924E-01 -2.50649E-01 -1.11714E+00  2.57883E+00  2.73681E+00  3.26722E+00  2.40397E+00  2.08895E+00  2.02689E-01  7.84683E-01
   2.81584E-01  2.87284E+00 -1.82154E-01  8.72402E-01 -7.23628E-01  2.10591E+00  3.24029E+00  1.41840E+00  2.84793E-01 -6.42524E-01
  -1.55952E-01 -4.33417E+00  7.49981E-01  1.11281E-01 -3.61096E-01  2.84844E+00 -1.75998E+00  1.31969E+00 -1.65539E+00  1.82920E+00
  -2.31791E+00  2.23329E-02  1.70157E+00 -8.52116E-01  1.07837E+00  1.25176E+00  2.50410E+00  7.95335E-01  1.58325E+00  5.56627E-01
   1.91690E+00  3.27868E+00  2.21547E+00  3.31369E+00 -2.01813E-01  2.40993E+00  1.64657E+00  2.02558E-01
 NY points of the fit to the data follow
  -2.49259E+01 -2.49226E+01 -2.43501E+01 -2.30991E+01 -2.14118E+01 -1.93277E+01 -1.70559E+01 -1.48325E+01 -1.28364E+01 -1.10408E+01
  -9.61293E+00 -9.30031E+00 -1.06818E+01 -1.33496E+01 -1.62274E+01 -1.85269E+01 -1.99407E+01 -2.04559E+01 -2.05031E+01 -2.04363E+01
  -2.03694E+01 -2.04287E+01 -2.04865E+01 -2.03405E+01 -2.00768E+01 -1.97039E+01 -1.90753E+01 -1.82414E+01 -1.73948E+01 -1.64860E+01
  -1.52388E+01 -1.39391E+01 -1.33354E+01 -1.36205E+01 -1.44987E+01 -1.56755E+01 -1.70015E+01 -1.81445E+01 -1.87858E+01 -1.88231E+01
  -1.81449E+01 -1.68900E+01 -1.53815E+01 -1.38400E+01 -1.24531E+01 -1.13913E+01 -1.06632E+01 -1.01335E+01 -1.00901E+01 -1.11556E+01
  -1.32191E+01 -1.53192E+01 -1.66402E+01 -1.71028E+01 -1.68576E+01 -1.61233E+01 -1.52641E+01 -1.45486E+01 -1.40389E+01 -1.36650E+01
  -1.34119E+01 -1.34368E+01 -1.38009E+01 -1.43890E+01 -1.49142E+01 -1.51455E+01 -1.49981E+01 -1.45174E+01 -1.38687E+01 -1.32237E+01
  -1.27517E+01 -1.24448E+01 -1.22354E+01 -1.21650E+01 -1.22699E+01 -1.24651E+01 -1.26225E+01 -1.27485E+01 -1.29291E+01 -1.30818E+01
  -1.29955E+01 -1.27764E+01 -1.24801E+01 -1.20878E+01 -1.17346E+01 -1.15347E+01 -1.14341E+01 -1.13516E+01 -1.14233E+01 -1.17885E+01
  -1.23190E+01 -1.26336E+01 -1.25734E+01 -1.23618E+01 -1.20815E+01 -1.13579E+01 -9.27429E+00 -6.28592E+00 -2.86016E+00  1.17220E+00
   5.34834E+00  9.02881E+00  1.21673E+01  1.49280E+01  1.58389E+01  1.26767E+01  5.89693E+00 -1.23334E+00 -6.23205E+00 -9.09791E+00
  -1.02973E+01 -1.02476E+01 -1.00200E+01 -9.96279E+00 -9.92041E+00 -9.85930E+00 -9.76321E+00 -9.60968E+00 -9.30445E+00 -8.34933E+00
  -5.52428E+00 -1.58068E+00  2.88738E+00  8.02978E+00  1.31916E+01  1.76353E+01  2.14224E+01  2.47084E+01  2.55209E+01  2.12453E+01
   1.26832E+01  3.93280E+00 -2.10174E+00 -5.59623E+00 -7.14146E+00 -7.28201E+00 -7.39897E+00 -7.70267E+00 -7.80018E+00 -7.62684E+00
  -7.27521E+00 -6.87288E+00 -6.56537E+00 -6.48241E+00 -6.61979E+00 -6.88086E+00 -7.15591E+00 -7.38256E+00 -7.56047E+00 -7.68757E+00
  -7.77822E+00 -7.85856E+00 -7.90858E+00 -7.95148E+00 -8.07217E+00 -8.23034E+00 -8.35582E+00 -8.42646E+00 -8.41683E+00 -8.44053E+00
  -8.58469E+00 -8.85601E+00 -9.15119E+00 -9.25247E+00 -9.07063E+00 -8.81786E+00 -8.81973E+00 -9.19265E+00 -9.81023E+00 -1.04367E+01
  -1.08574E+01 -1.10201E+01 -1.10180E+01 -1.09447E+01 -1.09829E+01 -1.11446E+01 -1.13226E+01 -1.13435E+01 -1.10354E+01 -1.04991E+01
  -1.01468E+01 -1.01357E+01 -1.02027E+01 -1.00290E+01 -9.47292E+00 -8.63617E+00 -7.78381E+00 -7.05153E+00 -6.27370E+00 -5.32768E+00
  -4.34656E+00 -3.72762E+00 -3.58104E+00 -3.79870E+00 -4.29896E+00 -4.88072E+00 -5.20470E+00 -5.13221E+00 -4.87530E+00 -4.50443E+00
  -3.97228E+00 -3.34254E+00 -2.86399E+00 -2.73548E+00 -2.83849E+00 -3.24231E+00 -4.15374E+00 -5.30672E+00 -6.28091E+00 -6.69043E+00
  -6.57100E+00 -5.87441E+00 -4.60973E+00 -3.18079E+00 -1.98003E+00 -1.20869E+00 -9.37405E-01 -1.51997E+00 -3.20325E+00 -5.44248E+00
  -7.26304E+00 -8.17306E+00 -8.21148E+00 -7.35440E+00 -5.52017E+00 -3.08940E+00 -8.11098E-01  6.51233E-01  1.24740E+00  1.29062E+00
   1.06204E+00  7.97535E-01  7.06225E-01  8.90305E-01  1.35542E+00  1.91581E+00  2.27151E+00  2.41626E+00  2.38913E+00  2.18539E+00
   1.89815E+00  1.76319E+00  1.93524E+00  2.42513E+00  3.23704E+00  4.33672E+00  5.49178E+00  6.38924E+00  7.19291E+00  8.55130E+00
   1.02036E+01  1.21075E+01  1.49580E+01  2.05571E+01  2.87096E+01  3.71924E+01  4.62394E+01  5.44727E+01  5.93698E+01  6.11603E+01
   6.24898E+01  6.27289E+01  5.65500E+01  4.23185E+01  2.58170E+01  1.33214E+01  5.84621E+00  2.03626E+00  1.35803E+00  1.78048E+00
   1.63470E+00  1.40566E+00  1.24609E+00  1.11725E+00  1.00149E+00  8.72181E-01  6.67033E-01  3.78064E-01  7.00149E-02 -1.71536E-01
  -3.22609E-01 -4.02336E-01 -4.24056E-01 -3.95475E-01 -3.40592E-01 -2.84377E-01 -2.31394E-01 -1.64343E-01 -6.54057E-02  7.35446E-02
   2.58321E-01  4.90667E-01  7.63142E-01  1.06353E+00  1.36621E+00  1.64446E+00  1.89720E+00  2.13327E+00  2.35120E+00  2.54870E+00
   2.72981E+00  2.89348E+00  3.03020E+00  3.12385E+00  3.16336E+00  3.14733E+00  3.07684E+00  2.95708E+00  2.79910E+00  2.61163E+00
   2.40327E+00  2.18365E+00  1.96210E+00  1.74822E+00  1.55187E+00  1.38323E+00  1.25290E+00  1.17195E+00  1.15368E+00  1.22078E+00
   1.38400E+00  1.57793E+00  1.79491E+00  2.03574E+00  2.26806E+00  2.48010E+00  2.67977E+00  2.85853E+00  3.01543E+00  3.16330E+00
   3.43507E+00  3.98611E+00  4.78132E+00  5.67635E+00  6.60641E+00  7.55750E+00  8.44066E+00  9.11909E+00  9.50933E+00  9.70188E+00
   9.88079E+00  1.00994E+01  1.02028E+01  1.02056E+01  1.00670E+01  9.68721E+00  9.05739E+00  8.21908E+00  7.22315E+00  6.05866E+00
   4.74835E+00  3.73052E+00  3.39194E+00  3.61046E+00  4.08150E+00  4.73706E+00  5.51283E+00  6.07604E+00  6.12840E+00  5.66370E+00
   4.99703E+00  4.38268E+00  3.87072E+00  3.51065E+00  3.28845E+00  3.09480E+00  2.90942E+00  2.73261E+00  2.56230E+00  2.39693E+00
   2.23609E+00  2.08036E+00  1.93091E+00  1.78915E+00  1.65665E+00  1.53517E+00  1.42672E+00  1.33341E+00  1.25717E+00  1.19966E+00
   1.16240E+00  1.14694E+00  1.15491E+00  1.18791E+00  1.24736E+00  1.33455E+00  1.45075E+00  1.59731E+00  1.77559E+00  1.98667E+00
   2.23119E+00  2.50926E+00  2.82047E+00  3.16379E+00  3.53727E+00  3.93775E+00  4.36073E+00  4.80043E+00  5.24990E+00  5.70109E+00
   6.14486E+00  6.57119E+00  6.96949E+00  7.32923E+00  7.64045E+00  7.89411E+00  8.08248E+00  8.19949E+00  8.24115E+00  8.20595E+00
   8.09487E+00  7.91131E+00  7.66076E+00  7.35054E+00  6.98953E+00  6.58780E+00  6.15607E+00  5.70504E+00  5.24496E+00  4.78528E+00
   4.33446E+00  3.89979E+00  3.48718E+00  3.10097E+00  2.74407E+00  2.41809E+00  2.12367E+00  1.86055E+00  1.62768E+00  1.42335E+00
   1.24543E+00  1.09164E+00  9.59699E-01  8.47360E-01  7.52379E-01  6.72561E-01  6.05892E-01  5.50642E-01  5.05353E-01  4.68728E-01
   4.39547E-01  4.16693E-01  3.99249E-01  3.86523E-01  3.77965E-01  3.73051E-01  3.71243E-01  3.72067E-01  3.75189E-01  3.80400E-01
   3.87524E-01  3.96323E-01  4.06527E-01  4.17925E-01  4.30426E-01  4.44000E-01  4.58578E-01  4.74010E-01  4.90136E-01  5.06870E-01
   5.24225E-01  5.42217E-01  5.60792E-01  5.79825E-01  5.99222E-01  6.18977E-01  6.39144E-01  6.59735E-01  6.80682E-01  7.01878E-01
   7.23284E-01  7.44942E-01  7.66917E-01  7.89197E-01  8.11698E-01  8.34342E-01  8.57138E-01  8.80153E-01  9.03432E-01  9.26932E-01
   9.50571E-01  9.74306E-01  9.98189E-01  1.02229E+00  1.04664E+00  1.07116E+00  1.09578E+00  1.12051E+00  1.14542E+00  1.17058E+00
   1.19597E+00  1.22152E+00  1.24719E+00  1.27303E+00  1.29914E+00  1.32555E+00  1.35223E+00  1.37912E+00
 NY background values follow
    -2.620E+01   -2.605E+01   -2.590E+01   -2.575E+01   -2.560E+01   -2.546E+01   -2.531E+01   -2.516E+01   -2.501E+01   -2.486E+01
    -2.471E+01   -2.456E+01   -2.441E+01   -2.426E+01   -2.411E+01   -2.397E+01   -2.382E+01   -2.367E+01   -2.352E+01   -2.337E+01
    -2.322E+01   -2.307E+01   -2.293E+01   -2.278E+01   -2.263E+01   -2.248E+01   -2.234E+01   -2.219E+01   -2.204E+01   -2.189E+01
    -2.175E+01   -2.160E+01   -2.146E+01   -2.131E+01   -2.116E+01   -2.102E+01   -2.087E+01   -2.073E+01   -2.059E+01   -2.044E+01
    -2.030E+01   -2.016E+01   -2.001E+01   -1.987E+01   -1.973E+01   -1.959E+01   -1.945E+01   -1.931E+01   -1.917E+01   -1.903E+01
    -1.889E+01   -1.875E+01   -1.861E+01   -1.848E+01   -1.834E+01   -1.820E+01   -1.807E+01   -1.793E+01   -1.780E+01   -1.767E+01
    -1.753E+01   -1.740E+01   -1.727E+01   -1.714E+01   -1.701E+01   -1.688E+01   -1.675E+01   -1.662E+01   -1.649E+01   -1.636E+01
    -1.624E+01   -1.611E+01   -1.599E+01   -1.586E+01   -1.574E+01   -1.562E+01   -1.550E+01   -1.537E+01   -1.525E+01   -1.513E+01
    -1.502E+01   -1.490E+01   -1.478E+01   -1.467E+01   -1.455E+01   -1.444E+01   -1.432E+01   -1.421E+01   -1.410E+01   -1.399E+01
    -1.388E+01   -1.377E+01   -1.366E+01   -1.356E+01   -1.345E+01   -1.335E+01   -1.324E+01   -1.314E+01   -1.304E+01   -1.294E+01
    -1.284E+01   -1.274E+01   -1.264E+01   -1.254E+01   -1.244E+01   -1.235E+01   -1.226E+01   -1.216E+01   -1.207E+01   -1.198E+01
    -1.189E+01   -1.180E+01   -1.171E+01   -1.162E+01   -1.153E+01   -1.145E+01   -1.136E+01   -1.128E+01   -1.120E+01   -1.112E+01
    -1.103E+01   -1.095E+01   -1.087E+01   -1.080E+01   -1.072E+01   -1.064E+01   -1.057E+01   -1.049E+01   -1.042E+01   -1.035E+01
    -1.028E+01   -1.020E+01   -1.013E+01   -1.007E+01   -9.998E+00   -9.931E+00   -9.865E+00   -9.800E+00   -9.736E+00   -9.673E+00
    -9.610E+00   -9.549E+00   -9.488E+00   -9.428E+00   -9.369E+00   -9.310E+00   -9.252E+00   -9.195E+00   -9.139E+00   -9.083E+00
    -9.028E+00   -8.974E+00   -8.920E+00   -8.866E+00   -8.814E+00   -8.761E+00   -8.710E+00   -8.658E+00   -8.608E+00   -8.557E+00
    -8.507E+00   -8.458E+00   -8.408E+00   -8.360E+00   -8.311E+00   -8.263E+00   -8.215E+00   -8.167E+00   -8.120E+00   -8.072E+00
    -8.025E+00   -7.978E+00   -7.932E+00   -7.885E+00   -7.838E+00   -7.792E+00   -7.745E+00   -7.699E+00   -7.653E+00   -7.606E+00
    -7.560E+00   -7.513E+00   -7.467E+00   -7.420E+00   -7.373E+00   -7.327E+00   -7.280E+00   -7.233E+00   -7.186E+00   -7.139E+00
    -7.093E+00   -7.046E+00   -6.999E+00   -6.952E+00   -6.905E+00   -6.859E+00   -6.812E+00   -6.765E+00   -6.719E+00   -6.672E+00
    -6.626E+00   -6.580E+00   -6.534E+00   -6.488E+00   -6.442E+00   -6.396E+00   -6.350E+00   -6.305E+00   -6.259E+00   -6.214E+00
    -6.169E+00   -6.124E+00   -6.080E+00   -6.035E+00   -5.991E+00   -5.947E+00   -5.903E+00   -5.860E+00   -5.817E+00   -5.774E+00
    -5.731E+00   -5.689E+00   -5.646E+00   -5.605E+00   -5.563E+00   -5.522E+00   -5.481E+00   -5.440E+00   -5.400E+00   -5.360E+00
    -5.320E+00   -5.281E+00   -5.242E+00   -5.203E+00   -5.165E+00   -5.127E+00   -5.089E+00   -5.052E+00   -5.015E+00   -4.978E+00
    -4.941E+00   -4.905E+00   -4.869E+00   -4.833E+00   -4.798E+00   -4.762E+00   -4.727E+00   -4.693E+00   -4.658E+00   -4.624E+00
    -4.591E+00   -4.557E+00   -4.524E+00   -4.491E+00   -4.458E+00   -4.425E+00   -4.393E+00   -4.361E+00   -4.329E+00   -4.297E+00
    -4.266E+00   -4.235E+00   -4.204E+00   -4.173E+00   -4.143E+00   -4.112E+00   -4.082E+00   -4.052E+00   -4.023E+00   -3.993E+00
    -3.964E+00   -3.935E+00   -3.906E+00   -3.878E+00   -3.849E+00   -3.821E+00   -3.793E+00   -3.765E+00   -3.737E+00   -3.710E+00
    -3.682E+00   -3.655E+00   -3.628E+00   -3.601E+00   -3.575E+00   -3.548E+00   -3.522E+00   -3.496E+00   -3.470E+00   -3.444E+00
    -3.418E+00   -3.392E+00   -3.367E+00   -3.341E+00   -3.316E+00   -3.291E+00   -3.266E+00   -3.241E+00   -3.217E+00   -3.192E+00
    -3.168E+00   -3.143E+00   -3.119E+00   -3.095E+00   -3.071E+00   -3.047E+00   -3.023E+00   -3.000E+00   -2.976E+00   -2.953E+00
    -2.929E+00   -2.906E+00   -2.883E+00   -2.860E+00   -2.836E+00   -2.813E+00   -2.791E+00   -2.768E+00   -2.745E+00   -2.722E+00
    -2.700E+00   -2.677E+00   -2.654E+00   -2.632E+00   -2.610E+00   -2.587E+00   -2.565E+00   -2.543E+00   -2.520E+00   -2.498E+00
    -2.476E+00   -2.454E+00   -2.432E+00   -2.410E+00   -2.388E+00   -2.366E+00   -2.344E+00   -2.322E+00   -2.300E+00   -2.279E+00
    -2.257E+00   -2.235E+00   -2.213E+00   -2.192E+00   -2.170E+00   -2.148E+00   -2.126E+00   -2.105E+00   -2.083E+00   -2.061E+00
    -2.040E+00   -2.018E+00   -1.996E+00   -1.975E+00   -1.953E+00   -1.931E+00   -1.909E+00   -1.888E+00   -1.866E+00   -1.844E+00
    -1.822E+00   -1.801E+00   -1.779E+00   -1.757E+00   -1.735E+00   -1.713E+00   -1.691E+00   -1.669E+00   -1.647E+00   -1.625E+00
    -1.603E+00   -1.581E+00   -1.559E+00   -1.536E+00   -1.514E+00   -1.492E+00   -1.469E+00   -1.447E+00   -1.425E+00   -1.402E+00
    -1.379E+00   -1.357E+00   -1.334E+00   -1.311E+00   -1.288E+00   -1.265E+00   -1.242E+00   -1.219E+00   -1.196E+00   -1.173E+00
    -1.150E+00   -1.126E+00   -1.103E+00   -1.079E+00   -1.056E+00   -1.032E+00   -1.008E+00   -9.840E-01   -9.600E-01   -9.358E-01
    -9.116E-01   -8.873E-01   -8.629E-01   -8.383E-01   -8.137E-01   -7.889E-01   -7.640E-01   -7.390E-01   -7.139E-01   -6.887E-01
    -6.634E-01   -6.380E-01   -6.125E-01   -5.869E-01   -5.612E-01   -5.354E-01   -5.095E-01   -4.835E-01   -4.575E-01   -4.314E-01
    -4.052E-01   -3.789E-01   -3.526E-01   -3.262E-01   -2.998E-01   -2.733E-01   -2.468E-01   -2.203E-01   -1.936E-01   -1.670E-01
    -1.403E-01   -1.136E-01   -8.690E-02   -6.015E-02   -3.338E-02   -6.596E-03    2.020E-02    4.699E-02    7.379E-02    1.006E-01
     1.274E-01    1.542E-01    1.809E-01    2.077E-01    2.344E-01    2.612E-01    2.878E-01    3.145E-01    3.411E-01    3.677E-01
     3.943E-01    4.208E-01    4.472E-01    4.736E-01    4.999E-01    5.262E-01    5.525E-01    5.787E-01    6.049E-01    6.310E-01
     6.571E-01    6.831E-01    7.091E-01    7.351E-01    7.611E-01    7.870E-01    8.129E-01    8.387E-01    8.646E-01    8.904E-01
     9.162E-01    9.420E-01    9.677E-01    9.935E-01    1.019E+00    1.045E+00    1.071E+00    1.096E+00    1.122E+00    1.148E+00
     1.173E+00    1.199E+00    1.225E+00    1.251E+00    1.276E+00    1.302E+00    1.328E+00    1.353E+00    1.379E+00    1.405E+00
     1.431E+00    1.456E+00    1.482E+00    1.508E+00    1.534E+00    1.560E+00    1.586E+00    1.612E+00
 Ala      Conc. = 8.10E+01
