 LCModel (Version 6.3-1L) Copyright: S.W. Provencher.          Ref.: Magn. Reson. Med. 30:672-679 (1993).                
 Slice#1 Row#12 Col#13  K_02_press_1_raw_act
 36 lines in following concentration table = NCONC+1
    Conc.  %SD /Cr+PCr  Metabolite                                         
    0.000 999%   0.000 Ala                                                 
    0.000 999%   0.000 Asp                                                 
    0.000 999%   0.000 Cr                                                  
    0.000 999%   0.000 PCr                                                 
    0.000 999%   0.000 GABA                                                
    0.822 999%   0.000 Glc                                                 
    0.000 999%   0.000 Gln                                                 
    0.000 999%   0.000 Glu                                                 
    0.000 999%   0.000 GPC                                                 
    8.249 184%   0.000 PCh                                                 
    0.000 999%   0.000 GSH                                                 
    0.000 999%   0.000 Ins                                                 
 7.74E+03   5%   0.000 Lac                                                 
    0.000 999%   0.000 NAA                                                 
    0.000 999%   0.000 NAAG                                                
    0.752 382%   0.000 Scyllo                                              
    3.107 461%   0.000 Tau                                                 
    7.050 277%   0.000 -CrCH2                                              
    8.249 184%   0.000 GPC+PCh                                             
    0.000 999%   0.000 NAA+NAAG                                            
    0.000 999%   0.000 Cr+PCr                                              
    0.000 999%   0.000 Glu+Gln                                             
    0.000 999%   0.000 Lip13a                                              
 1.55E+03   8%   0.000 Lip13b                                              
    0.000 999%   0.000 Lip09                                               
 1.57E+03   6%   0.000 MM09                                                
    0.000 999%   0.000 Lip20                                               
 2.35E+03   6%   0.000 MM20                                                
  470.624   6%   0.000 MM12                                                
 1.18E+03   6%   0.000 MM14                                                
  589.391   6%   0.000 MM17                                                
 1.55E+03   8%   0.000 Lip13a+Lip13b                                       
 3.20E+03   5%   0.000 MM14+Lip13a+Lip13b+MM12                             
 1.57E+03   6%   0.000 MM09+Lip09                                          
 2.35E+03   6%   0.000 MM20+Lip20                                          
   6 lines in following misc. output table
  FWHM = 0.168 ppm    S/N =   9                                            
  Data shift = 0.161 ppm                                                   
  Ph: 129 deg     -54.2 deg/ppm                                            
  alphaB,S = 3.3E+00,   7.6E+02                                            
    8 spline knots.   Ns = 9(2)                                            
  (13) 2 infls.   ( 1) 1 extrs.                                            
  498 points on ppm-axis = NY
      4.000000     3.992357     3.984714     3.977070     3.969427     3.961784     3.954141     3.946497     3.938854     3.931211
      3.923568     3.915925     3.908281     3.900638     3.892995     3.885352     3.877708     3.870065     3.862422     3.854779
      3.847136     3.839492     3.831849     3.824206     3.816563     3.808919     3.801276     3.793633     3.785990     3.778347
      3.770703     3.763060     3.755417     3.747774     3.740130     3.732487     3.724844     3.717201     3.709558     3.701914
      3.694271     3.686628     3.678985     3.671341     3.663698     3.656055     3.648412     3.640769     3.633125     3.625482
      3.617839     3.610196     3.602552     3.594909     3.587266     3.579623     3.571980     3.564336     3.556693     3.549050
      3.541407     3.533763     3.526120     3.518477     3.510834     3.503191     3.495547     3.487904     3.480261     3.472618
      3.464974     3.457331     3.449688     3.442045     3.434402     3.426758     3.419115     3.411472     3.403829     3.396185
      3.388542     3.380899     3.373256     3.365613     3.357969     3.350326     3.342683     3.335040     3.327396     3.319753
      3.312110     3.304467     3.296824     3.289180     3.281537     3.273894     3.266251     3.258607     3.250964     3.243321
      3.235678     3.228034     3.220391     3.212748     3.205105     3.197462     3.189818     3.182175     3.174532     3.166889
      3.159245     3.151602     3.143959     3.136316     3.128673     3.121029     3.113386     3.105743     3.098100     3.090456
      3.082813     3.075170     3.067527     3.059884     3.052240     3.044597     3.036954     3.029311     3.021667     3.014024
      3.006381     2.998738     2.991095     2.983451     2.975808     2.968165     2.960522     2.952878     2.945235     2.937592
      2.929949     2.922306     2.914662     2.907019     2.899376     2.891733     2.884089     2.876446     2.868803     2.861160
      2.853517     2.845873     2.838230     2.830587     2.822944     2.815300     2.807657     2.800014     2.792371     2.784728
      2.777084     2.769441     2.761798     2.754155     2.746511     2.738868     2.731225     2.723582     2.715939     2.708295
      2.700652     2.693009     2.685366     2.677722     2.670079     2.662436     2.654793     2.647150     2.639506     2.631863
      2.624220     2.616577     2.608933     2.601290     2.593647     2.586004     2.578361     2.570717     2.563074     2.555431
      2.547788     2.540144     2.532501     2.524858     2.517215     2.509572     2.501928     2.494285     2.486642     2.478999
      2.471355     2.463712     2.456069     2.448426     2.440783     2.433139     2.425496     2.417853     2.410210     2.402566
      2.394923     2.387280     2.379637     2.371994     2.364350     2.356707     2.349064     2.341421     2.333777     2.326134
      2.318491     2.310848     2.303205     2.295561     2.287918     2.280275     2.272632     2.264988     2.257345     2.249702
      2.242059     2.234416     2.226772     2.219129     2.211486     2.203843     2.196199     2.188556     2.180913     2.173270
      2.165627     2.157983     2.150340     2.142697     2.135054     2.127410     2.119767     2.112124     2.104481     2.096838
      2.089194     2.081551     2.073908     2.066265     2.058621     2.050978     2.043335     2.035692     2.028049     2.020405
      2.012762     2.005119     1.997476     1.989833     1.982190     1.974546     1.966903     1.959260     1.951617     1.943974
      1.936331     1.928688     1.921045     1.913402     1.905759     1.898115     1.890472     1.882829     1.875186     1.867543
      1.859900     1.852257     1.844614     1.836971     1.829327     1.821684     1.814041     1.806398     1.798755     1.791112
      1.783469     1.775826     1.768183     1.760540     1.752896     1.745253     1.737610     1.729967     1.722324     1.714681
      1.707038     1.699395     1.691752     1.684108     1.676465     1.668822     1.661179     1.653536     1.645893     1.638250
      1.630607     1.622964     1.615321     1.607677     1.600034     1.592391     1.584748     1.577105     1.569462     1.561819
      1.554176     1.546533     1.538890     1.531246     1.523603     1.515960     1.508317     1.500674     1.493031     1.485388
      1.477745     1.470102     1.462458     1.454815     1.447172     1.439529     1.431886     1.424243     1.416600     1.408957
      1.401314     1.393671     1.386027     1.378384     1.370741     1.363098     1.355455     1.347812     1.340169     1.332526
      1.324883     1.317240     1.309596     1.301953     1.294310     1.286667     1.279024     1.271381     1.263738     1.256095
      1.248452     1.240808     1.233165     1.225522     1.217879     1.210236     1.202593     1.194950     1.187307     1.179664
      1.172021     1.164377     1.156734     1.149091     1.141448     1.133805     1.126162     1.118519     1.110876     1.103233
      1.095590     1.087946     1.080303     1.072660     1.065017     1.057374     1.049731     1.042088     1.034445     1.026802
      1.019158     1.011515     1.003872     0.996229     0.988586     0.980943     0.973300     0.965657     0.958014     0.950371
      0.942727     0.935084     0.927441     0.919798     0.912155     0.904512     0.896869     0.889226     0.881583     0.873940
      0.866296     0.858653     0.851010     0.843367     0.835724     0.828081     0.820438     0.812795     0.805152     0.797508
      0.789865     0.782222     0.774579     0.766936     0.759293     0.751650     0.744007     0.736364     0.728721     0.721077
      0.713434     0.705791     0.698148     0.690505     0.682862     0.675219     0.667576     0.659933     0.652290     0.644646
      0.637003     0.629360     0.621717     0.614074     0.606431     0.598788     0.591145     0.583502     0.575858     0.568215
      0.560572     0.552929     0.545286     0.537643     0.530000     0.522357     0.514714     0.507071     0.499427     0.491784
      0.484141     0.476498     0.468855     0.461212     0.453569     0.445925     0.438282     0.430639     0.422996     0.415353
      0.407710     0.400067     0.392424     0.384780     0.377137     0.369494     0.361851     0.354208     0.346565     0.338922
      0.331278     0.323635     0.315992     0.308349     0.300706     0.293063     0.285420     0.277777     0.270133     0.262490
      0.254847     0.247204     0.239561     0.231918     0.224275     0.216631     0.208988     0.201345
 NY phased data points follow
  -1.77769E+00 -6.70564E-01 -2.14525E+00 -4.54777E+00 -6.93020E-01 -2.13049E+00 -3.80913E+00 -3.85474E+00 -8.03879E-01 -2.29900E+00
  -1.49106E+00 -3.12002E+00 -2.23395E+00 -1.13965E+00 -1.46031E+00 -2.50482E-01 -4.30400E+00 -2.71309E-01 -3.33023E+00 -8.52262E-01
  -1.47053E+00 -1.16996E+00 -6.66982E-01 -1.92637E+00 -2.35927E+00 -3.19765E+00 -1.39874E+00 -2.16507E+00 -1.07927E+00 -1.65045E+00
   1.01261E+00 -3.32002E+00 -3.42633E+00 -6.89617E-01 -4.74966E-01 -3.78319E+00 -2.31844E+00 -3.51612E+00 -1.30007E+00 -1.84951E+00
  -1.71837E+00 -3.04441E+00 -2.08999E+00 -2.76901E+00 -6.84073E-01 -4.15069E+00 -1.66348E+00 -1.40226E+00 -2.90640E-01 -2.29806E+00
  -1.02037E+00 -3.50737E+00 -1.04738E+00 -1.45309E+00  9.09005E-01 -1.76306E+00 -1.15279E+00 -6.20208E-01 -3.45511E-01  1.50134E+00
  -3.94127E-02  7.40252E-01 -7.86769E-01 -1.76116E+00  5.40587E-01 -1.24757E+00 -1.10594E+00 -1.10706E+00 -3.07984E+00 -1.36503E+00
  -2.89350E+00 -2.72865E+00 -2.43188E+00 -1.01709E-01 -2.57503E+00  6.94224E-01 -1.03073E+00  2.67649E-01 -3.13715E-01 -7.66088E-01
   9.13234E-01 -7.50358E-01 -1.35002E+00  9.82548E-02 -1.21138E+00 -1.67569E+00 -1.01706E+00 -1.43470E+00 -2.10868E-01 -6.12349E-01
  -8.28437E-01 -2.62129E+00 -3.82845E-01 -7.67709E-02  1.28318E+00  2.26353E+00 -4.74280E-01 -4.40315E-01  2.97471E-01 -2.90954E+00
  -2.25574E+00 -1.82164E+00 -1.17343E+00  4.98708E-01 -1.31607E+00 -1.40153E+00 -1.73510E+00 -1.78579E+00 -1.01047E+00 -2.81707E+00
  -2.02068E+00 -6.82202E-01 -9.72453E-01 -4.09293E-01 -1.88282E-01  5.38405E-01  5.20731E-01  1.12397E+00 -6.04374E-01  1.06816E+00
  -2.36209E+00 -2.61825E+00  3.77557E-01 -8.98281E-01 -7.23061E-01 -7.28216E-01 -1.19124E+00 -5.11117E-01 -1.14760E+00 -1.10003E+00
   1.60341E+00 -2.96323E-01 -1.62959E+00 -1.88212E+00 -1.91563E+00 -1.51779E+00 -3.50610E-01 -6.37123E-01 -1.58966E+00 -2.96923E+00
  -1.27924E+00 -1.22148E-01 -3.42728E-01  5.87947E-02 -1.44315E+00 -1.98462E+00 -2.66630E-01 -3.97057E+00 -1.16721E+00  5.31438E-01
  -3.25508E-01 -6.12637E-01 -1.18576E+00 -3.10995E-01 -1.82620E+00 -6.80343E-01 -3.93875E-01 -9.48423E-01  9.49121E-01  4.88103E-01
   6.77664E-02 -1.20535E-01  2.03958E-01 -5.33158E-01 -2.06276E-02 -1.52011E+00 -9.03179E-01 -1.63376E+00 -6.49749E-01 -8.73458E-01
  -1.53136E+00 -6.55148E-01 -2.73888E+00  9.63390E-01 -1.02844E+00 -4.52625E-01 -2.07102E+00 -2.53313E+00 -6.77063E-01 -1.19677E+00
  -9.23095E-01  1.27320E+00 -1.41512E+00  2.28712E-01  1.50876E+00 -4.37448E+00 -1.19994E+00 -1.89563E+00 -1.84205E+00 -2.81601E+00
   8.06650E-02 -1.95112E+00 -2.27965E+00 -2.72495E+00 -1.86818E+00 -1.02055E+00 -2.08097E+00 -2.52048E+00 -1.29916E+00 -2.30830E+00
  -1.33803E+00 -6.71999E-01  1.24107E+00 -2.66888E+00  1.79841E+00 -1.95331E+00 -1.57452E+00 -1.22214E+00 -1.19116E+00 -1.18362E+00
  -1.15855E+00 -6.86410E-01 -1.41063E+00 -1.38704E+00  4.72454E-01 -2.68340E+00 -1.02099E+00 -1.55841E+00 -1.27609E+00 -7.62081E-01
  -2.75113E-01 -8.26145E-01 -1.62160E+00 -2.48588E+00 -8.21092E-01 -9.54288E-01 -2.66061E+00 -2.23674E+00 -1.35829E+00 -2.70488E+00
  -1.61095E+00 -2.28262E+00 -3.09842E+00 -4.30299E-01 -1.60298E+00 -2.69666E+00 -1.21108E+00 -2.08296E+00 -2.46542E+00  4.80342E-01
  -7.18993E-01 -1.09490E+00 -2.45507E+00 -2.64390E+00 -5.34582E-01 -1.03441E+00 -9.98998E-01 -1.34005E+00  2.62386E-01  8.70913E-01
   2.54898E+00  3.87750E-01  1.30895E-02 -1.52809E+00 -3.21501E-01 -2.49471E-01  6.86722E-01  1.25550E-01 -3.02643E-01 -1.28338E-01
  -1.98657E+00 -2.08979E+00  5.72844E-01 -4.99551E-01 -8.75077E-01 -4.04875E-01 -3.94569E-01 -1.06442E+00 -6.02930E-01 -1.67131E+00
   7.80056E-01  3.60757E-01 -1.67692E+00 -1.03806E+00 -3.49820E-01 -1.50776E+00 -1.84882E+00 -2.10067E+00 -9.74954E-01 -2.32980E+00
  -1.39697E+00 -1.89399E+00 -9.57130E-02 -1.66491E+00 -4.54684E+00 -1.45517E+00 -3.34756E+00 -2.08248E+00 -2.47082E+00 -2.15265E+00
  -3.53486E+00 -2.58281E+00 -3.25140E+00 -2.62831E+00 -5.04481E+00 -4.04092E+00 -4.77266E+00 -5.77198E+00 -8.54860E+00 -5.55147E+00
  -7.78641E+00 -8.57591E+00 -8.95504E+00 -8.15651E+00 -7.32329E+00 -7.81813E+00 -6.63736E+00 -7.87124E+00 -7.52434E+00 -6.26963E+00
  -6.14651E+00 -3.33338E+00 -3.14927E+00 -1.72856E+00 -6.81917E-01  4.52948E-01  4.06958E+00  5.21265E+00  6.20612E+00  1.00946E+01
   1.17948E+01  1.30478E+01  1.80913E+01  1.49060E+01  1.79929E+01  2.05182E+01  1.79083E+01  2.19900E+01  2.13244E+01  2.26450E+01
   2.41057E+01  2.59809E+01  2.60395E+01  2.81503E+01  2.94513E+01  2.77164E+01  2.67158E+01  2.67563E+01  2.62827E+01  2.74723E+01
   2.68896E+01  2.64381E+01  2.72132E+01  2.69549E+01  2.51349E+01  2.42670E+01  2.31382E+01  2.46446E+01  2.09802E+01  2.09367E+01
   1.94975E+01  1.93091E+01  1.86880E+01  1.65019E+01  1.64882E+01  1.62268E+01  1.53581E+01  1.44481E+01  1.28810E+01  1.28102E+01
   1.28098E+01  1.05754E+01  1.10095E+01  1.03795E+01  1.00635E+01  1.00998E+01  1.16610E+01  1.02490E+01  1.06342E+01  9.48180E+00
   7.55037E+00  9.54141E+00  8.29845E+00  7.80515E+00  5.95237E+00  6.05591E+00  4.95238E+00  5.78750E+00  4.86243E+00  5.73492E+00
   5.02365E+00  5.41463E+00  3.43820E+00  5.57959E+00  3.22678E+00 -7.80719E-02  2.19914E+00  4.80848E+00  2.42239E+00  2.82208E+00
   2.37848E+00  1.35308E+00 -6.22690E-03  2.74295E+00  4.80562E-01  4.24945E+00  1.52981E-01  3.32229E+00  2.09641E-01 -1.01797E+00
   3.33552E+00  8.71558E-01  1.89204E+00  1.04520E+00  1.13110E+00  1.84647E-01  3.61864E-01 -2.61157E+00  1.33046E+00 -2.59882E-02
  -8.05838E-01  2.09930E+00 -4.76414E-01  6.96981E-01 -9.98971E-01 -2.18634E-01 -9.55945E-01 -1.20222E+00 -2.53053E+00 -1.08819E+00
  -1.19790E+00 -1.72194E+00 -1.93358E+00 -1.06755E+00 -1.62188E+00 -9.62054E-01 -9.51613E-01 -2.45447E+00  1.20116E+00 -4.58049E-01
  -1.88848E+00 -1.56430E+00 -3.09742E+00  1.01063E-01 -3.02522E-01  6.19338E-03 -2.77573E+00 -9.10224E-01 -1.08627E+00 -5.52898E-01
  -1.95416E+00 -1.59333E+00 -2.05843E+00 -6.53445E-01 -2.03251E+00 -6.74430E-01 -1.73783E+00 -1.14855E+00 -2.05167E+00 -2.60063E+00
  -2.82198E+00 -2.54088E+00 -2.32990E+00 -1.45405E+00 -1.65043E+00  2.87876E-02 -1.30927E+00 -1.68349E+00 -1.34706E+00 -2.32126E+00
  -1.59390E+00 -2.33324E+00 -2.59254E+00  4.79944E-01 -1.37544E+00 -6.62571E-01  6.16336E-01 -6.51065E-01 -1.90319E+00  3.66729E-01
  -2.71087E-01 -5.78688E-01 -1.35607E+00  1.84403E+00  1.40697E-01 -2.78523E+00  2.62153E-01 -4.20195E-01  9.28540E-01 -3.04447E-01
  -1.10437E+00 -1.39000E+00 -2.93045E-01 -1.32309E+00 -9.90237E-01 -1.10194E+00 -2.54320E+00  2.23799E-01 -4.53877E-01 -1.23377E+00
  -1.65641E+00 -1.18263E+00 -2.67058E+00 -9.77183E-01 -2.40896E-01 -1.09040E+00  1.12208E+00  1.83395E+00
 NY points of the fit to the data follow
  -2.66440E+00 -1.59351E+00 -2.30821E+00 -1.41618E+00 -1.88713E+00 -1.16439E+00 -1.61699E+00 -1.20884E+00 -1.59263E+00 -1.41696E+00
  -1.70939E+00 -1.67690E+00 -1.83432E+00 -1.67440E+00 -1.67290E+00 -1.52602E+00 -1.45844E+00 -1.36422E+00 -1.29030E+00 -1.28253E+00
  -1.28257E+00 -1.29240E+00 -1.29832E+00 -1.30789E+00 -1.31433E+00 -1.32223E+00 -1.32810E+00 -1.33450E+00 -1.33974E+00 -1.34512E+00
  -1.35008E+00 -1.35568E+00 -1.35943E+00 -1.36453E+00 -1.36690E+00 -1.37141E+00 -1.37256E+00 -1.37650E+00 -1.37665E+00 -1.38004E+00
  -1.37945E+00 -1.38229E+00 -1.38110E+00 -1.38333E+00 -1.38171E+00 -1.38333E+00 -1.38145E+00 -1.38243E+00 -1.38036E+00 -1.38072E+00
  -1.37867E+00 -1.37842E+00 -1.37664E+00 -1.37584E+00 -1.37434E+00 -1.37296E+00 -1.37176E+00 -1.36954E+00 -1.36845E+00 -1.36567E+00
  -1.36474E+00 -1.36163E+00 -1.36098E+00 -1.35766E+00 -1.35709E+00 -1.35378E+00 -1.35304E+00 -1.34957E+00 -1.34771E+00 -1.34403E+00
  -1.34138E+00 -1.33779E+00 -1.33445E+00 -1.33102E+00 -1.32699E+00 -1.32369E+00 -1.31925E+00 -1.31613E+00 -1.31140E+00 -1.30835E+00
  -1.30316E+00 -1.29970E+00 -1.29405E+00 -1.28943E+00 -1.28064E+00 -1.26230E+00 -1.24366E+00 -1.21973E+00 -1.19277E+00 -1.16816E+00
  -1.13390E+00 -1.11154E+00 -1.07088E+00 -1.05269E+00 -1.00662E+00 -9.94493E-01 -9.44783E-01 -9.40944E-01 -8.89954E-01 -8.95500E-01
  -8.45574E-01 -8.59789E-01 -8.12439E-01 -8.32183E-01 -7.87746E-01 -8.09823E-01 -7.68213E-01 -7.88940E-01 -7.49377E-01 -7.66724E-01
  -7.29383E-01 -7.42025E-01 -7.06890E-01 -7.15074E-01 -6.82737E-01 -6.86676E-01 -6.57685E-01 -6.57040E-01 -6.31423E-01 -6.26154E-01
  -6.03969E-01 -5.95513E-01 -5.77375E-01 -5.66521E-01 -5.51891E-01 -5.37719E-01 -5.26496E-01 -5.18639E-01 -5.14805E-01 -5.14856E-01
  -5.19371E-01 -5.28077E-01 -5.41431E-01 -5.59049E-01 -5.81286E-01 -6.07635E-01 -6.38336E-01 -6.72777E-01 -7.11120E-01 -7.52680E-01
  -7.97554E-01 -8.44989E-01 -8.95029E-01 -9.46897E-01 -1.00064E+00 -1.05548E+00 -1.11147E+00 -1.16784E+00 -1.22469E+00 -1.28129E+00
  -1.33779E+00 -1.39353E+00 -1.44868E+00 -1.50266E+00 -1.55570E+00 -1.60726E+00 -1.65766E+00 -1.70640E+00 -1.75384E+00 -1.79952E+00
  -1.84383E+00 -1.88638E+00 -1.92758E+00 -1.96706E+00 -2.00524E+00 -2.04176E+00 -2.07706E+00 -2.11080E+00 -2.14344E+00 -2.17460E+00
  -2.20474E+00 -2.23350E+00 -2.26132E+00 -2.28785E+00 -2.31351E+00 -2.33794E+00 -2.36154E+00 -2.38394E+00 -2.40556E+00 -2.42601E+00
  -2.44567E+00 -2.46414E+00 -2.48181E+00 -2.49825E+00 -2.51385E+00 -2.52819E+00 -2.54160E+00 -2.55365E+00 -2.56468E+00 -2.57425E+00
  -2.58269E+00 -2.58953E+00 -2.59509E+00 -2.59888E+00 -2.60122E+00 -2.60163E+00 -2.60041E+00 -2.59706E+00 -2.59187E+00 -2.58433E+00
  -2.57474E+00 -2.56261E+00 -2.54823E+00 -2.53106E+00 -2.51143E+00 -2.48882E+00 -2.46358E+00 -2.43521E+00 -2.40404E+00 -2.36960E+00
  -2.33223E+00 -2.29151E+00 -2.24781E+00 -2.20068E+00 -2.15050E+00 -2.09684E+00 -2.04008E+00 -1.97980E+00 -1.91638E+00 -1.84935E+00
  -1.77905E+00 -1.70500E+00 -1.62752E+00 -1.54611E+00 -1.46103E+00 -1.37174E+00 -1.27848E+00 -1.18071E+00 -1.07871E+00 -9.71978E-01
  -8.60832E-01 -7.44875E-01 -6.24570E-01 -4.99724E-01 -3.71035E-01 -2.38570E-01 -1.03308E-01  3.43568E-02  1.73073E-01  3.12067E-01
   4.49630E-01  5.84669E-01  7.15197E-01  8.39878E-01  9.56528E-01  1.06371E+00  1.15928E+00  1.24191E+00  1.30970E+00  1.36164E+00
   1.39621E+00  1.41290E+00  1.41077E+00  1.38996E+00  1.35014E+00  1.29206E+00  1.21598E+00  1.12321E+00  1.01451E+00  8.91641E-01
   7.55669E-01  6.08538E-01  4.51464E-01  2.86460E-01  1.14733E-01 -6.17854E-02 -2.42060E-01 -4.24374E-01 -6.07892E-01 -7.91089E-01
  -9.73338E-01 -1.15334E+00 -1.33072E+00 -1.50437E+00 -1.67405E+00 -1.83880E+00 -1.99852E+00 -2.15238E+00 -2.30041E+00 -2.44189E+00
  -2.57694E+00 -2.70488E+00 -2.82592E+00 -2.93952E+00 -3.04596E+00 -3.14478E+00 -3.23626E+00 -3.31998E+00 -3.39628E+00 -3.46477E+00
  -3.52581E+00 -3.57889E+00 -3.62422E+00 -3.66116E+00 -3.68972E+00 -3.70896E+00 -3.71846E+00 -3.71668E+00 -3.70246E+00 -3.67342E+00
  -3.62746E+00 -3.56099E+00 -3.47049E+00 -3.35083E+00 -3.19689E+00 -3.00200E+00 -2.75962E+00 -2.46183E+00 -2.10119E+00 -1.66954E+00
  -1.15998E+00 -5.65882E-01  1.17076E-01  8.91975E-01  1.75851E+00  2.71417E+00  3.75228E+00  4.86367E+00  6.03537E+00  7.25296E+00
   8.49990E+00  9.76070E+00  1.10213E+01  1.22739E+01  1.35194E+01  1.47765E+01  1.60941E+01  1.75892E+01  1.95643E+01  2.23586E+01
   2.39907E+01  2.63046E+01  2.70955E+01  2.83030E+01  2.80829E+01  2.77446E+01  2.65923E+01  2.67646E+01  2.58358E+01  2.65340E+01
   2.57860E+01  2.65710E+01  2.57702E+01  2.62574E+01  2.51821E+01  2.52036E+01  2.38398E+01  2.35279E+01  2.19904E+01  2.14254E+01
   1.99377E+01  1.93158E+01  1.80409E+01  1.73635E+01  1.63689E+01  1.57052E+01  1.49544E+01  1.41722E+01  1.36089E+01  1.28083E+01
   1.24793E+01  1.18036E+01  1.17098E+01  1.12835E+01  1.13639E+01  1.10345E+01  1.12292E+01  1.09845E+01  1.12305E+01  1.11324E+01
   1.08101E+01  9.93028E+00  9.21255E+00  7.88922E+00  6.94755E+00  5.53002E+00  4.63789E+00  4.08350E+00  3.70998E+00  3.45227E+00
   3.27550E+00  3.15889E+00  3.08746E+00  3.05083E+00  3.04000E+00  3.04815E+00  3.06857E+00  3.09613E+00  3.12549E+00  3.15267E+00
   3.17336E+00  3.18448E+00  3.18267E+00  3.16590E+00  3.13193E+00  3.07988E+00  3.00860E+00  2.91822E+00  2.80862E+00  2.68094E+00
   2.53600E+00  2.37574E+00  2.20157E+00  2.01590E+00  1.82051E+00  1.61805E+00  1.41042E+00  1.20021E+00  9.89113E-01  7.79440E-01
   5.72572E-01  3.70467E-01  1.74101E-01 -1.50359E-02 -1.96440E-01 -3.69055E-01 -5.32754E-01 -6.86827E-01 -8.31482E-01 -9.66330E-01
  -1.09186E+00 -1.20787E+00 -1.31500E+00 -1.41316E+00 -1.50310E+00 -1.58485E+00 -1.65919E+00 -1.72615E+00 -1.78652E+00 -1.84031E+00
  -1.88830E+00 -1.93050E+00 -1.96767E+00 -1.99975E+00 -2.02743E+00 -2.05065E+00 -2.07008E+00 -2.08562E+00 -2.09789E+00 -2.10672E+00
  -2.11272E+00 -2.11569E+00 -2.11623E+00 -2.11411E+00 -2.10988E+00 -2.10329E+00 -2.09486E+00 -2.08433E+00 -2.07221E+00 -2.05824E+00
  -2.04288E+00 -2.02584E+00 -2.00759E+00 -1.98783E+00 -1.96704E+00 -1.94489E+00 -1.92183E+00 -1.89752E+00 -1.87242E+00 -1.84620E+00
  -1.81930E+00 -1.79138E+00 -1.76284E+00 -1.73337E+00 -1.70337E+00 -1.67253E+00 -1.64124E+00 -1.60915E+00 -1.57667E+00 -1.54345E+00
  -1.50991E+00 -1.47570E+00 -1.44120E+00 -1.40607E+00 -1.37070E+00 -1.33475E+00 -1.29861E+00 -1.26192E+00 -1.22507E+00 -1.18770E+00
  -1.15021E+00 -1.11223E+00 -1.07417E+00 -1.03565E+00 -9.97049E-01 -9.58010E-01 -9.18924E-01 -8.79426E-01 -8.39901E-01 -7.99967E-01
  -7.60006E-01 -7.19640E-01 -6.79256E-01 -6.38468E-01 -5.97644E-01 -5.56375E-01 -5.15015E-01 -4.73138E-01
 NY background values follow
    -1.985E+00   -1.981E+00   -1.978E+00   -1.975E+00   -1.971E+00   -1.968E+00   -1.964E+00   -1.961E+00   -1.957E+00   -1.954E+00
    -1.950E+00   -1.947E+00   -1.943E+00   -1.939E+00   -1.936E+00   -1.932E+00   -1.928E+00   -1.925E+00   -1.921E+00   -1.918E+00
    -1.914E+00   -1.910E+00   -1.907E+00   -1.903E+00   -1.900E+00   -1.896E+00   -1.893E+00   -1.889E+00   -1.886E+00   -1.882E+00
    -1.879E+00   -1.876E+00   -1.872E+00   -1.869E+00   -1.866E+00   -1.863E+00   -1.860E+00   -1.857E+00   -1.854E+00   -1.851E+00
    -1.849E+00   -1.846E+00   -1.843E+00   -1.841E+00   -1.839E+00   -1.836E+00   -1.834E+00   -1.832E+00   -1.830E+00   -1.828E+00
    -1.826E+00   -1.825E+00   -1.823E+00   -1.822E+00   -1.821E+00   -1.819E+00   -1.818E+00   -1.817E+00   -1.817E+00   -1.816E+00
    -1.816E+00   -1.815E+00   -1.815E+00   -1.815E+00   -1.815E+00   -1.816E+00   -1.816E+00   -1.817E+00   -1.817E+00   -1.818E+00
    -1.820E+00   -1.821E+00   -1.822E+00   -1.824E+00   -1.826E+00   -1.828E+00   -1.831E+00   -1.833E+00   -1.836E+00   -1.839E+00
    -1.842E+00   -1.845E+00   -1.849E+00   -1.852E+00   -1.856E+00   -1.861E+00   -1.865E+00   -1.870E+00   -1.875E+00   -1.880E+00
    -1.885E+00   -1.891E+00   -1.897E+00   -1.903E+00   -1.909E+00   -1.916E+00   -1.923E+00   -1.930E+00   -1.938E+00   -1.946E+00
    -1.954E+00   -1.962E+00   -1.970E+00   -1.979E+00   -1.988E+00   -1.998E+00   -2.008E+00   -2.018E+00   -2.028E+00   -2.038E+00
    -2.049E+00   -2.060E+00   -2.071E+00   -2.083E+00   -2.095E+00   -2.107E+00   -2.119E+00   -2.132E+00   -2.145E+00   -2.158E+00
    -2.171E+00   -2.185E+00   -2.199E+00   -2.213E+00   -2.228E+00   -2.242E+00   -2.257E+00   -2.273E+00   -2.288E+00   -2.304E+00
    -2.320E+00   -2.336E+00   -2.352E+00   -2.369E+00   -2.386E+00   -2.403E+00   -2.420E+00   -2.438E+00   -2.456E+00   -2.474E+00
    -2.492E+00   -2.511E+00   -2.530E+00   -2.549E+00   -2.568E+00   -2.588E+00   -2.607E+00   -2.627E+00   -2.648E+00   -2.668E+00
    -2.689E+00   -2.710E+00   -2.731E+00   -2.752E+00   -2.774E+00   -2.796E+00   -2.818E+00   -2.840E+00   -2.862E+00   -2.885E+00
    -2.908E+00   -2.931E+00   -2.954E+00   -2.978E+00   -3.001E+00   -3.025E+00   -3.050E+00   -3.074E+00   -3.099E+00   -3.123E+00
    -3.148E+00   -3.174E+00   -3.199E+00   -3.225E+00   -3.250E+00   -3.276E+00   -3.303E+00   -3.329E+00   -3.356E+00   -3.382E+00
    -3.409E+00   -3.436E+00   -3.464E+00   -3.491E+00   -3.519E+00   -3.547E+00   -3.575E+00   -3.604E+00   -3.632E+00   -3.661E+00
    -3.690E+00   -3.719E+00   -3.748E+00   -3.777E+00   -3.807E+00   -3.837E+00   -3.867E+00   -3.897E+00   -3.927E+00   -3.958E+00
    -3.988E+00   -4.019E+00   -4.050E+00   -4.081E+00   -4.113E+00   -4.144E+00   -4.176E+00   -4.207E+00   -4.239E+00   -4.271E+00
    -4.303E+00   -4.335E+00   -4.367E+00   -4.399E+00   -4.431E+00   -4.464E+00   -4.496E+00   -4.529E+00   -4.561E+00   -4.593E+00
    -4.626E+00   -4.658E+00   -4.691E+00   -4.723E+00   -4.756E+00   -4.788E+00   -4.821E+00   -4.853E+00   -4.886E+00   -4.918E+00
    -4.950E+00   -4.982E+00   -5.014E+00   -5.046E+00   -5.078E+00   -5.110E+00   -5.142E+00   -5.173E+00   -5.205E+00   -5.236E+00
    -5.267E+00   -5.299E+00   -5.329E+00   -5.360E+00   -5.391E+00   -5.421E+00   -5.451E+00   -5.481E+00   -5.511E+00   -5.541E+00
    -5.570E+00   -5.599E+00   -5.628E+00   -5.657E+00   -5.686E+00   -5.714E+00   -5.742E+00   -5.769E+00   -5.797E+00   -5.824E+00
    -5.851E+00   -5.877E+00   -5.903E+00   -5.929E+00   -5.955E+00   -5.980E+00   -6.005E+00   -6.030E+00   -6.054E+00   -6.078E+00
    -6.101E+00   -6.124E+00   -6.147E+00   -6.169E+00   -6.191E+00   -6.213E+00   -6.234E+00   -6.254E+00   -6.275E+00   -6.294E+00
    -6.314E+00   -6.333E+00   -6.351E+00   -6.369E+00   -6.387E+00   -6.404E+00   -6.420E+00   -6.436E+00   -6.451E+00   -6.466E+00
    -6.481E+00   -6.495E+00   -6.508E+00   -6.521E+00   -6.533E+00   -6.545E+00   -6.556E+00   -6.567E+00   -6.576E+00   -6.586E+00
    -6.595E+00   -6.603E+00   -6.610E+00   -6.617E+00   -6.624E+00   -6.630E+00   -6.635E+00   -6.640E+00   -6.644E+00   -6.647E+00
    -6.650E+00   -6.653E+00   -6.655E+00   -6.656E+00   -6.657E+00   -6.657E+00   -6.656E+00   -6.656E+00   -6.654E+00   -6.652E+00
    -6.650E+00   -6.647E+00   -6.643E+00   -6.639E+00   -6.635E+00   -6.629E+00   -6.624E+00   -6.618E+00   -6.611E+00   -6.604E+00
    -6.596E+00   -6.588E+00   -6.580E+00   -6.570E+00   -6.561E+00   -6.551E+00   -6.540E+00   -6.529E+00   -6.517E+00   -6.505E+00
    -6.493E+00   -6.480E+00   -6.466E+00   -6.453E+00   -6.438E+00   -6.423E+00   -6.408E+00   -6.392E+00   -6.376E+00   -6.360E+00
    -6.343E+00   -6.325E+00   -6.307E+00   -6.289E+00   -6.270E+00   -6.251E+00   -6.231E+00   -6.211E+00   -6.191E+00   -6.170E+00
    -6.148E+00   -6.127E+00   -6.105E+00   -6.082E+00   -6.059E+00   -6.036E+00   -6.012E+00   -5.988E+00   -5.964E+00   -5.939E+00
    -5.914E+00   -5.888E+00   -5.862E+00   -5.836E+00   -5.809E+00   -5.782E+00   -5.754E+00   -5.727E+00   -5.698E+00   -5.670E+00
    -5.641E+00   -5.612E+00   -5.582E+00   -5.552E+00   -5.522E+00   -5.492E+00   -5.461E+00   -5.430E+00   -5.398E+00   -5.366E+00
    -5.334E+00   -5.301E+00   -5.269E+00   -5.235E+00   -5.202E+00   -5.168E+00   -5.134E+00   -5.100E+00   -5.065E+00   -5.030E+00
    -4.995E+00   -4.960E+00   -4.924E+00   -4.888E+00   -4.852E+00   -4.815E+00   -4.778E+00   -4.741E+00   -4.704E+00   -4.666E+00
    -4.628E+00   -4.590E+00   -4.552E+00   -4.513E+00   -4.474E+00   -4.435E+00   -4.396E+00   -4.356E+00   -4.316E+00   -4.277E+00
    -4.236E+00   -4.196E+00   -4.155E+00   -4.114E+00   -4.073E+00   -4.032E+00   -3.991E+00   -3.949E+00   -3.907E+00   -3.866E+00
    -3.823E+00   -3.781E+00   -3.739E+00   -3.696E+00   -3.653E+00   -3.610E+00   -3.567E+00   -3.524E+00   -3.480E+00   -3.437E+00
    -3.393E+00   -3.349E+00   -3.305E+00   -3.261E+00   -3.217E+00   -3.172E+00   -3.128E+00   -3.083E+00   -3.038E+00   -2.994E+00
    -2.949E+00   -2.904E+00   -2.858E+00   -2.813E+00   -2.768E+00   -2.722E+00   -2.677E+00   -2.631E+00   -2.586E+00   -2.540E+00
    -2.494E+00   -2.448E+00   -2.402E+00   -2.356E+00   -2.310E+00   -2.264E+00   -2.218E+00   -2.172E+00   -2.125E+00   -2.079E+00
    -2.033E+00   -1.986E+00   -1.940E+00   -1.894E+00   -1.847E+00   -1.801E+00   -1.754E+00   -1.708E+00   -1.661E+00   -1.615E+00
    -1.569E+00   -1.522E+00   -1.476E+00   -1.429E+00   -1.383E+00   -1.336E+00   -1.290E+00   -1.244E+00   -1.197E+00   -1.151E+00
    -1.105E+00   -1.059E+00   -1.012E+00   -9.664E-01   -9.203E-01   -8.743E-01   -8.284E-01   -7.825E-01
 Glc      Conc. = 8.22E-01
