 LCModel (Version 6.3-1L) Copyright: S.W. Provencher.          Ref.: Magn. Reson. Med. 30:672-679 (1993).                
 Slice#2 Row#11 Col#13  K_02_press_1_raw_act
 36 lines in following concentration table = NCONC+1
    Conc.  %SD /Cr+PCr  Metabolite                                         
 1.34E+03  46%  58.379 Ala                                                 
    6.480  72%   0.282 Asp                                                 
    0.000 999%   0.000 Cr                                                  
   22.992 146%   1.000 PCr                                                 
    3.843  73%   0.167 GABA                                                
    3.824  74%   0.166 Glc                                                 
    8.356 999%   0.363 Gln                                                 
  968.202  43%  42.110 Glu                                                 
    0.000 999%   0.000 GPC                                                 
    0.000 999%   0.000 PCh                                                 
    0.000 999%   0.000 GSH                                                 
   49.020 275%   2.132 Ins                                                 
    0.000 999%   0.000 Lac                                                 
  106.109  47%   4.615 NAA                                                 
    0.000 999%   0.000 NAAG                                                
    1.232  76% 5.4E-02 Scyllo                                              
    6.304  75%   0.274 Tau                                                 
    2.295 147%   0.100 -CrCH2                                              
    0.000 999%   0.000 GPC+PCh                                             
  106.109  47%   4.615 NAA+NAAG                                            
   22.992 146%   1.000 Cr+PCr                                              
  976.558  61%  42.473 Glu+Gln                                             
 1.58E+04  12% 686.970 Lip13a                                              
  518.397 113%  22.546 Lip13b                                              
  729.637  40%  31.734 Lip09                                               
 1.57E+03  24%  68.153 MM09                                                
  437.761  54%  19.039 Lip20                                               
    0.000 999%   0.000 MM20                                                
  550.343  58%  23.936 MM12                                                
 1.91E+03  19%  82.904 MM14                                                
  843.174  28%  36.672 MM17                                                
 1.63E+04  11% 709.516 Lip13a+Lip13b                                       
 1.88E+04   8% 816.356 MM14+Lip13a+Lip13b+MM12                             
 2.30E+03  22%  99.887 MM09+Lip09                                          
  437.761  54%  19.039 MM20+Lip20                                          
   6 lines in following misc. output table
  FWHM = 0.153 ppm    S/N =  22                                            
  Data shift =-0.046 ppm                                                   
  Ph:  39 deg      18.0 deg/ppm                                            
  alphaB,S = 4.1E+00,   1.3E+02                                            
    8 spline knots.   Ns = 9(2)                                            
  (14) 2 infls.   (12) 1 extrs.                                            
  498 points on ppm-axis = NY
      4.000000     3.992357     3.984714     3.977070     3.969427     3.961784     3.954141     3.946497     3.938854     3.931211
      3.923568     3.915925     3.908281     3.900638     3.892995     3.885352     3.877708     3.870065     3.862422     3.854779
      3.847136     3.839492     3.831849     3.824206     3.816563     3.808919     3.801276     3.793633     3.785990     3.778347
      3.770703     3.763060     3.755417     3.747774     3.740130     3.732487     3.724844     3.717201     3.709558     3.701914
      3.694271     3.686628     3.678985     3.671341     3.663698     3.656055     3.648412     3.640769     3.633125     3.625482
      3.617839     3.610196     3.602552     3.594909     3.587266     3.579623     3.571980     3.564336     3.556693     3.549050
      3.541407     3.533763     3.526120     3.518477     3.510834     3.503191     3.495547     3.487904     3.480261     3.472618
      3.464974     3.457331     3.449688     3.442045     3.434402     3.426758     3.419115     3.411472     3.403829     3.396185
      3.388542     3.380899     3.373256     3.365613     3.357969     3.350326     3.342683     3.335040     3.327396     3.319753
      3.312110     3.304467     3.296824     3.289180     3.281537     3.273894     3.266251     3.258607     3.250964     3.243321
      3.235678     3.228034     3.220391     3.212748     3.205105     3.197462     3.189818     3.182175     3.174532     3.166889
      3.159245     3.151602     3.143959     3.136316     3.128673     3.121029     3.113386     3.105743     3.098100     3.090456
      3.082813     3.075170     3.067527     3.059884     3.052240     3.044597     3.036954     3.029311     3.021667     3.014024
      3.006381     2.998738     2.991095     2.983451     2.975808     2.968165     2.960522     2.952878     2.945235     2.937592
      2.929949     2.922306     2.914662     2.907019     2.899376     2.891733     2.884089     2.876446     2.868803     2.861160
      2.853517     2.845873     2.838230     2.830587     2.822944     2.815300     2.807657     2.800014     2.792371     2.784728
      2.777084     2.769441     2.761798     2.754155     2.746511     2.738868     2.731225     2.723582     2.715939     2.708295
      2.700652     2.693009     2.685366     2.677722     2.670079     2.662436     2.654793     2.647150     2.639506     2.631863
      2.624220     2.616577     2.608933     2.601290     2.593647     2.586004     2.578361     2.570717     2.563074     2.555431
      2.547788     2.540144     2.532501     2.524858     2.517215     2.509572     2.501928     2.494285     2.486642     2.478999
      2.471355     2.463712     2.456069     2.448426     2.440783     2.433139     2.425496     2.417853     2.410210     2.402566
      2.394923     2.387280     2.379637     2.371994     2.364350     2.356707     2.349064     2.341421     2.333777     2.326134
      2.318491     2.310848     2.303205     2.295561     2.287918     2.280275     2.272632     2.264988     2.257345     2.249702
      2.242059     2.234416     2.226772     2.219129     2.211486     2.203843     2.196199     2.188556     2.180913     2.173270
      2.165627     2.157983     2.150340     2.142697     2.135054     2.127410     2.119767     2.112124     2.104481     2.096838
      2.089194     2.081551     2.073908     2.066265     2.058621     2.050978     2.043335     2.035692     2.028049     2.020405
      2.012762     2.005119     1.997476     1.989833     1.982190     1.974546     1.966903     1.959260     1.951617     1.943974
      1.936331     1.928688     1.921045     1.913402     1.905759     1.898115     1.890472     1.882829     1.875186     1.867543
      1.859900     1.852257     1.844614     1.836971     1.829327     1.821684     1.814041     1.806398     1.798755     1.791112
      1.783469     1.775826     1.768183     1.760540     1.752896     1.745253     1.737610     1.729967     1.722324     1.714681
      1.707038     1.699395     1.691752     1.684108     1.676465     1.668822     1.661179     1.653536     1.645893     1.638250
      1.630607     1.622964     1.615321     1.607677     1.600034     1.592391     1.584748     1.577105     1.569462     1.561819
      1.554176     1.546533     1.538890     1.531246     1.523603     1.515960     1.508317     1.500674     1.493031     1.485388
      1.477745     1.470102     1.462458     1.454815     1.447172     1.439529     1.431886     1.424243     1.416600     1.408957
      1.401314     1.393671     1.386027     1.378384     1.370741     1.363098     1.355455     1.347812     1.340169     1.332526
      1.324883     1.317240     1.309596     1.301953     1.294310     1.286667     1.279024     1.271381     1.263738     1.256095
      1.248452     1.240808     1.233165     1.225522     1.217879     1.210236     1.202593     1.194950     1.187307     1.179664
      1.172021     1.164377     1.156734     1.149091     1.141448     1.133805     1.126162     1.118519     1.110876     1.103233
      1.095590     1.087946     1.080303     1.072660     1.065017     1.057374     1.049731     1.042088     1.034445     1.026802
      1.019158     1.011515     1.003872     0.996229     0.988586     0.980943     0.973300     0.965657     0.958014     0.950371
      0.942727     0.935084     0.927441     0.919798     0.912155     0.904512     0.896869     0.889226     0.881583     0.873940
      0.866296     0.858653     0.851010     0.843367     0.835724     0.828081     0.820438     0.812795     0.805152     0.797508
      0.789865     0.782222     0.774579     0.766936     0.759293     0.751650     0.744007     0.736364     0.728721     0.721077
      0.713434     0.705791     0.698148     0.690505     0.682862     0.675219     0.667576     0.659933     0.652290     0.644646
      0.637003     0.629360     0.621717     0.614074     0.606431     0.598788     0.591145     0.583502     0.575858     0.568215
      0.560572     0.552929     0.545286     0.537643     0.530000     0.522357     0.514714     0.507071     0.499427     0.491784
      0.484141     0.476498     0.468855     0.461212     0.453569     0.445925     0.438282     0.430639     0.422996     0.415353
      0.407710     0.400067     0.392424     0.384780     0.377137     0.369494     0.361851     0.354208     0.346565     0.338922
      0.331278     0.323635     0.315992     0.308349     0.300706     0.293063     0.285420     0.277777     0.270133     0.262490
      0.254847     0.247204     0.239561     0.231918     0.224275     0.216631     0.208988     0.201345
 NY phased data points follow
   7.83148E+00  6.44779E+00  7.08166E+00  7.16085E+00  6.43022E+00  8.07311E+00  5.82851E+00  6.04399E+00  7.41632E+00  5.27656E+00
   5.75094E+00  5.56296E+00  6.09593E+00  8.02249E+00  5.86947E+00  6.45706E+00  6.89652E+00  7.74757E+00  5.83630E+00  5.49015E+00
   7.54250E+00  7.31894E+00  7.08538E+00  5.48412E+00  6.15367E+00  6.26118E+00  4.50624E+00  6.99729E+00  4.28807E+00  4.43391E+00
   4.50981E+00  5.42712E+00  2.64890E+00  5.27887E+00  4.74221E+00  6.22217E+00  4.94096E+00  6.00743E+00  7.00873E+00  5.07370E+00
   4.95519E+00  4.19594E+00  5.88035E+00  5.74034E+00  3.22451E+00  5.25082E+00  3.03793E+00  4.94412E+00  4.23359E+00  5.01736E+00
   5.26292E+00  3.36590E+00  4.20731E+00  5.20590E+00  7.30969E+00  5.73271E+00  3.18399E+00  3.42199E+00  3.74968E+00  4.98797E+00
   2.48436E+00  5.11433E+00  4.26416E+00  3.22352E+00  4.49638E+00  3.50577E+00  5.02355E+00  3.53341E+00  5.04687E+00  3.58999E+00
   3.72170E+00  5.07688E+00  4.39037E+00  3.19264E+00  5.15418E+00  2.41153E+00  4.85263E+00  1.99903E+00  4.43663E+00  1.30359E+00
   3.36322E+00  1.79265E+00  4.36520E+00  2.02004E+00  1.65214E+00  5.33645E+00  4.05780E+00  3.93755E+00  2.41344E+00  3.73838E-02
   1.32990E+00  2.94918E+00  3.29034E+00  1.79307E+00  2.74563E+00  8.37197E-01  2.71626E+00  3.72264E+00  3.76316E+00  4.56356E+00
   3.52994E+00  1.01556E+00  2.12502E+00  1.55381E+00  1.38411E+00  2.86584E+00  2.06568E+00  2.77197E+00  2.35952E+00  1.20687E+00
   4.79126E+00  5.36139E+00  3.62168E+00  3.10726E+00  2.91640E+00  1.21903E+00  3.49179E+00  4.28058E+00  2.22129E+00  3.56328E+00
   1.67764E+00  2.04693E+00  1.93315E+00  2.53228E+00  1.66794E+00  4.09685E+00  2.77674E+00  2.05017E+00  5.46035E-01  1.72957E+00
   2.42822E+00  1.17735E+00  3.96549E-01  2.89190E+00  1.41083E+00  4.76079E+00  3.88738E+00  3.27200E+00  4.15690E+00  1.48021E+00
   1.56820E-01  1.46887E+00  1.14208E+00  2.39937E+00  3.60119E+00  2.26989E+00  9.39365E-01  2.65750E+00  1.71093E+00  1.77126E+00
   2.84535E+00  2.96549E+00  1.26765E+00  2.67355E+00  3.36832E+00  8.34115E-01  2.91188E+00  1.40947E+00  2.98614E+00  1.97458E+00
   3.79103E+00  6.76894E-02  6.67518E-01  3.82744E+00  1.39359E+00  6.47559E-01  1.79128E+00  1.58816E+00  4.78799E+00  1.97698E+00
   2.88714E+00  1.14779E+00  8.29136E-01  1.51215E+00  2.52421E+00  2.73270E+00  2.24393E+00  3.00435E+00  2.47011E+00  2.46588E+00
   9.30519E-01  1.34354E+00  2.09052E+00  1.47671E+00  1.44729E+00  1.10959E+00  1.40778E+00  1.44732E+00  2.78141E+00  6.77511E-01
   2.45594E+00  3.38867E+00  1.64280E-01  1.76178E+00 -8.17081E-01  1.25281E+00  2.12477E+00  1.48039E+00  3.24043E+00  2.74562E+00
   2.30918E+00  6.42446E-02  1.12943E+00  3.05507E+00 -3.75218E-02  5.56110E-01  1.80683E+00  1.60505E+00  1.20881E+00  2.26520E+00
  -2.54032E-01  1.91674E+00  1.17436E+00  1.56397E+00  1.36636E+00  2.89449E+00 -1.18183E+00  1.93363E+00 -3.13479E-01  3.19180E+00
   3.47385E-01  1.44060E+00  2.98619E+00  1.99729E-01 -1.46865E+00  1.09004E+00 -1.13572E+00 -1.51056E-01  1.37424E+00  5.32818E-01
   1.41864E+00  7.47142E-01  2.80039E-01  8.42258E-01  2.25390E+00  1.21333E+00  1.30431E+00  2.47916E-01  6.00524E-01  5.44175E-01
  -7.28824E-01  1.52402E+00  9.78482E-01  3.75168E-01 -3.89168E-01  9.23351E-01  2.52418E+00  2.48434E+00  1.85113E+00  2.76587E-01
   2.51561E+00  1.57950E+00  3.56925E+00  1.24775E+00  1.39019E+00  1.48968E+00  2.06679E+00 -1.73108E-01  4.33406E+00  3.22342E+00
   2.47979E+00  1.98254E+00  3.82816E+00  4.45317E+00  4.27836E+00  3.02192E+00  2.64724E+00  4.07433E+00  4.39887E+00  3.26439E+00
   1.11879E+00  4.57391E-01  1.65047E+00  8.25400E-01  2.12749E+00  2.67725E+00  1.56565E+00  2.03974E+00  2.52332E+00  3.83448E+00
   3.92275E+00  2.45173E+00  2.55813E+00  4.46247E+00  3.16124E+00  2.94531E+00  3.86982E+00  4.22386E+00  4.92728E+00  5.19564E+00
   2.64482E+00  4.69685E+00  4.18207E+00  3.32979E+00  2.16719E+00  5.79042E+00  4.90472E+00  2.53277E+00  4.71423E+00  2.69463E+00
   3.33489E+00  4.31028E+00  4.28907E+00  5.64306E+00  4.47891E+00  5.98284E+00  1.92277E+00  5.54847E+00  4.68673E+00  4.29302E+00
   6.12222E+00  4.27524E+00  6.10705E+00  5.63728E+00  3.38166E+00  5.58049E+00  7.90427E+00  6.04114E+00  4.92896E+00  5.81617E+00
   5.37658E+00  7.97406E+00  4.94876E+00  6.17773E+00  7.69176E+00  9.39091E+00  7.06637E+00  9.30253E+00  1.29251E+01  1.27419E+01
   1.07234E+01  1.35392E+01  1.55855E+01  1.60002E+01  1.71769E+01  2.08823E+01  2.36146E+01  2.28030E+01  2.66037E+01  2.85357E+01
   3.23508E+01  3.26767E+01  3.71858E+01  3.81434E+01  4.07486E+01  4.45504E+01  4.50889E+01  4.83326E+01  5.02345E+01  5.21863E+01
   5.50809E+01  5.38122E+01  5.70653E+01  5.83759E+01  5.87751E+01  6.10997E+01  6.00131E+01  6.00956E+01  5.93015E+01  5.98186E+01
   5.96981E+01  5.97680E+01  5.96747E+01  5.94851E+01  5.73021E+01  5.67713E+01  5.40145E+01  5.34863E+01  5.27683E+01  5.36606E+01
   5.21157E+01  4.83711E+01  4.87977E+01  4.92534E+01  4.51556E+01  4.55639E+01  4.27795E+01  4.03767E+01  4.04153E+01  4.03432E+01
   3.91640E+01  3.56320E+01  3.46991E+01  3.41689E+01  3.16406E+01  3.10534E+01  2.77337E+01  2.85406E+01  2.46928E+01  2.50100E+01
   2.45633E+01  2.15130E+01  2.33982E+01  2.11461E+01  1.98034E+01  2.05140E+01  1.74502E+01  1.59083E+01  1.66743E+01  1.56638E+01
   1.35262E+01  1.36010E+01  1.14446E+01  1.10023E+01  9.46354E+00  9.46070E+00  8.41994E+00  9.94000E+00  7.72533E+00  8.35976E+00
   6.05720E+00  7.54244E+00  3.18815E+00  5.08185E+00  4.01030E+00  7.08770E+00  4.16968E+00  1.98784E+00  9.01045E-01  2.66710E+00
   2.32180E+00  2.51374E+00  2.64658E+00  2.04530E+00  5.01692E-01 -2.50909E+00 -3.35256E+00 -1.34391E+00  2.23057E-01 -2.24328E+00
  -1.34599E+00 -2.14001E+00 -3.59580E+00 -2.77708E+00 -3.15534E+00 -2.19772E-01 -3.00282E+00 -3.91194E+00 -3.25694E+00 -3.57751E+00
  -3.48243E+00 -5.56651E+00 -3.80518E+00 -3.74954E+00 -6.03095E+00 -5.93676E+00 -5.02473E+00 -5.78337E+00 -7.82431E+00 -6.70359E+00
  -5.18850E+00 -6.59720E+00 -5.47816E+00 -6.23386E+00 -4.02112E+00 -5.38646E+00 -6.87093E+00 -7.36211E+00 -6.11481E+00 -5.26880E+00
  -6.14501E+00 -6.15820E+00 -7.39330E+00 -9.79178E+00 -4.96174E+00 -7.64028E+00 -6.97768E+00 -6.25963E+00 -6.04425E+00 -9.27331E+00
  -6.94156E+00 -6.18472E+00 -7.48134E+00 -7.47201E+00 -7.79148E+00 -7.11520E+00 -6.60023E+00 -8.26211E+00 -7.64156E+00 -6.92219E+00
  -7.98042E+00 -6.99599E+00 -6.66336E+00 -7.04721E+00 -7.64058E+00 -5.70767E+00 -9.30467E+00 -6.01061E+00 -7.76380E+00 -6.04627E+00
  -5.47690E+00 -8.82254E+00 -5.32917E+00 -4.18435E+00 -7.07612E+00 -7.94104E+00 -5.62367E+00 -5.77081E+00
 NY points of the fit to the data follow
   6.50187E+00  6.48236E+00  6.39752E+00  6.38981E+00  6.29507E+00  6.31823E+00  6.23687E+00  6.33396E+00  6.23307E+00  6.38459E+00
   6.22875E+00  6.40651E+00  6.18400E+00  6.35713E+00  6.03569E+00  6.25683E+00  5.88291E+00  6.15711E+00  5.73507E+00  6.05760E+00
   5.63621E+00  6.03338E+00  5.63473E+00  6.08829E+00  5.68708E+00  6.12346E+00  5.67247E+00  6.00126E+00  5.50064E+00  5.73295E+00
   5.28280E+00  5.49093E+00  5.17642E+00  5.40346E+00  5.22611E+00  5.42424E+00  5.33171E+00  5.45429E+00  5.39798E+00  5.41498E+00
   5.36494E+00  5.31879E+00  5.30077E+00  5.21149E+00  5.19135E+00  5.07832E+00  5.07180E+00  4.95982E+00  4.93939E+00  4.82571E+00
   4.79161E+00  4.69708E+00  4.66782E+00  4.57829E+00  4.53615E+00  4.47880E+00  4.45166E+00  4.40394E+00  4.36848E+00  4.32159E+00
   4.28253E+00  4.23155E+00  4.18953E+00  4.13871E+00  4.10196E+00  4.05379E+00  4.02070E+00  3.97428E+00  3.94399E+00  3.89897E+00
   3.87088E+00  3.82542E+00  3.79785E+00  3.75143E+00  3.72447E+00  3.67699E+00  3.64971E+00  3.60137E+00  3.57398E+00  3.52501E+00
   3.49713E+00  3.44883E+00  3.42101E+00  3.37381E+00  3.34600E+00  3.29917E+00  3.27048E+00  3.22452E+00  3.19509E+00  3.15095E+00
   3.12167E+00  3.08043E+00  3.05189E+00  3.01427E+00  2.98739E+00  2.95296E+00  2.92654E+00  2.89517E+00  2.86916E+00  2.84000E+00
   2.81385E+00  2.78633E+00  2.76040E+00  2.73428E+00  2.70972E+00  2.68453E+00  2.66159E+00  2.63801E+00  2.62167E+00  2.60822E+00
   2.59456E+00  2.59090E+00  2.57724E+00  2.58448E+00  2.56910E+00  2.58850E+00  2.56802E+00  2.59824E+00  2.56996E+00  2.60761E+00
   2.56979E+00  2.61083E+00  2.56717E+00  2.61478E+00  2.56664E+00  2.62082E+00  2.56710E+00  2.62419E+00  2.56269E+00  2.61404E+00
   2.54542E+00  2.58370E+00  2.51306E+00  2.53643E+00  2.47114E+00  2.48302E+00  2.42682E+00  2.42866E+00  2.38577E+00  2.38347E+00
   2.35410E+00  2.35023E+00  2.33303E+00  2.32903E+00  2.32242E+00  2.32071E+00  2.32000E+00  2.31824E+00  2.32136E+00  2.32129E+00
   2.32245E+00  2.31925E+00  2.31661E+00  2.30955E+00  2.30171E+00  2.29013E+00  2.27545E+00  2.25757E+00  2.23451E+00  2.20965E+00
   2.18017E+00  2.14949E+00  2.11427E+00  2.07800E+00  2.03794E+00  1.99779E+00  1.95427E+00  1.91072E+00  1.86470E+00  1.81656E+00
   1.77130E+00  1.72080E+00  1.67788E+00  1.62655E+00  1.58782E+00  1.53731E+00  1.50514E+00  1.45695E+00  1.43303E+00  1.38899E+00
   1.37302E+00  1.33540E+00  1.32516E+00  1.29426E+00  1.28855E+00  1.26757E+00  1.26874E+00  1.26079E+00  1.27106E+00  1.27402E+00
   1.28108E+00  1.30078E+00  1.28253E+00  1.31250E+00  1.26090E+00  1.30286E+00  1.22438E+00  1.30117E+00  1.23307E+00  1.37567E+00
   1.28196E+00  1.48757E+00  1.35481E+00  1.61062E+00  1.39696E+00  1.66566E+00  1.34548E+00  1.64871E+00  1.20442E+00  1.52961E+00
   9.80017E-01  1.32531E+00  7.63540E-01  1.16102E+00  6.34378E-01  1.09583E+00  6.02250E-01  1.09580E+00  5.75422E-01  1.00856E+00
   4.49599E-01  7.99708E-01  2.59990E-01  5.48801E-01  1.27176E-01  3.97240E-01  1.34935E-01  4.06475E-01  3.17598E-01  5.56944E-01
   5.87611E-01  7.64207E-01  8.70689E-01  9.78889E-01  1.12026E+00  1.15802E+00  1.29900E+00  1.27741E+00  1.41930E+00  1.33447E+00
   1.43075E+00  1.28655E+00  1.41864E+00  1.28213E+00  1.45082E+00  1.33497E+00  1.55622E+00  1.49673E+00  1.74043E+00  1.72768E+00
   1.96285E+00  1.98725E+00  2.19045E+00  2.24544E+00  2.38798E+00  2.45791E+00  2.56287E+00  2.65167E+00  2.72190E+00  2.81404E+00
   2.84558E+00  2.93771E+00  2.90015E+00  2.97766E+00  2.85105E+00  2.90345E+00  2.69617E+00  2.73453E+00  2.48772E+00  2.51339E+00
   2.25811E+00  2.28542E+00  2.07462E+00  2.11477E+00  1.96974E+00  2.03813E+00  1.98127E+00  2.08028E+00  2.11619E+00  2.24722E+00
   2.34365E+00  2.49493E+00  2.65851E+00  2.83359E+00  3.02056E+00  3.20251E+00  3.39903E+00  3.57613E+00  3.75816E+00  3.91720E+00
   4.07162E+00  4.19906E+00  4.31457E+00  4.40031E+00  4.46712E+00  4.50571E+00  4.52488E+00  4.51891E+00  4.49488E+00  4.45178E+00
   4.39710E+00  4.33286E+00  4.26650E+00  4.20210E+00  4.14952E+00  4.11505E+00  4.11304E+00  4.16079E+00  4.30654E+00  4.58061E+00
   4.70552E+00  5.07447E+00  5.11765E+00  5.54557E+00  5.45511E+00  5.88811E+00  5.54961E+00  6.12703E+00  5.69930E+00  6.38291E+00
   5.93556E+00  6.72831E+00  6.44429E+00  7.51994E+00  7.46111E+00  8.79348E+00  8.94071E+00  1.03935E+01  1.07032E+01  1.20694E+01
   1.25611E+01  1.39421E+01  1.48796E+01  1.64587E+01  1.80580E+01  1.99351E+01  2.21784E+01  2.41868E+01  2.69298E+01  2.89411E+01
   3.18613E+01  3.37462E+01  3.66325E+01  3.84645E+01  4.12646E+01  4.30655E+01  4.56469E+01  4.74489E+01  4.98946E+01  5.17195E+01
   5.38196E+01  5.54052E+01  5.70258E+01  5.82362E+01  5.92809E+01  5.99017E+01  6.02850E+01  6.04405E+01  6.03876E+01  6.01672E+01
   5.98206E+01  5.93804E+01  5.88654E+01  5.82811E+01  5.76218E+01  5.68759E+01  5.60302E+01  5.50744E+01  5.40035E+01  5.28193E+01
   5.15303E+01  5.01506E+01  4.86985E+01  4.71949E+01  4.56613E+01  4.41185E+01  4.25852E+01  4.10771E+01  3.96063E+01  3.81808E+01
   3.68045E+01  3.54774E+01  3.41964E+01  3.29556E+01  3.17473E+01  3.05629E+01  2.93938E+01  2.82323E+01  2.70720E+01  2.59090E+01
   2.47412E+01  2.35696E+01  2.23971E+01  2.12291E+01  2.00720E+01  1.89338E+01  1.78224E+01  1.67457E+01  1.57105E+01  1.47224E+01
   1.37853E+01  1.29013E+01  1.20705E+01  1.12911E+01  1.05597E+01  9.87201E+00  9.22232E+00  8.60482E+00  8.01337E+00  7.44234E+00
   6.88649E+00  6.34166E+00  5.80443E+00  5.27270E+00  4.74520E+00  4.22188E+00  3.70329E+00  3.19093E+00  2.68652E+00  2.19234E+00
   1.71053E+00  1.24341E+00  7.92873E-01  3.60747E-01 -5.17518E-02 -4.43560E-01 -8.14276E-01 -1.16363E+00 -1.49198E+00 -1.79970E+00
  -2.08770E+00 -2.35680E+00 -2.60822E+00 -2.84299E+00 -3.06245E+00 -3.26766E+00 -3.45994E+00 -3.64025E+00 -3.80979E+00 -3.96940E+00
  -4.12010E+00 -4.26258E+00 -4.39770E+00 -4.52599E+00 -4.64817E+00 -4.76464E+00 -4.87601E+00 -4.98257E+00 -5.08482E+00 -5.18296E+00
  -5.27744E+00 -5.36838E+00 -5.45616E+00 -5.54087E+00 -5.62283E+00 -5.70210E+00 -5.77896E+00 -5.85343E+00 -5.92578E+00 -5.99600E+00
  -6.06432E+00 -6.13074E+00 -6.19546E+00 -6.25845E+00 -6.31992E+00 -6.37982E+00 -6.43834E+00 -6.49543E+00 -6.55126E+00 -6.60578E+00
  -6.65916E+00 -6.71131E+00 -6.76243E+00 -6.81241E+00 -6.86144E+00 -6.90941E+00 -6.95650E+00 -7.00262E+00 -7.04791E+00 -7.09229E+00
  -7.13590E+00 -7.17865E+00 -7.22070E+00 -7.26193E+00 -7.30250E+00 -7.34231E+00 -7.38149E+00 -7.41995E+00 -7.45782E+00 -7.49499E+00
  -7.53162E+00 -7.56758E+00 -7.60301E+00 -7.63780E+00 -7.67209E+00 -7.70576E+00 -7.73893E+00 -7.77148E+00
 NY background values follow
     6.694E+00    6.655E+00    6.615E+00    6.576E+00    6.537E+00    6.497E+00    6.458E+00    6.419E+00    6.380E+00    6.341E+00
     6.302E+00    6.263E+00    6.224E+00    6.185E+00    6.146E+00    6.107E+00    6.069E+00    6.030E+00    5.992E+00    5.953E+00
     5.915E+00    5.876E+00    5.838E+00    5.800E+00    5.762E+00    5.724E+00    5.686E+00    5.648E+00    5.610E+00    5.573E+00
     5.535E+00    5.498E+00    5.460E+00    5.423E+00    5.386E+00    5.349E+00    5.312E+00    5.275E+00    5.238E+00    5.201E+00
     5.165E+00    5.128E+00    5.092E+00    5.056E+00    5.020E+00    4.984E+00    4.948E+00    4.912E+00    4.877E+00    4.841E+00
     4.806E+00    4.771E+00    4.736E+00    4.701E+00    4.666E+00    4.631E+00    4.597E+00    4.563E+00    4.528E+00    4.494E+00
     4.460E+00    4.427E+00    4.393E+00    4.360E+00    4.326E+00    4.293E+00    4.260E+00    4.227E+00    4.195E+00    4.162E+00
     4.130E+00    4.098E+00    4.066E+00    4.034E+00    4.002E+00    3.971E+00    3.940E+00    3.909E+00    3.878E+00    3.847E+00
     3.817E+00    3.786E+00    3.756E+00    3.726E+00    3.696E+00    3.667E+00    3.638E+00    3.608E+00    3.579E+00    3.551E+00
     3.522E+00    3.494E+00    3.466E+00    3.438E+00    3.410E+00    3.383E+00    3.356E+00    3.329E+00    3.302E+00    3.275E+00
     3.249E+00    3.223E+00    3.197E+00    3.171E+00    3.146E+00    3.121E+00    3.095E+00    3.071E+00    3.046E+00    3.021E+00
     2.997E+00    2.973E+00    2.949E+00    2.925E+00    2.902E+00    2.878E+00    2.855E+00    2.832E+00    2.809E+00    2.786E+00
     2.763E+00    2.741E+00    2.718E+00    2.696E+00    2.674E+00    2.652E+00    2.630E+00    2.608E+00    2.586E+00    2.564E+00
     2.543E+00    2.521E+00    2.500E+00    2.479E+00    2.457E+00    2.436E+00    2.415E+00    2.394E+00    2.373E+00    2.352E+00
     2.331E+00    2.310E+00    2.289E+00    2.268E+00    2.247E+00    2.227E+00    2.206E+00    2.185E+00    2.164E+00    2.144E+00
     2.123E+00    2.102E+00    2.081E+00    2.060E+00    2.040E+00    2.019E+00    1.998E+00    1.977E+00    1.956E+00    1.935E+00
     1.914E+00    1.893E+00    1.872E+00    1.851E+00    1.829E+00    1.808E+00    1.787E+00    1.765E+00    1.743E+00    1.722E+00
     1.700E+00    1.678E+00    1.656E+00    1.634E+00    1.612E+00    1.589E+00    1.567E+00    1.544E+00    1.522E+00    1.499E+00
     1.476E+00    1.453E+00    1.429E+00    1.406E+00    1.382E+00    1.359E+00    1.335E+00    1.310E+00    1.286E+00    1.262E+00
     1.237E+00    1.212E+00    1.187E+00    1.162E+00    1.136E+00    1.111E+00    1.085E+00    1.059E+00    1.032E+00    1.006E+00
     9.787E-01    9.517E-01    9.244E-01    8.969E-01    8.691E-01    8.412E-01    8.130E-01    7.846E-01    7.560E-01    7.271E-01
     6.981E-01    6.688E-01    6.394E-01    6.097E-01    5.798E-01    5.498E-01    5.195E-01    4.890E-01    4.584E-01    4.275E-01
     3.965E-01    3.653E-01    3.339E-01    3.023E-01    2.705E-01    2.386E-01    2.065E-01    1.742E-01    1.417E-01    1.091E-01
     7.626E-02    4.330E-02    1.017E-02   -2.311E-02   -5.655E-02   -9.015E-02   -1.239E-01   -1.578E-01   -1.918E-01   -2.260E-01
    -2.604E-01   -2.948E-01   -3.295E-01   -3.642E-01   -3.991E-01   -4.341E-01   -4.693E-01   -5.045E-01   -5.399E-01   -5.755E-01
    -6.111E-01   -6.469E-01   -6.827E-01   -7.187E-01   -7.548E-01   -7.910E-01   -8.274E-01   -8.638E-01   -9.003E-01   -9.369E-01
    -9.737E-01   -1.010E+00   -1.047E+00   -1.084E+00   -1.121E+00   -1.159E+00   -1.196E+00   -1.233E+00   -1.271E+00   -1.308E+00
    -1.346E+00   -1.383E+00   -1.421E+00   -1.459E+00   -1.497E+00   -1.535E+00   -1.573E+00   -1.611E+00   -1.649E+00   -1.687E+00
    -1.725E+00   -1.763E+00   -1.802E+00   -1.840E+00   -1.878E+00   -1.917E+00   -1.955E+00   -1.994E+00   -2.032E+00   -2.071E+00
    -2.109E+00   -2.148E+00   -2.187E+00   -2.225E+00   -2.264E+00   -2.303E+00   -2.342E+00   -2.380E+00   -2.419E+00   -2.458E+00
    -2.497E+00   -2.535E+00   -2.574E+00   -2.613E+00   -2.652E+00   -2.690E+00   -2.729E+00   -2.768E+00   -2.807E+00   -2.845E+00
    -2.884E+00   -2.923E+00   -2.962E+00   -3.000E+00   -3.039E+00   -3.078E+00   -3.116E+00   -3.155E+00   -3.194E+00   -3.232E+00
    -3.271E+00   -3.309E+00   -3.348E+00   -3.386E+00   -3.425E+00   -3.463E+00   -3.502E+00   -3.540E+00   -3.578E+00   -3.617E+00
    -3.655E+00   -3.693E+00   -3.731E+00   -3.769E+00   -3.807E+00   -3.845E+00   -3.883E+00   -3.921E+00   -3.959E+00   -3.997E+00
    -4.035E+00   -4.072E+00   -4.110E+00   -4.148E+00   -4.185E+00   -4.223E+00   -4.260E+00   -4.297E+00   -4.335E+00   -4.372E+00
    -4.409E+00   -4.446E+00   -4.483E+00   -4.520E+00   -4.557E+00   -4.594E+00   -4.630E+00   -4.667E+00   -4.703E+00   -4.740E+00
    -4.776E+00   -4.812E+00   -4.848E+00   -4.885E+00   -4.920E+00   -4.956E+00   -4.992E+00   -5.028E+00   -5.063E+00   -5.099E+00
    -5.134E+00   -5.170E+00   -5.205E+00   -5.240E+00   -5.275E+00   -5.310E+00   -5.344E+00   -5.379E+00   -5.413E+00   -5.448E+00
    -5.482E+00   -5.516E+00   -5.550E+00   -5.584E+00   -5.618E+00   -5.652E+00   -5.685E+00   -5.719E+00   -5.752E+00   -5.785E+00
    -5.818E+00   -5.851E+00   -5.884E+00   -5.916E+00   -5.949E+00   -5.981E+00   -6.013E+00   -6.045E+00   -6.077E+00   -6.109E+00
    -6.141E+00   -6.172E+00   -6.203E+00   -6.235E+00   -6.266E+00   -6.297E+00   -6.327E+00   -6.358E+00   -6.388E+00   -6.419E+00
    -6.449E+00   -6.479E+00   -6.509E+00   -6.538E+00   -6.568E+00   -6.597E+00   -6.627E+00   -6.656E+00   -6.685E+00   -6.714E+00
    -6.742E+00   -6.771E+00   -6.799E+00   -6.828E+00   -6.856E+00   -6.884E+00   -6.912E+00   -6.939E+00   -6.967E+00   -6.994E+00
    -7.022E+00   -7.049E+00   -7.076E+00   -7.103E+00   -7.129E+00   -7.156E+00   -7.182E+00   -7.209E+00   -7.235E+00   -7.261E+00
    -7.287E+00   -7.312E+00   -7.338E+00   -7.363E+00   -7.389E+00   -7.414E+00   -7.439E+00   -7.464E+00   -7.489E+00   -7.513E+00
    -7.538E+00   -7.562E+00   -7.586E+00   -7.610E+00   -7.634E+00   -7.658E+00   -7.681E+00   -7.705E+00   -7.728E+00   -7.752E+00
    -7.775E+00   -7.798E+00   -7.820E+00   -7.843E+00   -7.866E+00   -7.888E+00   -7.910E+00   -7.932E+00   -7.954E+00   -7.976E+00
    -7.998E+00   -8.019E+00   -8.041E+00   -8.062E+00   -8.083E+00   -8.104E+00   -8.125E+00   -8.146E+00   -8.167E+00   -8.187E+00
    -8.207E+00   -8.228E+00   -8.248E+00   -8.268E+00   -8.287E+00   -8.307E+00   -8.327E+00   -8.346E+00   -8.365E+00   -8.384E+00
    -8.403E+00   -8.422E+00   -8.441E+00   -8.460E+00   -8.478E+00   -8.496E+00   -8.515E+00   -8.533E+00
 Ala      Conc. = 1.34E+03
