 LCModel (Version 6.3-1L) Copyright: S.W. Provencher.          Ref.: Magn. Reson. Med. 30:672-679 (1993).                
 Slice#1 Row#4 Col#2  K_02_press_1_raw_act
 36 lines in following concentration table = NCONC+1
    Conc.  %SD /Cr+PCr  Metabolite                                         
    0.000 999%   0.000 Ala                                                 
    6.505  77%   0.123 Asp                                                 
    0.000 999%   0.000 Cr                                                  
   53.074  45%   1.000 PCr                                                 
    3.823  78% 7.2E-02 GABA                                                
    3.902  77% 7.4E-02 Glc                                                 
   80.925 147%   1.525 Gln                                                 
  190.755  68%   3.594 Glu                                                 
    6.589 147%   0.124 GPC                                                 
    0.000 999%   0.000 PCh                                                 
  125.016  31%   2.356 GSH                                                 
    0.000 999%   0.000 Ins                                                 
    0.859 999% 1.6E-02 Lac                                                 
   44.861  78%   0.845 NAA                                                 
   11.901 310%   0.224 NAAG                                                
    1.233  81% 2.3E-02 Scyllo                                              
    6.041  82%   0.114 Tau                                                 
    0.000 999%   0.000 -CrCH2                                              
    6.589 147%   0.124 GPC+PCh                                             
   56.762  65%   1.070 NAA+NAAG                                            
   53.074  45%   1.000 Cr+PCr                                              
  271.679  65%   5.119 Glu+Gln                                             
  232.426  65%   4.379 Lip13a                                              
    0.000 999%   0.000 Lip13b                                              
   93.789  74%   1.767 Lip09                                               
  176.662  48%   3.329 MM09                                                
   33.181 142%   0.625 Lip20                                               
  182.014  82%   3.429 MM20                                                
   58.780 102%   1.108 MM12                                                
    0.000 999%   0.000 MM14                                                
    0.000 999%   0.000 MM17                                                
  232.426  65%   4.379 Lip13a+Lip13b                                       
  291.206  48%   5.487 MM14+Lip13a+Lip13b+MM12                             
  270.451  29%   5.096 MM09+Lip09                                          
  215.194  70%   4.055 MM20+Lip20                                          
   6 lines in following misc. output table
  FWHM = 0.061 ppm    S/N =   1                                            
  Data shift = 0.176 ppm                                                   
  Ph: 133 deg      14.2 deg/ppm                                            
  alphaB,S = 7.6E-01,   4.6E+01                                            
   14 spline knots.   Ns = 5(1)                                            
  ( 4) 2 infls.   ( 1) 1 extrs.                                            
  498 points on ppm-axis = NY
      4.000000     3.992357     3.984714     3.977070     3.969427     3.961784     3.954141     3.946497     3.938854     3.931211
      3.923568     3.915925     3.908281     3.900638     3.892995     3.885352     3.877708     3.870065     3.862422     3.854779
      3.847136     3.839492     3.831849     3.824206     3.816563     3.808919     3.801276     3.793633     3.785990     3.778347
      3.770703     3.763060     3.755417     3.747774     3.740130     3.732487     3.724844     3.717201     3.709558     3.701914
      3.694271     3.686628     3.678985     3.671341     3.663698     3.656055     3.648412     3.640769     3.633125     3.625482
      3.617839     3.610196     3.602552     3.594909     3.587266     3.579623     3.571980     3.564336     3.556693     3.549050
      3.541407     3.533763     3.526120     3.518477     3.510834     3.503191     3.495547     3.487904     3.480261     3.472618
      3.464974     3.457331     3.449688     3.442045     3.434402     3.426758     3.419115     3.411472     3.403829     3.396185
      3.388542     3.380899     3.373256     3.365613     3.357969     3.350326     3.342683     3.335040     3.327396     3.319753
      3.312110     3.304467     3.296824     3.289180     3.281537     3.273894     3.266251     3.258607     3.250964     3.243321
      3.235678     3.228034     3.220391     3.212748     3.205105     3.197462     3.189818     3.182175     3.174532     3.166889
      3.159245     3.151602     3.143959     3.136316     3.128673     3.121029     3.113386     3.105743     3.098100     3.090456
      3.082813     3.075170     3.067527     3.059884     3.052240     3.044597     3.036954     3.029311     3.021667     3.014024
      3.006381     2.998738     2.991095     2.983451     2.975808     2.968165     2.960522     2.952878     2.945235     2.937592
      2.929949     2.922306     2.914662     2.907019     2.899376     2.891733     2.884089     2.876446     2.868803     2.861160
      2.853517     2.845873     2.838230     2.830587     2.822944     2.815300     2.807657     2.800014     2.792371     2.784728
      2.777084     2.769441     2.761798     2.754155     2.746511     2.738868     2.731225     2.723582     2.715939     2.708295
      2.700652     2.693009     2.685366     2.677722     2.670079     2.662436     2.654793     2.647150     2.639506     2.631863
      2.624220     2.616577     2.608933     2.601290     2.593647     2.586004     2.578361     2.570717     2.563074     2.555431
      2.547788     2.540144     2.532501     2.524858     2.517215     2.509572     2.501928     2.494285     2.486642     2.478999
      2.471355     2.463712     2.456069     2.448426     2.440783     2.433139     2.425496     2.417853     2.410210     2.402566
      2.394923     2.387280     2.379637     2.371994     2.364350     2.356707     2.349064     2.341421     2.333777     2.326134
      2.318491     2.310848     2.303205     2.295561     2.287918     2.280275     2.272632     2.264988     2.257345     2.249702
      2.242059     2.234416     2.226772     2.219129     2.211486     2.203843     2.196199     2.188556     2.180913     2.173270
      2.165627     2.157983     2.150340     2.142697     2.135054     2.127410     2.119767     2.112124     2.104481     2.096838
      2.089194     2.081551     2.073908     2.066265     2.058621     2.050978     2.043335     2.035692     2.028049     2.020405
      2.012762     2.005119     1.997476     1.989833     1.982190     1.974546     1.966903     1.959260     1.951617     1.943974
      1.936331     1.928688     1.921045     1.913402     1.905759     1.898115     1.890472     1.882829     1.875186     1.867543
      1.859900     1.852257     1.844614     1.836971     1.829327     1.821684     1.814041     1.806398     1.798755     1.791112
      1.783469     1.775826     1.768183     1.760540     1.752896     1.745253     1.737610     1.729967     1.722324     1.714681
      1.707038     1.699395     1.691752     1.684108     1.676465     1.668822     1.661179     1.653536     1.645893     1.638250
      1.630607     1.622964     1.615321     1.607677     1.600034     1.592391     1.584748     1.577105     1.569462     1.561819
      1.554176     1.546533     1.538890     1.531246     1.523603     1.515960     1.508317     1.500674     1.493031     1.485388
      1.477745     1.470102     1.462458     1.454815     1.447172     1.439529     1.431886     1.424243     1.416600     1.408957
      1.401314     1.393671     1.386027     1.378384     1.370741     1.363098     1.355455     1.347812     1.340169     1.332526
      1.324883     1.317240     1.309596     1.301953     1.294310     1.286667     1.279024     1.271381     1.263738     1.256095
      1.248452     1.240808     1.233165     1.225522     1.217879     1.210236     1.202593     1.194950     1.187307     1.179664
      1.172021     1.164377     1.156734     1.149091     1.141448     1.133805     1.126162     1.118519     1.110876     1.103233
      1.095590     1.087946     1.080303     1.072660     1.065017     1.057374     1.049731     1.042088     1.034445     1.026802
      1.019158     1.011515     1.003872     0.996229     0.988586     0.980943     0.973300     0.965657     0.958014     0.950371
      0.942727     0.935084     0.927441     0.919798     0.912155     0.904512     0.896869     0.889226     0.881583     0.873940
      0.866296     0.858653     0.851010     0.843367     0.835724     0.828081     0.820438     0.812795     0.805152     0.797508
      0.789865     0.782222     0.774579     0.766936     0.759293     0.751650     0.744007     0.736364     0.728721     0.721077
      0.713434     0.705791     0.698148     0.690505     0.682862     0.675219     0.667576     0.659933     0.652290     0.644646
      0.637003     0.629360     0.621717     0.614074     0.606431     0.598788     0.591145     0.583502     0.575858     0.568215
      0.560572     0.552929     0.545286     0.537643     0.530000     0.522357     0.514714     0.507071     0.499427     0.491784
      0.484141     0.476498     0.468855     0.461212     0.453569     0.445925     0.438282     0.430639     0.422996     0.415353
      0.407710     0.400067     0.392424     0.384780     0.377137     0.369494     0.361851     0.354208     0.346565     0.338922
      0.331278     0.323635     0.315992     0.308349     0.300706     0.293063     0.285420     0.277777     0.270133     0.262490
      0.254847     0.247204     0.239561     0.231918     0.224275     0.216631     0.208988     0.201345
 NY phased data points follow
   2.93150E+01  3.08012E+01  2.85575E+01  2.50844E+01  2.46409E+01  2.81892E+01  2.41063E+01  2.62621E+01  2.54831E+01  2.75356E+01
   3.07220E+01  2.58931E+01  2.51845E+01  2.28993E+01  2.26614E+01  2.34292E+01  2.44162E+01  2.13452E+01  2.75680E+01  2.04864E+01
   2.34538E+01  1.89393E+01  2.12375E+01  2.53210E+01  2.20445E+01  2.51742E+01  2.62522E+01  2.27920E+01  2.35281E+01  2.22521E+01
   2.25272E+01  1.65820E+01  2.20436E+01  2.14496E+01  2.23517E+01  1.83504E+01  2.11837E+01  2.06959E+01  2.03008E+01  1.78563E+01
   1.90777E+01  1.80843E+01  1.58468E+01  1.45503E+01  1.80788E+01  1.94431E+01  1.46312E+01  1.60209E+01  1.60479E+01  1.61886E+01
   1.94269E+01  1.49285E+01  1.73066E+01  1.48936E+01  1.61877E+01  1.75324E+01  1.29957E+01  1.82404E+01  1.37006E+01  1.50945E+01
   1.24988E+01  1.59052E+01  1.24950E+01  1.18130E+01  1.22296E+01  1.31222E+01  1.48251E+01  1.63775E+01  1.60810E+01  1.50304E+01
   1.58636E+01  1.25118E+01  1.22962E+01  1.19396E+01  1.26635E+01  1.08006E+01  9.87749E+00  1.62530E+01  1.14435E+01  1.27967E+01
   1.42149E+01  1.33910E+01  1.34985E+01  1.13925E+01  1.13500E+01  1.05023E+01  1.25936E+01  1.13560E+01  1.24261E+01  8.44061E+00
   1.12132E+01  1.34701E+01  1.04234E+01  1.02288E+01  1.16805E+01  1.12065E+01  9.61557E+00  9.89328E+00  1.14973E+01  1.11023E+01
   1.21342E+01  1.00608E+01  1.01031E+01  1.48606E+01  9.00163E+00  1.38674E+01  9.89419E+00  8.21182E+00  9.77295E+00  6.68202E+00
   1.37613E+01  1.15254E+01  9.95098E+00  8.30813E+00  8.45249E+00  1.13651E+01  1.00640E+01  8.59488E+00  7.83745E+00  8.75466E+00
   9.19508E+00  8.18204E+00  6.67685E+00  1.17237E+01  7.59990E+00  5.01599E+00  1.31120E+01  1.18703E+01  8.16916E+00  8.82170E+00
   5.29783E+00  4.75289E+00  6.12757E+00  6.98612E+00  9.93653E+00  8.90203E+00  7.04955E+00  7.06626E+00  8.40244E+00  6.29932E+00
   1.03617E+01  5.90343E+00  8.07404E+00  7.77843E+00  4.38815E+00  7.61442E+00  4.40181E+00  6.80529E+00  5.28978E+00  6.14456E+00
   8.44312E+00  5.12375E+00  8.41989E+00  6.51806E+00  5.33271E+00  6.00052E+00  8.90645E+00  3.61501E+00  3.95231E+00  4.90007E+00
   5.87389E+00  5.99779E+00  5.38006E+00  8.10580E+00  1.15892E+00  5.10965E+00  4.36054E+00  3.62946E+00  5.50105E+00  3.95402E+00
   6.91298E+00  5.93515E+00  3.44497E+00  4.12596E+00  4.66003E+00  4.88333E+00  5.43102E+00  5.87931E+00  2.10259E+00  7.40109E+00
   2.10548E+00  6.19677E+00  4.81222E+00  3.79203E+00  2.24324E+00  5.00163E+00  2.02568E+00  2.47162E+00  3.27234E+00  3.96555E+00
   6.74631E+00 -3.07362E-01  4.07935E+00  6.43820E+00  4.37655E+00  2.82590E+00  2.68825E+00  4.74799E+00  3.46663E+00  1.53917E-01
   3.15152E+00  4.16187E+00  7.66376E+00  2.73194E+00  7.63789E+00  5.66957E+00  3.62887E+00  4.63717E+00  3.60152E+00  9.70056E-01
   3.91838E+00  3.07437E+00  3.61452E+00  4.16137E+00  3.35982E+00  4.70421E+00  4.68278E+00  4.91794E+00  2.58830E+00  2.98157E+00
   7.57624E-01  2.25715E+00  2.06658E+00  2.63805E+00  1.93944E+00  1.74197E+00 -6.86588E-01  5.07923E+00  4.10376E+00  4.50365E+00
  -3.92397E-01  1.86989E+00  1.63247E+00  2.07873E+00  1.57409E-01 -1.64748E+00  2.35677E+00  6.96963E+00  5.13702E+00  3.45404E+00
  -6.56448E-01 -1.01671E+00 -1.00296E+00  1.03373E+00  6.98857E-01  1.06866E+00  5.51814E+00  4.23483E+00  1.67510E+00  8.67683E-01
   1.28103E+00  3.02992E+00  3.10525E+00 -2.22613E-01  3.62705E-01  1.02836E+00  2.20629E+00  2.67735E+00  4.58717E-01  2.48083E+00
   2.20234E+00  2.07656E+00 -2.30370E+00  7.09201E-01 -5.95089E-01 -5.18090E-01  2.13764E+00 -3.24333E+00  2.28127E+00 -3.36696E+00
  -9.42150E-01 -4.63598E+00 -2.55425E+00 -1.54311E+00 -2.44384E+00 -4.45300E+00 -2.15437E+00 -8.81985E-01 -8.32101E-01 -4.32280E+00
   1.57179E+00 -2.59046E+00  1.43721E+00  2.15133E+00  2.17150E+00 -2.05789E-01  2.16717E-01 -3.80957E+00  3.65991E-01 -5.42917E-01
   1.95631E+00 -1.61282E+00 -4.28995E+00 -4.36475E+00 -2.45515E+00  2.30772E-01 -1.38323E+00  1.22137E-01 -2.09606E+00 -1.06385E+00
  -3.34644E+00 -9.53846E-01 -8.72742E-01 -1.94082E+00 -2.62768E+00  2.18865E+00  4.40363E-01  4.42331E-01  7.65007E-01  8.41795E-01
   7.61979E-01  2.82746E+00  4.85709E+00 -4.45833E-01  1.77805E-01 -1.99684E+00 -3.59430E+00 -1.17740E+00 -1.23872E+00 -4.68302E+00
  -1.22400E+00 -2.84475E+00 -3.30072E+00 -1.79562E+00 -6.61408E-01 -3.00063E+00 -8.82681E-01  2.53350E+00  2.61174E+00  8.91231E-01
   2.05558E+00 -8.36583E-01 -1.62234E+00 -4.18086E-01 -8.69484E-01  1.50475E+00  1.51895E+00 -1.47840E+00  1.65414E+00  3.95487E-01
   4.32158E+00 -7.24222E-01 -1.49425E+00 -1.65793E+00  2.76594E+00 -4.36177E+00  6.10387E-01 -1.63775E+00 -8.81696E-02 -1.47501E+00
   1.09497E+00 -2.94287E+00 -1.46843E+00  1.75996E-01 -1.75389E+00 -1.34663E+00 -2.84628E+00 -7.40065E-01 -3.66028E-01  2.76633E+00
  -1.17677E+00  1.57336E+00 -6.14391E-01  7.62523E-01 -2.10124E+00 -7.52252E-01  2.32257E+00  2.90771E-01 -5.35851E-01 -1.06466E+00
  -1.56688E-01 -5.88609E+00  8.81716E-02  4.63767E-01 -5.08556E-01 -2.43929E+00 -1.42520E+00  7.96429E-01 -1.39723E+00 -1.18695E+00
  -2.11380E+00 -5.89141E+00 -4.96003E-01  5.51784E-01  1.07930E-01  2.41836E+00 -2.03167E+00 -1.82514E+00  6.06820E-01 -1.64589E+00
  -2.48378E+00 -4.95293E-02 -1.69150E-01 -2.46814E+00 -4.70512E-01 -4.34811E+00 -1.48667E+00 -8.41399E-01 -3.50176E+00 -3.94640E-01
   1.04096E-01 -8.35773E-01 -4.04307E+00 -9.50811E-01  6.62053E-01 -3.99618E-01  1.41108E+00 -1.01900E+00 -3.15029E+00  4.73301E-02
  -3.40165E+00 -2.52102E+00  1.53750E-01  3.58193E-01 -3.38696E+00  1.99333E+00 -1.93479E+00 -3.09876E+00 -1.39520E+00  9.51615E-04
  -2.72865E+00 -5.20002E+00 -1.47285E+00 -1.15630E+00 -4.36804E+00 -1.09442E+00 -2.01440E+00 -2.97506E+00 -4.28881E+00 -3.11130E+00
  -2.44903E+00 -1.19039E+00 -3.52515E+00 -1.85876E+00 -3.72714E+00 -2.23799E+00 -4.82205E+00 -1.87733E+00 -2.40612E+00 -7.22561E+00
   1.65692E-01 -1.12006E+00 -4.18054E+00 -2.62616E+00 -3.81967E+00 -3.35803E+00 -4.50968E+00 -3.16902E+00 -1.40174E-01 -1.57296E+00
   2.43829E+00  2.08696E+00 -2.75515E+00 -2.66711E+00 -4.26422E+00 -4.91030E-01 -6.62809E-01 -4.80410E-01 -3.28101E+00 -3.79750E+00
  -6.63199E+00 -2.95518E+00 -9.27437E-01 -4.84488E+00 -3.04937E+00  4.26585E-01 -4.39236E-01 -2.88334E+00 -4.08245E+00 -3.85286E+00
  -3.03248E+00 -2.73473E+00 -3.75744E+00 -4.29356E+00 -5.11066E+00 -3.42424E+00  7.97866E-01 -5.79260E+00  5.20715E-01 -2.04331E+00
   2.12829E+00 -1.48906E+00 -3.67289E+00 -4.47607E+00 -2.05308E+00 -3.31773E+00 -3.07835E+00 -3.97840E+00 -2.29121E+00 -4.15105E+00
  -1.81013E+00 -3.95857E+00 -2.45191E+00 -4.08236E-01 -9.96084E-01 -5.39932E+00 -3.28178E+00 -2.27088E+00
 NY points of the fit to the data follow
   2.48687E+01  2.47622E+01  2.46760E+01  2.46426E+01  2.46917E+01  2.47542E+01  2.47793E+01  2.47625E+01  2.46988E+01  2.45628E+01
   2.43290E+01  2.39929E+01  2.35747E+01  2.31267E+01  2.27330E+01  2.24789E+01  2.23688E+01  2.22985E+01  2.22233E+01  2.21282E+01
   2.20248E+01  2.19221E+01  2.18208E+01  2.17280E+01  2.17534E+01  2.20118E+01  2.23385E+01  2.26298E+01  2.28849E+01  2.30672E+01
   2.30581E+01  2.27475E+01  2.21269E+01  2.12157E+01  2.01264E+01  1.90987E+01  1.84159E+01  1.81354E+01  1.80201E+01  1.80159E+01
   1.80930E+01  1.81816E+01  1.82114E+01  1.81469E+01  1.80047E+01  1.78055E+01  1.75948E+01  1.74109E+01  1.72508E+01  1.71045E+01
   1.69668E+01  1.68321E+01  1.66985E+01  1.65656E+01  1.64312E+01  1.62962E+01  1.61635E+01  1.60345E+01  1.59075E+01  1.57821E+01
   1.56581E+01  1.55360E+01  1.54156E+01  1.52952E+01  1.51746E+01  1.50530E+01  1.49308E+01  1.48088E+01  1.46871E+01  1.45663E+01
   1.44486E+01  1.43347E+01  1.42224E+01  1.41104E+01  1.39977E+01  1.38831E+01  1.37662E+01  1.36468E+01  1.35260E+01  1.34057E+01
   1.32900E+01  1.31850E+01  1.30895E+01  1.29961E+01  1.28994E+01  1.27981E+01  1.26909E+01  1.25771E+01  1.24568E+01  1.23320E+01
   1.22065E+01  1.20863E+01  1.19782E+01  1.18862E+01  1.18048E+01  1.17304E+01  1.16687E+01  1.16383E+01  1.16517E+01  1.16654E+01
   1.16488E+01  1.15999E+01  1.15195E+01  1.13980E+01  1.12256E+01  1.10038E+01  1.07460E+01  1.04815E+01  1.02574E+01  1.01157E+01
   1.00503E+01  9.99948E+00  9.94560E+00  9.89050E+00  9.83354E+00  9.77386E+00  9.71574E+00  9.66440E+00  9.62506E+00  9.60918E+00
   9.63917E+00  9.76879E+00  9.99676E+00  1.02033E+01  1.03368E+01  1.03980E+01  1.03715E+01  1.02259E+01  9.94994E+00  9.52429E+00
   8.94888E+00  8.32487E+00  7.79770E+00  7.46401E+00  7.27815E+00  7.10462E+00  6.95985E+00  6.88366E+00  6.90408E+00  7.03937E+00
   7.25374E+00  7.43023E+00  7.46702E+00  7.35875E+00  7.13847E+00  6.86204E+00  6.60461E+00  6.40052E+00  6.26304E+00  6.16104E+00
   6.06472E+00  5.97489E+00  5.89246E+00  5.81747E+00  5.75149E+00  5.69562E+00  5.64506E+00  5.59330E+00  5.53775E+00  5.47517E+00
   5.40300E+00  5.32096E+00  5.23950E+00  5.16923E+00  5.10777E+00  5.04978E+00  4.99117E+00  4.92880E+00  4.86313E+00  4.79634E+00
   4.72746E+00  4.65632E+00  4.58480E+00  4.51194E+00  4.43735E+00  4.35979E+00  4.28088E+00  4.20807E+00  4.14923E+00  4.10210E+00
   4.05304E+00  4.00081E+00  3.95084E+00  3.91744E+00  3.92083E+00  3.97102E+00  4.05597E+00  4.14868E+00  4.21504E+00  4.23489E+00
   4.19340E+00  4.05933E+00  3.81245E+00  3.50526E+00  3.22472E+00  3.02708E+00  2.95546E+00  3.03354E+00  3.24082E+00  3.51497E+00
   3.78091E+00  3.97067E+00  4.01916E+00  3.89138E+00  3.60595E+00  3.23765E+00  2.90713E+00  2.66227E+00  2.51484E+00  2.48042E+00
   2.58040E+00  2.82869E+00  3.13759E+00  3.40046E+00  3.55008E+00  3.53783E+00  3.30800E+00  2.85631E+00  2.31682E+00  1.82951E+00
   1.48280E+00  1.33408E+00  1.42533E+00  1.73497E+00  2.12826E+00  2.50221E+00  2.77590E+00  2.89882E+00  2.85797E+00  2.67498E+00
   2.44668E+00  2.28545E+00  2.24409E+00  2.27814E+00  2.32631E+00  2.34881E+00  2.31634E+00  2.17783E+00  1.91059E+00  1.61225E+00
   1.38951E+00  1.26581E+00  1.24365E+00  1.34764E+00  1.56780E+00  1.80208E+00  1.96824E+00  2.05249E+00  2.05702E+00  1.97811E+00
   1.86004E+00  1.78976E+00  1.78529E+00  1.81643E+00  1.89091E+00  2.04779E+00  2.19297E+00  2.21441E+00  2.11422E+00  1.93965E+00
   1.70598E+00  1.40603E+00  1.04826E+00  6.30754E-01  1.66006E-01 -2.56496E-01 -5.12057E-01 -5.59194E-01 -5.22642E-01 -4.88784E-01
  -4.54485E-01 -4.20325E-01 -3.95871E-01 -3.78619E-01 -3.64332E-01 -3.62240E-01 -3.77247E-01 -4.07870E-01 -4.49345E-01 -4.93584E-01
  -5.29344E-01 -5.52560E-01 -5.67070E-01 -5.76882E-01 -5.84101E-01 -5.90534E-01 -5.98439E-01 -6.09510E-01 -6.22755E-01 -6.35610E-01
  -6.47408E-01 -6.58207E-01 -6.67974E-01 -6.77135E-01 -6.86450E-01 -6.96184E-01 -7.06096E-01 -7.15871E-01 -7.25084E-01 -7.33336E-01
  -7.40711E-01 -7.47415E-01 -7.53617E-01 -7.59503E-01 -7.65333E-01 -7.71316E-01 -7.77388E-01 -7.83229E-01 -7.88692E-01 -7.93629E-01
  -7.97911E-01 -8.01590E-01 -8.04725E-01 -8.07302E-01 -8.09288E-01 -8.10633E-01 -8.11298E-01 -8.11243E-01 -8.10425E-01 -8.08806E-01
  -8.06353E-01 -8.03032E-01 -7.98798E-01 -7.93605E-01 -7.87413E-01 -7.80186E-01 -7.71895E-01 -7.62517E-01 -7.52037E-01 -7.40456E-01
  -7.27798E-01 -7.14107E-01 -6.99456E-01 -6.83952E-01 -6.67739E-01 -6.51004E-01 -6.33986E-01 -6.16968E-01 -6.00283E-01 -5.84307E-01
  -5.69453E-01 -5.56158E-01 -5.45152E-01 -5.37976E-01 -5.35341E-01 -5.37257E-01 -5.43968E-01 -5.55906E-01 -5.73201E-01 -5.95255E-01
  -6.21014E-01 -6.50500E-01 -6.83973E-01 -7.21680E-01 -7.64481E-01 -8.13626E-01 -8.68730E-01 -9.28798E-01 -9.92855E-01 -1.05956E+00
  -1.12703E+00 -1.19308E+00 -1.25621E+00 -1.31652E+00 -1.37371E+00 -1.42712E+00 -1.47611E+00 -1.52017E+00 -1.55886E+00 -1.59185E+00
  -1.61894E+00 -1.64000E+00 -1.65499E+00 -1.66396E+00 -1.66703E+00 -1.66435E+00 -1.65613E+00 -1.64263E+00 -1.62410E+00 -1.60084E+00
  -1.57319E+00 -1.54150E+00 -1.50616E+00 -1.46761E+00 -1.42635E+00 -1.38298E+00 -1.33815E+00 -1.29267E+00 -1.24745E+00 -1.20352E+00
  -1.16206E+00 -1.12437E+00 -1.09187E+00 -1.06603E+00 -1.04837E+00 -1.04037E+00 -1.04343E+00 -1.05879E+00 -1.08744E+00 -1.13008E+00
  -1.18701E+00 -1.25812E+00 -1.34287E+00 -1.44022E+00 -1.54873E+00 -1.66653E+00 -1.79143E+00 -1.92102E+00 -2.05273E+00 -2.18395E+00
  -2.31218E+00 -2.43508E+00 -2.55058E+00 -2.65697E+00 -2.75290E+00 -2.83743E+00 -2.91004E+00 -2.97059E+00 -3.01929E+00 -3.05663E+00
  -3.08336E+00 -3.10038E+00 -3.10871E+00 -3.10943E+00 -3.10363E+00 -3.09235E+00 -3.07658E+00 -3.05721E+00 -3.03505E+00 -3.01078E+00
  -2.98500E+00 -2.95820E+00 -2.93077E+00 -2.90304E+00 -2.87524E+00 -2.84757E+00 -2.82015E+00 -2.79309E+00 -2.76644E+00 -2.74025E+00
  -2.71453E+00 -2.68928E+00 -2.66450E+00 -2.64017E+00 -2.61628E+00 -2.59279E+00 -2.56969E+00 -2.54694E+00 -2.52453E+00 -2.50243E+00
  -2.48060E+00 -2.45903E+00 -2.43770E+00 -2.41657E+00 -2.39563E+00 -2.37486E+00 -2.35424E+00 -2.33375E+00 -2.31337E+00 -2.29310E+00
  -2.27291E+00 -2.25279E+00 -2.23273E+00 -2.21271E+00 -2.19272E+00 -2.17275E+00 -2.15279E+00 -2.13283E+00 -2.11285E+00 -2.09286E+00
  -2.07284E+00 -2.05279E+00 -2.03268E+00 -2.01253E+00 -1.99231E+00 -1.97203E+00 -1.95167E+00 -1.93124E+00 -1.91071E+00 -1.89010E+00
  -1.86939E+00 -1.84857E+00 -1.82764E+00 -1.80659E+00 -1.78543E+00 -1.76414E+00 -1.74271E+00 -1.72115E+00 -1.69944E+00 -1.67758E+00
  -1.65557E+00 -1.63339E+00 -1.61104E+00 -1.58851E+00 -1.56581E+00 -1.54291E+00 -1.51980E+00 -1.49649E+00
 NY background values follow
     2.432E+01    2.416E+01    2.401E+01    2.386E+01    2.370E+01    2.355E+01    2.340E+01    2.324E+01    2.309E+01    2.294E+01
     2.279E+01    2.263E+01    2.248E+01    2.233E+01    2.218E+01    2.203E+01    2.188E+01    2.173E+01    2.158E+01    2.143E+01
     2.128E+01    2.113E+01    2.098E+01    2.083E+01    2.068E+01    2.053E+01    2.039E+01    2.024E+01    2.009E+01    1.994E+01
     1.980E+01    1.965E+01    1.951E+01    1.936E+01    1.922E+01    1.907E+01    1.893E+01    1.878E+01    1.864E+01    1.850E+01
     1.836E+01    1.821E+01    1.807E+01    1.793E+01    1.779E+01    1.765E+01    1.751E+01    1.737E+01    1.723E+01    1.710E+01
     1.696E+01    1.682E+01    1.668E+01    1.655E+01    1.641E+01    1.628E+01    1.614E+01    1.601E+01    1.587E+01    1.574E+01
     1.561E+01    1.548E+01    1.535E+01    1.521E+01    1.508E+01    1.495E+01    1.483E+01    1.470E+01    1.457E+01    1.444E+01
     1.431E+01    1.419E+01    1.406E+01    1.394E+01    1.381E+01    1.369E+01    1.357E+01    1.344E+01    1.332E+01    1.320E+01
     1.308E+01    1.296E+01    1.284E+01    1.272E+01    1.260E+01    1.248E+01    1.237E+01    1.225E+01    1.213E+01    1.202E+01
     1.190E+01    1.179E+01    1.168E+01    1.156E+01    1.145E+01    1.134E+01    1.123E+01    1.112E+01    1.101E+01    1.090E+01
     1.079E+01    1.069E+01    1.058E+01    1.047E+01    1.037E+01    1.026E+01    1.016E+01    1.005E+01    9.952E+00    9.849E+00
     9.747E+00    9.646E+00    9.546E+00    9.446E+00    9.347E+00    9.248E+00    9.150E+00    9.052E+00    8.955E+00    8.859E+00
     8.764E+00    8.669E+00    8.574E+00    8.480E+00    8.387E+00    8.294E+00    8.202E+00    8.111E+00    8.020E+00    7.930E+00
     7.840E+00    7.751E+00    7.662E+00    7.574E+00    7.487E+00    7.400E+00    7.314E+00    7.228E+00    7.143E+00    7.059E+00
     6.975E+00    6.891E+00    6.808E+00    6.726E+00    6.644E+00    6.563E+00    6.482E+00    6.402E+00    6.323E+00    6.244E+00
     6.165E+00    6.087E+00    6.010E+00    5.933E+00    5.856E+00    5.781E+00    5.705E+00    5.630E+00    5.556E+00    5.482E+00
     5.409E+00    5.336E+00    5.263E+00    5.192E+00    5.120E+00    5.049E+00    4.979E+00    4.909E+00    4.839E+00    4.770E+00
     4.702E+00    4.634E+00    4.566E+00    4.499E+00    4.433E+00    4.366E+00    4.301E+00    4.235E+00    4.171E+00    4.106E+00
     4.042E+00    3.979E+00    3.916E+00    3.853E+00    3.791E+00    3.729E+00    3.668E+00    3.607E+00    3.546E+00    3.486E+00
     3.427E+00    3.368E+00    3.309E+00    3.251E+00    3.193E+00    3.135E+00    3.078E+00    3.021E+00    2.965E+00    2.909E+00
     2.854E+00    2.799E+00    2.744E+00    2.690E+00    2.636E+00    2.583E+00    2.530E+00    2.477E+00    2.425E+00    2.373E+00
     2.321E+00    2.270E+00    2.220E+00    2.169E+00    2.119E+00    2.070E+00    2.021E+00    1.972E+00    1.924E+00    1.876E+00
     1.828E+00    1.781E+00    1.734E+00    1.687E+00    1.641E+00    1.595E+00    1.550E+00    1.505E+00    1.460E+00    1.416E+00
     1.372E+00    1.328E+00    1.285E+00    1.242E+00    1.200E+00    1.158E+00    1.116E+00    1.074E+00    1.033E+00    9.926E-01
     9.522E-01    9.122E-01    8.725E-01    8.332E-01    7.942E-01    7.556E-01    7.173E-01    6.794E-01    6.418E-01    6.045E-01
     5.676E-01    5.311E-01    4.948E-01    4.590E-01    4.234E-01    3.882E-01    3.533E-01    3.188E-01    2.846E-01    2.508E-01
     2.173E-01    1.841E-01    1.512E-01    1.187E-01    8.651E-02    5.464E-02    2.311E-02   -8.095E-03   -3.897E-02   -6.953E-02
    -9.976E-02   -1.297E-01   -1.592E-01   -1.885E-01   -2.175E-01   -2.461E-01   -2.744E-01   -3.024E-01   -3.301E-01   -3.575E-01
    -3.846E-01   -4.114E-01   -4.379E-01   -4.641E-01   -4.899E-01   -5.156E-01   -5.409E-01   -5.659E-01   -5.906E-01   -6.151E-01
    -6.393E-01   -6.632E-01   -6.868E-01   -7.101E-01   -7.332E-01   -7.560E-01   -7.785E-01   -8.008E-01   -8.228E-01   -8.445E-01
    -8.660E-01   -8.872E-01   -9.081E-01   -9.288E-01   -9.493E-01   -9.695E-01   -9.894E-01   -1.009E+00   -1.029E+00   -1.048E+00
    -1.067E+00   -1.085E+00   -1.104E+00   -1.122E+00   -1.140E+00   -1.158E+00   -1.176E+00   -1.193E+00   -1.210E+00   -1.227E+00
    -1.243E+00   -1.260E+00   -1.276E+00   -1.292E+00   -1.308E+00   -1.323E+00   -1.339E+00   -1.354E+00   -1.369E+00   -1.383E+00
    -1.398E+00   -1.412E+00   -1.426E+00   -1.440E+00   -1.453E+00   -1.467E+00   -1.480E+00   -1.493E+00   -1.505E+00   -1.518E+00
    -1.530E+00   -1.543E+00   -1.554E+00   -1.566E+00   -1.578E+00   -1.589E+00   -1.600E+00   -1.611E+00   -1.622E+00   -1.632E+00
    -1.643E+00   -1.653E+00   -1.663E+00   -1.673E+00   -1.682E+00   -1.692E+00   -1.701E+00   -1.710E+00   -1.719E+00   -1.727E+00
    -1.736E+00   -1.744E+00   -1.752E+00   -1.760E+00   -1.768E+00   -1.775E+00   -1.783E+00   -1.790E+00   -1.797E+00   -1.804E+00
    -1.810E+00   -1.817E+00   -1.823E+00   -1.829E+00   -1.835E+00   -1.840E+00   -1.846E+00   -1.851E+00   -1.856E+00   -1.861E+00
    -1.866E+00   -1.871E+00   -1.875E+00   -1.879E+00   -1.883E+00   -1.887E+00   -1.891E+00   -1.894E+00   -1.897E+00   -1.900E+00
    -1.903E+00   -1.906E+00   -1.909E+00   -1.911E+00   -1.913E+00   -1.915E+00   -1.917E+00   -1.918E+00   -1.920E+00   -1.921E+00
    -1.922E+00   -1.923E+00   -1.924E+00   -1.924E+00   -1.924E+00   -1.925E+00   -1.925E+00   -1.924E+00   -1.924E+00   -1.923E+00
    -1.922E+00   -1.921E+00   -1.920E+00   -1.919E+00   -1.917E+00   -1.916E+00   -1.914E+00   -1.911E+00   -1.909E+00   -1.907E+00
    -1.904E+00   -1.901E+00   -1.898E+00   -1.895E+00   -1.891E+00   -1.888E+00   -1.884E+00   -1.880E+00   -1.875E+00   -1.871E+00
    -1.866E+00   -1.861E+00   -1.856E+00   -1.851E+00   -1.846E+00   -1.840E+00   -1.834E+00   -1.828E+00   -1.822E+00   -1.816E+00
    -1.809E+00   -1.802E+00   -1.795E+00   -1.788E+00   -1.781E+00   -1.773E+00   -1.765E+00   -1.757E+00   -1.749E+00   -1.741E+00
    -1.732E+00   -1.723E+00   -1.714E+00   -1.705E+00   -1.696E+00   -1.686E+00   -1.676E+00   -1.666E+00   -1.656E+00   -1.645E+00
    -1.635E+00   -1.624E+00   -1.613E+00   -1.602E+00   -1.590E+00   -1.579E+00   -1.567E+00   -1.555E+00   -1.542E+00   -1.530E+00
    -1.517E+00   -1.504E+00   -1.491E+00   -1.478E+00   -1.464E+00   -1.451E+00   -1.437E+00   -1.423E+00   -1.408E+00   -1.394E+00
    -1.379E+00   -1.364E+00   -1.349E+00   -1.334E+00   -1.318E+00   -1.302E+00   -1.286E+00   -1.270E+00   -1.254E+00   -1.237E+00
    -1.220E+00   -1.203E+00   -1.186E+00   -1.169E+00   -1.151E+00   -1.133E+00   -1.115E+00   -1.097E+00
 Asp      Conc. = 6.51E+00
