 LCModel (Version 6.3-1L) Copyright: S.W. Provencher.          Ref.: Magn. Reson. Med. 30:672-679 (1993).                
 Slice#2 Row#5 Col#9  K_02_press_1_raw_act
 36 lines in following concentration table = NCONC+1
    Conc.  %SD /Cr+PCr  Metabolite                                         
    0.000 999%   0.000 Ala                                                 
    0.000 999%   0.000 Asp                                                 
 1.33E+03  18%   0.561 Cr                                                  
 1.04E+03  24%   0.439 PCr                                                 
    0.000 999%   0.000 GABA                                                
    0.000 999%   0.000 Glc                                                 
  466.912  51%   0.196 Gln                                                 
 2.30E+03  12%   0.969 Glu                                                 
  943.841   3%   0.397 GPC                                                 
    0.000 999%   0.000 PCh                                                 
  555.514  15%   0.234 GSH                                                 
 1.86E+03  16%   0.781 Ins                                                 
  306.582  42%   0.129 Lac                                                 
 3.25E+03   5%   1.368 NAA                                                 
  207.435  74% 8.7E-02 NAAG                                                
   15.275 221% 6.4E-03 Scyllo                                              
    0.000 999%   0.000 Tau                                                 
   11.464 999% 4.8E-03 -CrCH2                                              
  943.841   3%   0.397 GPC+PCh                                             
 3.46E+03   3%   1.456 NAA+NAAG                                            
 2.38E+03   3%   1.000 Cr+PCr                                              
 2.77E+03  13%   1.165 Glu+Gln                                             
 7.38E+03  23%   3.103 Lip13a                                              
    0.000 999%   0.000 Lip13b                                              
 2.34E+03  26%   0.984 Lip09                                               
 2.44E+03  27%   1.028 MM09                                                
 1.52E+03  20%   0.641 Lip20                                               
 2.96E+03  23%   1.244 MM20                                                
  460.827 167%   0.194 MM12                                                
 3.26E+03  22%   1.370 MM14                                                
 1.31E+03  34%   0.551 MM17                                                
 7.38E+03  23%   3.103 Lip13a+Lip13b                                       
 1.11E+04  11%   4.667 MM14+Lip13a+Lip13b+MM12                             
 4.78E+03  11%   2.012 MM09+Lip09                                          
 4.48E+03  14%   1.884 MM20+Lip20                                          
   6 lines in following misc. output table
  FWHM = 0.038 ppm    S/N =  16                                            
  Data shift = 0.015 ppm                                                   
  Ph:  -6 deg      -3.2 deg/ppm                                            
  alphaB,S = 9.0E-01,   9.9E+01                                            
   14 spline knots.   Ns = 6(1)                                            
  ( 7) 3 infls.   ( 3) 1 extrs.                                            
  498 points on ppm-axis = NY
      4.000000     3.992357     3.984714     3.977070     3.969427     3.961784     3.954141     3.946497     3.938854     3.931211
      3.923568     3.915925     3.908281     3.900638     3.892995     3.885352     3.877708     3.870065     3.862422     3.854779
      3.847136     3.839492     3.831849     3.824206     3.816563     3.808919     3.801276     3.793633     3.785990     3.778347
      3.770703     3.763060     3.755417     3.747774     3.740130     3.732487     3.724844     3.717201     3.709558     3.701914
      3.694271     3.686628     3.678985     3.671341     3.663698     3.656055     3.648412     3.640769     3.633125     3.625482
      3.617839     3.610196     3.602552     3.594909     3.587266     3.579623     3.571980     3.564336     3.556693     3.549050
      3.541407     3.533763     3.526120     3.518477     3.510834     3.503191     3.495547     3.487904     3.480261     3.472618
      3.464974     3.457331     3.449688     3.442045     3.434402     3.426758     3.419115     3.411472     3.403829     3.396185
      3.388542     3.380899     3.373256     3.365613     3.357969     3.350326     3.342683     3.335040     3.327396     3.319753
      3.312110     3.304467     3.296824     3.289180     3.281537     3.273894     3.266251     3.258607     3.250964     3.243321
      3.235678     3.228034     3.220391     3.212748     3.205105     3.197462     3.189818     3.182175     3.174532     3.166889
      3.159245     3.151602     3.143959     3.136316     3.128673     3.121029     3.113386     3.105743     3.098100     3.090456
      3.082813     3.075170     3.067527     3.059884     3.052240     3.044597     3.036954     3.029311     3.021667     3.014024
      3.006381     2.998738     2.991095     2.983451     2.975808     2.968165     2.960522     2.952878     2.945235     2.937592
      2.929949     2.922306     2.914662     2.907019     2.899376     2.891733     2.884089     2.876446     2.868803     2.861160
      2.853517     2.845873     2.838230     2.830587     2.822944     2.815300     2.807657     2.800014     2.792371     2.784728
      2.777084     2.769441     2.761798     2.754155     2.746511     2.738868     2.731225     2.723582     2.715939     2.708295
      2.700652     2.693009     2.685366     2.677722     2.670079     2.662436     2.654793     2.647150     2.639506     2.631863
      2.624220     2.616577     2.608933     2.601290     2.593647     2.586004     2.578361     2.570717     2.563074     2.555431
      2.547788     2.540144     2.532501     2.524858     2.517215     2.509572     2.501928     2.494285     2.486642     2.478999
      2.471355     2.463712     2.456069     2.448426     2.440783     2.433139     2.425496     2.417853     2.410210     2.402566
      2.394923     2.387280     2.379637     2.371994     2.364350     2.356707     2.349064     2.341421     2.333777     2.326134
      2.318491     2.310848     2.303205     2.295561     2.287918     2.280275     2.272632     2.264988     2.257345     2.249702
      2.242059     2.234416     2.226772     2.219129     2.211486     2.203843     2.196199     2.188556     2.180913     2.173270
      2.165627     2.157983     2.150340     2.142697     2.135054     2.127410     2.119767     2.112124     2.104481     2.096838
      2.089194     2.081551     2.073908     2.066265     2.058621     2.050978     2.043335     2.035692     2.028049     2.020405
      2.012762     2.005119     1.997476     1.989833     1.982190     1.974546     1.966903     1.959260     1.951617     1.943974
      1.936331     1.928688     1.921045     1.913402     1.905759     1.898115     1.890472     1.882829     1.875186     1.867543
      1.859900     1.852257     1.844614     1.836971     1.829327     1.821684     1.814041     1.806398     1.798755     1.791112
      1.783469     1.775826     1.768183     1.760540     1.752896     1.745253     1.737610     1.729967     1.722324     1.714681
      1.707038     1.699395     1.691752     1.684108     1.676465     1.668822     1.661179     1.653536     1.645893     1.638250
      1.630607     1.622964     1.615321     1.607677     1.600034     1.592391     1.584748     1.577105     1.569462     1.561819
      1.554176     1.546533     1.538890     1.531246     1.523603     1.515960     1.508317     1.500674     1.493031     1.485388
      1.477745     1.470102     1.462458     1.454815     1.447172     1.439529     1.431886     1.424243     1.416600     1.408957
      1.401314     1.393671     1.386027     1.378384     1.370741     1.363098     1.355455     1.347812     1.340169     1.332526
      1.324883     1.317240     1.309596     1.301953     1.294310     1.286667     1.279024     1.271381     1.263738     1.256095
      1.248452     1.240808     1.233165     1.225522     1.217879     1.210236     1.202593     1.194950     1.187307     1.179664
      1.172021     1.164377     1.156734     1.149091     1.141448     1.133805     1.126162     1.118519     1.110876     1.103233
      1.095590     1.087946     1.080303     1.072660     1.065017     1.057374     1.049731     1.042088     1.034445     1.026802
      1.019158     1.011515     1.003872     0.996229     0.988586     0.980943     0.973300     0.965657     0.958014     0.950371
      0.942727     0.935084     0.927441     0.919798     0.912155     0.904512     0.896869     0.889226     0.881583     0.873940
      0.866296     0.858653     0.851010     0.843367     0.835724     0.828081     0.820438     0.812795     0.805152     0.797508
      0.789865     0.782222     0.774579     0.766936     0.759293     0.751650     0.744007     0.736364     0.728721     0.721077
      0.713434     0.705791     0.698148     0.690505     0.682862     0.675219     0.667576     0.659933     0.652290     0.644646
      0.637003     0.629360     0.621717     0.614074     0.606431     0.598788     0.591145     0.583502     0.575858     0.568215
      0.560572     0.552929     0.545286     0.537643     0.530000     0.522357     0.514714     0.507071     0.499427     0.491784
      0.484141     0.476498     0.468855     0.461212     0.453569     0.445925     0.438282     0.430639     0.422996     0.415353
      0.407710     0.400067     0.392424     0.384780     0.377137     0.369494     0.361851     0.354208     0.346565     0.338922
      0.331278     0.323635     0.315992     0.308349     0.300706     0.293063     0.285420     0.277777     0.270133     0.262490
      0.254847     0.247204     0.239561     0.231918     0.224275     0.216631     0.208988     0.201345
 NY phased data points follow
   7.38804E+00  4.38637E+00  1.15301E+01  1.09704E+01  1.73409E+01  2.13363E+01  2.83813E+01  3.90151E+01  5.03597E+01  6.05672E+01
   6.47188E+01  6.75512E+01  5.84836E+01  5.03232E+01  4.09110E+01  2.78551E+01  1.46475E+01  1.35494E+01  1.40381E+01  6.70843E+00
   6.23760E+00  4.65661E+00  8.82750E+00  7.05116E+00  1.36916E+01  1.17686E+01  1.77069E+01  1.57405E+01  1.80046E+01  1.77102E+01
   1.65474E+01  2.09441E+01  2.43263E+01  2.08697E+01  2.33054E+01  1.64215E+01  1.87442E+01  1.10877E+01  7.32960E+00  1.68745E+01
   1.04049E+01  1.22091E+01  1.15847E+01  2.00023E+01  1.79016E+01  1.97214E+01  3.03605E+01  3.06950E+01  2.97619E+01  2.59525E+01
   2.62472E+01  1.65170E+01  1.39037E+01  1.55843E+01  1.16537E+01  1.47086E+01  1.58767E+01  1.73009E+01  1.55148E+01  1.28417E+01
   9.65944E+00  5.81308E+00  2.12067E+00 -3.71445E-01 -1.25384E+00 -2.48132E+00 -5.39224E+00  1.12894E+00 -1.39949E+00 -1.25576E+00
   3.14941E+00  3.24665E+00  1.55544E+00  1.79007E+00 -5.66702E-01  1.60697E+00  2.37720E+00  1.67681E+00  4.81482E+00 -2.50485E+00
  -2.99598E-01  3.86721E+00 -3.47405E-01 -1.44195E+00  4.36313E+00  6.32312E+00 -1.11171E+00 -2.69053E+00 -1.77967E+00  1.57429E+00
   3.38171E+00  3.77210E+00  6.73694E+00  1.19630E+01  1.11422E+01  1.01760E+01  1.52887E+01  2.71675E+01  3.20667E+01  4.21907E+01
   5.45225E+01  7.77273E+01  1.01458E+02  9.69266E+01  9.11357E+01  7.49349E+01  5.27469E+01  2.54180E+01  2.13767E+01  9.84024E+00
   8.08234E+00  3.34888E+00  2.11585E+00  2.44100E+00  9.58629E+00 -1.42238E+00  2.67889E+00  6.59394E+00  1.16634E+01  9.66044E+00
   9.14726E+00  1.70511E+01  1.99171E+01  3.20118E+01  4.17895E+01  6.34328E+01  7.95868E+01  9.36932E+01  8.83723E+01  7.82309E+01
   5.48340E+01  3.84368E+01  1.88663E+01  1.37382E+01  1.14332E+01  4.08247E+00  4.23815E+00  1.80972E+00  4.25201E+00  3.75586E+00
   3.43555E+00  7.45791E+00  3.56734E+00  2.93038E+00  6.08413E+00  4.03898E+00 -1.59567E+00  5.39061E+00  8.44101E+00  4.67340E+00
   2.96411E+00  2.18205E+00 -2.14275E+00  4.62526E+00  3.82645E+00  1.98977E+00  6.85090E+00  1.80646E+00  8.70896E+00  4.43929E+00
   1.48314E+00 -4.17829E+00 -3.48644E-01 -5.76848E+00 -4.19723E+00  4.37485E+00  1.65766E+00  1.75552E+00 -1.18902E-01 -5.42724E+00
  -1.32663E+01 -1.03682E+01 -1.18968E+01 -1.49695E+01 -1.75059E+01 -2.11477E+01 -2.43262E+01 -1.45863E+01 -1.50650E+01 -1.18752E+01
  -1.31606E+01 -1.62533E+01 -1.33006E+01 -1.70576E+01 -1.76461E+01 -1.80807E+01 -1.37565E+01 -6.47778E+00 -8.94368E+00 -3.57997E-01
  -8.89218E-01  5.61604E+00  3.45422E+00  4.42911E+00  3.95258E+00  4.25180E+00  6.52591E+00  1.29487E-01 -9.74479E+00 -7.35480E+00
  -4.54862E+00 -5.73817E+00  2.61119E+00  8.59245E+00  4.10740E+00  2.06309E-01 -1.85766E+00 -9.39209E+00 -9.77514E+00 -1.00641E+01
  -9.63030E+00 -5.76209E+00  1.98236E+00  6.55826E-02  3.67951E+00  1.17503E+01  1.85014E+01  1.56151E+01  1.07933E+01  6.28423E+00
  -6.65149E+00 -1.56531E+01 -1.61487E+01 -9.63206E+00 -1.58558E+00  4.25412E+00  7.66569E+00  8.28037E+00  5.64298E+00  8.93855E+00
   9.24196E+00  9.60796E+00  4.98880E+00  5.62382E+00  5.81113E+00  5.90685E+00  4.42602E+00  2.37269E+00 -7.72498E-01  2.42376E+00
   6.34479E-01 -3.25407E+00 -4.00279E+00 -4.31710E+00  9.21795E+00  7.25525E+00  1.12112E+01  1.55183E+01  1.55447E+01  1.95702E+01
   1.77349E+01  2.82593E+01  2.32951E+01  3.85774E+01  4.91627E+01  5.56201E+01  5.62767E+01  7.02128E+01  9.78858E+01  1.35408E+02
   1.56405E+02  1.44737E+02  1.11844E+02  8.15748E+01  4.77487E+01  2.15815E+01  8.07889E+00  7.34371E+00  4.72299E+00  7.45694E+00
   8.21713E+00  2.83365E+00  7.54487E+00  1.45612E+01  6.76360E+00  1.09787E+00  6.60040E+00  2.73913E+00  6.59257E+00 -1.13860E+00
   1.32718E+00  2.63321E+00 -4.19724E+00  2.32207E+00 -5.58724E-01  3.89068E+00  2.51451E+00  7.78627E-01  6.85906E-01  1.96709E+00
   5.16493E+00  2.06177E+00  1.10679E+00  8.06845E-01  4.39145E+00  5.59649E+00  2.11175E+00  3.84467E+00  2.23575E+00  7.75626E+00
   9.83262E+00  8.39122E+00  1.02028E+01  1.28788E+01  1.93359E+01  1.65285E+01  1.90860E+01  1.75894E+01  2.17716E+01  1.79114E+01
   7.27257E+00  1.08259E+01  1.06615E+01  1.08106E+01  8.82314E+00  1.44885E+01  8.26785E+00  1.52292E+01  1.01200E+01  1.70625E+01
   1.96528E+01  2.00775E+01  1.88172E+01  2.45872E+01  2.06281E+01  2.24819E+01  2.29130E+01  2.64868E+01  2.93966E+01  3.09377E+01
   3.70893E+01  3.45001E+01  3.76810E+01  3.56075E+01  3.97862E+01  4.50926E+01  3.82677E+01  4.18603E+01  4.00593E+01  3.93295E+01
   3.65895E+01  3.68211E+01  4.04545E+01  4.21142E+01  4.36641E+01  3.98907E+01  3.71958E+01  3.37323E+01  2.95380E+01  2.81336E+01
   2.66513E+01  2.93549E+01  3.05089E+01  3.19843E+01  3.45182E+01  3.25898E+01  3.46898E+01  3.65359E+01  3.15355E+01  3.35867E+01
   3.49337E+01  2.98361E+01  3.37480E+01  3.45585E+01  3.73183E+01  3.37758E+01  3.21687E+01  3.37610E+01  3.48522E+01  2.80154E+01
   2.83277E+01  2.40417E+01  3.24482E+01  2.38217E+01  2.99679E+01  2.68513E+01  2.83823E+01  2.62402E+01  2.84133E+01  2.90734E+01
   3.44313E+01  3.38848E+01  2.99666E+01  3.11783E+01  2.66063E+01  2.62324E+01  2.70977E+01  2.96462E+01  2.82954E+01  2.93203E+01
   3.14931E+01  3.24728E+01  3.23357E+01  3.39261E+01  3.68580E+01  3.93873E+01  3.80298E+01  4.63451E+01  4.30409E+01  4.02697E+01
   4.39632E+01  4.04366E+01  4.42348E+01  3.83436E+01  4.12341E+01  4.49883E+01  4.56544E+01  4.30264E+01  4.21312E+01  4.56935E+01
   4.24951E+01  4.16631E+01  3.68024E+01  4.15394E+01  4.14347E+01  3.80703E+01  3.59206E+01  3.53750E+01  3.38462E+01  2.91987E+01
   3.03209E+01  3.27661E+01  2.53213E+01  3.22540E+01  3.16419E+01  2.96752E+01  2.78719E+01  2.91299E+01  2.72867E+01  3.14394E+01
   2.55400E+01  2.74830E+01  2.34188E+01  2.43341E+01  2.60355E+01  2.49882E+01  2.81506E+01  2.69396E+01  2.32709E+01  2.54515E+01
   2.16234E+01  2.47532E+01  2.37288E+01  2.78036E+01  2.16036E+01  2.30069E+01  2.29327E+01  2.12360E+01  2.23445E+01  1.96073E+01
   1.90146E+01  1.88475E+01  1.96773E+01  1.98494E+01  1.73287E+01  2.10718E+01  2.68355E+01  1.72296E+01  1.71820E+01  2.16357E+01
   2.06070E+01  1.71160E+01  2.19903E+01  1.74977E+01  1.75952E+01  1.82244E+01  1.75902E+01  2.07867E+01  1.82358E+01  2.20607E+01
   1.86696E+01  1.88153E+01  1.58619E+01  2.06508E+01  1.48963E+01  1.86780E+01  1.66912E+01  1.76849E+01  1.80450E+01  1.55391E+01
   1.29584E+01  1.95433E+01  1.60215E+01  2.08988E+01  1.39777E+01  1.57395E+01  1.74978E+01  1.69675E+01  1.94278E+01  1.98329E+01
   1.72082E+01  1.85092E+01  1.69075E+01  1.84174E+01  1.34078E+01  1.63671E+01  1.87894E+01  1.41381E+01
 NY points of the fit to the data follow
   9.02464E+00  9.15977E+00  1.03398E+01  1.33661E+01  1.75017E+01  2.31583E+01  3.04701E+01  3.88838E+01  4.87150E+01  5.87003E+01
   6.57294E+01  6.66738E+01  6.05969E+01  4.96709E+01  3.75870E+01  2.72140E+01  1.98448E+01  1.54726E+01  1.31187E+01  1.18412E+01
   1.10744E+01  1.04576E+01  9.65907E+00  9.29444E+00  1.00273E+01  1.06758E+01  1.10673E+01  1.22864E+01  1.51477E+01  1.90955E+01
   2.26222E+01  2.48617E+01  2.53741E+01  2.38400E+01  2.06169E+01  1.66170E+01  1.29510E+01  1.01969E+01  8.36977E+00  7.78740E+00
   8.81767E+00  1.10986E+01  1.35475E+01  1.55578E+01  1.76612E+01  2.04421E+01  2.33737E+01  2.50099E+01  2.43039E+01  2.12997E+01
   1.69088E+01  1.23333E+01  8.73005E+00  6.85458E+00  6.45595E+00  6.87359E+00  7.64465E+00  8.61994E+00  9.76661E+00  1.07597E+01
   1.11199E+01  1.05923E+01  9.19101E+00  7.33231E+00  5.58343E+00  4.57373E+00  4.53793E+00  5.14764E+00  6.04042E+00  6.99139E+00
   7.85033E+00  8.41419E+00  8.50344E+00  8.12543E+00  7.45946E+00  6.72058E+00  6.07018E+00  5.60832E+00  5.33734E+00  5.18350E+00
   5.00501E+00  4.65818E+00  4.14953E+00  3.58643E+00  2.93434E+00  2.01788E+00  8.26076E-01 -3.10557E-01 -9.30652E-01 -7.87142E-01
   1.72668E-01  1.62965E+00  3.24093E+00  4.81298E+00  6.33448E+00  8.38261E+00  1.37651E+01  2.28136E+01  3.06209E+01  4.00229E+01
   5.64176E+01  7.86878E+01  9.77795E+01  1.03777E+02  9.41110E+01  7.37292E+01  4.98427E+01  2.87656E+01  1.45026E+01  7.17381E+00
   4.21079E+00  3.20142E+00  2.84926E+00  2.72308E+00  2.68712E+00  2.72341E+00  2.83672E+00  3.03979E+00  3.41255E+00  4.24738E+00
   6.99481E+00  1.47720E+01  2.33795E+01  3.09775E+01  4.26083E+01  6.09846E+01  8.10774E+01  9.31738E+01  9.11417E+01  7.66474E+01
   5.60441E+01  3.57125E+01  2.02180E+01  1.10091E+01  6.20591E+00  3.43289E+00  1.57951E+00  4.89683E-01  4.01616E-01  1.31373E+00
   2.78483E+00  4.16795E+00  4.99062E+00  5.13503E+00  4.75758E+00  4.14942E+00  3.57386E+00  3.17059E+00  2.91945E+00  2.73778E+00
   2.58980E+00  2.43748E+00  2.26598E+00  2.10473E+00  1.85143E+00  1.46668E+00  1.28628E+00  1.16295E+00  8.01303E-01  1.57729E-02
  -1.19833E+00 -2.00765E+00 -1.88127E+00 -1.15129E+00 -6.15311E-01 -8.67820E-01 -1.95973E+00 -3.50217E+00 -5.05157E+00 -6.37394E+00
  -7.44060E+00 -7.96242E+00 -8.26313E+00 -8.91847E+00 -1.00005E+01 -1.10079E+01 -1.10409E+01 -1.02486E+01 -9.47196E+00 -9.33732E+00
  -9.79727E+00 -1.03867E+01 -1.03868E+01 -1.00441E+01 -9.75071E+00 -9.41311E+00 -8.57707E+00 -6.91662E+00 -4.55207E+00 -1.94407E+00
   3.24521E-01  1.53583E+00  1.26032E+00  1.92300E-01 -1.07215E+00 -2.37918E+00 -3.64794E+00 -4.38204E+00 -4.30880E+00 -3.48164E+00
  -1.96321E+00 -1.02158E-02  2.02492E+00  3.47974E+00  3.48945E+00  2.22781E+00 -1.34014E-01 -3.40757E+00 -6.56791E+00 -8.83866E+00
  -9.34166E+00 -8.44127E+00 -6.20041E+00 -2.05994E+00  3.48550E+00  8.37208E+00  1.01399E+01  8.15105E+00  3.69596E+00 -1.97839E+00
  -8.14460E+00 -1.31577E+01 -1.50956E+01 -1.31361E+01 -8.10589E+00 -1.95637E+00  3.65069E+00  7.78310E+00  9.83619E+00  9.82094E+00
   8.50053E+00  7.10184E+00  6.33292E+00  6.22792E+00  6.67537E+00  7.59666E+00  8.61368E+00  8.93194E+00  8.42844E+00  7.34024E+00
   5.91102E+00  4.47515E+00  3.84400E+00  4.64027E+00  6.73902E+00  9.47470E+00  1.21543E+01  1.43368E+01  1.56604E+01  1.62819E+01
   1.68898E+01  1.77665E+01  1.94860E+01  2.50693E+01  4.02973E+01  5.41789E+01  6.42518E+01  7.99741E+01  1.06143E+02  1.34229E+02
   1.48530E+02  1.40999E+02  1.16096E+02  8.34437E+01  5.18825E+01  2.84326E+01  1.53489E+01  9.52078E+00  7.05289E+00  5.64137E+00
   4.58492E+00  3.81594E+00  3.38475E+00  3.26126E+00  3.26430E+00  3.20428E+00  3.01634E+00  2.70708E+00  2.31102E+00  1.89755E+00
   1.55500E+00  1.34195E+00  1.26108E+00  1.28257E+00  1.37465E+00  1.51122E+00  1.67444E+00  1.85972E+00  2.08500E+00  2.37835E+00
   2.76043E+00  3.23593E+00  3.79446E+00  4.41909E+00  5.09924E+00  5.82311E+00  6.57656E+00  7.34853E+00  8.13038E+00  8.91343E+00
   9.68644E+00  1.04324E+01  1.11300E+01  1.17565E+01  1.22932E+01  1.27303E+01  1.30673E+01  1.33094E+01  1.34665E+01  1.35540E+01
   1.35932E+01  1.36097E+01  1.36318E+01  1.36881E+01  1.38072E+01  1.40176E+01  1.43466E+01  1.48181E+01  1.54500E+01  1.62528E+01
   1.72302E+01  1.83802E+01  1.96943E+01  2.11571E+01  2.27450E+01  2.44282E+01  2.61723E+01  2.79407E+01  2.96955E+01  3.13976E+01
   3.30083E+01  3.44920E+01  3.58188E+01  3.69662E+01  3.79196E+01  3.86721E+01  3.92259E+01  3.95944E+01  3.98062E+01  3.99146E+01
   4.00303E+01  4.01761E+01  3.99947E+01  3.96677E+01  3.94895E+01  3.92616E+01  3.84275E+01  3.66218E+01  3.42379E+01  3.21423E+01
   3.05314E+01  2.95628E+01  2.96085E+01  3.08090E+01  3.27505E+01  3.46734E+01  3.59641E+01  3.64364E+01  3.62029E+01  3.55212E+01
   3.47201E+01  3.40304E+01  3.34885E+01  3.30374E+01  3.26164E+01  3.21957E+01  3.17650E+01  3.13225E+01  3.08707E+01  3.04139E+01
   2.99579E+01  2.95104E+01  2.90797E+01  2.86749E+01  2.83042E+01  2.79752E+01  2.76955E+01  2.74729E+01  2.73151E+01  2.72289E+01
   2.72201E+01  2.72937E+01  2.74542E+01  2.77061E+01  2.80528E+01  2.84964E+01  2.90367E+01  2.96723E+01  3.04006E+01  3.12171E+01
   3.21148E+01  3.30837E+01  3.41112E+01  3.51821E+01  3.62799E+01  3.73858E+01  3.84791E+01  3.95375E+01  4.05382E+01  4.14595E+01
   4.22811E+01  4.29845E+01  4.35533E+01  4.39741E+01  4.42377E+01  4.43392E+01  4.42783E+01  4.40583E+01  4.36860E+01  4.31714E+01
   4.25280E+01  4.17716E+01  4.09197E+01  3.99901E+01  3.90003E+01  3.79676E+01  3.69091E+01  3.58404E+01  3.47756E+01  3.37263E+01
   3.27023E+01  3.17117E+01  3.07616E+01  2.98572E+01  2.90017E+01  2.81968E+01  2.74431E+01  2.67406E+01  2.60888E+01  2.54866E+01
   2.49317E+01  2.44214E+01  2.39530E+01  2.35241E+01  2.31325E+01  2.27753E+01  2.24496E+01  2.21523E+01  2.18811E+01  2.16341E+01
   2.14093E+01  2.12045E+01  2.10174E+01  2.08460E+01  2.06890E+01  2.05454E+01  2.04140E+01  2.02930E+01  2.01812E+01  2.00775E+01
   1.99815E+01  1.98926E+01  1.98099E+01  1.97325E+01  1.96594E+01  1.95906E+01  1.95259E+01  1.94652E+01  1.94076E+01  1.93526E+01
   1.92999E+01  1.92495E+01  1.92016E+01  1.91558E+01  1.91117E+01  1.90688E+01  1.90272E+01  1.89871E+01  1.89486E+01  1.89113E+01
   1.88748E+01  1.88389E+01  1.88039E+01  1.87701E+01  1.87374E+01  1.87054E+01  1.86737E+01  1.86426E+01  1.86123E+01  1.85830E+01
   1.85546E+01  1.85265E+01  1.84988E+01  1.84717E+01  1.84456E+01  1.84204E+01  1.83959E+01  1.83718E+01  1.83481E+01  1.83253E+01
   1.83037E+01  1.82830E+01  1.82629E+01  1.82434E+01  1.82247E+01  1.82072E+01  1.81909E+01  1.81758E+01
 NY background values follow
     2.735E+00    2.728E+00    2.721E+00    2.714E+00    2.707E+00    2.700E+00    2.693E+00    2.686E+00    2.678E+00    2.671E+00
     2.663E+00    2.655E+00    2.647E+00    2.638E+00    2.629E+00    2.620E+00    2.611E+00    2.602E+00    2.592E+00    2.582E+00
     2.571E+00    2.560E+00    2.549E+00    2.537E+00    2.526E+00    2.513E+00    2.500E+00    2.487E+00    2.473E+00    2.459E+00
     2.445E+00    2.429E+00    2.414E+00    2.398E+00    2.381E+00    2.364E+00    2.346E+00    2.327E+00    2.308E+00    2.289E+00
     2.269E+00    2.248E+00    2.226E+00    2.204E+00    2.181E+00    2.157E+00    2.133E+00    2.108E+00    2.082E+00    2.056E+00
     2.029E+00    2.001E+00    1.972E+00    1.944E+00    1.914E+00    1.884E+00    1.853E+00    1.822E+00    1.790E+00    1.758E+00
     1.725E+00    1.691E+00    1.658E+00    1.623E+00    1.589E+00    1.554E+00    1.518E+00    1.482E+00    1.446E+00    1.409E+00
     1.372E+00    1.335E+00    1.297E+00    1.259E+00    1.221E+00    1.182E+00    1.144E+00    1.105E+00    1.065E+00    1.026E+00
     9.864E-01    9.466E-01    9.066E-01    8.665E-01    8.263E-01    7.860E-01    7.456E-01    7.051E-01    6.645E-01    6.239E-01
     5.832E-01    5.426E-01    5.019E-01    4.611E-01    4.203E-01    3.793E-01    3.382E-01    2.969E-01    2.554E-01    2.137E-01
     1.716E-01    1.293E-01    8.667E-02    4.366E-02    2.563E-04   -4.357E-02   -8.784E-02   -1.326E-01   -1.779E-01   -2.237E-01
    -2.701E-01   -3.171E-01   -3.647E-01   -4.130E-01   -4.619E-01   -5.116E-01   -5.621E-01   -6.133E-01   -6.654E-01   -7.183E-01
    -7.720E-01   -8.267E-01   -8.823E-01   -9.389E-01   -9.965E-01   -1.055E+00   -1.115E+00   -1.175E+00   -1.237E+00   -1.300E+00
    -1.364E+00   -1.430E+00   -1.496E+00   -1.564E+00   -1.633E+00   -1.704E+00   -1.776E+00   -1.849E+00   -1.923E+00   -1.999E+00
    -2.076E+00   -2.154E+00   -2.233E+00   -2.312E+00   -2.393E+00   -2.474E+00   -2.556E+00   -2.639E+00   -2.722E+00   -2.806E+00
    -2.890E+00   -2.975E+00   -3.059E+00   -3.144E+00   -3.229E+00   -3.315E+00   -3.400E+00   -3.485E+00   -3.570E+00   -3.654E+00
    -3.739E+00   -3.823E+00   -3.907E+00   -3.990E+00   -4.072E+00   -4.154E+00   -4.235E+00   -4.315E+00   -4.395E+00   -4.474E+00
    -4.551E+00   -4.628E+00   -4.703E+00   -4.777E+00   -4.850E+00   -4.921E+00   -4.991E+00   -5.060E+00   -5.127E+00   -5.192E+00
    -5.256E+00   -5.317E+00   -5.377E+00   -5.436E+00   -5.492E+00   -5.546E+00   -5.599E+00   -5.650E+00   -5.700E+00   -5.747E+00
    -5.793E+00   -5.837E+00   -5.880E+00   -5.921E+00   -5.960E+00   -5.998E+00   -6.034E+00   -6.069E+00   -6.102E+00   -6.133E+00
    -6.163E+00   -6.191E+00   -6.218E+00   -6.244E+00   -6.268E+00   -6.290E+00   -6.311E+00   -6.331E+00   -6.350E+00   -6.367E+00
    -6.382E+00   -6.397E+00   -6.410E+00   -6.421E+00   -6.432E+00   -6.441E+00   -6.449E+00   -6.456E+00   -6.461E+00   -6.465E+00
    -6.469E+00   -6.471E+00   -6.471E+00   -6.471E+00   -6.470E+00   -6.467E+00   -6.464E+00   -6.459E+00   -6.454E+00   -6.447E+00
    -6.439E+00   -6.430E+00   -6.420E+00   -6.409E+00   -6.396E+00   -6.383E+00   -6.368E+00   -6.352E+00   -6.335E+00   -6.317E+00
    -6.297E+00   -6.276E+00   -6.254E+00   -6.230E+00   -6.206E+00   -6.179E+00   -6.152E+00   -6.123E+00   -6.093E+00   -6.061E+00
    -6.028E+00   -5.994E+00   -5.958E+00   -5.921E+00   -5.882E+00   -5.842E+00   -5.800E+00   -5.757E+00   -5.712E+00   -5.666E+00
    -5.618E+00   -5.569E+00   -5.518E+00   -5.465E+00   -5.411E+00   -5.355E+00   -5.298E+00   -5.239E+00   -5.178E+00   -5.115E+00
    -5.051E+00   -4.985E+00   -4.918E+00   -4.848E+00   -4.777E+00   -4.704E+00   -4.630E+00   -4.554E+00   -4.476E+00   -4.397E+00
    -4.315E+00   -4.233E+00   -4.148E+00   -4.062E+00   -3.975E+00   -3.886E+00   -3.795E+00   -3.703E+00   -3.609E+00   -3.514E+00
    -3.417E+00   -3.319E+00   -3.219E+00   -3.118E+00   -3.015E+00   -2.911E+00   -2.805E+00   -2.698E+00   -2.590E+00   -2.480E+00
    -2.369E+00   -2.256E+00   -2.142E+00   -2.027E+00   -1.910E+00   -1.792E+00   -1.673E+00   -1.552E+00   -1.430E+00   -1.307E+00
    -1.182E+00   -1.056E+00   -9.295E-01   -8.012E-01   -6.717E-01   -5.411E-01   -4.092E-01   -2.761E-01   -1.419E-01   -6.565E-03
     1.299E-01    2.675E-01    4.061E-01    5.457E-01    6.864E-01    8.280E-01    9.706E-01    1.114E+00    1.259E+00    1.404E+00
     1.550E+00    1.697E+00    1.845E+00    1.993E+00    2.143E+00    2.293E+00    2.444E+00    2.595E+00    2.747E+00    2.900E+00
     3.053E+00    3.207E+00    3.362E+00    3.517E+00    3.672E+00    3.828E+00    3.984E+00    4.141E+00    4.298E+00    4.456E+00
     4.614E+00    4.772E+00    4.931E+00    5.090E+00    5.249E+00    5.408E+00    5.567E+00    5.727E+00    5.887E+00    6.047E+00
     6.207E+00    6.367E+00    6.527E+00    6.687E+00    6.847E+00    7.007E+00    7.167E+00    7.327E+00    7.486E+00    7.646E+00
     7.805E+00    7.964E+00    8.122E+00    8.280E+00    8.438E+00    8.595E+00    8.752E+00    8.908E+00    9.064E+00    9.219E+00
     9.373E+00    9.527E+00    9.680E+00    9.832E+00    9.983E+00    1.013E+01    1.028E+01    1.043E+01    1.058E+01    1.073E+01
     1.087E+01    1.102E+01    1.116E+01    1.130E+01    1.144E+01    1.158E+01    1.172E+01    1.186E+01    1.200E+01    1.213E+01
     1.227E+01    1.240E+01    1.253E+01    1.266E+01    1.278E+01    1.291E+01    1.303E+01    1.316E+01    1.328E+01    1.340E+01
     1.351E+01    1.363E+01    1.374E+01    1.386E+01    1.397E+01    1.407E+01    1.418E+01    1.429E+01    1.439E+01    1.449E+01
     1.459E+01    1.469E+01    1.478E+01    1.488E+01    1.497E+01    1.506E+01    1.515E+01    1.524E+01    1.532E+01    1.541E+01
     1.549E+01    1.557E+01    1.564E+01    1.572E+01    1.579E+01    1.586E+01    1.593E+01    1.600E+01    1.607E+01    1.613E+01
     1.619E+01    1.625E+01    1.631E+01    1.637E+01    1.642E+01    1.647E+01    1.652E+01    1.657E+01    1.662E+01    1.666E+01
     1.671E+01    1.675E+01    1.678E+01    1.682E+01    1.685E+01    1.689E+01    1.692E+01    1.694E+01    1.697E+01    1.700E+01
     1.702E+01    1.704E+01    1.706E+01    1.708E+01    1.710E+01    1.711E+01    1.713E+01    1.714E+01    1.715E+01    1.716E+01
     1.717E+01    1.718E+01    1.719E+01    1.720E+01    1.720E+01    1.721E+01    1.721E+01    1.722E+01    1.722E+01    1.722E+01
     1.722E+01    1.723E+01    1.723E+01    1.723E+01    1.723E+01    1.723E+01    1.723E+01    1.723E+01    1.723E+01    1.723E+01
     1.723E+01    1.723E+01    1.723E+01    1.723E+01    1.723E+01    1.723E+01    1.723E+01    1.723E+01
 Cr       Conc. = 1.33E+03
