 LCModel (Version 6.3-1L) Copyright: S.W. Provencher.          Ref.: Magn. Reson. Med. 30:672-679 (1993).                
 Slice#2 Row#1 Col#3  K_02_press_1_raw_act
 36 lines in following concentration table = NCONC+1
    Conc.  %SD /Cr+PCr  Metabolite                                         
    0.000 999%   0.000 Ala                                                 
   17.689 165%   0.142 Asp                                                 
   27.332 438%   0.219 Cr                                                  
   97.606 124%   0.781 PCr                                                 
    9.145 193% 7.3E-02 GABA                                                
   14.038 126%   0.112 Glc                                                 
  183.961  95%   1.472 Gln                                                 
   84.087 228%   0.673 Glu                                                 
    0.000 999%   0.000 GPC                                                 
   53.104  24%   0.425 PCh                                                 
    0.000 999%   0.000 GSH                                                 
    0.000 999%   0.000 Ins                                                 
    0.000 999%   0.000 Lac                                                 
  111.781  31%   0.895 NAA                                                 
    0.000 999%   0.000 NAAG                                                
    6.519  88% 5.2E-02 Scyllo                                              
   32.342  89%   0.259 Tau                                                 
   60.862  63%   0.487 -CrCH2                                              
   53.104  24%   0.425 GPC+PCh                                             
  111.781  31%   0.895 NAA+NAAG                                            
  124.938  26%   1.000 Cr+PCr                                              
  268.048 109%   2.145 Glu+Gln                                             
 3.95E+03   6%  31.636 Lip13a                                              
  126.527  92%   1.013 Lip13b                                              
  707.288  17%   5.661 Lip09                                               
    0.000 999%   0.000 MM09                                                
  375.156  29%   3.003 Lip20                                               
    0.000 999%   0.000 MM20                                                
 2.79E-03 999% 2.2E-05 MM12                                                
    0.179 999% 1.4E-03 MM14                                                
    0.000 999%   0.000 MM17                                                
 4.08E+03   6%  32.649 Lip13a+Lip13b                                       
 4.08E+03   6%  32.650 MM14+Lip13a+Lip13b+MM12                             
  707.288  17%   5.661 MM09+Lip09                                          
  375.156  29%   3.003 MM20+Lip20                                          
   6 lines in following misc. output table
  FWHM = 0.069 ppm    S/N =   4                                            
  Data shift =-0.023 ppm                                                   
  Ph: -24 deg     -21.8 deg/ppm                                            
  alphaB,S = 8.5E+01,   1.0E+02                                            
   14 spline knots.   Ns = 9(1)                                            
   2 inflections.     1 extrema                                            
  498 points on ppm-axis = NY
      4.000000     3.992357     3.984714     3.977070     3.969427     3.961784     3.954141     3.946497     3.938854     3.931211
      3.923568     3.915925     3.908281     3.900638     3.892995     3.885352     3.877708     3.870065     3.862422     3.854779
      3.847136     3.839492     3.831849     3.824206     3.816563     3.808919     3.801276     3.793633     3.785990     3.778347
      3.770703     3.763060     3.755417     3.747774     3.740130     3.732487     3.724844     3.717201     3.709558     3.701914
      3.694271     3.686628     3.678985     3.671341     3.663698     3.656055     3.648412     3.640769     3.633125     3.625482
      3.617839     3.610196     3.602552     3.594909     3.587266     3.579623     3.571980     3.564336     3.556693     3.549050
      3.541407     3.533763     3.526120     3.518477     3.510834     3.503191     3.495547     3.487904     3.480261     3.472618
      3.464974     3.457331     3.449688     3.442045     3.434402     3.426758     3.419115     3.411472     3.403829     3.396185
      3.388542     3.380899     3.373256     3.365613     3.357969     3.350326     3.342683     3.335040     3.327396     3.319753
      3.312110     3.304467     3.296824     3.289180     3.281537     3.273894     3.266251     3.258607     3.250964     3.243321
      3.235678     3.228034     3.220391     3.212748     3.205105     3.197462     3.189818     3.182175     3.174532     3.166889
      3.159245     3.151602     3.143959     3.136316     3.128673     3.121029     3.113386     3.105743     3.098100     3.090456
      3.082813     3.075170     3.067527     3.059884     3.052240     3.044597     3.036954     3.029311     3.021667     3.014024
      3.006381     2.998738     2.991095     2.983451     2.975808     2.968165     2.960522     2.952878     2.945235     2.937592
      2.929949     2.922306     2.914662     2.907019     2.899376     2.891733     2.884089     2.876446     2.868803     2.861160
      2.853517     2.845873     2.838230     2.830587     2.822944     2.815300     2.807657     2.800014     2.792371     2.784728
      2.777084     2.769441     2.761798     2.754155     2.746511     2.738868     2.731225     2.723582     2.715939     2.708295
      2.700652     2.693009     2.685366     2.677722     2.670079     2.662436     2.654793     2.647150     2.639506     2.631863
      2.624220     2.616577     2.608933     2.601290     2.593647     2.586004     2.578361     2.570717     2.563074     2.555431
      2.547788     2.540144     2.532501     2.524858     2.517215     2.509572     2.501928     2.494285     2.486642     2.478999
      2.471355     2.463712     2.456069     2.448426     2.440783     2.433139     2.425496     2.417853     2.410210     2.402566
      2.394923     2.387280     2.379637     2.371994     2.364350     2.356707     2.349064     2.341421     2.333777     2.326134
      2.318491     2.310848     2.303205     2.295561     2.287918     2.280275     2.272632     2.264988     2.257345     2.249702
      2.242059     2.234416     2.226772     2.219129     2.211486     2.203843     2.196199     2.188556     2.180913     2.173270
      2.165627     2.157983     2.150340     2.142697     2.135054     2.127410     2.119767     2.112124     2.104481     2.096838
      2.089194     2.081551     2.073908     2.066265     2.058621     2.050978     2.043335     2.035692     2.028049     2.020405
      2.012762     2.005119     1.997476     1.989833     1.982190     1.974546     1.966903     1.959260     1.951617     1.943974
      1.936331     1.928688     1.921045     1.913402     1.905759     1.898115     1.890472     1.882829     1.875186     1.867543
      1.859900     1.852257     1.844614     1.836971     1.829327     1.821684     1.814041     1.806398     1.798755     1.791112
      1.783469     1.775826     1.768183     1.760540     1.752896     1.745253     1.737610     1.729967     1.722324     1.714681
      1.707038     1.699395     1.691752     1.684108     1.676465     1.668822     1.661179     1.653536     1.645893     1.638250
      1.630607     1.622964     1.615321     1.607677     1.600034     1.592391     1.584748     1.577105     1.569462     1.561819
      1.554176     1.546533     1.538890     1.531246     1.523603     1.515960     1.508317     1.500674     1.493031     1.485388
      1.477745     1.470102     1.462458     1.454815     1.447172     1.439529     1.431886     1.424243     1.416600     1.408957
      1.401314     1.393671     1.386027     1.378384     1.370741     1.363098     1.355455     1.347812     1.340169     1.332526
      1.324883     1.317240     1.309596     1.301953     1.294310     1.286667     1.279024     1.271381     1.263738     1.256095
      1.248452     1.240808     1.233165     1.225522     1.217879     1.210236     1.202593     1.194950     1.187307     1.179664
      1.172021     1.164377     1.156734     1.149091     1.141448     1.133805     1.126162     1.118519     1.110876     1.103233
      1.095590     1.087946     1.080303     1.072660     1.065017     1.057374     1.049731     1.042088     1.034445     1.026802
      1.019158     1.011515     1.003872     0.996229     0.988586     0.980943     0.973300     0.965657     0.958014     0.950371
      0.942727     0.935084     0.927441     0.919798     0.912155     0.904512     0.896869     0.889226     0.881583     0.873940
      0.866296     0.858653     0.851010     0.843367     0.835724     0.828081     0.820438     0.812795     0.805152     0.797508
      0.789865     0.782222     0.774579     0.766936     0.759293     0.751650     0.744007     0.736364     0.728721     0.721077
      0.713434     0.705791     0.698148     0.690505     0.682862     0.675219     0.667576     0.659933     0.652290     0.644646
      0.637003     0.629360     0.621717     0.614074     0.606431     0.598788     0.591145     0.583502     0.575858     0.568215
      0.560572     0.552929     0.545286     0.537643     0.530000     0.522357     0.514714     0.507071     0.499427     0.491784
      0.484141     0.476498     0.468855     0.461212     0.453569     0.445925     0.438282     0.430639     0.422996     0.415353
      0.407710     0.400067     0.392424     0.384780     0.377137     0.369494     0.361851     0.354208     0.346565     0.338922
      0.331278     0.323635     0.315992     0.308349     0.300706     0.293063     0.285420     0.277777     0.270133     0.262490
      0.254847     0.247204     0.239561     0.231918     0.224275     0.216631     0.208988     0.201345
 NY phased data points follow
  -2.68340E+00 -5.72252E+00 -4.64727E+00 -3.03429E+00 -3.44543E+00 -4.52450E+00 -2.50107E+00 -3.05698E+00 -3.68126E+00 -4.37105E+00
  -1.42086E+00 -1.94793E+00  7.03533E-01 -7.40369E-01 -2.22858E+00 -3.35716E+00 -2.14657E+00 -3.49127E+00 -4.16331E+00 -2.54003E+00
  -2.50183E+00 -1.33235E+00 -1.83681E+00 -2.57095E+00 -2.04901E+00 -2.39156E+00  6.05893E-02 -7.94543E+00 -7.41266E-01  1.21581E+00
  -1.80203E+00 -1.94836E+00 -3.20595E+00 -2.72532E+00 -1.93968E+00 -2.01947E+00 -4.11078E+00 -2.03397E+00 -4.06259E-01 -3.94153E+00
  -2.90705E+00 -8.29273E-01 -2.63053E+00 -1.41692E+00 -5.44948E+00 -1.00789E+00 -3.17028E+00 -2.01580E+00  3.54730E-01 -3.25318E+00
  -3.74391E+00 -2.85745E+00 -1.02500E+00 -2.65982E+00 -4.96659E+00 -1.98207E+00 -2.68670E-01 -1.58484E+00 -1.38035E+00 -4.36460E-01
  -9.41774E-01 -1.75482E-01 -1.00595E+00 -2.20554E+00 -1.05763E+00 -9.11138E-01  1.17038E+00 -2.19887E+00 -7.41642E-01 -4.77960E-01
  -3.07750E+00 -1.76201E+00 -9.04073E-01  3.58372E-01 -3.25853E+00  9.89828E-02 -4.94941E+00  1.72880E+00 -3.51140E+00 -9.03352E-01
  -2.94122E-02 -2.82378E+00 -4.86771E+00 -6.99018E-02 -2.07417E+00  9.53324E-01  6.43475E-01 -6.41234E-01 -3.38242E+00 -3.24156E+00
  -9.65239E-01 -1.24124E+00  2.97469E+00 -2.17231E+00  6.52150E-01  9.38802E-01 -1.60471E+00  6.22226E-01 -3.28035E+00 -1.49686E+00
  -3.45706E-03  1.20549E+00 -1.08727E+00  1.24740E+00  4.34557E+00  7.74071E-01  5.27785E+00  1.97870E+00 -4.21425E-01 -1.10130E+00
   4.67344E+00  1.16758E+00 -3.06179E+00 -4.03941E+00 -1.53410E+00 -2.07755E-01 -1.01052E+00 -2.72732E-01  1.47898E+00 -1.11505E-01
  -2.76919E+00  8.76112E-01  1.81339E+00  3.74813E-01 -2.43370E-01  1.40784E+00  3.37590E-01  4.65410E+00 -2.08135E+00  3.78486E+00
   3.89856E-01  3.16052E+00  9.61816E-01  7.69330E-01 -9.32923E-01  1.08790E+00  1.00733E+00 -1.34881E+00 -1.31771E+00 -2.24461E+00
   8.34542E-01  4.85665E-01 -1.82077E+00  4.26121E-01 -1.60608E+00 -3.41334E+00 -3.41607E+00 -2.58636E+00 -3.74531E-01 -3.36795E+00
   1.96401E+00 -1.29455E+00  4.10725E+00 -2.23869E+00 -3.46397E-02 -1.21988E+00 -1.09582E+00  5.74031E-01 -1.98401E-01 -4.32138E+00
  -7.89141E-01  7.27741E-01 -3.61271E+00  1.15500E+00 -2.74707E+00 -1.35487E+00 -2.68135E+00 -1.43770E-01 -1.38536E-02 -1.90165E+00
  -2.77331E+00  1.07051E+00  8.34410E-01 -1.62956E+00 -3.15477E+00 -1.63475E+00 -3.22495E-01  9.14318E-01 -4.06313E-01 -1.77488E+00
  -9.75330E-02 -3.46494E+00 -1.23471E+00 -4.47316E-01 -2.30356E+00 -2.55236E+00 -2.08032E-01 -5.67045E+00 -6.86305E-01 -3.93028E+00
  -1.81426E-01 -3.34877E+00 -1.52783E+00 -2.19953E+00 -7.21578E-01  3.49302E+00 -9.21331E-01 -5.80954E+00 -1.94048E+00 -7.71331E-01
  -3.66196E+00 -2.94080E+00  1.22567E+00 -2.01662E+00 -2.48561E+00 -3.00128E+00 -7.04737E-01 -2.81035E+00 -2.01209E+00 -3.50655E+00
  -3.71577E+00 -2.22117E+00 -1.99237E+00 -2.48820E-01 -7.47900E-01 -3.15953E-01  3.79796E-01  1.35573E-01 -1.56898E+00 -2.95387E+00
   1.61003E+00  1.94795E+00 -2.54767E-01 -1.75133E+00  5.09907E-01 -1.84198E+00 -2.30248E+00  2.20991E+00 -8.90758E-01 -6.42889E-01
   3.37521E+00 -1.22676E+00 -2.34316E+00  1.98992E+00  7.96125E-01 -2.65453E+00  8.69018E-01 -1.88487E+00  5.06388E-01 -2.24612E-01
   5.15157E-01  1.10036E+00 -2.36874E+00 -1.30733E+00  1.07090E-01 -1.11224E+00  1.44827E+00 -3.51838E-01  1.35069E+00 -3.30148E+00
  -3.02667E+00 -1.14360E+00 -1.36160E+00 -9.52275E-01  9.97326E-01 -4.34385E+00 -2.57490E+00 -3.89065E+00  1.30915E+00  1.30611E-01
   2.57974E+00  1.03817E+00  6.32424E+00  6.61236E+00  3.61133E+00  7.92139E-01  4.00704E+00  4.08677E+00  1.23129E+00  2.40781E+00
   2.92599E+00  2.83876E+00  1.59358E+00 -4.22039E-01  5.58156E+00 -1.30549E+00 -2.37145E+00  5.78203E-01 -6.32589E-01 -8.46770E-01
  -1.66214E-01 -7.94680E-01  1.56795E-01  1.49103E+00 -1.26229E-01 -2.05486E-01 -3.00185E+00  3.97017E+00 -4.53481E-01  5.36015E-01
  -1.22942E+00 -2.04277E-01 -2.09954E+00 -2.25489E+00 -1.67083E+00  1.18258E+00 -1.03377E+00  5.38303E-01 -4.18941E+00  1.29555E-01
  -4.60117E-01  2.53562E+00  9.08836E-01  4.02887E-01 -2.99733E-01  1.38599E+00  1.91671E+00 -2.87083E-02 -2.87683E+00 -1.88279E+00
  -1.12481E+00  1.01214E+00  7.49408E-01  9.59880E-01  2.04336E+00 -5.91174E-01 -2.49965E+00 -2.73779E-01  3.35835E+00  1.04628E+00
   2.10484E+00  1.59725E+00  1.74200E+00  2.69714E+00  1.02277E+00  3.48794E+00  3.29531E+00  1.04053E+00  4.66973E+00  4.27218E+00
   7.88578E+00  5.97962E+00  8.48194E+00  8.13270E+00  9.45626E+00  1.20194E+01  1.25659E+01  1.19301E+01  1.47643E+01  1.54836E+01
   8.74167E+00  1.24459E+01  1.25055E+01  1.45706E+01  1.15643E+01  1.28494E+01  1.22101E+01  1.17861E+01  1.67423E+01  1.56655E+01
   1.59178E+01  1.81384E+01  1.72046E+01  1.97239E+01  1.84266E+01  1.74651E+01  1.98724E+01  1.80347E+01  1.61037E+01  1.73307E+01
   1.23668E+01  1.46579E+01  1.19160E+01  1.08429E+01  1.18672E+01  1.20692E+01  8.63675E+00  7.50086E+00  5.44330E+00  8.18288E+00
   1.01968E+01  3.36907E+00  7.12704E+00  6.45818E+00  8.38601E+00  6.55860E+00  8.06079E+00  7.17148E+00  6.26819E+00  6.13384E+00
   5.81302E+00  5.66730E+00  9.32920E+00  4.92741E+00  3.85609E+00  3.73243E+00  2.55407E+00  6.19929E+00  6.82844E+00  6.36055E+00
   3.37089E+00  5.93108E+00  5.56344E+00  4.55559E+00  8.72544E-01  3.54937E+00  5.72708E-01  3.99795E+00  3.35610E+00  7.56934E+00
   4.05804E+00  3.72814E+00  3.64564E+00  1.19586E+00  3.42507E+00  4.09402E+00  1.11044E+00 -2.20782E-02  3.76510E+00  4.64135E+00
   2.76935E+00  4.04047E+00  5.61374E+00  1.83762E+00  4.67502E-01  3.32504E+00  3.68708E+00  1.53398E+00  1.22715E-01  1.54987E+00
   2.95360E+00 -1.98812E+00  1.25317E+00 -5.55355E-01  8.74536E-01  1.90597E+00  2.59178E+00  2.50477E+00  4.25856E+00  4.24658E+00
   7.82613E+00  3.42239E+00 -3.11117E+00  1.63890E+00 -1.81264E+00 -2.38004E+00 -2.23675E-01 -1.25609E+00  5.43630E-01  7.71330E-01
   2.41824E+00 -2.02398E-01  1.66960E+00 -2.91275E-03  1.26568E+00  4.23367E+00  1.73984E-01  8.17268E-01  7.04481E-01 -9.99763E-01
  -6.76564E-01 -1.05463E+00 -3.04760E+00  9.34341E-01  1.98729E+00  1.45260E+00  1.06123E+00 -3.38875E-01  2.22986E+00  1.17853E+00
   1.60877E+00  2.66853E+00  7.82454E-02  1.15267E+00  1.22496E+00  4.37959E+00  1.69047E+00  2.80060E+00  2.89489E+00  2.54472E+00
   2.68587E-01  5.85951E-01  2.41379E+00  9.81946E-01  3.91853E-01  4.41366E+00 -1.14437E+00  5.77311E+00  1.98784E+00  3.54655E+00
  -3.82989E-01  2.60152E+00 -5.68274E-01  2.73255E+00  1.37781E+00  1.36664E+00  2.32545E+00  5.85337E-01  1.00885E+00  5.60616E+00
   1.22520E+00 -1.31633E+00  1.35529E+00  2.56884E-01 -3.59639E-01  1.11352E+00  5.87483E+00  9.35341E-01
 NY points of the fit to the data follow
  -2.64652E+00 -2.62560E+00 -2.59866E+00 -2.55997E+00 -2.50164E+00 -2.41411E+00 -2.29208E+00 -2.13824E+00 -1.96386E+00 -1.78776E+00
  -1.63168E+00 -1.51518E+00 -1.45228E+00 -1.44835E+00 -1.49998E+00 -1.59885E+00 -1.73349E+00 -1.89060E+00 -2.05078E+00 -2.18700E+00
  -2.27173E+00 -2.31000E+00 -2.31287E+00 -2.30041E+00 -2.30100E+00 -2.32285E+00 -2.35787E+00 -2.38819E+00 -2.39570E+00 -2.36970E+00
  -2.30960E+00 -2.22684E+00 -2.14067E+00 -2.07069E+00 -2.02809E+00 -2.01259E+00 -2.02038E+00 -2.05362E+00 -2.10980E+00 -2.18116E+00
  -2.25634E+00 -2.31984E+00 -2.35019E+00 -2.32860E+00 -2.27337E+00 -2.21355E+00 -2.16646E+00 -2.14507E+00 -2.15315E+00 -2.17990E+00
  -2.20190E+00 -2.20767E+00 -2.20002E+00 -2.18616E+00 -2.17234E+00 -2.15980E+00 -2.15040E+00 -2.14330E+00 -2.13670E+00 -2.13188E+00
  -2.12881E+00 -2.12653E+00 -2.12467E+00 -2.11948E+00 -2.10930E+00 -2.09660E+00 -2.08317E+00 -2.07079E+00 -2.06137E+00 -2.05449E+00
  -2.04717E+00 -2.03586E+00 -2.01872E+00 -1.99680E+00 -1.97301E+00 -1.95080E+00 -1.93287E+00 -1.91941E+00 -1.91136E+00 -1.90902E+00
  -1.90612E+00 -1.89701E+00 -1.87664E+00 -1.84264E+00 -1.79741E+00 -1.74439E+00 -1.68481E+00 -1.62645E+00 -1.58361E+00 -1.56473E+00
  -1.57206E+00 -1.60297E+00 -1.64925E+00 -1.69883E+00 -1.73229E+00 -1.74015E+00 -1.71487E+00 -1.61344E+00 -1.38689E+00 -9.99855E-01
  -4.48986E-01  2.22578E-01  9.41681E-01  1.61943E+00  2.15855E+00  2.47927E+00  2.54233E+00  2.35727E+00  1.97401E+00  1.44639E+00
   8.06158E-01  8.69199E-02 -6.28461E-01 -1.20725E+00 -1.51843E+00 -1.60982E+00 -1.63845E+00 -1.64334E+00 -1.62393E+00 -1.58929E+00
  -1.53212E+00 -1.41578E+00 -1.19375E+00 -8.38702E-01 -3.62663E-01  1.87929E-01  7.49119E-01  1.24722E+00  1.61095E+00  1.79104E+00
   1.77093E+00  1.57143E+00  1.23310E+00  7.87431E-01  2.57952E-01 -3.08152E-01 -8.23981E-01 -1.17586E+00 -1.30550E+00 -1.32741E+00
  -1.32275E+00 -1.30690E+00 -1.28423E+00 -1.25773E+00 -1.22953E+00 -1.20111E+00 -1.17341E+00 -1.14692E+00 -1.12262E+00 -1.10050E+00
  -1.07971E+00 -1.06035E+00 -1.04339E+00 -1.02980E+00 -1.01918E+00 -1.01109E+00 -1.00602E+00 -1.00524E+00 -1.01019E+00 -1.02029E+00
  -1.03295E+00 -1.04546E+00 -1.05577E+00 -1.06296E+00 -1.06724E+00 -1.06999E+00 -1.07323E+00 -1.07856E+00 -1.08638E+00 -1.09643E+00
  -1.11030E+00 -1.13130E+00 -1.16186E+00 -1.19844E+00 -1.23388E+00 -1.26350E+00 -1.28510E+00 -1.30114E+00 -1.31347E+00 -1.32115E+00
  -1.32379E+00 -1.32246E+00 -1.31805E+00 -1.31021E+00 -1.29839E+00 -1.28332E+00 -1.26658E+00 -1.25058E+00 -1.23401E+00 -1.21385E+00
  -1.19505E+00 -1.18511E+00 -1.18930E+00 -1.20625E+00 -1.22972E+00 -1.25286E+00 -1.26642E+00 -1.26154E+00 -1.22923E+00 -1.15930E+00
  -1.04842E+00 -9.07183E-01 -7.50556E-01 -6.04064E-01 -5.04346E-01 -4.82904E-01 -5.50641E-01 -6.99709E-01 -9.04058E-01 -1.12716E+00
  -1.32605E+00 -1.45495E+00 -1.47963E+00 -1.39348E+00 -1.21736E+00 -9.82045E-01 -7.16820E-01 -4.59827E-01 -2.50933E-01 -1.20788E-01
  -8.82119E-02 -1.45949E-01 -2.33632E-01 -3.03327E-01 -3.43839E-01 -3.44959E-01 -3.01039E-01 -2.20748E-01 -1.27318E-01 -3.83059E-02
   3.33309E-02  7.28703E-02  6.96545E-02  2.50296E-02 -3.86231E-02 -8.63306E-02 -9.63791E-02 -6.38222E-02  7.49807E-03  1.02159E-01
   1.96975E-01  2.68621E-01  3.02582E-01  2.98443E-01  2.64094E-01  2.05754E-01  1.25866E-01  3.32397E-02 -3.74516E-02 -5.76017E-02
  -1.41549E-02  1.00096E-01  2.74018E-01  4.63063E-01  6.47617E-01  8.61613E-01  1.14081E+00  1.49963E+00  1.92549E+00  2.38180E+00
   2.81539E+00  3.16841E+00  3.39194E+00  3.45386E+00  3.34910E+00  3.10173E+00  2.74254E+00  2.28922E+00  1.76109E+00  1.20897E+00
   7.22658E-01  4.11230E-01  2.86686E-01  2.30177E-01  1.96167E-01  1.75436E-01  1.62004E-01  1.52232E-01  1.45232E-01  1.39269E-01
   1.32821E-01  1.25262E-01  1.17199E-01  1.09821E-01  1.05298E-01  1.05295E-01  1.10109E-01  1.19699E-01  1.33603E-01  1.50736E-01
   1.70146E-01  1.91107E-01  2.13070E-01  2.36001E-01  2.59975E-01  2.85191E-01  3.12140E-01  3.41253E-01  3.72678E-01  4.06498E-01
   4.42962E-01  4.82281E-01  5.24513E-01  5.69776E-01  6.18266E-01  6.70069E-01  7.25419E-01  7.84616E-01  8.48016E-01  9.16008E-01
   9.89039E-01  1.06760E+00  1.15226E+00  1.24367E+00  1.34259E+00  1.44984E+00  1.56637E+00  1.69321E+00  1.83156E+00  1.98270E+00
   2.14809E+00  2.32932E+00  2.52813E+00  2.74639E+00  2.98609E+00  3.24934E+00  3.53832E+00  3.85518E+00  4.20206E+00  4.58092E+00
   4.99352E+00  5.44122E+00  5.92493E+00  6.44489E+00  7.00060E+00  7.59063E+00  8.21255E+00  8.86284E+00  9.53687E+00  1.02290E+01
   1.09327E+01  1.16408E+01  1.23461E+01  1.30414E+01  1.37198E+01  1.43751E+01  1.50017E+01  1.55935E+01  1.61436E+01  1.66427E+01
   1.70784E+01  1.74352E+01  1.76941E+01  1.78354E+01  1.78406E+01  1.76963E+01  1.73966E+01  1.69458E+01  1.63583E+01  1.56576E+01
   1.48732E+01  1.40372E+01  1.31803E+01  1.23291E+01  1.15041E+01  1.07195E+01  9.98377E+00  9.30064E+00  8.67080E+00  8.09309E+00
   7.56551E+00  7.08578E+00  6.65171E+00  6.26121E+00  5.91230E+00  5.60304E+00  5.33145E+00  5.09549E+00  4.89307E+00  4.72200E+00
   4.58009E+00  4.46513E+00  4.37489E+00  4.30717E+00  4.25975E+00  4.23043E+00  4.21701E+00  4.21726E+00  4.22897E+00  4.24988E+00
   4.27772E+00  4.31023E+00  4.34517E+00  4.38029E+00  4.41347E+00  4.44264E+00  4.46588E+00  4.48147E+00  4.48789E+00  4.48386E+00
   4.46840E+00  4.44081E+00  4.40072E+00  4.34806E+00  4.28307E+00  4.20629E+00  4.11850E+00  4.02070E+00  3.91409E+00  3.79999E+00
   3.67983E+00  3.55504E+00  3.42707E+00  3.29733E+00  3.16715E+00  3.03773E+00  2.91017E+00  2.78542E+00  2.66428E+00  2.54740E+00
   2.43529E+00  2.32832E+00  2.22674E+00  2.13067E+00  2.04016E+00  1.95517E+00  1.87558E+00  1.80123E+00  1.73193E+00  1.66743E+00
   1.60749E+00  1.55185E+00  1.50025E+00  1.45243E+00  1.40814E+00  1.36712E+00  1.32914E+00  1.29399E+00  1.26146E+00  1.23134E+00
   1.20347E+00  1.17766E+00  1.15378E+00  1.13168E+00  1.11122E+00  1.09229E+00  1.07477E+00  1.05857E+00  1.04359E+00  1.02975E+00
   1.01696E+00  1.00516E+00  9.94282E-01  9.84258E-01  9.75043E-01  9.66577E-01  9.58820E-01  9.51719E-01  9.45241E-01  9.39344E-01
   9.34000E-01  9.29171E-01  9.24831E-01  9.20947E-01  9.17500E-01  9.14461E-01  9.11815E-01  9.09534E-01  9.07603E-01  9.05999E-01
   9.04711E-01  9.03719E-01  9.03014E-01  9.02574E-01  9.02392E-01  9.02450E-01  9.02745E-01  9.03260E-01  9.03990E-01  9.04919E-01
   9.06042E-01  9.07347E-01  9.08834E-01  9.10487E-01  9.12306E-01  9.14276E-01  9.16397E-01  9.18659E-01  9.21064E-01  9.23597E-01
   9.26261E-01  9.29042E-01  9.31945E-01  9.34959E-01  9.38088E-01  9.41319E-01  9.44655E-01  9.48086E-01
 NY background values follow
    -2.736E+00   -2.729E+00   -2.722E+00   -2.715E+00   -2.708E+00   -2.701E+00   -2.695E+00   -2.688E+00   -2.681E+00   -2.674E+00
    -2.667E+00   -2.660E+00   -2.653E+00   -2.646E+00   -2.639E+00   -2.632E+00   -2.625E+00   -2.618E+00   -2.611E+00   -2.604E+00
    -2.597E+00   -2.590E+00   -2.583E+00   -2.576E+00   -2.569E+00   -2.562E+00   -2.555E+00   -2.548E+00   -2.541E+00   -2.534E+00
    -2.527E+00   -2.520E+00   -2.513E+00   -2.506E+00   -2.499E+00   -2.492E+00   -2.485E+00   -2.478E+00   -2.471E+00   -2.464E+00
    -2.457E+00   -2.450E+00   -2.443E+00   -2.436E+00   -2.429E+00   -2.422E+00   -2.415E+00   -2.408E+00   -2.401E+00   -2.394E+00
    -2.387E+00   -2.380E+00   -2.373E+00   -2.366E+00   -2.359E+00   -2.352E+00   -2.345E+00   -2.338E+00   -2.331E+00   -2.324E+00
    -2.318E+00   -2.311E+00   -2.304E+00   -2.297E+00   -2.290E+00   -2.283E+00   -2.276E+00   -2.269E+00   -2.262E+00   -2.255E+00
    -2.248E+00   -2.241E+00   -2.234E+00   -2.227E+00   -2.220E+00   -2.213E+00   -2.206E+00   -2.199E+00   -2.192E+00   -2.185E+00
    -2.178E+00   -2.171E+00   -2.164E+00   -2.157E+00   -2.150E+00   -2.143E+00   -2.136E+00   -2.129E+00   -2.122E+00   -2.115E+00
    -2.108E+00   -2.101E+00   -2.094E+00   -2.087E+00   -2.080E+00   -2.073E+00   -2.066E+00   -2.059E+00   -2.052E+00   -2.045E+00
    -2.038E+00   -2.031E+00   -2.024E+00   -2.017E+00   -2.010E+00   -2.003E+00   -1.996E+00   -1.989E+00   -1.982E+00   -1.975E+00
    -1.968E+00   -1.961E+00   -1.954E+00   -1.947E+00   -1.941E+00   -1.934E+00   -1.927E+00   -1.920E+00   -1.913E+00   -1.906E+00
    -1.899E+00   -1.892E+00   -1.885E+00   -1.878E+00   -1.871E+00   -1.864E+00   -1.857E+00   -1.850E+00   -1.843E+00   -1.836E+00
    -1.829E+00   -1.822E+00   -1.815E+00   -1.808E+00   -1.801E+00   -1.794E+00   -1.787E+00   -1.780E+00   -1.773E+00   -1.766E+00
    -1.759E+00   -1.752E+00   -1.745E+00   -1.738E+00   -1.731E+00   -1.724E+00   -1.717E+00   -1.710E+00   -1.703E+00   -1.696E+00
    -1.689E+00   -1.682E+00   -1.675E+00   -1.668E+00   -1.661E+00   -1.654E+00   -1.647E+00   -1.640E+00   -1.633E+00   -1.626E+00
    -1.619E+00   -1.612E+00   -1.605E+00   -1.598E+00   -1.591E+00   -1.584E+00   -1.577E+00   -1.570E+00   -1.564E+00   -1.557E+00
    -1.550E+00   -1.543E+00   -1.536E+00   -1.529E+00   -1.522E+00   -1.515E+00   -1.508E+00   -1.501E+00   -1.494E+00   -1.487E+00
    -1.480E+00   -1.473E+00   -1.466E+00   -1.459E+00   -1.452E+00   -1.445E+00   -1.438E+00   -1.431E+00   -1.424E+00   -1.417E+00
    -1.410E+00   -1.403E+00   -1.396E+00   -1.389E+00   -1.382E+00   -1.375E+00   -1.368E+00   -1.361E+00   -1.354E+00   -1.347E+00
    -1.340E+00   -1.333E+00   -1.326E+00   -1.319E+00   -1.312E+00   -1.305E+00   -1.298E+00   -1.291E+00   -1.284E+00   -1.277E+00
    -1.270E+00   -1.263E+00   -1.256E+00   -1.249E+00   -1.242E+00   -1.235E+00   -1.228E+00   -1.221E+00   -1.214E+00   -1.207E+00
    -1.200E+00   -1.193E+00   -1.186E+00   -1.180E+00   -1.173E+00   -1.166E+00   -1.159E+00   -1.152E+00   -1.145E+00   -1.138E+00
    -1.131E+00   -1.124E+00   -1.117E+00   -1.110E+00   -1.103E+00   -1.096E+00   -1.089E+00   -1.082E+00   -1.075E+00   -1.068E+00
    -1.061E+00   -1.054E+00   -1.047E+00   -1.040E+00   -1.033E+00   -1.026E+00   -1.019E+00   -1.012E+00   -1.005E+00   -9.980E-01
    -9.910E-01   -9.840E-01   -9.770E-01   -9.700E-01   -9.631E-01   -9.561E-01   -9.491E-01   -9.421E-01   -9.351E-01   -9.281E-01
    -9.212E-01   -9.142E-01   -9.072E-01   -9.002E-01   -8.932E-01   -8.863E-01   -8.793E-01   -8.723E-01   -8.653E-01   -8.583E-01
    -8.513E-01   -8.444E-01   -8.374E-01   -8.304E-01   -8.234E-01   -8.164E-01   -8.094E-01   -8.025E-01   -7.955E-01   -7.885E-01
    -7.815E-01   -7.745E-01   -7.675E-01   -7.606E-01   -7.536E-01   -7.466E-01   -7.396E-01   -7.326E-01   -7.256E-01   -7.187E-01
    -7.117E-01   -7.047E-01   -6.977E-01   -6.907E-01   -6.837E-01   -6.768E-01   -6.698E-01   -6.628E-01   -6.558E-01   -6.488E-01
    -6.418E-01   -6.349E-01   -6.279E-01   -6.209E-01   -6.139E-01   -6.069E-01   -5.999E-01   -5.930E-01   -5.860E-01   -5.790E-01
    -5.720E-01   -5.650E-01   -5.580E-01   -5.511E-01   -5.441E-01   -5.371E-01   -5.301E-01   -5.231E-01   -5.161E-01   -5.092E-01
    -5.022E-01   -4.952E-01   -4.882E-01   -4.812E-01   -4.742E-01   -4.673E-01   -4.603E-01   -4.533E-01   -4.463E-01   -4.393E-01
    -4.323E-01   -4.254E-01   -4.184E-01   -4.114E-01   -4.044E-01   -3.974E-01   -3.904E-01   -3.835E-01   -3.765E-01   -3.695E-01
    -3.625E-01   -3.555E-01   -3.485E-01   -3.416E-01   -3.346E-01   -3.276E-01   -3.206E-01   -3.136E-01   -3.066E-01   -2.997E-01
    -2.927E-01   -2.857E-01   -2.787E-01   -2.717E-01   -2.647E-01   -2.578E-01   -2.508E-01   -2.438E-01   -2.368E-01   -2.298E-01
    -2.228E-01   -2.159E-01   -2.089E-01   -2.019E-01   -1.949E-01   -1.879E-01   -1.809E-01   -1.740E-01   -1.670E-01   -1.600E-01
    -1.530E-01   -1.460E-01   -1.390E-01   -1.320E-01   -1.251E-01   -1.181E-01   -1.111E-01   -1.041E-01   -9.713E-02   -9.014E-02
    -8.316E-02   -7.618E-02   -6.919E-02   -6.221E-02   -5.522E-02   -4.824E-02   -4.126E-02   -3.427E-02   -2.729E-02   -2.031E-02
    -1.332E-02   -6.337E-03    6.469E-04    7.631E-03    1.461E-02    2.160E-02    2.858E-02    3.557E-02    4.255E-02    4.954E-02
     5.652E-02    6.350E-02    7.049E-02    7.747E-02    8.446E-02    9.144E-02    9.842E-02    1.054E-01    1.124E-01    1.194E-01
     1.264E-01    1.333E-01    1.403E-01    1.473E-01    1.543E-01    1.613E-01    1.683E-01    1.752E-01    1.822E-01    1.892E-01
     1.962E-01    2.032E-01    2.102E-01    2.172E-01    2.241E-01    2.311E-01    2.381E-01    2.451E-01    2.521E-01    2.591E-01
     2.660E-01    2.730E-01    2.800E-01    2.870E-01    2.940E-01    3.010E-01    3.079E-01    3.149E-01    3.219E-01    3.289E-01
     3.359E-01    3.429E-01    3.499E-01    3.568E-01    3.638E-01    3.708E-01    3.778E-01    3.848E-01    3.918E-01    3.987E-01
     4.057E-01    4.127E-01    4.197E-01    4.267E-01    4.337E-01    4.407E-01    4.476E-01    4.546E-01    4.616E-01    4.686E-01
     4.756E-01    4.826E-01    4.895E-01    4.965E-01    5.035E-01    5.105E-01    5.175E-01    5.245E-01    5.314E-01    5.384E-01
     5.454E-01    5.524E-01    5.594E-01    5.664E-01    5.734E-01    5.803E-01    5.873E-01    5.943E-01    6.013E-01    6.083E-01
     6.153E-01    6.222E-01    6.292E-01    6.362E-01    6.432E-01    6.502E-01    6.572E-01    6.642E-01    6.711E-01    6.781E-01
     6.851E-01    6.921E-01    6.991E-01    7.061E-01    7.130E-01    7.200E-01    7.270E-01    7.340E-01
 Asp      Conc. = 1.77E+01
