 LCModel (Version 6.3-1L) Copyright: S.W. Provencher.          Ref.: Magn. Reson. Med. 30:672-679 (1993).                
 Slice#3 Row#11 Col#5  K_02_press_1_raw_act
 36 lines in following concentration table = NCONC+1
    Conc.  %SD /Cr+PCr  Metabolite                                         
  248.566  95%   0.100 Ala                                                 
    0.000 999%   0.000 Asp                                                 
    0.000 999%   0.000 Cr                                                  
 2.48E+03   3%   1.000 PCr                                                 
   90.983 298% 3.7E-02 GABA                                                
    0.000 999%   0.000 Glc                                                 
 2.13E+03  31%   0.857 Gln                                                 
 1.70E+03  45%   0.684 Glu                                                 
  937.080   3%   0.378 GPC                                                 
    0.000 999%   0.000 PCh                                                 
  865.079  15%   0.349 GSH                                                 
 4.00E+03  11%   1.614 Ins                                                 
  356.410  86%   0.144 Lac                                                 
 3.30E+03   3%   1.331 NAA                                                 
    0.000 999%   0.000 NAAG                                                
  409.049  10%   0.165 Scyllo                                              
  383.979  77%   0.155 Tau                                                 
  446.790  41%   0.180 -CrCH2                                              
  937.080   3%   0.378 GPC+PCh                                             
 3.30E+03   3%   1.331 NAA+NAAG                                            
 2.48E+03   3%   1.000 Cr+PCr                                              
 3.82E+03  35%   1.541 Glu+Gln                                             
 2.45E+03  29%   0.990 Lip13a                                              
    0.000 999%   0.000 Lip13b                                              
  675.664  45%   0.272 Lip09                                               
  495.556  58%   0.200 MM09                                                
  362.510  56%   0.146 Lip20                                               
  880.513  52%   0.355 MM20                                                
  197.290 103% 8.0E-02 MM12                                                
  360.260  97%   0.145 MM14                                                
    5.346 999% 2.2E-03 MM17                                                
 2.45E+03  29%   0.990 Lip13a+Lip13b                                       
 3.01E+03  22%   1.215 MM14+Lip13a+Lip13b+MM12                             
 1.17E+03  20%   0.472 MM09+Lip09                                          
 1.24E+03  35%   0.501 MM20+Lip20                                          
   6 lines in following misc. output table
  FWHM = 0.107 ppm    S/N =  12                                            
  Data shift = 0.076 ppm                                                   
  Ph: -46 deg     -23.2 deg/ppm                                            
  alphaB,S = 8.1E-01,   1.8E+02                                            
   14 spline knots.   Ns = 6(2)                                            
  ( 9) 2 infls.   ( 1) 1 extrs.                                            
  498 points on ppm-axis = NY
      4.000000     3.992357     3.984714     3.977070     3.969427     3.961784     3.954141     3.946497     3.938854     3.931211
      3.923568     3.915925     3.908281     3.900638     3.892995     3.885352     3.877708     3.870065     3.862422     3.854779
      3.847136     3.839492     3.831849     3.824206     3.816563     3.808919     3.801276     3.793633     3.785990     3.778347
      3.770703     3.763060     3.755417     3.747774     3.740130     3.732487     3.724844     3.717201     3.709558     3.701914
      3.694271     3.686628     3.678985     3.671341     3.663698     3.656055     3.648412     3.640769     3.633125     3.625482
      3.617839     3.610196     3.602552     3.594909     3.587266     3.579623     3.571980     3.564336     3.556693     3.549050
      3.541407     3.533763     3.526120     3.518477     3.510834     3.503191     3.495547     3.487904     3.480261     3.472618
      3.464974     3.457331     3.449688     3.442045     3.434402     3.426758     3.419115     3.411472     3.403829     3.396185
      3.388542     3.380899     3.373256     3.365613     3.357969     3.350326     3.342683     3.335040     3.327396     3.319753
      3.312110     3.304467     3.296824     3.289180     3.281537     3.273894     3.266251     3.258607     3.250964     3.243321
      3.235678     3.228034     3.220391     3.212748     3.205105     3.197462     3.189818     3.182175     3.174532     3.166889
      3.159245     3.151602     3.143959     3.136316     3.128673     3.121029     3.113386     3.105743     3.098100     3.090456
      3.082813     3.075170     3.067527     3.059884     3.052240     3.044597     3.036954     3.029311     3.021667     3.014024
      3.006381     2.998738     2.991095     2.983451     2.975808     2.968165     2.960522     2.952878     2.945235     2.937592
      2.929949     2.922306     2.914662     2.907019     2.899376     2.891733     2.884089     2.876446     2.868803     2.861160
      2.853517     2.845873     2.838230     2.830587     2.822944     2.815300     2.807657     2.800014     2.792371     2.784728
      2.777084     2.769441     2.761798     2.754155     2.746511     2.738868     2.731225     2.723582     2.715939     2.708295
      2.700652     2.693009     2.685366     2.677722     2.670079     2.662436     2.654793     2.647150     2.639506     2.631863
      2.624220     2.616577     2.608933     2.601290     2.593647     2.586004     2.578361     2.570717     2.563074     2.555431
      2.547788     2.540144     2.532501     2.524858     2.517215     2.509572     2.501928     2.494285     2.486642     2.478999
      2.471355     2.463712     2.456069     2.448426     2.440783     2.433139     2.425496     2.417853     2.410210     2.402566
      2.394923     2.387280     2.379637     2.371994     2.364350     2.356707     2.349064     2.341421     2.333777     2.326134
      2.318491     2.310848     2.303205     2.295561     2.287918     2.280275     2.272632     2.264988     2.257345     2.249702
      2.242059     2.234416     2.226772     2.219129     2.211486     2.203843     2.196199     2.188556     2.180913     2.173270
      2.165627     2.157983     2.150340     2.142697     2.135054     2.127410     2.119767     2.112124     2.104481     2.096838
      2.089194     2.081551     2.073908     2.066265     2.058621     2.050978     2.043335     2.035692     2.028049     2.020405
      2.012762     2.005119     1.997476     1.989833     1.982190     1.974546     1.966903     1.959260     1.951617     1.943974
      1.936331     1.928688     1.921045     1.913402     1.905759     1.898115     1.890472     1.882829     1.875186     1.867543
      1.859900     1.852257     1.844614     1.836971     1.829327     1.821684     1.814041     1.806398     1.798755     1.791112
      1.783469     1.775826     1.768183     1.760540     1.752896     1.745253     1.737610     1.729967     1.722324     1.714681
      1.707038     1.699395     1.691752     1.684108     1.676465     1.668822     1.661179     1.653536     1.645893     1.638250
      1.630607     1.622964     1.615321     1.607677     1.600034     1.592391     1.584748     1.577105     1.569462     1.561819
      1.554176     1.546533     1.538890     1.531246     1.523603     1.515960     1.508317     1.500674     1.493031     1.485388
      1.477745     1.470102     1.462458     1.454815     1.447172     1.439529     1.431886     1.424243     1.416600     1.408957
      1.401314     1.393671     1.386027     1.378384     1.370741     1.363098     1.355455     1.347812     1.340169     1.332526
      1.324883     1.317240     1.309596     1.301953     1.294310     1.286667     1.279024     1.271381     1.263738     1.256095
      1.248452     1.240808     1.233165     1.225522     1.217879     1.210236     1.202593     1.194950     1.187307     1.179664
      1.172021     1.164377     1.156734     1.149091     1.141448     1.133805     1.126162     1.118519     1.110876     1.103233
      1.095590     1.087946     1.080303     1.072660     1.065017     1.057374     1.049731     1.042088     1.034445     1.026802
      1.019158     1.011515     1.003872     0.996229     0.988586     0.980943     0.973300     0.965657     0.958014     0.950371
      0.942727     0.935084     0.927441     0.919798     0.912155     0.904512     0.896869     0.889226     0.881583     0.873940
      0.866296     0.858653     0.851010     0.843367     0.835724     0.828081     0.820438     0.812795     0.805152     0.797508
      0.789865     0.782222     0.774579     0.766936     0.759293     0.751650     0.744007     0.736364     0.728721     0.721077
      0.713434     0.705791     0.698148     0.690505     0.682862     0.675219     0.667576     0.659933     0.652290     0.644646
      0.637003     0.629360     0.621717     0.614074     0.606431     0.598788     0.591145     0.583502     0.575858     0.568215
      0.560572     0.552929     0.545286     0.537643     0.530000     0.522357     0.514714     0.507071     0.499427     0.491784
      0.484141     0.476498     0.468855     0.461212     0.453569     0.445925     0.438282     0.430639     0.422996     0.415353
      0.407710     0.400067     0.392424     0.384780     0.377137     0.369494     0.361851     0.354208     0.346565     0.338922
      0.331278     0.323635     0.315992     0.308349     0.300706     0.293063     0.285420     0.277777     0.270133     0.262490
      0.254847     0.247204     0.239561     0.231918     0.224275     0.216631     0.208988     0.201345
 NY phased data points follow
  -1.20592E+02 -1.18372E+02 -1.16294E+02 -1.12412E+02 -1.06198E+02 -1.06764E+02 -1.00460E+02 -9.68900E+01 -9.88290E+01 -9.58735E+01
  -1.01868E+02 -9.74933E+01 -9.92397E+01 -1.03274E+02 -1.03095E+02 -1.08046E+02 -1.09234E+02 -1.08405E+02 -1.06937E+02 -1.11564E+02
  -1.13406E+02 -1.08764E+02 -1.05582E+02 -1.05652E+02 -1.04017E+02 -1.05312E+02 -1.01813E+02 -9.91631E+01 -9.76084E+01 -9.66868E+01
  -9.77818E+01 -9.26549E+01 -9.52218E+01 -8.93124E+01 -8.84845E+01 -8.85255E+01 -8.62411E+01 -8.40003E+01 -8.33513E+01 -8.52588E+01
  -8.01830E+01 -8.21907E+01 -7.99761E+01 -8.20128E+01 -8.14572E+01 -7.88633E+01 -7.78613E+01 -7.59779E+01 -7.88440E+01 -7.71991E+01
  -7.86073E+01 -7.63368E+01 -7.97034E+01 -7.67655E+01 -7.88472E+01 -7.74975E+01 -8.11548E+01 -7.86032E+01 -7.84326E+01 -7.97578E+01
  -8.20440E+01 -8.03026E+01 -7.66191E+01 -7.63138E+01 -7.66874E+01 -7.50289E+01 -7.63968E+01 -7.35957E+01 -7.22285E+01 -6.88160E+01
  -7.17125E+01 -7.29050E+01 -6.78101E+01 -6.88627E+01 -6.73975E+01 -6.78403E+01 -6.55966E+01 -6.53010E+01 -6.32303E+01 -6.03721E+01
  -6.02678E+01 -6.15265E+01 -6.20621E+01 -6.10728E+01 -5.50943E+01 -5.62282E+01 -5.28026E+01 -5.47370E+01 -5.24396E+01 -4.86973E+01
  -4.78601E+01 -4.72645E+01 -4.58678E+01 -3.85507E+01 -3.24614E+01 -2.74908E+01 -2.74449E+01 -2.19349E+01 -1.79462E+01 -1.93618E+01
  -1.69481E+01 -1.45865E+01 -1.37187E+01 -1.96564E+01 -2.29375E+01 -1.94996E+01 -2.23361E+01 -2.62700E+01 -3.10608E+01 -3.49859E+01
  -3.49249E+01 -3.87895E+01 -4.33679E+01 -3.96233E+01 -4.03608E+01 -3.74281E+01 -3.88749E+01 -3.34997E+01 -3.15467E+01 -2.40464E+01
  -2.29274E+01 -1.99457E+01 -1.68504E+01 -1.44454E+01 -9.74974E+00 -1.63225E+00 -7.88707E+00 -2.11811E+00 -5.14122E+00 -3.11230E+00
  -7.46106E+00 -1.11887E+01 -1.43208E+01 -1.79979E+01 -2.29699E+01 -2.92662E+01 -2.94009E+01 -3.27728E+01 -3.59754E+01 -3.56255E+01
  -3.50963E+01 -3.87922E+01 -3.94317E+01 -3.62514E+01 -3.71050E+01 -3.56654E+01 -3.57339E+01 -3.32597E+01 -3.23306E+01 -3.74034E+01
  -3.24656E+01 -3.28016E+01 -3.64585E+01 -3.82846E+01 -3.78662E+01 -3.59534E+01 -3.48827E+01 -3.05522E+01 -3.47615E+01 -3.21952E+01
  -3.36194E+01 -3.42304E+01 -3.31647E+01 -3.46277E+01 -3.75759E+01 -3.39497E+01 -3.67261E+01 -3.20113E+01 -3.58270E+01 -3.77690E+01
  -3.48925E+01 -3.57056E+01 -3.84192E+01 -3.96518E+01 -3.93918E+01 -4.20296E+01 -3.52021E+01 -3.87392E+01 -4.08950E+01 -3.46397E+01
  -3.61823E+01 -3.65912E+01 -3.51755E+01 -3.12978E+01 -3.15095E+01 -3.40314E+01 -2.93704E+01 -2.79459E+01 -2.49891E+01 -2.28492E+01
  -2.37386E+01 -2.09036E+01 -2.07804E+01 -2.09122E+01 -1.87994E+01 -1.96686E+01 -1.92993E+01 -1.58405E+01 -1.65631E+01 -1.83574E+01
  -1.78369E+01 -1.95655E+01 -2.09068E+01 -1.90116E+01 -1.76632E+01 -1.53917E+01 -2.01628E+01 -1.70802E+01 -1.77210E+01 -1.97913E+01
  -1.81626E+01 -1.70946E+01 -1.55682E+01 -1.59262E+01 -1.33997E+01 -8.19348E+00 -1.34268E+01 -9.12441E+00 -1.07494E+01 -1.00032E+01
  -1.07309E+01 -1.42037E+01 -1.13340E+01 -1.44919E+01 -1.13631E+01 -1.19711E+01 -8.46033E+00 -1.09441E+01 -1.10284E+01 -7.86674E+00
  -7.79734E+00 -6.34941E+00 -6.72141E+00 -3.93377E+00 -9.05468E+00 -6.75250E+00 -7.06006E+00 -7.64820E+00 -4.59668E+00 -8.31165E+00
  -9.67846E+00 -7.42789E+00 -9.09206E+00 -8.83186E+00 -8.33922E+00 -3.98773E+00 -1.35096E+00  4.34109E+00  5.67158E+00  7.94549E+00
   1.17671E+01  2.03352E+01  2.48115E+01  2.67568E+01  3.21168E+01  3.60108E+01  4.11657E+01  4.57248E+01  5.30946E+01  5.96984E+01
   6.07915E+01  5.85306E+01  5.34158E+01  5.11175E+01  4.03664E+01  3.77877E+01  2.98144E+01  1.94760E+01  1.89610E+01  1.01107E+01
   8.65604E+00  4.87502E+00  3.04923E+00  2.96030E+00  1.45271E+00  1.80543E+00 -3.19265E+00  9.24288E-01  1.56921E+00  2.10816E+00
   2.74579E-01  2.04330E-01 -2.08563E-01 -8.60395E-01 -9.65156E-01 -2.43738E+00 -1.62438E+00  1.13352E+00  1.32849E+00 -2.37808E+00
  -4.76028E-01  2.38494E+00 -2.97597E-01 -2.31287E+00  6.18259E-01 -8.74810E-01 -1.02087E+00 -2.43876E+00 -3.76035E+00  2.60575E+00
   2.87798E+00  2.76600E+00  3.56545E+00  3.32092E+00  1.82148E+00  7.64253E+00  4.37614E+00  5.11015E+00  3.22429E+00 -1.58809E+00
   3.55233E+00  2.27710E+00  3.81976E-01  2.80676E+00  3.40319E+00  7.21000E+00  6.04578E+00  4.63623E+00  5.64712E+00  5.05230E+00
   1.88937E+00  4.91627E+00  3.70849E+00  6.75210E+00  1.29926E+00  6.43270E+00  5.42514E+00  5.38862E+00  7.06911E+00  8.45003E+00
   8.76450E+00  8.97428E+00  8.64805E+00  9.95215E+00  1.25521E+01  1.30862E+01  1.36624E+01  1.39333E+01  1.70570E+01  1.60208E+01
   1.71287E+01  1.63152E+01  1.64518E+01  1.73287E+01  1.51193E+01  1.60316E+01  1.77709E+01  1.41605E+01  1.75486E+01  2.03148E+01
   1.67816E+01  1.74375E+01  2.10189E+01  1.88938E+01  1.63818E+01  1.80129E+01  2.06405E+01  1.97804E+01  1.86359E+01  1.77138E+01
   1.55290E+01  1.69446E+01  1.74614E+01  1.93550E+01  1.94194E+01  1.83525E+01  2.01397E+01  1.81696E+01  2.14008E+01  1.97157E+01
   1.81127E+01  2.00895E+01  2.00659E+01  1.57142E+01  1.97999E+01  1.76814E+01  1.57241E+01  1.53211E+01  1.83710E+01  1.61358E+01
   1.56897E+01  1.45611E+01  1.64127E+01  1.60871E+01  1.61046E+01  1.42391E+01  1.50817E+01  1.49920E+01  1.77638E+01  1.33234E+01
   1.89393E+01  1.96766E+01  2.01628E+01  1.77905E+01  1.72507E+01  2.00252E+01  1.93852E+01  2.17229E+01  2.05297E+01  2.08233E+01
   2.50204E+01  1.83343E+01  2.24288E+01  2.14673E+01  1.95424E+01  1.92732E+01  2.07521E+01  2.08452E+01  2.26508E+01  2.02943E+01
   2.35048E+01  2.21364E+01  2.21587E+01  2.02510E+01  2.11157E+01  2.02017E+01  2.16184E+01  1.76810E+01  2.27630E+01  1.93346E+01
   1.99747E+01  1.56442E+01  1.91075E+01  2.14696E+01  1.47267E+01  2.08165E+01  1.57563E+01  2.07039E+01  1.88616E+01  1.43916E+01
   1.51516E+01  2.03699E+01  1.43317E+01  1.54106E+01  1.55168E+01  1.58631E+01  1.61775E+01  1.94592E+01  1.48513E+01  1.91058E+01
   1.58107E+01  1.56233E+01  1.62108E+01  1.45972E+01  1.44653E+01  1.47771E+01  1.81715E+01  1.82381E+01  1.64151E+01  1.46617E+01
   1.49355E+01  1.68452E+01  1.54057E+01  1.56340E+01  1.81658E+01  1.43832E+01  1.35307E+01  1.72968E+01  1.81941E+01  1.66984E+01
   1.73426E+01  1.55514E+01  1.71294E+01  1.60819E+01  1.74824E+01  1.99482E+01  1.40287E+01  2.01590E+01  1.65130E+01  1.65313E+01
   1.74685E+01  1.75244E+01  1.66445E+01  1.62950E+01  1.61482E+01  1.49329E+01  1.76377E+01  1.79380E+01  1.89179E+01  1.64651E+01
   1.33072E+01  1.63580E+01  1.37111E+01  1.66880E+01  1.41818E+01  1.56204E+01  1.52027E+01  1.71694E+01  1.53472E+01  1.31149E+01
   1.39766E+01  1.74134E+01  1.33185E+01  1.49207E+01  1.81162E+01  1.33563E+01  1.84155E+01  1.47873E+01
 NY points of the fit to the data follow
  -1.17199E+02 -1.14700E+02 -1.13054E+02 -1.10567E+02 -1.08663E+02 -1.05966E+02 -1.04155E+02 -1.01650E+02 -1.00219E+02 -9.91395E+01
  -9.87381E+01 -9.91137E+01 -9.95030E+01 -1.01256E+02 -1.02402E+02 -1.04607E+02 -1.06072E+02 -1.07867E+02 -1.08780E+02 -1.08378E+02
  -1.08598E+02 -1.07121E+02 -1.07035E+02 -1.05032E+02 -1.04877E+02 -1.01917E+02 -1.01483E+02 -9.84199E+01 -9.79021E+01 -9.47513E+01
  -9.41418E+01 -9.18595E+01 -9.15773E+01 -9.03366E+01 -8.97686E+01 -8.85833E+01 -8.77794E+01 -8.70310E+01 -8.63811E+01 -8.54583E+01
  -8.48429E+01 -8.37569E+01 -8.32156E+01 -8.16840E+01 -8.12404E+01 -7.98897E+01 -7.96659E+01 -7.81909E+01 -7.85111E+01 -7.76544E+01
  -7.85972E+01 -7.83234E+01 -7.96265E+01 -7.95143E+01 -8.04367E+01 -7.99432E+01 -8.04265E+01 -7.92846E+01 -7.96008E+01 -7.79941E+01
  -7.84922E+01 -7.69118E+01 -7.73931E+01 -7.54455E+01 -7.57768E+01 -7.39245E+01 -7.42690E+01 -7.24230E+01 -7.26958E+01 -7.09106E+01
  -7.10265E+01 -6.94790E+01 -6.94292E+01 -6.80968E+01 -6.69095E+01 -6.55722E+01 -6.45297E+01 -6.32957E+01 -6.25441E+01 -6.12760E+01
  -6.08239E+01 -5.93724E+01 -5.90134E+01 -5.72904E+01 -5.71060E+01 -5.55137E+01 -5.61113E+01 -5.46514E+01 -5.55315E+01 -5.30528E+01
  -5.02016E+01 -4.69376E+01 -4.29466E+01 -3.99237E+01 -3.52218E+01 -3.27968E+01 -2.81074E+01 -2.61385E+01 -2.11642E+01 -1.96321E+01
  -1.51754E+01 -1.48089E+01 -1.27810E+01 -1.41433E+01 -1.55955E+01 -1.85181E+01 -2.24852E+01 -2.60806E+01 -3.09483E+01 -3.41904E+01
  -3.82416E+01 -4.05674E+01 -4.33521E+01 -4.44824E+01 -4.45914E+01 -4.12579E+01 -4.05761E+01 -3.50281E+01 -3.30635E+01 -2.62393E+01
  -2.50769E+01 -1.79396E+01 -1.74094E+01 -9.60868E+00 -1.01879E+01 -2.64915E+00 -5.37415E+00 -4.61376E-01 -5.31708E+00 -3.59316E+00
  -9.62607E+00 -1.04280E+01 -1.65742E+01 -1.87493E+01 -2.40346E+01 -2.61303E+01 -3.02117E+01 -3.17618E+01 -3.46089E+01 -3.54307E+01
  -3.73964E+01 -3.78817E+01 -3.85820E+01 -3.75225E+01 -3.78419E+01 -3.68679E+01 -3.71198E+01 -3.63866E+01 -3.66207E+01 -3.62773E+01
  -3.63123E+01 -3.61133E+01 -3.59561E+01 -3.58099E+01 -3.56523E+01 -3.56034E+01 -3.54361E+01 -3.54264E+01 -3.52454E+01 -3.52267E+01
  -3.50443E+01 -3.49479E+01 -3.48292E+01 -3.46912E+01 -3.48639E+01 -3.46658E+01 -3.48588E+01 -3.46437E+01 -3.48641E+01 -3.48364E+01
  -3.49183E+01 -3.49636E+01 -3.48764E+01 -3.49441E+01 -3.47775E+01 -3.49158E+01 -3.44129E+01 -3.45537E+01 -3.37086E+01 -3.36854E+01
  -3.24317E+01 -3.21811E+01 -3.08653E+01 -3.05980E+01 -2.93865E+01 -2.89862E+01 -2.80631E+01 -2.75748E+01 -2.65925E+01 -2.56734E+01
  -2.46634E+01 -2.35369E+01 -2.25299E+01 -2.13881E+01 -2.06308E+01 -1.97384E+01 -1.95109E+01 -1.93445E+01 -1.93306E+01 -1.89715E+01
  -1.89682E+01 -1.86761E+01 -1.86484E+01 -1.84017E+01 -1.83094E+01 -1.79860E+01 -1.83866E+01 -1.78670E+01 -1.85327E+01 -1.74495E+01
  -1.82789E+01 -1.68957E+01 -1.74318E+01 -1.53991E+01 -1.58320E+01 -1.36775E+01 -1.42083E+01 -1.22821E+01 -1.30894E+01 -1.16961E+01
  -1.26500E+01 -1.17420E+01 -1.24327E+01 -1.19020E+01 -1.20895E+01 -1.15925E+01 -1.10905E+01 -1.01723E+01 -9.36600E+00 -8.61078E+00
  -8.28388E+00 -7.85586E+00 -7.92497E+00 -7.53576E+00 -7.85979E+00 -7.04887E+00 -7.49173E+00 -6.30173E+00 -7.07822E+00 -5.97172E+00
  -7.19684E+00 -6.10631E+00 -7.34450E+00 -6.23966E+00 -7.04140E+00 -5.61218E+00 -5.55023E+00 -2.59979E+00  3.24643E+00  7.84701E+00
   1.47436E+01  1.93089E+01  2.61265E+01  3.03443E+01  3.62080E+01  4.01182E+01  4.56748E+01  4.91325E+01  5.34789E+01  5.55471E+01
   5.56595E+01  5.54258E+01  5.10201E+01  4.87709E+01  4.11665E+01  3.77411E+01  2.91948E+01  2.56882E+01  1.85234E+01  1.56519E+01
   1.02690E+01  8.12947E+00  4.40291E+00  2.82762E+00 -1.23222E-01 -8.91275E-01 -1.11047E+00 -1.14198E+00 -1.16754E+00 -1.15361E+00
  -1.11641E+00 -1.08455E+00 -1.04113E+00 -9.79832E-01 -9.11934E-01 -8.27440E-01 -7.43267E-01 -6.37624E-01 -5.48902E-01 -4.31029E-01
  -3.25545E-01 -1.87898E-01 -6.89741E-02  8.31715E-02  2.10788E-01  3.74832E-01  5.10427E-01  6.78154E-01  8.21760E-01  9.96431E-01
   1.14881E+00  1.33220E+00  1.49568E+00  1.68856E+00  1.86280E+00  2.06631E+00  2.25293E+00  2.46906E+00  2.67071E+00  2.90410E+00
   3.12658E+00  3.38691E+00  3.64540E+00  3.96011E+00  4.31892E+00  4.76088E+00  5.00266E+00  5.43868E+00  5.56373E+00  5.98871E+00
   5.99139E+00  6.37518E+00  6.27320E+00  6.84438E+00  6.74560E+00  7.40410E+00  7.24883E+00  7.91007E+00  7.78292E+00  8.43876E+00
   8.43933E+00  9.16812E+00  9.41151E+00  1.02919E+01  1.08778E+01  1.19617E+01  1.26275E+01  1.34686E+01  1.40879E+01  1.46212E+01
   1.51174E+01  1.53113E+01  1.57155E+01  1.60077E+01  1.64139E+01  1.66251E+01  1.69753E+01  1.70022E+01  1.73226E+01  1.71962E+01
   1.75076E+01  1.74991E+01  1.79261E+01  1.81112E+01  1.86453E+01  1.89130E+01  1.94094E+01  1.95834E+01  1.99247E+01  1.99178E+01
   2.00464E+01  1.98538E+01  1.98202E+01  1.96169E+01  1.94343E+01  1.91270E+01  1.88568E+01  1.85180E+01  1.82106E+01  1.78324E+01
   1.74975E+01  1.72266E+01  1.69634E+01  1.67453E+01  1.65311E+01  1.63624E+01  1.61997E+01  1.60847E+01  1.59782E+01  1.59215E+01
   1.58753E+01  1.58806E+01  1.58980E+01  1.59682E+01  1.60518E+01  1.61888E+01  1.63397E+01  1.65439E+01  1.67613E+01  1.70304E+01
   1.73100E+01  1.76374E+01  1.79699E+01  1.83431E+01  1.87129E+01  1.91128E+01  1.94972E+01  1.98982E+01  2.02691E+01  2.06411E+01
   2.09676E+01  2.12797E+01  2.15319E+01  2.17570E+01  2.19114E+01  2.20306E+01  2.20740E+01  2.20799E+01  2.20113E+01  2.19094E+01
   2.17403E+01  2.15475E+01  2.12991E+01  2.10400E+01  2.07391E+01  2.04416E+01  2.01164E+01  1.98074E+01  1.94825E+01  1.91844E+01
   1.88793E+01  1.86080E+01  1.83354E+01  1.81003E+01  1.78663E+01  1.76708E+01  1.74765E+01  1.73198E+01  1.71628E+01  1.70412E+01
   1.69169E+01  1.68254E+01  1.67285E+01  1.66618E+01  1.65871E+01  1.65400E+01  1.64828E+01  1.64511E+01  1.64073E+01  1.63872E+01
   1.63537E+01  1.63423E+01  1.63163E+01  1.63115E+01  1.62911E+01  1.62909E+01  1.62745E+01  1.62776E+01  1.62640E+01  1.62694E+01
   1.62577E+01  1.62645E+01  1.62538E+01  1.62614E+01  1.62513E+01  1.62592E+01  1.62494E+01  1.62574E+01  1.62475E+01  1.62552E+01
   1.62451E+01  1.62524E+01  1.62419E+01  1.62487E+01  1.62377E+01  1.62440E+01  1.62324E+01  1.62380E+01  1.62259E+01  1.62308E+01
   1.62180E+01  1.62223E+01  1.62090E+01  1.62126E+01  1.61986E+01  1.62016E+01  1.61871E+01  1.61895E+01  1.61745E+01  1.61764E+01
   1.61609E+01  1.61623E+01  1.61464E+01  1.61475E+01  1.61313E+01  1.61320E+01  1.61156E+01  1.61160E+01  1.60995E+01  1.60998E+01
   1.60832E+01  1.60836E+01  1.60671E+01  1.60676E+01  1.60514E+01  1.60522E+01  1.60364E+01  1.60377E+01
 NY background values follow
    -1.404E+02   -1.395E+02   -1.387E+02   -1.378E+02   -1.369E+02   -1.361E+02   -1.352E+02   -1.344E+02   -1.335E+02   -1.326E+02
    -1.318E+02   -1.309E+02   -1.300E+02   -1.292E+02   -1.283E+02   -1.274E+02   -1.266E+02   -1.257E+02   -1.249E+02   -1.240E+02
    -1.231E+02   -1.223E+02   -1.214E+02   -1.206E+02   -1.197E+02   -1.188E+02   -1.180E+02   -1.171E+02   -1.163E+02   -1.154E+02
    -1.146E+02   -1.137E+02   -1.129E+02   -1.121E+02   -1.112E+02   -1.104E+02   -1.095E+02   -1.087E+02   -1.079E+02   -1.070E+02
    -1.062E+02   -1.054E+02   -1.046E+02   -1.037E+02   -1.029E+02   -1.021E+02   -1.013E+02   -1.005E+02   -9.965E+01   -9.884E+01
    -9.803E+01   -9.723E+01   -9.643E+01   -9.563E+01   -9.484E+01   -9.405E+01   -9.326E+01   -9.247E+01   -9.169E+01   -9.091E+01
    -9.013E+01   -8.936E+01   -8.859E+01   -8.782E+01   -8.706E+01   -8.630E+01   -8.554E+01   -8.479E+01   -8.404E+01   -8.330E+01
    -8.256E+01   -8.182E+01   -8.108E+01   -8.035E+01   -7.963E+01   -7.890E+01   -7.818E+01   -7.747E+01   -7.676E+01   -7.605E+01
    -7.535E+01   -7.465E+01   -7.396E+01   -7.327E+01   -7.258E+01   -7.190E+01   -7.123E+01   -7.055E+01   -6.989E+01   -6.923E+01
    -6.857E+01   -6.791E+01   -6.727E+01   -6.662E+01   -6.598E+01   -6.535E+01   -6.472E+01   -6.410E+01   -6.348E+01   -6.286E+01
    -6.225E+01   -6.165E+01   -6.105E+01   -6.045E+01   -5.986E+01   -5.927E+01   -5.869E+01   -5.812E+01   -5.754E+01   -5.698E+01
    -5.641E+01   -5.586E+01   -5.530E+01   -5.476E+01   -5.421E+01   -5.368E+01   -5.314E+01   -5.261E+01   -5.209E+01   -5.157E+01
    -5.106E+01   -5.055E+01   -5.004E+01   -4.954E+01   -4.905E+01   -4.856E+01   -4.807E+01   -4.759E+01   -4.712E+01   -4.665E+01
    -4.618E+01   -4.572E+01   -4.526E+01   -4.481E+01   -4.437E+01   -4.392E+01   -4.349E+01   -4.306E+01   -4.263E+01   -4.221E+01
    -4.179E+01   -4.137E+01   -4.096E+01   -4.056E+01   -4.016E+01   -3.976E+01   -3.937E+01   -3.898E+01   -3.859E+01   -3.821E+01
    -3.783E+01   -3.746E+01   -3.708E+01   -3.672E+01   -3.635E+01   -3.599E+01   -3.563E+01   -3.527E+01   -3.492E+01   -3.457E+01
    -3.422E+01   -3.387E+01   -3.353E+01   -3.318E+01   -3.284E+01   -3.251E+01   -3.217E+01   -3.183E+01   -3.150E+01   -3.117E+01
    -3.084E+01   -3.051E+01   -3.019E+01   -2.986E+01   -2.954E+01   -2.921E+01   -2.889E+01   -2.857E+01   -2.825E+01   -2.793E+01
    -2.761E+01   -2.729E+01   -2.697E+01   -2.665E+01   -2.633E+01   -2.601E+01   -2.570E+01   -2.538E+01   -2.507E+01   -2.475E+01
    -2.444E+01   -2.412E+01   -2.381E+01   -2.350E+01   -2.319E+01   -2.288E+01   -2.257E+01   -2.226E+01   -2.196E+01   -2.165E+01
    -2.135E+01   -2.105E+01   -2.075E+01   -2.045E+01   -2.015E+01   -1.985E+01   -1.956E+01   -1.927E+01   -1.898E+01   -1.869E+01
    -1.840E+01   -1.812E+01   -1.783E+01   -1.755E+01   -1.727E+01   -1.700E+01   -1.672E+01   -1.645E+01   -1.618E+01   -1.592E+01
    -1.565E+01   -1.539E+01   -1.513E+01   -1.487E+01   -1.462E+01   -1.437E+01   -1.412E+01   -1.387E+01   -1.363E+01   -1.339E+01
    -1.315E+01   -1.291E+01   -1.268E+01   -1.245E+01   -1.222E+01   -1.200E+01   -1.178E+01   -1.156E+01   -1.134E+01   -1.112E+01
    -1.091E+01   -1.070E+01   -1.049E+01   -1.028E+01   -1.008E+01   -9.875E+00   -9.674E+00   -9.475E+00   -9.278E+00   -9.083E+00
    -8.890E+00   -8.698E+00   -8.508E+00   -8.320E+00   -8.133E+00   -7.948E+00   -7.764E+00   -7.582E+00   -7.401E+00   -7.221E+00
    -7.043E+00   -6.867E+00   -6.691E+00   -6.517E+00   -6.343E+00   -6.171E+00   -6.000E+00   -5.830E+00   -5.661E+00   -5.493E+00
    -5.325E+00   -5.159E+00   -4.993E+00   -4.828E+00   -4.664E+00   -4.500E+00   -4.337E+00   -4.175E+00   -4.014E+00   -3.853E+00
    -3.693E+00   -3.533E+00   -3.374E+00   -3.215E+00   -3.057E+00   -2.900E+00   -2.743E+00   -2.587E+00   -2.431E+00   -2.275E+00
    -2.120E+00   -1.965E+00   -1.811E+00   -1.657E+00   -1.503E+00   -1.350E+00   -1.197E+00   -1.044E+00   -8.916E-01   -7.394E-01
    -5.874E-01   -4.357E-01   -2.841E-01   -1.326E-01    1.866E-02    1.698E-01    3.209E-01    4.718E-01    6.227E-01    7.736E-01
     9.244E-01    1.075E+00    1.226E+00    1.377E+00    1.528E+00    1.679E+00    1.830E+00    1.981E+00    2.132E+00    2.283E+00
     2.435E+00    2.586E+00    2.738E+00    2.889E+00    3.040E+00    3.192E+00    3.343E+00    3.494E+00    3.645E+00    3.795E+00
     3.946E+00    4.096E+00    4.246E+00    4.396E+00    4.545E+00    4.694E+00    4.843E+00    4.992E+00    5.140E+00    5.287E+00
     5.434E+00    5.581E+00    5.727E+00    5.873E+00    6.018E+00    6.163E+00    6.307E+00    6.450E+00    6.593E+00    6.735E+00
     6.876E+00    7.017E+00    7.157E+00    7.296E+00    7.434E+00    7.572E+00    7.708E+00    7.844E+00    7.979E+00    8.113E+00
     8.246E+00    8.378E+00    8.509E+00    8.640E+00    8.769E+00    8.897E+00    9.024E+00    9.150E+00    9.275E+00    9.399E+00
     9.522E+00    9.644E+00    9.765E+00    9.885E+00    1.000E+01    1.012E+01    1.024E+01    1.035E+01    1.047E+01    1.058E+01
     1.069E+01    1.080E+01    1.091E+01    1.102E+01    1.113E+01    1.124E+01    1.134E+01    1.145E+01    1.155E+01    1.165E+01
     1.175E+01    1.185E+01    1.195E+01    1.205E+01    1.214E+01    1.224E+01    1.233E+01    1.242E+01    1.251E+01    1.260E+01
     1.269E+01    1.278E+01    1.286E+01    1.295E+01    1.303E+01    1.311E+01    1.320E+01    1.328E+01    1.335E+01    1.343E+01
     1.351E+01    1.358E+01    1.365E+01    1.373E+01    1.380E+01    1.387E+01    1.393E+01    1.400E+01    1.407E+01    1.413E+01
     1.419E+01    1.425E+01    1.431E+01    1.437E+01    1.443E+01    1.449E+01    1.454E+01    1.460E+01    1.465E+01    1.470E+01
     1.475E+01    1.480E+01    1.485E+01    1.490E+01    1.494E+01    1.499E+01    1.503E+01    1.507E+01    1.511E+01    1.515E+01
     1.519E+01    1.522E+01    1.526E+01    1.529E+01    1.533E+01    1.536E+01    1.539E+01    1.542E+01    1.545E+01    1.547E+01
     1.550E+01    1.552E+01    1.555E+01    1.557E+01    1.559E+01    1.561E+01    1.563E+01    1.565E+01    1.566E+01    1.568E+01
     1.569E+01    1.571E+01    1.572E+01    1.573E+01    1.574E+01    1.575E+01    1.576E+01    1.577E+01    1.578E+01    1.578E+01
     1.579E+01    1.579E+01    1.580E+01    1.580E+01    1.581E+01    1.581E+01    1.581E+01    1.581E+01    1.581E+01    1.581E+01
     1.581E+01    1.581E+01    1.581E+01    1.581E+01    1.581E+01    1.580E+01    1.580E+01    1.580E+01    1.579E+01    1.579E+01
     1.579E+01    1.578E+01    1.578E+01    1.577E+01    1.577E+01    1.576E+01    1.576E+01    1.575E+01
 Ala      Conc. = 2.49E+02
