 LCModel (Version 6.3-1L) Copyright: S.W. Provencher.          Ref.: Magn. Reson. Med. 30:672-679 (1993).                
 Slice#1 Row#9 Col#10  K_02_press_1_raw_act
 36 lines in following concentration table = NCONC+1
    Conc.  %SD /Cr+PCr  Metabolite                                         
  237.789  30%   0.267 Ala                                                 
    0.000 999%   0.000 Asp                                                 
  186.228  70%   0.209 Cr                                                  
  703.559  20%   0.791 PCr                                                 
    0.000 999%   0.000 GABA                                                
    7.020 999% 7.9E-03 Glc                                                 
  134.648 102%   0.151 Gln                                                 
  895.439  18%   1.006 Glu                                                 
  402.181   5%   0.452 GPC                                                 
    0.000 999%   0.000 PCh                                                 
  220.665  24%   0.248 GSH                                                 
  597.984  29%   0.672 Ins                                                 
   48.240 151% 5.4E-02 Lac                                                 
 1.85E+03   5%   2.080 NAA                                                 
  781.638   9%   0.878 NAAG                                                
   19.688 108% 2.2E-02 Scyllo                                              
   65.630 231% 7.4E-02 Tau                                                 
  471.457  19%   0.530 -CrCH2                                              
  402.181   5%   0.452 GPC+PCh                                             
 2.63E+03   3%   2.959 NAA+NAAG                                            
  889.787   6%   1.000 Cr+PCr                                              
 1.03E+03  19%   1.158 Glu+Gln                                             
    0.000 999%   0.000 Lip13a                                              
    0.000 999%   0.000 Lip13b                                              
    0.000 999%   0.000 Lip09                                               
 1.24E+03  15%   1.397 MM09                                                
 2.54E-03 999% 2.9E-06 Lip20                                               
 2.49E+03  14%   2.799 MM20                                                
  297.676  37%   0.335 MM12                                                
 2.05E+03  15%   2.299 MM14                                                
 1.39E+03  16%   1.565 MM17                                                
    0.000 999%   0.000 Lip13a+Lip13b                                       
 2.34E+03  14%   2.634 MM14+Lip13a+Lip13b+MM12                             
 1.24E+03  15%   1.397 MM09+Lip09                                          
 2.49E+03  14%   2.799 MM20+Lip20                                          
   6 lines in following misc. output table
  FWHM = 0.031 ppm    S/N =  15                                            
  Data shift = 0.008 ppm                                                   
  Ph: -29 deg      -9.2 deg/ppm                                            
  alphaB,S = 8.1E-01,   1.1E+01                                            
   14 spline knots.   Ns = 5(1)                                            
  ( 4) 2 infls.   ( 3) 1 extrs.                                            
  498 points on ppm-axis = NY
      4.000000     3.992357     3.984714     3.977070     3.969427     3.961784     3.954141     3.946497     3.938854     3.931211
      3.923568     3.915925     3.908281     3.900638     3.892995     3.885352     3.877708     3.870065     3.862422     3.854779
      3.847136     3.839492     3.831849     3.824206     3.816563     3.808919     3.801276     3.793633     3.785990     3.778347
      3.770703     3.763060     3.755417     3.747774     3.740130     3.732487     3.724844     3.717201     3.709558     3.701914
      3.694271     3.686628     3.678985     3.671341     3.663698     3.656055     3.648412     3.640769     3.633125     3.625482
      3.617839     3.610196     3.602552     3.594909     3.587266     3.579623     3.571980     3.564336     3.556693     3.549050
      3.541407     3.533763     3.526120     3.518477     3.510834     3.503191     3.495547     3.487904     3.480261     3.472618
      3.464974     3.457331     3.449688     3.442045     3.434402     3.426758     3.419115     3.411472     3.403829     3.396185
      3.388542     3.380899     3.373256     3.365613     3.357969     3.350326     3.342683     3.335040     3.327396     3.319753
      3.312110     3.304467     3.296824     3.289180     3.281537     3.273894     3.266251     3.258607     3.250964     3.243321
      3.235678     3.228034     3.220391     3.212748     3.205105     3.197462     3.189818     3.182175     3.174532     3.166889
      3.159245     3.151602     3.143959     3.136316     3.128673     3.121029     3.113386     3.105743     3.098100     3.090456
      3.082813     3.075170     3.067527     3.059884     3.052240     3.044597     3.036954     3.029311     3.021667     3.014024
      3.006381     2.998738     2.991095     2.983451     2.975808     2.968165     2.960522     2.952878     2.945235     2.937592
      2.929949     2.922306     2.914662     2.907019     2.899376     2.891733     2.884089     2.876446     2.868803     2.861160
      2.853517     2.845873     2.838230     2.830587     2.822944     2.815300     2.807657     2.800014     2.792371     2.784728
      2.777084     2.769441     2.761798     2.754155     2.746511     2.738868     2.731225     2.723582     2.715939     2.708295
      2.700652     2.693009     2.685366     2.677722     2.670079     2.662436     2.654793     2.647150     2.639506     2.631863
      2.624220     2.616577     2.608933     2.601290     2.593647     2.586004     2.578361     2.570717     2.563074     2.555431
      2.547788     2.540144     2.532501     2.524858     2.517215     2.509572     2.501928     2.494285     2.486642     2.478999
      2.471355     2.463712     2.456069     2.448426     2.440783     2.433139     2.425496     2.417853     2.410210     2.402566
      2.394923     2.387280     2.379637     2.371994     2.364350     2.356707     2.349064     2.341421     2.333777     2.326134
      2.318491     2.310848     2.303205     2.295561     2.287918     2.280275     2.272632     2.264988     2.257345     2.249702
      2.242059     2.234416     2.226772     2.219129     2.211486     2.203843     2.196199     2.188556     2.180913     2.173270
      2.165627     2.157983     2.150340     2.142697     2.135054     2.127410     2.119767     2.112124     2.104481     2.096838
      2.089194     2.081551     2.073908     2.066265     2.058621     2.050978     2.043335     2.035692     2.028049     2.020405
      2.012762     2.005119     1.997476     1.989833     1.982190     1.974546     1.966903     1.959260     1.951617     1.943974
      1.936331     1.928688     1.921045     1.913402     1.905759     1.898115     1.890472     1.882829     1.875186     1.867543
      1.859900     1.852257     1.844614     1.836971     1.829327     1.821684     1.814041     1.806398     1.798755     1.791112
      1.783469     1.775826     1.768183     1.760540     1.752896     1.745253     1.737610     1.729967     1.722324     1.714681
      1.707038     1.699395     1.691752     1.684108     1.676465     1.668822     1.661179     1.653536     1.645893     1.638250
      1.630607     1.622964     1.615321     1.607677     1.600034     1.592391     1.584748     1.577105     1.569462     1.561819
      1.554176     1.546533     1.538890     1.531246     1.523603     1.515960     1.508317     1.500674     1.493031     1.485388
      1.477745     1.470102     1.462458     1.454815     1.447172     1.439529     1.431886     1.424243     1.416600     1.408957
      1.401314     1.393671     1.386027     1.378384     1.370741     1.363098     1.355455     1.347812     1.340169     1.332526
      1.324883     1.317240     1.309596     1.301953     1.294310     1.286667     1.279024     1.271381     1.263738     1.256095
      1.248452     1.240808     1.233165     1.225522     1.217879     1.210236     1.202593     1.194950     1.187307     1.179664
      1.172021     1.164377     1.156734     1.149091     1.141448     1.133805     1.126162     1.118519     1.110876     1.103233
      1.095590     1.087946     1.080303     1.072660     1.065017     1.057374     1.049731     1.042088     1.034445     1.026802
      1.019158     1.011515     1.003872     0.996229     0.988586     0.980943     0.973300     0.965657     0.958014     0.950371
      0.942727     0.935084     0.927441     0.919798     0.912155     0.904512     0.896869     0.889226     0.881583     0.873940
      0.866296     0.858653     0.851010     0.843367     0.835724     0.828081     0.820438     0.812795     0.805152     0.797508
      0.789865     0.782222     0.774579     0.766936     0.759293     0.751650     0.744007     0.736364     0.728721     0.721077
      0.713434     0.705791     0.698148     0.690505     0.682862     0.675219     0.667576     0.659933     0.652290     0.644646
      0.637003     0.629360     0.621717     0.614074     0.606431     0.598788     0.591145     0.583502     0.575858     0.568215
      0.560572     0.552929     0.545286     0.537643     0.530000     0.522357     0.514714     0.507071     0.499427     0.491784
      0.484141     0.476498     0.468855     0.461212     0.453569     0.445925     0.438282     0.430639     0.422996     0.415353
      0.407710     0.400067     0.392424     0.384780     0.377137     0.369494     0.361851     0.354208     0.346565     0.338922
      0.331278     0.323635     0.315992     0.308349     0.300706     0.293063     0.285420     0.277777     0.270133     0.262490
      0.254847     0.247204     0.239561     0.231918     0.224275     0.216631     0.208988     0.201345
 NY phased data points follow
   1.11099E+01  1.53325E+01  1.10345E+01  1.19471E+01  1.60349E+01  8.30160E+00  1.39865E+01  1.69648E+01  1.78347E+01  2.52261E+01
   2.45811E+01  2.20485E+01  2.30278E+01  1.95417E+01  1.33895E+01  1.32082E+01  7.11915E+00  1.30327E+01  3.92461E+00  1.15376E+01
   1.37432E+01  9.55337E+00  1.25654E+01  1.02721E+01  1.46002E+01  1.05593E+01  1.04268E+01  9.36675E+00  1.20484E+01  1.09928E+01
   1.56784E+01  1.43001E+01  1.51110E+01  1.72048E+01  1.12471E+01  1.54707E+01  1.10317E+01  1.31171E+01  1.46511E+01  1.54041E+01
   1.09314E+01  1.55823E+01  1.64215E+01  1.66541E+01  1.45559E+01  1.89644E+01  1.74614E+01  2.42886E+01  2.10049E+01  1.79783E+01
   1.33940E+01  1.47985E+01  1.50816E+01  1.47127E+01  1.54278E+01  1.13099E+01  1.64045E+01  1.62534E+01  1.35355E+01  8.51236E+00
   1.19249E+01  9.91095E+00  4.09655E+00  1.05069E+01  2.93149E+00  5.68456E+00  5.56763E+00  3.95896E+00  3.32814E+00  5.37003E+00
   7.18583E+00  5.37447E+00  7.76273E+00  5.87383E+00  4.17223E+00  9.63437E+00  6.40935E+00  6.62566E+00  5.78794E+00  7.97970E+00
   8.21672E+00  5.15757E+00  9.11197E+00  6.18930E+00  9.46843E+00  6.81913E+00  7.40056E+00  5.03875E+00  8.43732E+00  7.25759E+00
   1.06994E+01  8.78948E+00  1.13727E+01  7.06772E+00  1.01275E+01  7.91214E+00  1.48229E+01  1.30236E+01  1.50621E+01  1.85824E+01
   3.11473E+01  5.19728E+01  6.27993E+01  6.32354E+01  4.93529E+01  3.32416E+01  2.39829E+01  1.89416E+01  1.23452E+01  9.23872E+00
   8.92060E+00  1.32309E+01  1.28381E+01  9.45630E+00  1.01390E+01  6.39776E+00  1.19553E+01  1.14574E+01  1.18785E+01  9.71087E+00
   1.00778E+01  1.38170E+01  1.50873E+01  1.43208E+01  2.36612E+01  4.10632E+01  4.74445E+01  5.53816E+01  4.48905E+01  3.36792E+01
   2.16071E+01  1.94430E+01  9.49089E+00  1.29522E+01  1.16147E+01  4.70652E+00  6.96129E+00  3.92727E+00  7.78394E+00  1.02257E+01
   6.36506E+00  1.42890E+01  1.13029E+01  1.16089E+01  9.16341E+00  7.75807E+00  4.33919E+00  8.03225E+00  8.08714E+00  3.52389E+00
   4.56380E+00  5.89369E+00  6.21962E+00  6.49021E+00  5.27406E+00  8.82418E+00  7.40199E+00  6.33290E+00  1.32483E+01  1.08320E+01
   6.98688E+00  3.55453E+00 -8.65153E-01  2.55892E+00  5.04768E+00  1.76616E+00  2.77957E+00  4.66635E-01 -6.35785E+00 -2.82470E+00
   2.28803E-01 -5.34234E+00 -3.40448E+00 -4.16005E+00 -6.00974E+00 -9.51788E+00 -1.26489E+01 -7.48721E+00 -2.39610E+00 -1.48642E+00
  -5.76594E+00 -6.84989E+00 -5.24435E-01 -1.87852E-01  2.50524E+00  5.45745E-01  2.79947E-01 -1.09481E+00  3.10171E+00  4.81605E+00
   7.96748E+00  5.92299E+00  2.90262E+00  1.90697E+00  1.13899E+00  1.78129E+00 -5.44291E+00 -8.50779E+00 -3.44572E+00 -4.68295E+00
  -3.12917E+00 -1.47940E-01  4.09427E+00  5.45237E+00  1.25381E+01  5.88182E+00  6.32127E+00  5.15384E+00  7.88286E+00  5.12531E+00
   8.10390E+00  8.19841E+00  1.20305E+01  1.51027E+01  1.82141E+01  1.33567E+01  1.50845E+01  1.80601E+01  1.40364E+01  4.92741E+00
   4.74132E+00 -8.88650E-03  8.54335E-01  5.03519E+00  6.16046E+00  1.03758E+01  1.44792E+01  1.39530E+01  1.29444E+01  1.71158E+01
   1.22628E+01  1.06393E+01  1.15709E+01  1.17565E+01  1.09836E+01  1.30298E+01  8.74651E+00  1.12434E+01  1.27130E+01  1.46535E+01
   1.19614E+01  6.36103E+00  6.94292E+00  6.00588E+00  1.05492E+01  1.41616E+01  1.31752E+01  1.85400E+01  1.92514E+01  2.17568E+01
   1.53094E+01  1.67774E+01  1.74901E+01  3.79981E+01  5.68764E+01  6.39319E+01  5.99365E+01  5.67537E+01  7.43985E+01  1.03896E+02
   1.22440E+02  1.04121E+02  6.79949E+01  4.39050E+01  3.06596E+01  1.33362E+01  7.23678E+00  6.96126E+00  6.30960E+00  9.19205E+00
   7.38624E+00  1.15142E+01  1.33439E+01  1.47947E+01  1.11734E+01  6.98071E+00  8.01478E+00  9.85689E+00  1.17837E+01  1.38582E+01
   1.22049E+01  1.04259E+01  6.96805E+00  8.47143E+00  4.47007E+00  1.11625E+01  7.57188E+00  9.95656E+00  1.19889E+01  9.67178E+00
   8.63489E+00  1.01158E+01  7.47567E+00  1.00244E+01  7.26997E+00  9.25101E+00  7.48287E+00  7.84293E+00  1.13038E+01  9.85291E+00
   8.30054E+00  1.23866E+01  1.22062E+01  1.15622E+01  1.56555E+01  1.24065E+01  1.04889E+01  1.75368E+01  1.79393E+01  9.96533E+00
   1.79352E+01  1.39583E+01  1.68957E+01  1.45911E+01  1.45056E+01  1.90674E+01  1.67061E+01  2.04248E+01  1.92692E+01  1.91500E+01
   2.28655E+01  1.85848E+01  1.46109E+01  1.42221E+01  1.74243E+01  1.43742E+01  1.55127E+01  1.29914E+01  7.67028E+00  1.09625E+01
   1.00213E+01  9.96981E+00  8.86112E+00  1.62149E+01  1.64085E+01  1.33225E+01  1.98505E+01  1.54428E+01  1.48504E+01  1.48139E+01
   1.65230E+01  1.74719E+01  1.14033E+01  1.52944E+01  1.53546E+01  1.80621E+01  1.77481E+01  1.20554E+01  1.12352E+01  8.16316E+00
   5.91792E+00  1.12204E+01  7.71485E+00  1.13090E+01  8.37032E+00  4.99034E+00  4.79547E+00  6.38107E+00  2.39841E+00  7.92091E+00
   1.78833E+00  1.88134E+00  4.69788E-01  1.29832E+00  2.58254E+00  2.61901E+00  3.34566E+00  4.03916E+00  7.59547E+00  3.71077E+00
   6.08369E+00  6.71729E+00  4.11372E+00  5.39271E+00  1.83344E+00  3.30867E+00  1.89307E+00 -8.33101E-01  2.28420E+00 -2.29689E-01
  -4.30244E+00  1.70274E+00  5.87440E-01  5.12275E-01  3.34717E+00 -1.94288E-01  6.09250E+00  1.85884E+00 -2.06355E-01  2.42275E+00
   2.96765E+00  7.73747E+00  4.89478E+00  6.24532E+00  5.14065E+00  8.47266E+00  1.14170E+01  7.19257E+00  1.22654E+01  7.60723E+00
   8.13345E+00  8.35576E+00  6.88682E+00  9.03154E+00  1.37022E+01  1.30956E+01  1.28268E+01  1.56766E+01  4.80851E+00  1.18485E+01
   1.15258E+01  9.60920E+00  9.00612E+00  7.85116E+00  9.48401E+00  5.49619E+00  7.40870E+00  5.16817E+00  8.12564E+00  9.23670E+00
   1.79885E+00  6.60678E+00  9.53342E-01  2.86286E+00  8.26931E+00 -1.78535E+00  3.31836E+00  4.48546E-01 -1.26133E+00 -1.88094E+00
   2.10760E+00  1.29670E+00  1.75344E+00  3.37353E+00  2.40775E+00  3.16799E+00  1.76888E+00  8.58975E-01  4.60724E+00  9.49106E+00
   5.12398E+00  2.89677E+00  2.80147E+00  6.13522E-01  8.70061E-01  4.11902E+00  5.12714E+00  5.56942E+00  6.31357E-01  2.33224E+00
   7.85328E-01  2.67253E+00  8.76459E-01  2.35777E+00 -1.23106E-01  3.92568E+00  6.51429E+00  6.48663E+00  3.89053E+00 -8.07014E-01
   9.53867E-01  1.34978E+00  4.30200E+00  5.95343E+00  2.14371E+00 -7.77753E-01  1.15153E+00  3.21770E+00  6.64995E+00 -1.15518E+00
   3.85421E+00  2.46830E+00  3.72851E+00  1.71811E+00 -8.47695E-01 -9.17925E-01 -2.90582E-01  4.93610E+00  1.29405E+00  3.04148E+00
   2.61188E+00  1.00086E+00  3.03047E+00  9.82107E-01  7.46758E+00 -1.88292E-01  7.09602E-01  2.65261E+00  4.11950E+00  3.09544E+00
   3.32614E+00  6.33632E-01  3.31225E+00  3.04816E+00  9.62307E-02  1.68284E+00  2.94598E+00  3.27821E+00
 NY points of the fit to the data follow
   1.07195E+01  1.05990E+01  1.07890E+01  1.11368E+01  1.19424E+01  1.29027E+01  1.40140E+01  1.67585E+01  2.02539E+01  2.38565E+01
   2.54609E+01  2.41817E+01  2.13750E+01  1.83420E+01  1.59746E+01  1.45695E+01  1.36961E+01  1.29157E+01  1.25887E+01  1.24333E+01
   1.24275E+01  1.23723E+01  1.23758E+01  1.21709E+01  1.19130E+01  1.14403E+01  1.00621E+01  9.69852E+00  1.18068E+01  1.49789E+01
   1.74545E+01  1.82048E+01  1.83213E+01  1.81325E+01  1.64905E+01  1.39110E+01  1.19993E+01  1.10811E+01  1.04367E+01  1.00102E+01
   1.04050E+01  1.14139E+01  1.21294E+01  1.24869E+01  1.32142E+01  1.50957E+01  1.72831E+01  1.81010E+01  1.70528E+01  1.51308E+01
   1.31817E+01  1.14837E+01  1.02612E+01  9.69080E+00  9.70376E+00  9.79956E+00  9.92145E+00  1.03249E+01  1.09995E+01  1.16823E+01
   1.17996E+01  1.12212E+01  1.03048E+01  9.34080E+00  8.66127E+00  8.40051E+00  8.55786E+00  8.93304E+00  9.20698E+00  9.47115E+00
   9.80289E+00  1.00451E+01  1.00409E+01  9.85249E+00  9.64230E+00  9.47612E+00  9.17362E+00  8.73931E+00  8.41244E+00  8.24735E+00
   8.21124E+00  8.31717E+00  8.38629E+00  8.51767E+00  8.78818E+00  8.78814E+00  8.15642E+00  7.10336E+00  6.31080E+00  6.21511E+00
   6.53034E+00  6.92299E+00  7.29407E+00  7.63376E+00  7.90238E+00  8.06168E+00  8.41409E+00  1.00229E+01  1.31581E+01  1.66306E+01
   3.04031E+01  5.11253E+01  6.57526E+01  6.44730E+01  4.91210E+01  3.32002E+01  2.32517E+01  1.55351E+01  9.78924E+00  8.68500E+00
   8.68761E+00  8.46980E+00  8.29125E+00  8.14786E+00  8.05155E+00  7.97930E+00  7.94622E+00  7.91805E+00  7.88780E+00  7.91513E+00
   8.14823E+00  9.17323E+00  1.19332E+01  1.40767E+01  2.23911E+01  3.82806E+01  5.19342E+01  5.42883E+01  4.39905E+01  3.06126E+01
   2.20487E+01  1.65209E+01  1.19057E+01  1.02048E+01  9.44351E+00  7.99842E+00  6.83350E+00  6.50612E+00  6.71063E+00  7.44181E+00
   8.36769E+00  8.89705E+00  8.88216E+00  8.48286E+00  7.96007E+00  7.50700E+00  7.17353E+00  6.92312E+00  6.76662E+00  6.55356E+00
   6.34221E+00  5.94884E+00  5.35994E+00  4.87502E+00  4.77630E+00  5.19163E+00  5.81044E+00  6.25401E+00  5.93247E+00  4.50772E+00
   2.85685E+00  1.90781E+00  2.50519E+00  4.08354E+00  4.95423E+00  4.59932E+00  3.38698E+00  1.81506E+00  8.75709E-01  7.29082E-01
   1.02106E+00  1.60151E+00  1.59026E+00  7.62918E-01 -7.85940E-01 -1.75883E+00 -1.41283E+00  1.49208E-01  1.52229E+00  1.16073E+00
  -8.08459E-02 -4.44590E-01  3.56892E-01  1.60463E+00  2.18678E+00  1.69655E+00  1.86631E+00  3.31771E+00  5.54660E+00  7.90911E+00
   9.37907E+00  9.63194E+00  8.96593E+00  7.45463E+00  6.42730E+00  5.99613E+00  5.50007E+00  5.19656E+00  5.39421E+00  6.14260E+00
   6.69874E+00  7.39668E+00  8.56982E+00  9.84528E+00  1.01361E+01  8.84192E+00  6.90966E+00  4.73208E+00  2.59657E+00  1.45191E+00
   1.28143E+00  1.76667E+00  2.78842E+00  5.33808E+00  9.54643E+00  1.28912E+01  1.31344E+01  1.05745E+01  7.33371E+00  4.31821E+00
   9.51936E-01 -1.99065E+00 -2.08542E+00  8.60428E-01  5.08331E+00  8.45814E+00  1.03484E+01  1.15026E+01  1.18143E+01  1.09142E+01
   9.52964E+00  8.75224E+00  9.18991E+00  1.05286E+01  1.17940E+01  1.27120E+01  1.32123E+01  1.31349E+01  1.22098E+01  1.07511E+01
   9.21510E+00  8.47287E+00  8.93262E+00  1.07112E+01  1.31161E+01  1.50656E+01  1.61357E+01  1.64691E+01  1.62994E+01  1.60109E+01
   1.72652E+01  1.96828E+01  2.37674E+01  3.64316E+01  5.20430E+01  6.36240E+01  6.35175E+01  5.70676E+01  7.56595E+01  1.05788E+02
   1.19120E+02  1.03021E+02  7.02830E+01  4.45874E+01  3.02532E+01  1.74273E+01  9.45051E+00  9.90140E+00  9.95402E+00  9.57442E+00
   9.36558E+00  9.27511E+00  9.29492E+00  9.33450E+00  9.07671E+00  8.45187E+00  7.74025E+00  7.29947E+00  7.07651E+00  6.85022E+00
   6.76481E+00  6.89443E+00  7.05877E+00  7.08173E+00  6.94755E+00  6.76844E+00  6.63237E+00  6.46197E+00  6.29516E+00  6.31841E+00
   6.54700E+00  6.91410E+00  7.28043E+00  7.55799E+00  7.81804E+00  8.10862E+00  8.34466E+00  8.59407E+00  8.95325E+00  9.45170E+00
   1.00621E+01  1.07051E+01  1.13504E+01  1.20004E+01  1.26227E+01  1.31916E+01  1.37209E+01  1.41992E+01  1.46164E+01  1.49646E+01
   1.52369E+01  1.54271E+01  1.55363E+01  1.55710E+01  1.55435E+01  1.54671E+01  1.53572E+01  1.52326E+01  1.51189E+01  1.50456E+01
   1.50544E+01  1.52215E+01  1.55150E+01  1.58003E+01  1.68102E+01  1.74393E+01  1.65015E+01  1.40879E+01  1.14236E+01  9.99973E+00
   9.85340E+00  9.53657E+00  1.00115E+01  1.23472E+01  1.53767E+01  1.76775E+01  1.82180E+01  1.75319E+01  1.67529E+01  1.59428E+01
   1.49194E+01  1.41752E+01  1.36818E+01  1.31667E+01  1.27482E+01  1.23731E+01  1.17272E+01  1.07286E+01  9.55906E+00  8.57096E+00
   7.92853E+00  7.35147E+00  6.94961E+00  6.96887E+00  7.20658E+00  7.32064E+00  7.12245E+00  6.72458E+00  6.35617E+00  6.02709E+00
   5.69244E+00  5.44162E+00  5.26386E+00  5.10922E+00  4.97336E+00  4.85223E+00  4.74263E+00  4.64184E+00  4.54929E+00  4.46420E+00
   4.38644E+00  4.31493E+00  4.24984E+00  4.19162E+00  4.14219E+00  4.10261E+00  4.07423E+00  4.05745E+00  4.05403E+00  4.06578E+00
   4.09556E+00  4.14503E+00  4.21619E+00  4.31032E+00  4.43019E+00  4.57828E+00  4.75764E+00  4.96969E+00  5.21598E+00  5.49706E+00
   5.81421E+00  6.16728E+00  6.55538E+00  6.97492E+00  7.42153E+00  7.88897E+00  8.37068E+00  8.85768E+00  9.33986E+00  9.80474E+00
   1.02402E+01  1.06334E+01  1.09734E+01  1.12487E+01  1.14496E+01  1.15676E+01  1.15977E+01  1.15377E+01  1.13890E+01  1.11546E+01
   1.08408E+01  1.04555E+01  1.00098E+01  9.51590E+00  8.98719E+00  8.43593E+00  7.87454E+00  7.31402E+00  6.76537E+00  6.23732E+00
   5.73726E+00  5.26956E+00  4.83767E+00  4.44313E+00  4.08727E+00  3.76937E+00  3.48810E+00  3.24040E+00  3.02379E+00  2.83528E+00
   2.67274E+00  2.53298E+00  2.41333E+00  2.31038E+00  2.22220E+00  2.14668E+00  2.08274E+00  2.02831E+00  1.98202E+00  1.94202E+00
   1.90791E+00  1.87888E+00  1.85481E+00  1.83442E+00  1.81722E+00  1.80231E+00  1.79004E+00  1.78009E+00  1.77257E+00  1.76648E+00
   1.76174E+00  1.75789E+00  1.75558E+00  1.75451E+00  1.75479E+00  1.75553E+00  1.75692E+00  1.75875E+00  1.76172E+00  1.76542E+00
   1.76987E+00  1.77432E+00  1.77916E+00  1.78433E+00  1.79046E+00  1.79698E+00  1.80390E+00  1.81058E+00  1.81764E+00  1.82501E+00
   1.83319E+00  1.84148E+00  1.84994E+00  1.85812E+00  1.86676E+00  1.87572E+00  1.88533E+00  1.89481E+00  1.90433E+00  1.91364E+00
   1.92350E+00  1.93365E+00  1.94427E+00  1.95460E+00  1.96497E+00  1.97525E+00  1.98617E+00  1.99732E+00  2.00877E+00  2.01984E+00
   2.03105E+00  2.04233E+00  2.05432E+00  2.06644E+00  2.07876E+00  2.09073E+00  2.10303E+00  2.11562E+00
 NY background values follow
     1.009E+01    1.006E+01    1.003E+01    1.000E+01    9.972E+00    9.942E+00    9.911E+00    9.881E+00    9.851E+00    9.821E+00
     9.791E+00    9.760E+00    9.730E+00    9.700E+00    9.670E+00    9.639E+00    9.609E+00    9.579E+00    9.549E+00    9.518E+00
     9.488E+00    9.458E+00    9.427E+00    9.397E+00    9.366E+00    9.336E+00    9.306E+00    9.275E+00    9.244E+00    9.214E+00
     9.183E+00    9.153E+00    9.122E+00    9.091E+00    9.060E+00    9.029E+00    8.998E+00    8.967E+00    8.936E+00    8.905E+00
     8.874E+00    8.843E+00    8.811E+00    8.780E+00    8.749E+00    8.717E+00    8.685E+00    8.654E+00    8.622E+00    8.590E+00
     8.558E+00    8.526E+00    8.494E+00    8.462E+00    8.429E+00    8.397E+00    8.365E+00    8.332E+00    8.300E+00    8.267E+00
     8.234E+00    8.201E+00    8.168E+00    8.135E+00    8.102E+00    8.069E+00    8.036E+00    8.003E+00    7.969E+00    7.936E+00
     7.902E+00    7.869E+00    7.835E+00    7.801E+00    7.767E+00    7.734E+00    7.700E+00    7.666E+00    7.631E+00    7.597E+00
     7.563E+00    7.529E+00    7.494E+00    7.460E+00    7.425E+00    7.390E+00    7.356E+00    7.321E+00    7.286E+00    7.251E+00
     7.216E+00    7.181E+00    7.146E+00    7.110E+00    7.075E+00    7.040E+00    7.004E+00    6.969E+00    6.933E+00    6.898E+00
     6.862E+00    6.826E+00    6.790E+00    6.755E+00    6.719E+00    6.683E+00    6.647E+00    6.611E+00    6.575E+00    6.539E+00
     6.503E+00    6.467E+00    6.431E+00    6.395E+00    6.358E+00    6.322E+00    6.286E+00    6.250E+00    6.214E+00    6.177E+00
     6.141E+00    6.105E+00    6.069E+00    6.033E+00    5.997E+00    5.960E+00    5.924E+00    5.888E+00    5.852E+00    5.816E+00
     5.780E+00    5.744E+00    5.708E+00    5.672E+00    5.636E+00    5.600E+00    5.564E+00    5.528E+00    5.492E+00    5.457E+00
     5.421E+00    5.385E+00    5.350E+00    5.315E+00    5.280E+00    5.245E+00    5.210E+00    5.176E+00    5.141E+00    5.107E+00
     5.074E+00    5.040E+00    5.007E+00    4.974E+00    4.941E+00    4.909E+00    4.877E+00    4.845E+00    4.814E+00    4.783E+00
     4.753E+00    4.723E+00    4.694E+00    4.665E+00    4.636E+00    4.608E+00    4.580E+00    4.553E+00    4.527E+00    4.501E+00
     4.476E+00    4.451E+00    4.427E+00    4.403E+00    4.380E+00    4.358E+00    4.336E+00    4.315E+00    4.295E+00    4.276E+00
     4.257E+00    4.239E+00    4.222E+00    4.205E+00    4.189E+00    4.174E+00    4.160E+00    4.146E+00    4.133E+00    4.121E+00
     4.109E+00    4.098E+00    4.087E+00    4.077E+00    4.068E+00    4.059E+00    4.050E+00    4.042E+00    4.035E+00    4.028E+00
     4.022E+00    4.016E+00    4.010E+00    4.005E+00    4.000E+00    3.996E+00    3.992E+00    3.988E+00    3.985E+00    3.982E+00
     3.979E+00    3.977E+00    3.974E+00    3.972E+00    3.971E+00    3.969E+00    3.968E+00    3.967E+00    3.966E+00    3.965E+00
     3.964E+00    3.964E+00    3.963E+00    3.963E+00    3.963E+00    3.962E+00    3.962E+00    3.962E+00    3.962E+00    3.962E+00
     3.961E+00    3.961E+00    3.961E+00    3.961E+00    3.960E+00    3.960E+00    3.960E+00    3.959E+00    3.959E+00    3.958E+00
     3.958E+00    3.957E+00    3.956E+00    3.956E+00    3.955E+00    3.954E+00    3.952E+00    3.951E+00    3.950E+00    3.948E+00
     3.947E+00    3.945E+00    3.943E+00    3.941E+00    3.938E+00    3.936E+00    3.933E+00    3.930E+00    3.927E+00    3.924E+00
     3.921E+00    3.917E+00    3.913E+00    3.909E+00    3.904E+00    3.900E+00    3.895E+00    3.890E+00    3.884E+00    3.879E+00
     3.873E+00    3.867E+00    3.860E+00    3.853E+00    3.846E+00    3.839E+00    3.831E+00    3.823E+00    3.815E+00    3.807E+00
     3.798E+00    3.789E+00    3.779E+00    3.769E+00    3.759E+00    3.749E+00    3.739E+00    3.728E+00    3.717E+00    3.705E+00
     3.693E+00    3.681E+00    3.669E+00    3.656E+00    3.643E+00    3.630E+00    3.617E+00    3.603E+00    3.589E+00    3.575E+00
     3.560E+00    3.545E+00    3.530E+00    3.514E+00    3.499E+00    3.482E+00    3.466E+00    3.449E+00    3.432E+00    3.415E+00
     3.398E+00    3.380E+00    3.362E+00    3.343E+00    3.325E+00    3.306E+00    3.287E+00    3.267E+00    3.247E+00    3.227E+00
     3.207E+00    3.186E+00    3.166E+00    3.145E+00    3.123E+00    3.102E+00    3.080E+00    3.059E+00    3.037E+00    3.015E+00
     2.993E+00    2.970E+00    2.948E+00    2.926E+00    2.903E+00    2.881E+00    2.858E+00    2.836E+00    2.813E+00    2.790E+00
     2.768E+00    2.745E+00    2.723E+00    2.700E+00    2.678E+00    2.655E+00    2.633E+00    2.611E+00    2.589E+00    2.567E+00
     2.545E+00    2.523E+00    2.502E+00    2.480E+00    2.459E+00    2.438E+00    2.417E+00    2.397E+00    2.377E+00    2.357E+00
     2.337E+00    2.318E+00    2.298E+00    2.279E+00    2.261E+00    2.243E+00    2.225E+00    2.207E+00    2.190E+00    2.173E+00
     2.156E+00    2.140E+00    2.124E+00    2.108E+00    2.093E+00    2.078E+00    2.063E+00    2.049E+00    2.035E+00    2.021E+00
     2.008E+00    1.995E+00    1.983E+00    1.971E+00    1.959E+00    1.947E+00    1.936E+00    1.926E+00    1.916E+00    1.906E+00
     1.896E+00    1.887E+00    1.879E+00    1.871E+00    1.863E+00    1.855E+00    1.848E+00    1.842E+00    1.836E+00    1.830E+00
     1.825E+00    1.820E+00    1.815E+00    1.811E+00    1.808E+00    1.805E+00    1.802E+00    1.800E+00    1.798E+00    1.797E+00
     1.796E+00    1.796E+00    1.796E+00    1.796E+00    1.797E+00    1.798E+00    1.800E+00    1.802E+00    1.804E+00    1.807E+00
     1.810E+00    1.813E+00    1.817E+00    1.821E+00    1.825E+00    1.830E+00    1.835E+00    1.840E+00    1.846E+00    1.851E+00
     1.858E+00    1.864E+00    1.870E+00    1.877E+00    1.884E+00    1.891E+00    1.899E+00    1.907E+00    1.914E+00    1.922E+00
     1.931E+00    1.939E+00    1.947E+00    1.956E+00    1.965E+00    1.974E+00    1.983E+00    1.992E+00    2.001E+00    2.011E+00
     2.020E+00    2.030E+00    2.040E+00    2.049E+00    2.059E+00    2.069E+00    2.079E+00    2.089E+00    2.099E+00    2.109E+00
     2.119E+00    2.129E+00    2.139E+00    2.149E+00    2.160E+00    2.170E+00    2.180E+00    2.191E+00    2.201E+00    2.212E+00
     2.222E+00    2.233E+00    2.243E+00    2.254E+00    2.265E+00    2.275E+00    2.286E+00    2.297E+00    2.308E+00    2.318E+00
     2.329E+00    2.340E+00    2.351E+00    2.361E+00    2.372E+00    2.383E+00    2.394E+00    2.405E+00    2.416E+00    2.426E+00
     2.437E+00    2.448E+00    2.459E+00    2.470E+00    2.481E+00    2.491E+00    2.502E+00    2.513E+00
 Ala      Conc. = 2.38E+02
