 LCModel (Version 6.3-1L) Copyright: S.W. Provencher.          Ref.: Magn. Reson. Med. 30:672-679 (1993).                
 Slice#1 Row#11 Col#11  K_02_press_1_raw_act
 36 lines in following concentration table = NCONC+1
    Conc.  %SD /Cr+PCr  Metabolite                                         
   89.950  78%   0.113 Ala                                                 
    0.000 999%   0.000 Asp                                                 
  116.219 143%   0.146 Cr                                                  
  677.750  25%   0.854 PCr                                                 
   38.420 259% 4.8E-02 GABA                                                
   39.523 261% 5.0E-02 Glc                                                 
  455.255  31%   0.573 Gln                                                 
 1.12E+03  15%   1.406 Glu                                                 
  263.578   6%   0.332 GPC                                                 
    0.000 999%   0.000 PCh                                                 
  147.560  34%   0.186 GSH                                                 
  519.154  31%   0.654 Ins                                                 
    0.000 999%   0.000 Lac                                                 
 1.70E+03   6%   2.145 NAA                                                 
  380.995  23%   0.480 NAAG                                                
   40.573  46% 5.1E-02 Scyllo                                              
  256.750  52%   0.323 Tau                                                 
  537.877  14%   0.677 -CrCH2                                              
  263.578   6%   0.332 GPC+PCh                                             
 2.08E+03   3%   2.625 NAA+NAAG                                            
  793.969   6%   1.000 Cr+PCr                                              
 1.57E+03  15%   1.979 Glu+Gln                                             
  361.397 126%   0.455 Lip13a                                              
    0.000 999%   0.000 Lip13b                                              
   70.078 191% 8.8E-02 Lip09                                               
 1.38E+03  13%   1.742 MM09                                                
   56.603 137% 7.1E-02 Lip20                                               
 2.94E+03  10%   3.706 MM20                                                
  397.032  40%   0.500 MM12                                                
 3.10E+03  15%   3.898 MM14                                                
 1.44E+03  17%   1.817 MM17                                                
  361.397 126%   0.455 Lip13a+Lip13b                                       
 3.85E+03   8%   4.854 MM14+Lip13a+Lip13b+MM12                             
 1.45E+03   9%   1.830 MM09+Lip09                                          
 3.00E+03   9%   3.777 MM20+Lip20                                          
   6 lines in following misc. output table
  FWHM = 0.038 ppm    S/N =  15                                            
  Data shift = 0.000 ppm                                                   
  Ph:  -5 deg       2.3 deg/ppm                                            
  alphaB,S = 8.5E+01,   6.0E+01                                            
   14 spline knots.   Ns = 6(1)                                            
   3 inflections.     1 extrema                                            
  498 points on ppm-axis = NY
      4.000000     3.992357     3.984714     3.977070     3.969427     3.961784     3.954141     3.946497     3.938854     3.931211
      3.923568     3.915925     3.908281     3.900638     3.892995     3.885352     3.877708     3.870065     3.862422     3.854779
      3.847136     3.839492     3.831849     3.824206     3.816563     3.808919     3.801276     3.793633     3.785990     3.778347
      3.770703     3.763060     3.755417     3.747774     3.740130     3.732487     3.724844     3.717201     3.709558     3.701914
      3.694271     3.686628     3.678985     3.671341     3.663698     3.656055     3.648412     3.640769     3.633125     3.625482
      3.617839     3.610196     3.602552     3.594909     3.587266     3.579623     3.571980     3.564336     3.556693     3.549050
      3.541407     3.533763     3.526120     3.518477     3.510834     3.503191     3.495547     3.487904     3.480261     3.472618
      3.464974     3.457331     3.449688     3.442045     3.434402     3.426758     3.419115     3.411472     3.403829     3.396185
      3.388542     3.380899     3.373256     3.365613     3.357969     3.350326     3.342683     3.335040     3.327396     3.319753
      3.312110     3.304467     3.296824     3.289180     3.281537     3.273894     3.266251     3.258607     3.250964     3.243321
      3.235678     3.228034     3.220391     3.212748     3.205105     3.197462     3.189818     3.182175     3.174532     3.166889
      3.159245     3.151602     3.143959     3.136316     3.128673     3.121029     3.113386     3.105743     3.098100     3.090456
      3.082813     3.075170     3.067527     3.059884     3.052240     3.044597     3.036954     3.029311     3.021667     3.014024
      3.006381     2.998738     2.991095     2.983451     2.975808     2.968165     2.960522     2.952878     2.945235     2.937592
      2.929949     2.922306     2.914662     2.907019     2.899376     2.891733     2.884089     2.876446     2.868803     2.861160
      2.853517     2.845873     2.838230     2.830587     2.822944     2.815300     2.807657     2.800014     2.792371     2.784728
      2.777084     2.769441     2.761798     2.754155     2.746511     2.738868     2.731225     2.723582     2.715939     2.708295
      2.700652     2.693009     2.685366     2.677722     2.670079     2.662436     2.654793     2.647150     2.639506     2.631863
      2.624220     2.616577     2.608933     2.601290     2.593647     2.586004     2.578361     2.570717     2.563074     2.555431
      2.547788     2.540144     2.532501     2.524858     2.517215     2.509572     2.501928     2.494285     2.486642     2.478999
      2.471355     2.463712     2.456069     2.448426     2.440783     2.433139     2.425496     2.417853     2.410210     2.402566
      2.394923     2.387280     2.379637     2.371994     2.364350     2.356707     2.349064     2.341421     2.333777     2.326134
      2.318491     2.310848     2.303205     2.295561     2.287918     2.280275     2.272632     2.264988     2.257345     2.249702
      2.242059     2.234416     2.226772     2.219129     2.211486     2.203843     2.196199     2.188556     2.180913     2.173270
      2.165627     2.157983     2.150340     2.142697     2.135054     2.127410     2.119767     2.112124     2.104481     2.096838
      2.089194     2.081551     2.073908     2.066265     2.058621     2.050978     2.043335     2.035692     2.028049     2.020405
      2.012762     2.005119     1.997476     1.989833     1.982190     1.974546     1.966903     1.959260     1.951617     1.943974
      1.936331     1.928688     1.921045     1.913402     1.905759     1.898115     1.890472     1.882829     1.875186     1.867543
      1.859900     1.852257     1.844614     1.836971     1.829327     1.821684     1.814041     1.806398     1.798755     1.791112
      1.783469     1.775826     1.768183     1.760540     1.752896     1.745253     1.737610     1.729967     1.722324     1.714681
      1.707038     1.699395     1.691752     1.684108     1.676465     1.668822     1.661179     1.653536     1.645893     1.638250
      1.630607     1.622964     1.615321     1.607677     1.600034     1.592391     1.584748     1.577105     1.569462     1.561819
      1.554176     1.546533     1.538890     1.531246     1.523603     1.515960     1.508317     1.500674     1.493031     1.485388
      1.477745     1.470102     1.462458     1.454815     1.447172     1.439529     1.431886     1.424243     1.416600     1.408957
      1.401314     1.393671     1.386027     1.378384     1.370741     1.363098     1.355455     1.347812     1.340169     1.332526
      1.324883     1.317240     1.309596     1.301953     1.294310     1.286667     1.279024     1.271381     1.263738     1.256095
      1.248452     1.240808     1.233165     1.225522     1.217879     1.210236     1.202593     1.194950     1.187307     1.179664
      1.172021     1.164377     1.156734     1.149091     1.141448     1.133805     1.126162     1.118519     1.110876     1.103233
      1.095590     1.087946     1.080303     1.072660     1.065017     1.057374     1.049731     1.042088     1.034445     1.026802
      1.019158     1.011515     1.003872     0.996229     0.988586     0.980943     0.973300     0.965657     0.958014     0.950371
      0.942727     0.935084     0.927441     0.919798     0.912155     0.904512     0.896869     0.889226     0.881583     0.873940
      0.866296     0.858653     0.851010     0.843367     0.835724     0.828081     0.820438     0.812795     0.805152     0.797508
      0.789865     0.782222     0.774579     0.766936     0.759293     0.751650     0.744007     0.736364     0.728721     0.721077
      0.713434     0.705791     0.698148     0.690505     0.682862     0.675219     0.667576     0.659933     0.652290     0.644646
      0.637003     0.629360     0.621717     0.614074     0.606431     0.598788     0.591145     0.583502     0.575858     0.568215
      0.560572     0.552929     0.545286     0.537643     0.530000     0.522357     0.514714     0.507071     0.499427     0.491784
      0.484141     0.476498     0.468855     0.461212     0.453569     0.445925     0.438282     0.430639     0.422996     0.415353
      0.407710     0.400067     0.392424     0.384780     0.377137     0.369494     0.361851     0.354208     0.346565     0.338922
      0.331278     0.323635     0.315992     0.308349     0.300706     0.293063     0.285420     0.277777     0.270133     0.262490
      0.254847     0.247204     0.239561     0.231918     0.224275     0.216631     0.208988     0.201345
 NY phased data points follow
   4.30427E+00  3.07688E+00  1.55279E+00  4.23696E+00  2.71839E+00  6.19441E+00  5.70506E+00  7.97327E+00  7.82380E+00  7.12967E+00
   8.22224E+00  8.63283E+00  7.48876E+00  7.54006E+00  7.22316E+00  5.22266E+00  6.20619E+00  1.94871E+00  5.07873E+00  2.99794E+00
   7.60865E+00  3.65487E+00  3.78882E+00  3.88575E+00  2.60378E+00  5.27090E+00  3.38664E+00  2.71138E+00  6.39553E+00  2.77256E+00
   3.73838E+00  4.77783E+00  5.76806E+00  4.19399E+00  2.82543E+00  4.44933E+00  5.59716E+00  3.03174E+00  6.22706E+00  7.65113E+00
   6.59936E+00  4.13326E+00  6.45766E+00  5.97625E+00  8.16366E+00  6.77603E+00  8.66612E+00  9.71433E+00  7.40267E+00  6.92594E+00
   6.57899E+00  6.87965E+00  6.07453E+00  4.25859E+00  6.12491E+00  6.93210E+00  6.47897E+00  4.23163E+00  6.29447E+00  2.69270E+00
   6.44587E+00  1.79550E+00 -2.46988E-01  3.06721E+00 -2.92986E-02  4.71625E-01  1.01452E+00  3.73424E+00  3.09977E+00  3.75116E+00
  -4.39395E-02  4.20962E+00  2.68436E+00  3.67522E+00  1.98177E+00  2.00975E+00  1.16337E+00  4.16806E+00  9.24089E-01  2.80215E+00
   1.89330E+00  1.97392E+00  1.36441E+00  2.69841E+00  4.09993E+00  3.22212E+00  3.44974E+00  2.91300E+00  3.65497E+00  1.87029E+00
   4.43790E+00  6.05094E+00  2.70137E+00  1.92626E+00  3.76838E+00  4.59353E+00  4.70213E+00  1.07214E+01  1.08613E+01  1.43761E+01
   1.40425E+01  2.30835E+01  2.98949E+01  3.16082E+01  2.87932E+01  2.25498E+01  1.72699E+01  1.18964E+01  9.00738E+00  5.70898E+00
   5.96448E+00  2.88792E+00  2.20504E+00  3.05896E+00  2.39881E+00  5.70287E+00  5.22325E+00  4.27530E+00  5.40240E+00  4.75842E+00
   8.43873E+00  4.62911E+00  7.72581E+00  8.92939E+00  1.33166E+01  2.47463E+01  3.02976E+01  3.78291E+01  3.59092E+01  2.64425E+01
   2.28536E+01  1.49742E+01  1.12716E+01  8.23923E+00  6.10436E+00  5.90818E+00  3.79795E+00  2.46822E+00  3.75489E+00  4.86882E+00
   1.64113E+00  6.56748E+00  8.22419E+00  5.66124E+00  1.49891E+00  1.89908E+00  2.38703E+00  5.67491E+00  4.55089E+00  2.99326E+00
   3.21316E+00  5.56563E+00  3.27176E+00  4.46253E+00  6.31583E+00  1.95872E+00  1.03316E+00  4.86353E+00  1.66284E+00  5.90100E+00
   3.57063E+00  1.41753E+00  2.90101E+00 -2.55645E-01  2.56567E+00  9.40520E-01  8.47880E-01 -2.90432E+00 -3.56715E+00 -6.04486E+00
  -9.54309E+00 -8.44530E+00 -5.77808E+00 -7.29467E+00 -8.64891E+00 -1.31723E+01 -7.85024E+00 -1.06885E+01 -5.64339E+00 -6.46778E+00
  -8.38480E+00 -5.71220E+00 -5.59351E+00 -2.06642E+00 -1.04882E+00  4.40714E-01 -4.76714E+00 -4.22828E+00  2.67790E-01 -5.73682E+00
   1.29336E-01 -1.64359E+00  7.76427E-01 -1.89162E+00 -2.84183E+00  7.09082E-01 -8.63235E+00 -9.41910E+00 -8.35722E+00 -8.39353E+00
  -4.58955E+00 -2.82501E+00  9.69169E-01  1.22352E+00  6.60666E+00  3.79883E+00  3.67168E+00 -1.16443E+00  1.67300E+00 -3.63295E+00
  -1.32638E+00 -1.09167E+00  2.24484E+00  1.17379E+01  1.28654E+01  1.28609E+01  1.44359E+01  1.10070E+01  7.78679E+00  5.14654E+00
   6.20618E-01 -1.74999E+00 -3.82039E+00 -7.24333E-01  2.27205E+00  6.56388E+00  1.05567E+01  9.27002E+00  8.44851E+00  8.62603E+00
   5.21825E+00  7.32467E+00  8.96874E+00  5.87438E+00  7.39090E+00  8.71563E+00  8.66811E+00  1.02402E+01  9.39045E+00  6.78058E+00
   5.69916E+00  1.64810E+00  2.38987E+00  2.92264E+00  5.83164E+00  1.18807E+01  1.21758E+01  1.28588E+01  1.12638E+01  1.53067E+01
   1.69915E+01  1.83904E+01  2.52662E+01  2.47155E+01  3.46055E+01  3.94371E+01  4.44583E+01  4.73748E+01  6.46216E+01  8.60297E+01
   9.18365E+01  7.72849E+01  6.13251E+01  4.38488E+01  2.85142E+01  1.73189E+01  1.36734E+01  9.15830E+00  6.31646E+00  7.88266E+00
   6.95505E+00  5.44350E+00  6.89012E+00  5.53341E+00  6.93515E+00  7.33446E+00  3.74754E+00  7.42858E+00  4.54242E+00  4.84076E+00
   6.06865E+00  7.10980E+00  6.58588E+00  8.28977E+00  5.46095E+00  5.01159E+00  3.58992E+00  7.46537E+00  7.75267E+00  7.77765E+00
   4.19682E+00  6.01559E+00  5.63039E+00  8.66714E+00  5.37687E+00  6.36376E+00  6.39249E+00  8.01511E+00  6.72921E+00  4.46101E+00
   6.09068E+00  5.84270E+00  9.66372E+00  5.21412E+00  6.31947E+00  9.95404E+00  4.48570E+00  1.03353E+01  7.84516E+00  8.30468E+00
   1.02443E+01  9.65267E+00  7.59108E+00  9.42313E+00  8.80234E+00  1.07917E+01  1.29068E+01  9.78173E+00  8.94552E+00  1.19097E+01
   1.33878E+01  1.30342E+01  9.53425E+00  1.29959E+01  1.25932E+01  1.37469E+01  1.19074E+01  1.21169E+01  1.23612E+01  1.07569E+01
   1.25594E+01  1.39528E+01  1.40585E+01  1.78906E+01  1.47310E+01  1.54197E+01  1.56654E+01  1.45014E+01  1.58263E+01  1.57500E+01
   1.58482E+01  1.78419E+01  1.84429E+01  1.91676E+01  1.73564E+01  1.88120E+01  1.71110E+01  1.59033E+01  1.43346E+01  1.17538E+01
   1.33824E+01  1.39878E+01  1.04051E+01  1.00882E+01  9.72963E+00  6.05365E+00  4.28258E+00  4.26628E+00  7.54205E+00  4.54159E+00
   4.49907E+00  6.52301E+00  4.51720E+00  3.97911E+00  6.54679E+00  5.66023E+00  8.97579E+00  7.55688E+00  3.80774E+00  2.91181E+00
   7.74314E+00  4.70241E+00  4.82658E+00  5.25809E-01 -1.12456E+00  2.79829E+00  1.01380E+00  2.42542E+00  1.70862E+00  2.87437E+00
   2.22069E+00 -1.04106E+00  6.71040E-01  5.71720E-01  2.50846E-01  9.99372E-01 -7.17742E-01  4.63324E+00  3.83216E+00  2.89547E+00
   4.36066E+00  4.79053E+00  6.05694E+00  8.74457E+00  8.59959E+00  1.18529E+01  8.81377E+00  1.25242E+01  1.22812E+01  1.13601E+01
   9.98055E+00  8.85048E+00  1.46826E+01  9.26540E+00  8.75692E+00  1.09574E+01  9.93458E+00  9.97429E+00  7.06711E+00  4.43073E+00
   7.18317E+00  7.14960E+00  8.69888E+00  6.96146E+00  3.47723E+00  2.55867E+00  5.22165E+00  4.23335E+00  1.74008E+00 -1.27698E+00
   3.40837E+00 -7.39812E-01  1.82027E+00  1.62634E+00 -3.26176E-01  4.92691E-01  8.87492E-01 -3.02550E+00 -9.60127E-01 -7.92172E-01
  -5.43936E-01 -1.87433E+00 -2.33410E+00  1.61486E-02 -2.32260E-01 -3.01596E+00  2.93757E-01 -2.83145E+00 -2.46850E+00 -8.83801E-01
  -2.28635E+00 -2.91382E+00 -3.76152E+00 -1.48367E+00 -1.81931E+00 -5.30418E-01 -1.40209E+00 -9.10241E-01  6.72357E-01 -2.22969E+00
  -2.90506E+00 -5.27932E-01 -2.45723E+00 -2.65617E+00 -4.65624E+00 -2.24567E-01 -1.32981E+00  8.26454E-01 -3.19325E-01 -5.29294E-01
   4.43391E-01 -3.42836E+00 -2.92478E-01 -9.87025E-02 -9.89502E-01 -1.96641E-01 -3.67408E+00 -1.53619E+00 -2.80571E-01 -4.26543E+00
  -5.17669E+00  4.50204E-03 -2.51663E-01 -9.99514E-01 -1.00803E+00  5.06030E-01 -1.51491E+00  1.74188E-01 -5.82268E-01 -6.49837E+00
  -7.76345E-01 -1.01205E+00 -1.97932E+00 -7.58544E-01 -1.38589E+00  1.31727E+00 -1.53796E+00 -2.64750E-01 -8.34572E-01 -2.32875E+00
   2.51531E-01 -3.74814E+00 -1.12801E+00 -3.30169E+00 -3.58850E+00  1.33307E-01 -1.96931E+00 -4.64832E+00
 NY points of the fit to the data follow
   2.57389E+00  2.45304E+00  2.57782E+00  2.91138E+00  3.43734E+00  4.16645E+00  5.26165E+00  6.56142E+00  7.78565E+00  8.76687E+00
   9.32390E+00  9.28169E+00  8.55378E+00  7.44236E+00  6.37946E+00  5.56711E+00  4.97635E+00  4.55632E+00  4.28110E+00  4.16776E+00
   4.14973E+00  4.17906E+00  4.07491E+00  3.97186E+00  3.92709E+00  3.57660E+00  3.03902E+00  2.93386E+00  3.79682E+00  5.44267E+00
   7.17918E+00  8.56946E+00  9.28919E+00  8.99691E+00  7.68918E+00  5.75811E+00  3.84921E+00  2.58486E+00  2.14241E+00  2.32902E+00
   2.94295E+00  3.77686E+00  4.53370E+00  5.06578E+00  5.64809E+00  6.58355E+00  7.62561E+00  8.14625E+00  7.80310E+00  6.77628E+00
   5.47955E+00  4.27140E+00  3.34912E+00  2.82774E+00  2.65378E+00  2.67844E+00  2.82553E+00  3.10018E+00  3.50315E+00  3.89828E+00
   4.08556E+00  3.96393E+00  3.56952E+00  3.13014E+00  2.78926E+00  2.63273E+00  2.67898E+00  2.80214E+00  2.88143E+00  3.00244E+00
   3.22184E+00  3.43829E+00  3.63734E+00  3.89318E+00  4.14346E+00  4.16286E+00  3.80288E+00  3.15885E+00  2.47053E+00  2.01389E+00
   2.02295E+00  2.38909E+00  2.76476E+00  3.16874E+00  3.72247E+00  4.21815E+00  4.24643E+00  3.68024E+00  2.86345E+00  2.23241E+00
   1.91845E+00  1.76269E+00  1.62833E+00  1.51619E+00  1.47033E+00  1.72140E+00  2.79311E+00  5.37400E+00  8.03355E+00  1.08744E+01
   1.60760E+01  2.39663E+01  3.10001E+01  3.29546E+01  2.93137E+01  2.28760E+01  1.63912E+01  1.11899E+01  7.62428E+00  5.41163E+00
   4.05623E+00  3.37599E+00  3.06588E+00  2.89353E+00  2.78681E+00  2.72841E+00  2.70759E+00  2.70227E+00  2.72362E+00  2.84622E+00
   3.35453E+00  5.24858E+00  7.99059E+00  1.07457E+01  1.54552E+01  2.34130E+01  3.19851E+01  3.62855E+01  3.42045E+01  2.79424E+01
   2.08735E+01  1.48930E+01  1.05442E+01  7.62035E+00  5.54296E+00  4.15002E+00  3.40536E+00  3.09203E+00  3.13612E+00  3.41394E+00
   3.72253E+00  3.89173E+00  3.85644E+00  3.65673E+00  3.37795E+00  3.09575E+00  2.84854E+00  2.64383E+00  2.44437E+00  2.25176E+00
   2.07204E+00  1.87581E+00  1.66195E+00  1.48794E+00  1.38549E+00  1.30527E+00  1.32947E+00  1.34077E+00  1.06608E+00  4.58900E-01
  -2.92493E-01 -6.49732E-01 -3.34746E-01  3.19748E-01  6.95992E-01  4.82797E-01 -1.85443E-01 -9.52802E-01 -1.56550E+00 -1.95750E+00
  -2.17526E+00 -2.26741E+00 -2.36916E+00 -2.75300E+00 -3.38284E+00 -3.85182E+00 -3.65026E+00 -2.92728E+00 -2.36810E+00 -2.38335E+00
  -2.71858E+00 -2.91716E+00 -2.64021E+00 -2.13856E+00 -1.84958E+00 -1.71518E+00 -1.26151E+00 -2.48754E-01  1.11039E+00  2.37736E+00
   3.20755E+00  3.46639E+00  3.08698E+00  2.45258E+00  1.93290E+00  1.59627E+00  1.36580E+00  1.34822E+00  1.76502E+00  2.54244E+00
   3.52106E+00  4.56051E+00  5.49952E+00  5.96218E+00  5.49938E+00  4.23932E+00  2.24719E+00 -3.05044E-01 -2.56446E+00 -3.67548E+00
  -3.26757E+00 -1.91417E+00  9.29658E-02  3.00731E+00  6.40027E+00  8.84515E+00  9.05677E+00  7.16010E+00  4.27234E+00  1.15938E+00
  -1.94673E+00 -4.23692E+00 -4.59908E+00 -2.76697E+00  3.51090E-01  3.42978E+00  5.75152E+00  7.19039E+00  7.72142E+00  7.45352E+00
   6.80027E+00  6.35713E+00  6.33175E+00  6.59812E+00  7.05533E+00  7.75085E+00  8.54278E+00  9.14938E+00  9.47536E+00  9.39521E+00
   8.82757E+00  8.03550E+00  7.66921E+00  8.09787E+00  9.10395E+00  1.02521E+01  1.12770E+01  1.20956E+01  1.26868E+01  1.34864E+01
   1.48788E+01  1.64635E+01  1.89048E+01  2.35780E+01  3.24107E+01  4.09015E+01  4.55172E+01  5.25267E+01  6.69320E+01  8.27206E+01
   8.81111E+01  7.91488E+01  6.20393E+01  4.44240E+01  3.00933E+01  2.01628E+01  1.41387E+01  1.04755E+01  8.47878E+00  7.57193E+00
   6.99140E+00  6.62192E+00  6.46044E+00  6.40971E+00  6.29836E+00  6.04558E+00  5.69955E+00  5.34029E+00  4.99172E+00  4.67708E+00
   4.43776E+00  4.29927E+00  4.24014E+00  4.21931E+00  4.20762E+00  4.20415E+00  4.21256E+00  4.23476E+00  4.28547E+00  4.39125E+00
   4.56886E+00  4.80810E+00  5.07367E+00  5.34157E+00  5.61125E+00  5.87952E+00  6.13985E+00  6.39822E+00  6.66842E+00  6.96007E+00
   7.26656E+00  7.57221E+00  7.86141E+00  8.12350E+00  8.35052E+00  8.54026E+00  8.69162E+00  8.80579E+00  8.88620E+00  8.93862E+00
   8.96801E+00  8.98061E+00  8.98233E+00  8.98217E+00  8.99002E+00  9.01744E+00  9.07434E+00  9.17119E+00  9.31789E+00  9.52800E+00
   9.82191E+00  1.02251E+01  1.06663E+01  1.11343E+01  1.17127E+01  1.23299E+01  1.27520E+01  1.28338E+01  1.27053E+01  1.26866E+01
   1.29279E+01  1.33253E+01  1.38803E+01  1.46970E+01  1.57501E+01  1.67897E+01  1.75210E+01  1.78490E+01  1.78617E+01  1.76693E+01
   1.73544E+01  1.69706E+01  1.65300E+01  1.60391E+01  1.55084E+01  1.49355E+01  1.43239E+01  1.36829E+01  1.30227E+01  1.23541E+01
   1.16860E+01  1.10273E+01  1.03849E+01  9.76560E+00  9.17394E+00  8.61343E+00  8.08488E+00  7.58903E+00  7.12512E+00  6.69284E+00
   6.29016E+00  5.91525E+00  5.56496E+00  5.23748E+00  4.93063E+00  4.64351E+00  4.37430E+00  4.12213E+00  3.88568E+00  3.66538E+00
   3.46146E+00  3.27530E+00  3.10731E+00  2.95894E+00  2.83124E+00  2.72686E+00  2.64792E+00  2.59737E+00  2.57710E+00  2.59010E+00
   2.63893E+00  2.72747E+00  2.85858E+00  3.03557E+00  3.26026E+00  3.53503E+00  3.86098E+00  4.23919E+00  4.66828E+00  5.14576E+00
   5.66625E+00  6.22346E+00  6.80831E+00  7.41040E+00  8.01607E+00  8.61055E+00  9.17705E+00  9.69941E+00  1.01609E+01  1.05463E+01
   1.08410E+01  1.10338E+01  1.11157E+01  1.10828E+01  1.09342E+01  1.06736E+01  1.03073E+01  9.84593E+00  9.30241E+00  8.69265E+00
   8.03285E+00  7.34012E+00  6.63016E+00  5.91861E+00  5.21890E+00  4.54335E+00  3.90094E+00  3.29883E+00  2.74108E+00  2.23073E+00
   1.76845E+00  1.35407E+00  9.85174E-01  6.59074E-01  3.71845E-01  1.20347E-01 -9.93512E-02 -2.90504E-01 -4.57256E-01 -6.02730E-01
  -7.30295E-01 -8.41946E-01 -9.40163E-01 -1.02660E+00 -1.10360E+00 -1.17239E+00 -1.23447E+00 -1.29021E+00 -1.34074E+00 -1.38657E+00
  -1.42892E+00 -1.46798E+00 -1.50434E+00 -1.53775E+00 -1.56892E+00 -1.59797E+00 -1.62568E+00 -1.65179E+00 -1.67659E+00 -1.69973E+00
  -1.72181E+00 -1.74283E+00 -1.76333E+00 -1.78284E+00 -1.80158E+00 -1.81923E+00 -1.83642E+00 -1.85303E+00 -1.86946E+00 -1.88514E+00
  -1.90032E+00 -1.91475E+00 -1.92907E+00 -1.94305E+00 -1.95693E+00 -1.97016E+00 -1.98305E+00 -1.99546E+00 -2.00796E+00 -2.02020E+00
  -2.03236E+00 -2.04390E+00 -2.05526E+00 -2.06631E+00 -2.07755E+00 -2.08852E+00 -2.09937E+00 -2.10966E+00 -2.11991E+00 -2.12998E+00
  -2.14026E+00 -2.15022E+00 -2.16002E+00 -2.16934E+00 -2.17873E+00 -2.18801E+00 -2.19744E+00 -2.20647E+00 -2.21532E+00 -2.22377E+00
  -2.23238E+00 -2.24087E+00 -2.24940E+00 -2.25744E+00 -2.26529E+00 -2.27281E+00 -2.28049E+00 -2.28794E+00
 NY background values follow
     1.818E+00    1.810E+00    1.803E+00    1.795E+00    1.787E+00    1.780E+00    1.772E+00    1.764E+00    1.757E+00    1.749E+00
     1.741E+00    1.733E+00    1.726E+00    1.718E+00    1.710E+00    1.703E+00    1.695E+00    1.687E+00    1.679E+00    1.672E+00
     1.664E+00    1.656E+00    1.649E+00    1.641E+00    1.633E+00    1.625E+00    1.618E+00    1.610E+00    1.602E+00    1.595E+00
     1.587E+00    1.579E+00    1.571E+00    1.564E+00    1.556E+00    1.548E+00    1.540E+00    1.533E+00    1.525E+00    1.517E+00
     1.510E+00    1.502E+00    1.494E+00    1.486E+00    1.479E+00    1.471E+00    1.463E+00    1.455E+00    1.448E+00    1.440E+00
     1.432E+00    1.424E+00    1.417E+00    1.409E+00    1.401E+00    1.393E+00    1.386E+00    1.378E+00    1.370E+00    1.362E+00
     1.355E+00    1.347E+00    1.339E+00    1.331E+00    1.324E+00    1.316E+00    1.308E+00    1.300E+00    1.292E+00    1.285E+00
     1.277E+00    1.269E+00    1.261E+00    1.254E+00    1.246E+00    1.238E+00    1.230E+00    1.223E+00    1.215E+00    1.207E+00
     1.199E+00    1.191E+00    1.184E+00    1.176E+00    1.168E+00    1.160E+00    1.153E+00    1.145E+00    1.137E+00    1.129E+00
     1.121E+00    1.114E+00    1.106E+00    1.098E+00    1.090E+00    1.083E+00    1.075E+00    1.067E+00    1.059E+00    1.051E+00
     1.044E+00    1.036E+00    1.028E+00    1.020E+00    1.012E+00    1.005E+00    9.969E-01    9.891E-01    9.813E-01    9.735E-01
     9.657E-01    9.579E-01    9.501E-01    9.423E-01    9.345E-01    9.267E-01    9.189E-01    9.111E-01    9.033E-01    8.955E-01
     8.877E-01    8.799E-01    8.721E-01    8.643E-01    8.565E-01    8.487E-01    8.409E-01    8.331E-01    8.253E-01    8.175E-01
     8.097E-01    8.018E-01    7.940E-01    7.862E-01    7.784E-01    7.706E-01    7.628E-01    7.550E-01    7.472E-01    7.394E-01
     7.316E-01    7.237E-01    7.159E-01    7.081E-01    7.003E-01    6.925E-01    6.847E-01    6.769E-01    6.690E-01    6.612E-01
     6.534E-01    6.456E-01    6.378E-01    6.300E-01    6.221E-01    6.143E-01    6.065E-01    5.987E-01    5.909E-01    5.830E-01
     5.752E-01    5.674E-01    5.596E-01    5.518E-01    5.439E-01    5.361E-01    5.283E-01    5.205E-01    5.127E-01    5.048E-01
     4.970E-01    4.892E-01    4.814E-01    4.735E-01    4.657E-01    4.579E-01    4.501E-01    4.422E-01    4.344E-01    4.266E-01
     4.188E-01    4.109E-01    4.031E-01    3.953E-01    3.875E-01    3.796E-01    3.718E-01    3.640E-01    3.561E-01    3.483E-01
     3.405E-01    3.327E-01    3.248E-01    3.170E-01    3.092E-01    3.013E-01    2.935E-01    2.857E-01    2.779E-01    2.700E-01
     2.622E-01    2.544E-01    2.465E-01    2.387E-01    2.309E-01    2.231E-01    2.152E-01    2.074E-01    1.996E-01    1.917E-01
     1.839E-01    1.761E-01    1.682E-01    1.604E-01    1.526E-01    1.447E-01    1.369E-01    1.291E-01    1.213E-01    1.134E-01
     1.056E-01    9.776E-02    8.993E-02    8.209E-02    7.426E-02    6.643E-02    5.860E-02    5.077E-02    4.294E-02    3.511E-02
     2.727E-02    1.944E-02    1.161E-02    3.780E-03   -4.052E-03   -1.188E-02   -1.971E-02   -2.755E-02   -3.538E-02   -4.321E-02
    -5.104E-02   -5.887E-02   -6.670E-02   -7.453E-02   -8.236E-02   -9.020E-02   -9.803E-02   -1.059E-01   -1.137E-01   -1.215E-01
    -1.293E-01   -1.372E-01   -1.450E-01   -1.528E-01   -1.607E-01   -1.685E-01   -1.763E-01   -1.842E-01   -1.920E-01   -1.998E-01
    -2.076E-01   -2.155E-01   -2.233E-01   -2.311E-01   -2.390E-01   -2.468E-01   -2.546E-01   -2.625E-01   -2.703E-01   -2.781E-01
    -2.859E-01   -2.938E-01   -3.016E-01   -3.094E-01   -3.172E-01   -3.251E-01   -3.329E-01   -3.407E-01   -3.486E-01   -3.564E-01
    -3.642E-01   -3.720E-01   -3.799E-01   -3.877E-01   -3.955E-01   -4.033E-01   -4.112E-01   -4.190E-01   -4.268E-01   -4.346E-01
    -4.425E-01   -4.503E-01   -4.581E-01   -4.659E-01   -4.737E-01   -4.816E-01   -4.894E-01   -4.972E-01   -5.050E-01   -5.128E-01
    -5.207E-01   -5.285E-01   -5.363E-01   -5.441E-01   -5.519E-01   -5.598E-01   -5.676E-01   -5.754E-01   -5.832E-01   -5.910E-01
    -5.989E-01   -6.067E-01   -6.145E-01   -6.223E-01   -6.301E-01   -6.379E-01   -6.458E-01   -6.536E-01   -6.614E-01   -6.692E-01
    -6.770E-01   -6.848E-01   -6.926E-01   -7.004E-01   -7.083E-01   -7.161E-01   -7.239E-01   -7.317E-01   -7.395E-01   -7.473E-01
    -7.551E-01   -7.629E-01   -7.707E-01   -7.785E-01   -7.863E-01   -7.942E-01   -8.020E-01   -8.098E-01   -8.176E-01   -8.254E-01
    -8.332E-01   -8.410E-01   -8.488E-01   -8.566E-01   -8.644E-01   -8.722E-01   -8.800E-01   -8.878E-01   -8.956E-01   -9.034E-01
    -9.112E-01   -9.190E-01   -9.268E-01   -9.346E-01   -9.424E-01   -9.502E-01   -9.580E-01   -9.658E-01   -9.736E-01   -9.813E-01
    -9.891E-01   -9.969E-01   -1.005E+00   -1.013E+00   -1.020E+00   -1.028E+00   -1.036E+00   -1.044E+00   -1.051E+00   -1.059E+00
    -1.067E+00   -1.075E+00   -1.083E+00   -1.090E+00   -1.098E+00   -1.106E+00   -1.114E+00   -1.122E+00   -1.129E+00   -1.137E+00
    -1.145E+00   -1.153E+00   -1.160E+00   -1.168E+00   -1.176E+00   -1.184E+00   -1.192E+00   -1.199E+00   -1.207E+00   -1.215E+00
    -1.223E+00   -1.230E+00   -1.238E+00   -1.246E+00   -1.254E+00   -1.261E+00   -1.269E+00   -1.277E+00   -1.285E+00   -1.293E+00
    -1.300E+00   -1.308E+00   -1.316E+00   -1.324E+00   -1.331E+00   -1.339E+00   -1.347E+00   -1.355E+00   -1.362E+00   -1.370E+00
    -1.378E+00   -1.386E+00   -1.393E+00   -1.401E+00   -1.409E+00   -1.417E+00   -1.424E+00   -1.432E+00   -1.440E+00   -1.448E+00
    -1.455E+00   -1.463E+00   -1.471E+00   -1.479E+00   -1.486E+00   -1.494E+00   -1.502E+00   -1.510E+00   -1.517E+00   -1.525E+00
    -1.533E+00   -1.541E+00   -1.548E+00   -1.556E+00   -1.564E+00   -1.571E+00   -1.579E+00   -1.587E+00   -1.595E+00   -1.602E+00
    -1.610E+00   -1.618E+00   -1.626E+00   -1.633E+00   -1.641E+00   -1.649E+00   -1.656E+00   -1.664E+00   -1.672E+00   -1.680E+00
    -1.687E+00   -1.695E+00   -1.703E+00   -1.710E+00   -1.718E+00   -1.726E+00   -1.734E+00   -1.741E+00   -1.749E+00   -1.757E+00
    -1.764E+00   -1.772E+00   -1.780E+00   -1.788E+00   -1.795E+00   -1.803E+00   -1.811E+00   -1.818E+00   -1.826E+00   -1.834E+00
    -1.841E+00   -1.849E+00   -1.857E+00   -1.865E+00   -1.872E+00   -1.880E+00   -1.888E+00   -1.895E+00   -1.903E+00   -1.911E+00
    -1.918E+00   -1.926E+00   -1.934E+00   -1.941E+00   -1.949E+00   -1.957E+00   -1.964E+00   -1.972E+00   -1.980E+00   -1.987E+00
    -1.995E+00   -2.003E+00   -2.010E+00   -2.018E+00   -2.026E+00   -2.033E+00   -2.041E+00   -2.049E+00
 Ala      Conc. = 8.99E+01
