 LCModel (Version 6.3-1L) Copyright: S.W. Provencher.          Ref.: Magn. Reson. Med. 30:672-679 (1993).                
 Slice#3 Row#7 Col#1  K_02_press_1_raw_act
 36 lines in following concentration table = NCONC+1
    Conc.  %SD /Cr+PCr  Metabolite                                         
    0.000 999%   0.000 Ala                                                 
    6.194  37%   0.000 Asp                                                 
    0.000 999%   0.000 Cr                                                  
    0.000 999%   0.000 PCr                                                 
    3.733  36%   0.000 GABA                                                
    3.729  36%   0.000 Glc                                                 
    8.231 476%   0.000 Gln                                                 
   62.711  72%   0.000 Glu                                                 
    0.000 999%   0.000 GPC                                                 
   21.071  28%   0.000 PCh                                                 
    0.000 999%   0.000 GSH                                                 
   52.986 103%   0.000 Ins                                                 
    0.000 999%   0.000 Lac                                                 
   61.281  28%   0.000 NAA                                                 
    0.000 999%   0.000 NAAG                                                
    1.268  36%   0.000 Scyllo                                              
    6.286  36%   0.000 Tau                                                 
    0.000 999%   0.000 -CrCH2                                              
   21.071  28%   0.000 GPC+PCh                                             
   61.281  28%   0.000 NAA+NAAG                                            
    0.000 999%   0.000 Cr+PCr                                              
   70.942  76%   0.000 Glu+Gln                                             
    0.000 999%   0.000 Lip13a                                              
    0.000 999%   0.000 Lip13b                                              
    0.000 999%   0.000 Lip09                                               
   16.053 232%   0.000 MM09                                                
    0.000 999%   0.000 Lip20                                               
    0.000 999%   0.000 MM20                                                
    9.058 231%   0.000 MM12                                                
    0.000 999%   0.000 MM14                                                
   41.841 118%   0.000 MM17                                                
    0.000 999%   0.000 Lip13a+Lip13b                                       
    9.058 231%   0.000 MM14+Lip13a+Lip13b+MM12                             
   16.053 232%   0.000 MM09+Lip09                                          
    0.000 999%   0.000 MM20+Lip20                                          
   6 lines in following misc. output table
  FWHM = 0.023 ppm    S/N =   1                                            
  Data shift = 0.015 ppm                                                   
  Ph:  87 deg      -7.0 deg/ppm                                            
  alphaB,S = 2.6E-01,   9.6E+00                                            
   14 spline knots.   Ns = 5(1)                                            
  ( 3) 1 infls.   ( 3) 2 extrs.                                            
  498 points on ppm-axis = NY
      4.000000     3.992357     3.984714     3.977070     3.969427     3.961784     3.954141     3.946497     3.938854     3.931211
      3.923568     3.915925     3.908281     3.900638     3.892995     3.885352     3.877708     3.870065     3.862422     3.854779
      3.847136     3.839492     3.831849     3.824206     3.816563     3.808919     3.801276     3.793633     3.785990     3.778347
      3.770703     3.763060     3.755417     3.747774     3.740130     3.732487     3.724844     3.717201     3.709558     3.701914
      3.694271     3.686628     3.678985     3.671341     3.663698     3.656055     3.648412     3.640769     3.633125     3.625482
      3.617839     3.610196     3.602552     3.594909     3.587266     3.579623     3.571980     3.564336     3.556693     3.549050
      3.541407     3.533763     3.526120     3.518477     3.510834     3.503191     3.495547     3.487904     3.480261     3.472618
      3.464974     3.457331     3.449688     3.442045     3.434402     3.426758     3.419115     3.411472     3.403829     3.396185
      3.388542     3.380899     3.373256     3.365613     3.357969     3.350326     3.342683     3.335040     3.327396     3.319753
      3.312110     3.304467     3.296824     3.289180     3.281537     3.273894     3.266251     3.258607     3.250964     3.243321
      3.235678     3.228034     3.220391     3.212748     3.205105     3.197462     3.189818     3.182175     3.174532     3.166889
      3.159245     3.151602     3.143959     3.136316     3.128673     3.121029     3.113386     3.105743     3.098100     3.090456
      3.082813     3.075170     3.067527     3.059884     3.052240     3.044597     3.036954     3.029311     3.021667     3.014024
      3.006381     2.998738     2.991095     2.983451     2.975808     2.968165     2.960522     2.952878     2.945235     2.937592
      2.929949     2.922306     2.914662     2.907019     2.899376     2.891733     2.884089     2.876446     2.868803     2.861160
      2.853517     2.845873     2.838230     2.830587     2.822944     2.815300     2.807657     2.800014     2.792371     2.784728
      2.777084     2.769441     2.761798     2.754155     2.746511     2.738868     2.731225     2.723582     2.715939     2.708295
      2.700652     2.693009     2.685366     2.677722     2.670079     2.662436     2.654793     2.647150     2.639506     2.631863
      2.624220     2.616577     2.608933     2.601290     2.593647     2.586004     2.578361     2.570717     2.563074     2.555431
      2.547788     2.540144     2.532501     2.524858     2.517215     2.509572     2.501928     2.494285     2.486642     2.478999
      2.471355     2.463712     2.456069     2.448426     2.440783     2.433139     2.425496     2.417853     2.410210     2.402566
      2.394923     2.387280     2.379637     2.371994     2.364350     2.356707     2.349064     2.341421     2.333777     2.326134
      2.318491     2.310848     2.303205     2.295561     2.287918     2.280275     2.272632     2.264988     2.257345     2.249702
      2.242059     2.234416     2.226772     2.219129     2.211486     2.203843     2.196199     2.188556     2.180913     2.173270
      2.165627     2.157983     2.150340     2.142697     2.135054     2.127410     2.119767     2.112124     2.104481     2.096838
      2.089194     2.081551     2.073908     2.066265     2.058621     2.050978     2.043335     2.035692     2.028049     2.020405
      2.012762     2.005119     1.997476     1.989833     1.982190     1.974546     1.966903     1.959260     1.951617     1.943974
      1.936331     1.928688     1.921045     1.913402     1.905759     1.898115     1.890472     1.882829     1.875186     1.867543
      1.859900     1.852257     1.844614     1.836971     1.829327     1.821684     1.814041     1.806398     1.798755     1.791112
      1.783469     1.775826     1.768183     1.760540     1.752896     1.745253     1.737610     1.729967     1.722324     1.714681
      1.707038     1.699395     1.691752     1.684108     1.676465     1.668822     1.661179     1.653536     1.645893     1.638250
      1.630607     1.622964     1.615321     1.607677     1.600034     1.592391     1.584748     1.577105     1.569462     1.561819
      1.554176     1.546533     1.538890     1.531246     1.523603     1.515960     1.508317     1.500674     1.493031     1.485388
      1.477745     1.470102     1.462458     1.454815     1.447172     1.439529     1.431886     1.424243     1.416600     1.408957
      1.401314     1.393671     1.386027     1.378384     1.370741     1.363098     1.355455     1.347812     1.340169     1.332526
      1.324883     1.317240     1.309596     1.301953     1.294310     1.286667     1.279024     1.271381     1.263738     1.256095
      1.248452     1.240808     1.233165     1.225522     1.217879     1.210236     1.202593     1.194950     1.187307     1.179664
      1.172021     1.164377     1.156734     1.149091     1.141448     1.133805     1.126162     1.118519     1.110876     1.103233
      1.095590     1.087946     1.080303     1.072660     1.065017     1.057374     1.049731     1.042088     1.034445     1.026802
      1.019158     1.011515     1.003872     0.996229     0.988586     0.980943     0.973300     0.965657     0.958014     0.950371
      0.942727     0.935084     0.927441     0.919798     0.912155     0.904512     0.896869     0.889226     0.881583     0.873940
      0.866296     0.858653     0.851010     0.843367     0.835724     0.828081     0.820438     0.812795     0.805152     0.797508
      0.789865     0.782222     0.774579     0.766936     0.759293     0.751650     0.744007     0.736364     0.728721     0.721077
      0.713434     0.705791     0.698148     0.690505     0.682862     0.675219     0.667576     0.659933     0.652290     0.644646
      0.637003     0.629360     0.621717     0.614074     0.606431     0.598788     0.591145     0.583502     0.575858     0.568215
      0.560572     0.552929     0.545286     0.537643     0.530000     0.522357     0.514714     0.507071     0.499427     0.491784
      0.484141     0.476498     0.468855     0.461212     0.453569     0.445925     0.438282     0.430639     0.422996     0.415353
      0.407710     0.400067     0.392424     0.384780     0.377137     0.369494     0.361851     0.354208     0.346565     0.338922
      0.331278     0.323635     0.315992     0.308349     0.300706     0.293063     0.285420     0.277777     0.270133     0.262490
      0.254847     0.247204     0.239561     0.231918     0.224275     0.216631     0.208988     0.201345
 NY phased data points follow
   6.22959E+01  6.16100E+01  6.06373E+01  6.13329E+01  6.00240E+01  5.85709E+01  5.72629E+01  5.68242E+01  5.76626E+01  5.84880E+01
   5.54564E+01  5.72358E+01  5.72974E+01  5.27260E+01  5.39206E+01  4.98276E+01  5.15601E+01  5.26986E+01  5.17915E+01  5.14697E+01
   5.03296E+01  4.87482E+01  4.94292E+01  5.11627E+01  4.78100E+01  5.05323E+01  4.63557E+01  4.79962E+01  4.49942E+01  4.73946E+01
   4.62115E+01  4.48724E+01  4.63106E+01  4.57997E+01  4.46383E+01  4.21232E+01  4.43308E+01  4.22849E+01  4.13229E+01  4.25201E+01
   4.00653E+01  3.99619E+01  3.97158E+01  3.98146E+01  3.84100E+01  4.07185E+01  3.79251E+01  3.85305E+01  3.88263E+01  3.83334E+01
   3.65256E+01  3.71968E+01  3.62299E+01  3.54448E+01  3.30184E+01  3.51673E+01  3.53042E+01  3.66204E+01  3.62489E+01  3.53261E+01
   3.44970E+01  3.62131E+01  3.31323E+01  3.07427E+01  3.27417E+01  3.36227E+01  3.28063E+01  3.09529E+01  3.36586E+01  2.97792E+01
   3.35221E+01  3.31520E+01  3.16990E+01  3.14393E+01  3.13500E+01  2.91559E+01  3.07571E+01  3.04193E+01  2.93214E+01  2.76210E+01
   3.14020E+01  2.97758E+01  3.19449E+01  2.93231E+01  2.82504E+01  2.92494E+01  2.92447E+01  2.79478E+01  2.75323E+01  2.94597E+01
   2.77349E+01  2.84104E+01  2.83180E+01  2.63485E+01  2.75305E+01  2.72324E+01  2.74512E+01  2.68694E+01  2.28304E+01  2.76376E+01
   2.46903E+01  2.48898E+01  2.72815E+01  2.97637E+01  2.79653E+01  2.71058E+01  2.48515E+01  2.56972E+01  2.48755E+01  2.80687E+01
   2.32682E+01  2.39967E+01  2.28819E+01  2.05443E+01  2.43321E+01  2.24221E+01  2.20238E+01  2.43234E+01  2.58705E+01  2.14837E+01
   2.19537E+01  2.35647E+01  2.15460E+01  2.00191E+01  2.26789E+01  1.99628E+01  2.37805E+01  2.34853E+01  2.40783E+01  2.46820E+01
   2.26797E+01  2.15699E+01  2.18794E+01  2.23929E+01  2.30648E+01  2.15035E+01  2.22683E+01  2.29040E+01  2.48515E+01  2.55996E+01
   2.23786E+01  2.49201E+01  2.57198E+01  2.45168E+01  2.60847E+01  2.66972E+01  2.87490E+01  2.85553E+01  2.79636E+01  3.13018E+01
   2.85287E+01  3.21430E+01  3.27051E+01  3.52904E+01  3.38670E+01  3.65490E+01  3.45176E+01  3.61475E+01  3.77301E+01  3.61331E+01
   3.78729E+01  3.68767E+01  3.83351E+01  3.98836E+01  4.14089E+01  4.22418E+01  4.11430E+01  4.25579E+01  4.22565E+01  4.24153E+01
   4.42266E+01  4.48960E+01  4.49166E+01  4.31319E+01  4.54288E+01  4.47087E+01  4.38213E+01  4.37830E+01  4.52608E+01  4.64734E+01
   4.86671E+01  4.66240E+01  4.77014E+01  4.67092E+01  4.96439E+01  4.69785E+01  4.84324E+01  4.69404E+01  4.93408E+01  5.07676E+01
   4.85054E+01  4.82842E+01  4.97101E+01  5.04216E+01  4.90915E+01  5.21295E+01  4.86337E+01  4.90146E+01  5.16891E+01  4.96258E+01
   4.66559E+01  5.16101E+01  5.04572E+01  4.74382E+01  5.24692E+01  4.84402E+01  5.07857E+01  4.93962E+01  4.81161E+01  4.65011E+01
   5.00813E+01  4.98034E+01  4.76623E+01  4.92425E+01  4.87520E+01  4.82662E+01  4.91158E+01  4.97345E+01  4.77566E+01  4.61625E+01
   4.73849E+01  4.58275E+01  4.58864E+01  4.67877E+01  4.67222E+01  4.65012E+01  4.61989E+01  4.66564E+01  4.62036E+01  4.55273E+01
   4.49689E+01  4.51995E+01  4.57075E+01  4.38421E+01  4.56355E+01  4.40044E+01  4.41412E+01  4.36678E+01  4.05991E+01  4.37175E+01
   4.32458E+01  4.31358E+01  4.35199E+01  4.11341E+01  4.20817E+01  3.96645E+01  4.15858E+01  4.28118E+01  4.15927E+01  4.09986E+01
   3.85185E+01  3.81807E+01  3.85318E+01  3.85315E+01  3.78557E+01  3.86539E+01  3.44305E+01  3.44032E+01  3.56946E+01  4.00682E+01
   4.18855E+01  4.13770E+01  3.69902E+01  3.57016E+01  3.47627E+01  3.32627E+01  3.27382E+01  3.38785E+01  3.38700E+01  3.38977E+01
   3.26323E+01  3.38253E+01  3.31099E+01  3.21407E+01  2.99830E+01  3.06055E+01  3.22675E+01  2.96909E+01  3.01077E+01  3.12592E+01
   3.27158E+01  3.08579E+01  3.09371E+01  3.11352E+01  3.29669E+01  3.03997E+01  2.77383E+01  3.29017E+01  2.93462E+01  2.74099E+01
   2.99220E+01  3.10654E+01  2.98919E+01  2.83570E+01  2.79469E+01  2.77210E+01  2.59951E+01  2.79838E+01  2.58664E+01  2.68404E+01
   2.58296E+01  2.83223E+01  2.82193E+01  2.84135E+01  2.75127E+01  2.74190E+01  2.82676E+01  2.59709E+01  2.65954E+01  2.67310E+01
   2.47231E+01  2.62560E+01  2.47632E+01  2.44149E+01  2.47722E+01  2.69669E+01  2.39695E+01  2.37118E+01  2.55769E+01  2.48580E+01
   2.42650E+01  2.28916E+01  2.30196E+01  2.61197E+01  2.52681E+01  2.14750E+01  2.38400E+01  2.35908E+01  2.22377E+01  2.30940E+01
   2.33605E+01  2.38571E+01  2.26467E+01  2.64160E+01  2.26638E+01  2.23830E+01  2.16068E+01  1.83510E+01  2.24083E+01  1.90411E+01
   1.83596E+01  2.19607E+01  1.95368E+01  1.92994E+01  2.28664E+01  2.13767E+01  2.21604E+01  2.07681E+01  2.31896E+01  2.35853E+01
   2.38503E+01  2.23555E+01  1.96454E+01  2.27673E+01  2.25587E+01  2.11147E+01  1.99072E+01  1.88322E+01  1.92944E+01  2.22938E+01
   1.99102E+01  2.06020E+01  2.17355E+01  2.30117E+01  2.17547E+01  2.14209E+01  2.25723E+01  2.20864E+01  2.26424E+01  2.00284E+01
   2.08241E+01  2.07265E+01  2.05718E+01  2.29344E+01  2.16343E+01  2.07924E+01  2.20526E+01  2.04995E+01  1.96334E+01  2.05524E+01
   2.12449E+01  2.04375E+01  2.14054E+01  2.08301E+01  2.21510E+01  1.97601E+01  1.76964E+01  1.98261E+01  1.86418E+01  2.05354E+01
   2.06165E+01  1.81823E+01  2.03473E+01  1.71952E+01  1.75353E+01  1.93784E+01  1.83051E+01  1.85954E+01  1.93756E+01  1.86837E+01
   2.04885E+01  1.93848E+01  1.93445E+01  1.70965E+01  1.83109E+01  1.66140E+01  1.78984E+01  1.80370E+01  2.05904E+01  1.92427E+01
   1.97765E+01  1.75583E+01  1.81370E+01  1.54417E+01  1.66387E+01  1.80205E+01  1.82490E+01  1.59672E+01  1.83173E+01  1.47593E+01
   1.52332E+01  1.51490E+01  1.86205E+01  1.77344E+01  1.57377E+01  1.52497E+01  1.50427E+01  1.55582E+01  1.66718E+01  1.58067E+01
   1.55979E+01  1.61737E+01  1.48894E+01  1.84375E+01  1.34346E+01  1.49136E+01  1.61692E+01  1.65365E+01  1.59775E+01  1.54023E+01
   1.35331E+01  1.64967E+01  1.58725E+01  1.79560E+01  1.66998E+01  1.48703E+01  1.56784E+01  1.69337E+01  1.41731E+01  1.42660E+01
   1.44012E+01  1.48596E+01  1.43334E+01  1.29459E+01  1.46570E+01  1.47487E+01  1.32642E+01  1.41690E+01  1.64823E+01  1.29903E+01
   1.55828E+01  1.16647E+01  1.46562E+01  1.51816E+01  1.33504E+01  1.33514E+01  1.41712E+01  1.53849E+01  1.21927E+01  1.48294E+01
   1.29617E+01  1.69117E+01  1.24836E+01  1.26054E+01  1.37231E+01  1.37944E+01  1.45436E+01  1.20666E+01  1.30434E+01  1.30659E+01
   1.31768E+01  1.17467E+01  1.15876E+01  1.34416E+01  1.27202E+01  1.37955E+01  1.24925E+01  1.38053E+01  1.38186E+01  1.27822E+01
   1.08901E+01  1.38291E+01  1.21381E+01  1.12712E+01  1.51249E+01  1.31122E+01  1.22191E+01  1.36534E+01
 NY points of the fit to the data follow
   6.10227E+01  6.04818E+01  5.99505E+01  5.94289E+01  5.89140E+01  5.83967E+01  5.78681E+01  5.73293E+01  5.67945E+01  5.62766E+01
   5.57742E+01  5.52737E+01  5.47656E+01  5.42540E+01  5.37477E+01  5.32474E+01  5.27423E+01  5.22255E+01  5.17067E+01  5.12033E+01
   5.07224E+01  5.02585E+01  4.98150E+01  4.94038E+01  4.89884E+01  4.85025E+01  4.79094E+01  4.72444E+01  4.66146E+01  4.61264E+01
   4.58203E+01  4.56363E+01  4.54375E+01  4.51003E+01  4.45933E+01  4.39632E+01  4.33093E+01  4.27244E+01  4.22575E+01  4.18891E+01
   4.15525E+01  4.11737E+01  4.07079E+01  4.02102E+01  3.98390E+01  3.97037E+01  3.97138E+01  3.96162E+01  3.92095E+01  3.85306E+01
   3.77990E+01  3.72100E+01  3.68018E+01  3.64944E+01  3.61960E+01  3.58760E+01  3.55602E+01  3.52885E+01  3.50782E+01  3.48901E+01
   3.46550E+01  3.43264E+01  3.39154E+01  3.34843E+01  3.30945E+01  3.27764E+01  3.25202E+01  3.22859E+01  3.20492E+01  3.18143E+01
   3.15870E+01  3.13592E+01  3.11203E+01  3.08697E+01  3.06157E+01  3.03593E+01  3.00922E+01  2.98102E+01  2.95252E+01  2.92598E+01
   2.90226E+01  2.88018E+01  2.85994E+01  2.84231E+01  2.82533E+01  2.80397E+01  2.77496E+01  2.74113E+01  2.71004E+01  2.68739E+01
   2.67268E+01  2.66063E+01  2.64701E+01  2.63146E+01  2.61484E+01  2.59759E+01  2.57875E+01  2.55501E+01  2.51216E+01  2.46009E+01
   2.46850E+01  2.58148E+01  2.75398E+01  2.86983E+01  2.84729E+01  2.71202E+01  2.55851E+01  2.45720E+01  2.41370E+01  2.39676E+01
   2.38417E+01  2.37491E+01  2.36779E+01  2.36205E+01  2.35737E+01  2.35381E+01  2.35126E+01  2.34962E+01  2.34908E+01  2.34999E+01
   2.35250E+01  2.35645E+01  2.36169E+01  2.36852E+01  2.37743E+01  2.38845E+01  2.40115E+01  2.41516E+01  2.43048E+01  2.44726E+01
   2.46532E+01  2.48422E+01  2.50411E+01  2.52573E+01  2.54966E+01  2.57606E+01  2.60476E+01  2.63575E+01  2.66884E+01  2.70334E+01
   2.73864E+01  2.77474E+01  2.81255E+01  2.85298E+01  2.89572E+01  2.93951E+01  2.98330E+01  3.02705E+01  3.07150E+01  3.11727E+01
   3.16441E+01  3.21257E+01  3.26141E+01  3.31079E+01  3.36070E+01  3.41135E+01  3.46320E+01  3.51493E+01  3.56396E+01  3.60932E+01
   3.65312E+01  3.70074E+01  3.75540E+01  3.81450E+01  3.87186E+01  3.92307E+01  3.96877E+01  4.01278E+01  4.05790E+01  4.10435E+01
   4.15102E+01  4.19713E+01  4.24186E+01  4.28292E+01  4.32034E+01  4.35759E+01  4.39916E+01  4.44445E+01  4.48738E+01  4.52302E+01
   4.55259E+01  4.58191E+01  4.61491E+01  4.64847E+01  4.67659E+01  4.69862E+01  4.71946E+01  4.74415E+01  4.77240E+01  4.79922E+01
   4.82031E+01  4.83537E+01  4.84704E+01  4.85915E+01  4.87328E+01  4.88774E+01  4.89908E+01  4.90495E+01  4.90623E+01  4.90599E+01
   4.90815E+01  4.91478E+01  4.92555E+01  4.93595E+01  4.94063E+01  4.93747E+01  4.92585E+01  4.90702E+01  4.88468E+01  4.86260E+01
   4.84401E+01  4.83081E+01  4.83119E+01  4.85012E+01  4.87870E+01  4.89612E+01  4.88633E+01  4.85150E+01  4.80357E+01  4.74910E+01
   4.69189E+01  4.64410E+01  4.62060E+01  4.62565E+01  4.64445E+01  4.65665E+01  4.65272E+01  4.63479E+01  4.60839E+01  4.57727E+01
   4.54454E+01  4.51417E+01  4.48770E+01  4.46310E+01  4.43794E+01  4.41232E+01  4.38701E+01  4.36162E+01  4.33497E+01  4.30430E+01
   4.26907E+01  4.23269E+01  4.20030E+01  4.17371E+01  4.15072E+01  4.12775E+01  4.10211E+01  4.07181E+01  4.03575E+01  3.99620E+01
   3.95833E+01  3.92727E+01  3.90324E+01  3.88168E+01  3.85313E+01  3.79734E+01  3.72590E+01  3.71603E+01  3.81630E+01  3.97890E+01
   4.08242E+01  4.04316E+01  3.88886E+01  3.71619E+01  3.59564E+01  3.53193E+01  3.49351E+01  3.45880E+01  3.42613E+01  3.39371E+01
   3.36218E+01  3.33352E+01  3.30839E+01  3.28548E+01  3.26277E+01  3.23890E+01  3.21371E+01  3.18760E+01  3.16110E+01  3.13470E+01
   3.10897E+01  3.08432E+01  3.06080E+01  3.03823E+01  3.01638E+01  2.99500E+01  2.97394E+01  2.95313E+01  2.93261E+01  2.91249E+01
   2.89280E+01  2.87350E+01  2.85459E+01  2.83607E+01  2.81797E+01  2.80028E+01  2.78298E+01  2.76602E+01  2.74934E+01  2.73290E+01
   2.71668E+01  2.70066E+01  2.68483E+01  2.66915E+01  2.65356E+01  2.63805E+01  2.62261E+01  2.60728E+01  2.59207E+01  2.57700E+01
   2.56208E+01  2.54731E+01  2.53273E+01  2.51838E+01  2.50428E+01  2.49046E+01  2.47693E+01  2.46372E+01  2.45084E+01  2.43830E+01
   2.42612E+01  2.41428E+01  2.40278E+01  2.39162E+01  2.38079E+01  2.37029E+01  2.36010E+01  2.35020E+01  2.34058E+01  2.33123E+01
   2.32213E+01  2.31329E+01  2.30468E+01  2.29628E+01  2.28809E+01  2.28010E+01  2.27229E+01  2.26467E+01  2.25722E+01  2.24992E+01
   2.24277E+01  2.23577E+01  2.22891E+01  2.22218E+01  2.21558E+01  2.20908E+01  2.20269E+01  2.19641E+01  2.19022E+01  2.18413E+01
   2.17810E+01  2.17215E+01  2.16626E+01  2.16042E+01  2.15464E+01  2.14889E+01  2.14316E+01  2.13745E+01  2.13174E+01  2.12604E+01
   2.12032E+01  2.11458E+01  2.10880E+01  2.10299E+01  2.09714E+01  2.09125E+01  2.08531E+01  2.07933E+01  2.07330E+01  2.06723E+01
   2.06113E+01  2.05499E+01  2.04880E+01  2.04259E+01  2.03634E+01  2.03007E+01  2.02378E+01  2.01748E+01  2.01116E+01  2.00483E+01
   1.99849E+01  1.99216E+01  1.98583E+01  1.97951E+01  1.97319E+01  1.96688E+01  1.96058E+01  1.95430E+01  1.94803E+01  1.94177E+01
   1.93552E+01  1.92926E+01  1.92300E+01  1.91672E+01  1.91042E+01  1.90406E+01  1.89765E+01  1.89117E+01  1.88460E+01  1.87791E+01
   1.87110E+01  1.86415E+01  1.85705E+01  1.84979E+01  1.84236E+01  1.83476E+01  1.82700E+01  1.81906E+01  1.81097E+01  1.80275E+01
   1.79441E+01  1.78596E+01  1.77743E+01  1.76884E+01  1.76021E+01  1.75155E+01  1.74288E+01  1.73422E+01  1.72556E+01  1.71694E+01
   1.70834E+01  1.69979E+01  1.69127E+01  1.68280E+01  1.67437E+01  1.66600E+01  1.65767E+01  1.64939E+01  1.64116E+01  1.63298E+01
   1.62486E+01  1.61678E+01  1.60877E+01  1.60080E+01  1.59289E+01  1.58504E+01  1.57726E+01  1.56954E+01  1.56189E+01  1.55431E+01
   1.54679E+01  1.53936E+01  1.53201E+01  1.52474E+01  1.51756E+01  1.51047E+01  1.50347E+01  1.49658E+01  1.48978E+01  1.48309E+01
   1.47651E+01  1.47004E+01  1.46369E+01  1.45746E+01  1.45134E+01  1.44534E+01  1.43945E+01  1.43367E+01  1.42799E+01  1.42241E+01
   1.41693E+01  1.41155E+01  1.40626E+01  1.40106E+01  1.39595E+01  1.39093E+01  1.38598E+01  1.38111E+01  1.37632E+01  1.37160E+01
   1.36695E+01  1.36237E+01  1.35786E+01  1.35340E+01  1.34900E+01  1.34466E+01  1.34037E+01  1.33614E+01  1.33194E+01  1.32779E+01
   1.32369E+01  1.31962E+01  1.31559E+01  1.31159E+01  1.30761E+01  1.30367E+01  1.29975E+01  1.29585E+01  1.29197E+01  1.28811E+01
   1.28425E+01  1.28041E+01  1.27657E+01  1.27274E+01  1.26891E+01  1.26508E+01  1.26124E+01  1.25740E+01
 NY background values follow
     6.094E+01    6.042E+01    5.989E+01    5.937E+01    5.885E+01    5.833E+01    5.781E+01    5.729E+01    5.678E+01    5.626E+01
     5.574E+01    5.523E+01    5.472E+01    5.421E+01    5.370E+01    5.319E+01    5.268E+01    5.218E+01    5.168E+01    5.118E+01
     5.068E+01    5.019E+01    4.970E+01    4.921E+01    4.873E+01    4.824E+01    4.777E+01    4.729E+01    4.682E+01    4.635E+01
     4.589E+01    4.543E+01    4.497E+01    4.452E+01    4.407E+01    4.363E+01    4.319E+01    4.276E+01    4.233E+01    4.190E+01
     4.148E+01    4.107E+01    4.066E+01    4.026E+01    3.986E+01    3.947E+01    3.908E+01    3.870E+01    3.833E+01    3.796E+01
     3.760E+01    3.724E+01    3.689E+01    3.654E+01    3.620E+01    3.586E+01    3.553E+01    3.520E+01    3.488E+01    3.457E+01
     3.426E+01    3.395E+01    3.365E+01    3.335E+01    3.306E+01    3.277E+01    3.249E+01    3.221E+01    3.193E+01    3.166E+01
     3.140E+01    3.113E+01    3.087E+01    3.062E+01    3.037E+01    3.012E+01    2.988E+01    2.964E+01    2.940E+01    2.917E+01
     2.894E+01    2.871E+01    2.849E+01    2.827E+01    2.805E+01    2.784E+01    2.763E+01    2.742E+01    2.721E+01    2.701E+01
     2.681E+01    2.661E+01    2.642E+01    2.622E+01    2.604E+01    2.585E+01    2.567E+01    2.550E+01    2.533E+01    2.516E+01
     2.500E+01    2.485E+01    2.470E+01    2.456E+01    2.442E+01    2.430E+01    2.418E+01    2.407E+01    2.397E+01    2.387E+01
     2.379E+01    2.372E+01    2.365E+01    2.360E+01    2.356E+01    2.353E+01    2.351E+01    2.350E+01    2.350E+01    2.352E+01
     2.355E+01    2.359E+01    2.365E+01    2.372E+01    2.380E+01    2.390E+01    2.402E+01    2.415E+01    2.429E+01    2.446E+01
     2.464E+01    2.483E+01    2.504E+01    2.528E+01    2.552E+01    2.579E+01    2.608E+01    2.638E+01    2.670E+01    2.704E+01
     2.740E+01    2.777E+01    2.816E+01    2.855E+01    2.897E+01    2.939E+01    2.983E+01    3.027E+01    3.073E+01    3.119E+01
     3.167E+01    3.215E+01    3.263E+01    3.312E+01    3.362E+01    3.412E+01    3.463E+01    3.513E+01    3.564E+01    3.615E+01
     3.666E+01    3.717E+01    3.768E+01    3.818E+01    3.869E+01    3.918E+01    3.968E+01    4.016E+01    4.065E+01    4.112E+01
     4.159E+01    4.204E+01    4.249E+01    4.293E+01    4.335E+01    4.377E+01    4.417E+01    4.456E+01    4.493E+01    4.529E+01
     4.563E+01    4.595E+01    4.626E+01    4.655E+01    4.683E+01    4.708E+01    4.732E+01    4.755E+01    4.776E+01    4.795E+01
     4.813E+01    4.829E+01    4.844E+01    4.857E+01    4.869E+01    4.879E+01    4.888E+01    4.896E+01    4.902E+01    4.907E+01
     4.910E+01    4.913E+01    4.914E+01    4.914E+01    4.912E+01    4.910E+01    4.906E+01    4.901E+01    4.896E+01    4.889E+01
     4.881E+01    4.871E+01    4.861E+01    4.850E+01    4.838E+01    4.825E+01    4.811E+01    4.797E+01    4.781E+01    4.765E+01
     4.747E+01    4.729E+01    4.710E+01    4.691E+01    4.670E+01    4.649E+01    4.628E+01    4.605E+01    4.582E+01    4.559E+01
     4.535E+01    4.510E+01    4.485E+01    4.459E+01    4.433E+01    4.406E+01    4.379E+01    4.352E+01    4.324E+01    4.296E+01
     4.267E+01    4.238E+01    4.209E+01    4.179E+01    4.150E+01    4.120E+01    4.089E+01    4.059E+01    4.028E+01    3.998E+01
     3.967E+01    3.936E+01    3.905E+01    3.874E+01    3.843E+01    3.812E+01    3.781E+01    3.750E+01    3.719E+01    3.689E+01
     3.658E+01    3.628E+01    3.597E+01    3.567E+01    3.537E+01    3.508E+01    3.478E+01    3.449E+01    3.420E+01    3.392E+01
     3.363E+01    3.336E+01    3.308E+01    3.281E+01    3.255E+01    3.228E+01    3.203E+01    3.177E+01    3.152E+01    3.127E+01
     3.103E+01    3.079E+01    3.056E+01    3.033E+01    3.010E+01    2.987E+01    2.965E+01    2.944E+01    2.922E+01    2.901E+01
     2.881E+01    2.860E+01    2.841E+01    2.821E+01    2.802E+01    2.783E+01    2.764E+01    2.746E+01    2.728E+01    2.711E+01
     2.694E+01    2.677E+01    2.660E+01    2.644E+01    2.628E+01    2.613E+01    2.597E+01    2.582E+01    2.568E+01    2.553E+01
     2.539E+01    2.526E+01    2.512E+01    2.499E+01    2.486E+01    2.474E+01    2.462E+01    2.450E+01    2.438E+01    2.427E+01
     2.416E+01    2.405E+01    2.394E+01    2.384E+01    2.374E+01    2.364E+01    2.354E+01    2.345E+01    2.336E+01    2.327E+01
     2.318E+01    2.309E+01    2.301E+01    2.293E+01    2.285E+01    2.277E+01    2.269E+01    2.262E+01    2.254E+01    2.247E+01
     2.240E+01    2.233E+01    2.226E+01    2.219E+01    2.212E+01    2.206E+01    2.199E+01    2.193E+01    2.187E+01    2.181E+01
     2.174E+01    2.168E+01    2.162E+01    2.156E+01    2.150E+01    2.144E+01    2.139E+01    2.133E+01    2.127E+01    2.121E+01
     2.115E+01    2.109E+01    2.103E+01    2.097E+01    2.092E+01    2.086E+01    2.080E+01    2.074E+01    2.068E+01    2.062E+01
     2.056E+01    2.050E+01    2.043E+01    2.037E+01    2.031E+01    2.025E+01    2.019E+01    2.013E+01    2.006E+01    2.000E+01
     1.994E+01    1.987E+01    1.981E+01    1.974E+01    1.968E+01    1.961E+01    1.955E+01    1.948E+01    1.941E+01    1.935E+01
     1.928E+01    1.921E+01    1.914E+01    1.908E+01    1.901E+01    1.894E+01    1.887E+01    1.880E+01    1.872E+01    1.865E+01
     1.858E+01    1.851E+01    1.844E+01    1.836E+01    1.829E+01    1.821E+01    1.814E+01    1.806E+01    1.798E+01    1.791E+01
     1.783E+01    1.775E+01    1.767E+01    1.759E+01    1.751E+01    1.743E+01    1.735E+01    1.727E+01    1.719E+01    1.711E+01
     1.703E+01    1.695E+01    1.687E+01    1.679E+01    1.671E+01    1.663E+01    1.655E+01    1.647E+01    1.639E+01    1.631E+01
     1.623E+01    1.615E+01    1.607E+01    1.599E+01    1.591E+01    1.584E+01    1.576E+01    1.568E+01    1.561E+01    1.553E+01
     1.546E+01    1.538E+01    1.531E+01    1.524E+01    1.517E+01    1.509E+01    1.503E+01    1.496E+01    1.489E+01    1.482E+01
     1.476E+01    1.469E+01    1.463E+01    1.457E+01    1.451E+01    1.445E+01    1.439E+01    1.433E+01    1.427E+01    1.422E+01
     1.416E+01    1.411E+01    1.406E+01    1.400E+01    1.395E+01    1.390E+01    1.385E+01    1.381E+01    1.376E+01    1.371E+01
     1.366E+01    1.362E+01    1.357E+01    1.353E+01    1.348E+01    1.344E+01    1.340E+01    1.336E+01    1.331E+01    1.327E+01
     1.323E+01    1.319E+01    1.315E+01    1.311E+01    1.307E+01    1.303E+01    1.299E+01    1.295E+01    1.292E+01    1.288E+01
     1.284E+01    1.280E+01    1.276E+01    1.272E+01    1.269E+01    1.265E+01    1.261E+01    1.257E+01
 Asp      Conc. = 6.19E+00
