 LCModel (Version 6.3-1L) Copyright: S.W. Provencher.          Ref.: Magn. Reson. Med. 30:672-679 (1993).                
 Slice#1 Row#9 Col#2  K_02_press_1_raw_act
 36 lines in following concentration table = NCONC+1
    Conc.  %SD /Cr+PCr  Metabolite                                         
   62.181  95% 8.7E-02 Ala                                                 
    0.000 999%   0.000 Asp                                                 
    0.000 999%   0.000 Cr                                                  
  711.026   5%   1.000 PCr                                                 
   15.448 466% 2.2E-02 GABA                                                
   74.737  93%   0.105 Glc                                                 
    5.270 999% 7.4E-03 Gln                                                 
  754.612  20%   1.061 Glu                                                 
  224.584   6%   0.316 GPC                                                 
    0.000 999%   0.000 PCh                                                 
  226.100  19%   0.318 GSH                                                 
  787.337  19%   1.107 Ins                                                 
    0.000 999%   0.000 Lac                                                 
  970.865   5%   1.365 NAA                                                 
  130.200  40%   0.183 NAAG                                                
   68.161  21% 9.6E-02 Scyllo                                              
  145.557  74%   0.205 Tau                                                 
  405.538  15%   0.570 -CrCH2                                              
  224.584   6%   0.316 GPC+PCh                                             
 1.10E+03   4%   1.549 NAA+NAAG                                            
  711.026   5%   1.000 Cr+PCr                                              
  759.881  27%   1.069 Glu+Gln                                             
    0.000 999%   0.000 Lip13a                                              
    8.249 517% 1.2E-02 Lip13b                                              
    0.000 999%   0.000 Lip09                                               
  216.679  40%   0.305 MM09                                                
    2.693 531% 3.8E-03 Lip20                                               
  356.071  38%   0.501 MM20                                                
   64.839  47% 9.1E-02 MM12                                                
   94.439  95%   0.133 MM14                                                
  117.936  47%   0.166 MM17                                                
    8.249 517% 1.2E-02 Lip13a+Lip13b                                       
  167.527  73%   0.236 MM14+Lip13a+Lip13b+MM12                             
  216.679  40%   0.305 MM09+Lip09                                          
  358.764  38%   0.505 MM20+Lip20                                          
   6 lines in following misc. output table
  FWHM = 0.061 ppm    S/N =   8                                            
  Data shift =-0.015 ppm                                                   
  Ph: -48 deg     -24.1 deg/ppm                                            
  alphaB,S = 7.1E-01,   9.0E+01                                            
   14 spline knots.   Ns = 7(1)                                            
  (10) 2 infls.   ( 3) 1 extrs.                                            
  498 points on ppm-axis = NY
      4.000000     3.992357     3.984714     3.977070     3.969427     3.961784     3.954141     3.946497     3.938854     3.931211
      3.923568     3.915925     3.908281     3.900638     3.892995     3.885352     3.877708     3.870065     3.862422     3.854779
      3.847136     3.839492     3.831849     3.824206     3.816563     3.808919     3.801276     3.793633     3.785990     3.778347
      3.770703     3.763060     3.755417     3.747774     3.740130     3.732487     3.724844     3.717201     3.709558     3.701914
      3.694271     3.686628     3.678985     3.671341     3.663698     3.656055     3.648412     3.640769     3.633125     3.625482
      3.617839     3.610196     3.602552     3.594909     3.587266     3.579623     3.571980     3.564336     3.556693     3.549050
      3.541407     3.533763     3.526120     3.518477     3.510834     3.503191     3.495547     3.487904     3.480261     3.472618
      3.464974     3.457331     3.449688     3.442045     3.434402     3.426758     3.419115     3.411472     3.403829     3.396185
      3.388542     3.380899     3.373256     3.365613     3.357969     3.350326     3.342683     3.335040     3.327396     3.319753
      3.312110     3.304467     3.296824     3.289180     3.281537     3.273894     3.266251     3.258607     3.250964     3.243321
      3.235678     3.228034     3.220391     3.212748     3.205105     3.197462     3.189818     3.182175     3.174532     3.166889
      3.159245     3.151602     3.143959     3.136316     3.128673     3.121029     3.113386     3.105743     3.098100     3.090456
      3.082813     3.075170     3.067527     3.059884     3.052240     3.044597     3.036954     3.029311     3.021667     3.014024
      3.006381     2.998738     2.991095     2.983451     2.975808     2.968165     2.960522     2.952878     2.945235     2.937592
      2.929949     2.922306     2.914662     2.907019     2.899376     2.891733     2.884089     2.876446     2.868803     2.861160
      2.853517     2.845873     2.838230     2.830587     2.822944     2.815300     2.807657     2.800014     2.792371     2.784728
      2.777084     2.769441     2.761798     2.754155     2.746511     2.738868     2.731225     2.723582     2.715939     2.708295
      2.700652     2.693009     2.685366     2.677722     2.670079     2.662436     2.654793     2.647150     2.639506     2.631863
      2.624220     2.616577     2.608933     2.601290     2.593647     2.586004     2.578361     2.570717     2.563074     2.555431
      2.547788     2.540144     2.532501     2.524858     2.517215     2.509572     2.501928     2.494285     2.486642     2.478999
      2.471355     2.463712     2.456069     2.448426     2.440783     2.433139     2.425496     2.417853     2.410210     2.402566
      2.394923     2.387280     2.379637     2.371994     2.364350     2.356707     2.349064     2.341421     2.333777     2.326134
      2.318491     2.310848     2.303205     2.295561     2.287918     2.280275     2.272632     2.264988     2.257345     2.249702
      2.242059     2.234416     2.226772     2.219129     2.211486     2.203843     2.196199     2.188556     2.180913     2.173270
      2.165627     2.157983     2.150340     2.142697     2.135054     2.127410     2.119767     2.112124     2.104481     2.096838
      2.089194     2.081551     2.073908     2.066265     2.058621     2.050978     2.043335     2.035692     2.028049     2.020405
      2.012762     2.005119     1.997476     1.989833     1.982190     1.974546     1.966903     1.959260     1.951617     1.943974
      1.936331     1.928688     1.921045     1.913402     1.905759     1.898115     1.890472     1.882829     1.875186     1.867543
      1.859900     1.852257     1.844614     1.836971     1.829327     1.821684     1.814041     1.806398     1.798755     1.791112
      1.783469     1.775826     1.768183     1.760540     1.752896     1.745253     1.737610     1.729967     1.722324     1.714681
      1.707038     1.699395     1.691752     1.684108     1.676465     1.668822     1.661179     1.653536     1.645893     1.638250
      1.630607     1.622964     1.615321     1.607677     1.600034     1.592391     1.584748     1.577105     1.569462     1.561819
      1.554176     1.546533     1.538890     1.531246     1.523603     1.515960     1.508317     1.500674     1.493031     1.485388
      1.477745     1.470102     1.462458     1.454815     1.447172     1.439529     1.431886     1.424243     1.416600     1.408957
      1.401314     1.393671     1.386027     1.378384     1.370741     1.363098     1.355455     1.347812     1.340169     1.332526
      1.324883     1.317240     1.309596     1.301953     1.294310     1.286667     1.279024     1.271381     1.263738     1.256095
      1.248452     1.240808     1.233165     1.225522     1.217879     1.210236     1.202593     1.194950     1.187307     1.179664
      1.172021     1.164377     1.156734     1.149091     1.141448     1.133805     1.126162     1.118519     1.110876     1.103233
      1.095590     1.087946     1.080303     1.072660     1.065017     1.057374     1.049731     1.042088     1.034445     1.026802
      1.019158     1.011515     1.003872     0.996229     0.988586     0.980943     0.973300     0.965657     0.958014     0.950371
      0.942727     0.935084     0.927441     0.919798     0.912155     0.904512     0.896869     0.889226     0.881583     0.873940
      0.866296     0.858653     0.851010     0.843367     0.835724     0.828081     0.820438     0.812795     0.805152     0.797508
      0.789865     0.782222     0.774579     0.766936     0.759293     0.751650     0.744007     0.736364     0.728721     0.721077
      0.713434     0.705791     0.698148     0.690505     0.682862     0.675219     0.667576     0.659933     0.652290     0.644646
      0.637003     0.629360     0.621717     0.614074     0.606431     0.598788     0.591145     0.583502     0.575858     0.568215
      0.560572     0.552929     0.545286     0.537643     0.530000     0.522357     0.514714     0.507071     0.499427     0.491784
      0.484141     0.476498     0.468855     0.461212     0.453569     0.445925     0.438282     0.430639     0.422996     0.415353
      0.407710     0.400067     0.392424     0.384780     0.377137     0.369494     0.361851     0.354208     0.346565     0.338922
      0.331278     0.323635     0.315992     0.308349     0.300706     0.293063     0.285420     0.277777     0.270133     0.262490
      0.254847     0.247204     0.239561     0.231918     0.224275     0.216631     0.208988     0.201345
 NY phased data points follow
  -4.52994E+01 -4.72342E+01 -4.20513E+01 -4.25094E+01 -4.01404E+01 -3.83656E+01 -3.52724E+01 -3.46902E+01 -3.41118E+01 -3.16138E+01
  -3.03946E+01 -3.15080E+01 -3.48741E+01 -3.36049E+01 -3.50222E+01 -3.75974E+01 -4.02088E+01 -3.96066E+01 -3.71915E+01 -3.85655E+01
  -3.72479E+01 -3.45066E+01 -3.35998E+01 -3.26336E+01 -3.37652E+01 -3.44549E+01 -3.13371E+01 -2.89645E+01 -2.94357E+01 -2.85150E+01
  -2.80549E+01 -2.68413E+01 -2.91731E+01 -3.00464E+01 -2.71102E+01 -2.79688E+01 -2.70337E+01 -2.58468E+01 -2.70780E+01 -3.03485E+01
  -2.77031E+01 -2.57007E+01 -2.22979E+01 -2.36820E+01 -2.38614E+01 -1.98977E+01 -2.38853E+01 -2.09388E+01 -1.97946E+01 -2.37637E+01
  -2.49169E+01 -2.67066E+01 -2.36153E+01 -2.37737E+01 -2.22245E+01 -2.43901E+01 -2.44362E+01 -2.22050E+01 -2.19425E+01 -2.38243E+01
  -2.25392E+01 -2.04663E+01 -2.33920E+01 -2.42775E+01 -2.34254E+01 -2.32621E+01 -2.63993E+01 -2.26105E+01 -2.21276E+01 -2.27984E+01
  -2.16399E+01 -1.78071E+01 -1.72207E+01 -1.79106E+01 -1.67884E+01 -1.67031E+01 -1.92607E+01 -1.75617E+01 -1.98922E+01 -1.45636E+01
  -1.93256E+01 -1.91243E+01 -1.59750E+01 -1.60866E+01 -1.51784E+01 -1.49563E+01 -1.44514E+01 -1.49165E+01 -1.36381E+01 -1.57163E+01
  -1.23166E+01 -1.30295E+01 -1.42270E+01 -1.10978E+01 -1.45174E+01 -9.53358E+00 -9.25384E+00 -1.00524E+01 -2.14837E+00 -1.69840E+00
  -6.16925E-01  4.82350E+00  6.58686E+00  4.75979E+00  3.80853E+00  2.06638E+00 -4.65391E+00 -6.66425E+00 -1.14946E+01 -1.16758E+01
  -1.48057E+01 -1.16232E+01 -1.15008E+01 -1.03530E+01 -9.83004E+00 -9.24851E+00 -9.22447E+00 -9.62160E+00 -8.38910E+00 -7.35065E+00
  -5.37916E+00 -5.07775E+00 -2.99590E-01  5.61042E+00  9.57477E+00  1.15209E+01  1.06358E+01  1.04695E+01  9.81288E+00  8.04492E+00
   4.04934E+00  3.29991E-01 -3.47667E+00 -8.97565E+00 -7.83657E+00 -8.62413E+00 -1.03245E+01 -7.95750E+00 -7.06486E+00 -6.38329E+00
  -3.40212E+00 -7.55037E+00 -6.98091E+00 -8.14625E+00 -8.01834E+00 -4.57308E+00 -6.83932E+00 -6.21589E+00 -7.65334E+00 -9.21388E+00
  -4.64964E+00 -6.88501E+00 -7.31948E+00 -6.95296E+00 -6.09550E+00 -1.69799E+00 -3.86849E+00 -5.85572E+00 -5.82554E+00 -4.46260E+00
  -6.48611E+00 -7.68369E+00 -2.65576E+00 -7.81846E+00 -4.50176E+00 -4.39570E+00 -8.10077E+00 -6.71758E+00 -4.70471E+00 -9.41028E+00
  -9.01790E+00 -7.61303E+00 -1.13965E+01 -1.10745E+01 -1.16641E+01 -1.21888E+01 -8.81927E+00 -1.30958E+01 -9.48741E+00 -1.09309E+01
  -7.46599E+00 -8.47622E+00 -8.76509E+00 -6.87372E+00 -4.60010E+00 -6.39035E+00 -6.83709E+00 -5.41216E+00 -5.44036E+00 -4.16946E+00
  -6.24592E+00 -3.73625E+00 -2.02054E+00 -3.54164E+00 -4.46893E+00 -5.75371E+00 -5.73152E+00 -4.64050E+00 -5.66569E+00 -5.89379E+00
  -6.68217E+00 -9.11107E-01 -2.56277E+00  5.42298E-01 -1.17905E+00  9.52364E-01 -3.32086E+00 -1.27255E+00 -1.40871E+00 -9.48157E-01
  -1.17165E+00 -2.01317E+00 -1.75833E-01  3.36566E+00  1.02805E+00  3.18284E+00  1.32689E+00  2.96742E+00 -1.40776E+00  5.94644E-01
  -2.19509E+00 -2.38507E+00 -4.50111E+00 -3.65062E+00 -2.62403E+00 -8.00755E-01  4.83061E-01  1.64716E+00  3.58949E+00  2.83578E+00
   2.27125E+00  2.32203E+00  1.68617E+00  2.10458E+00  3.12198E+00  1.96502E+00 -6.04653E-01 -2.57224E-01  1.37818E+00  1.61862E+00
  -1.09923E+00  3.45779E-01 -2.68799E+00  1.90971E+00  2.20650E+00  3.51811E+00  3.07554E+00  6.69826E+00  5.45717E+00  3.94393E+00
   8.05702E+00  6.51945E+00  7.76480E+00  1.07161E+01  1.39718E+01  1.68159E+01  2.30751E+01  2.68185E+01  3.46255E+01  3.53683E+01
   3.59996E+01  3.20296E+01  2.88721E+01  2.54136E+01  1.66042E+01  1.02980E+01  6.37816E+00  1.52525E+00  2.63586E+00  1.35080E+00
  -8.89071E-01  2.75123E+00  7.75397E+00  4.96727E+00  5.27400E+00  3.14748E+00  3.03923E+00  3.66050E+00  3.40482E+00  3.23753E+00
   7.73411E+00  4.72689E+00  2.03192E+00  1.98216E+00  2.79539E+00  3.39678E+00  2.62132E+00  3.88803E+00  2.56455E+00  5.44879E+00
   5.43881E+00  5.07856E+00  3.76514E+00 -3.17293E-01  2.45576E+00  3.79430E+00  3.19664E+00  6.39694E+00  6.33921E+00  7.15709E+00
   4.42603E+00  1.81575E+00  6.66091E+00  2.15816E+00  6.44608E+00  6.10846E+00  4.13922E+00  2.61602E+00  3.26711E+00  3.09896E+00
   5.70472E+00  5.31100E+00  4.27851E+00  4.40697E+00  4.69041E+00  6.72705E+00  5.36997E+00  6.15895E+00  7.32209E+00  5.21299E+00
   5.00690E+00  2.90026E+00  5.09992E+00  3.62884E+00  2.70749E+00  3.64005E+00  3.98390E+00  2.95215E+00  2.18304E+00  1.18549E+00
   5.03427E+00  2.37794E+00  2.35898E+00  4.56784E+00  5.45459E+00  4.85136E+00  3.84199E+00  6.59484E+00  7.62812E-01  3.63717E+00
   4.54213E+00  6.33003E+00  3.36695E+00  2.41451E+00  2.05188E+00  1.29811E+00  3.59252E+00 -2.38227E-01  2.23938E+00  4.50680E+00
   3.83610E+00  4.29634E+00  4.17406E+00  6.45204E+00  4.44396E+00  8.03858E+00  4.44886E+00  4.36503E+00  1.93985E+00  2.62014E+00
   6.95522E+00  4.34771E+00  4.56197E+00  3.08949E+00  3.58663E+00  5.09047E+00  5.84118E+00  5.38800E+00  5.57697E+00  5.41655E+00
   2.22721E+00  2.79441E+00  6.21905E+00  4.49746E+00  4.56389E+00  5.76561E+00  7.03095E+00  2.56791E+00  7.86310E+00  1.98407E+00
   3.78491E+00  4.79453E+00  3.98997E+00  3.93086E+00  7.16952E+00  4.02929E+00  3.82274E+00  4.09083E+00  4.31734E+00  6.09525E+00
   5.21142E+00  5.29844E+00  5.26923E+00  5.31392E+00  4.34336E+00  7.63264E+00  3.95460E+00  4.56825E+00  5.74715E+00  4.40473E+00
   4.99614E+00  7.04117E+00  8.20105E+00  7.11434E+00  5.44579E+00  4.55792E+00  6.24593E+00  2.74173E+00  5.16889E+00  6.13683E+00
   2.68919E+00  6.82111E+00  7.15867E+00  3.56683E+00  6.42317E+00  4.14878E+00  5.45665E+00  4.90498E+00  7.30075E+00  8.20398E+00
   3.59699E+00  4.43571E+00  4.81470E+00  4.34017E+00  2.45162E+00  3.65565E+00  5.58876E+00  6.68868E+00  2.60699E+00  1.36367E+00
   3.21551E+00  3.42319E+00  5.29664E+00  7.28640E+00  1.63222E+00  5.08029E+00  4.64243E+00  4.07138E+00  6.30904E+00  3.46277E+00
   5.32779E+00  6.13556E+00  8.37624E+00  2.94381E+00  4.74163E+00  6.52638E+00  4.29964E+00  5.16032E+00  7.16478E+00  4.90598E+00
   4.34163E+00  5.85246E+00  6.25134E+00  8.29406E+00  5.14349E+00  5.60180E+00  5.15353E+00  6.85959E+00  3.24424E+00  2.87178E+00
   4.76824E+00  6.74404E+00  3.78486E+00  5.35924E+00  6.44141E+00  7.19373E+00  3.79869E+00  6.28048E+00  7.41381E+00  7.80104E+00
   6.29102E+00  5.79858E+00  4.01841E+00  6.14889E+00  3.19985E+00  3.48417E+00  5.70845E+00  8.03497E+00  4.23347E+00  5.28036E+00
   3.24489E+00  6.40805E+00  4.84245E+00  4.69402E+00  5.80727E+00  4.46192E+00  6.88926E+00  4.47512E+00  5.69499E+00  6.58694E+00
   5.62197E+00  5.77988E+00  5.57259E+00  3.68176E+00  5.39768E+00  4.11922E+00  4.79384E+00  6.13598E+00
 NY points of the fit to the data follow
  -4.25026E+01 -4.24816E+01 -4.18173E+01 -4.06588E+01 -3.93041E+01 -3.76917E+01 -3.59480E+01 -3.43374E+01 -3.31135E+01 -3.23681E+01
  -3.20835E+01 -3.22535E+01 -3.29305E+01 -3.39700E+01 -3.51261E+01 -3.60862E+01 -3.65172E+01 -3.63278E+01 -3.60155E+01 -3.57558E+01
  -3.54703E+01 -3.51911E+01 -3.47914E+01 -3.40587E+01 -3.32057E+01 -3.22743E+01 -3.11966E+01 -3.00352E+01 -2.89227E+01 -2.80042E+01
  -2.72932E+01 -2.68553E+01 -2.68171E+01 -2.71652E+01 -2.77602E+01 -2.84576E+01 -2.90911E+01 -2.95075E+01 -2.96641E+01 -2.95348E+01
  -2.89393E+01 -2.78904E+01 -2.65302E+01 -2.50265E+01 -2.36225E+01 -2.25633E+01 -2.20402E+01 -2.20454E+01 -2.24413E+01 -2.31246E+01
  -2.40207E+01 -2.49358E+01 -2.55862E+01 -2.57502E+01 -2.53485E+01 -2.45883E+01 -2.37657E+01 -2.30539E+01 -2.25260E+01 -2.21924E+01
  -2.20251E+01 -2.20008E+01 -2.20448E+01 -2.21133E+01 -2.21134E+01 -2.19693E+01 -2.16373E+01 -2.11356E+01 -2.05238E+01 -1.98827E+01
  -1.93357E+01 -1.89106E+01 -1.85953E+01 -1.83800E+01 -1.82537E+01 -1.81952E+01 -1.81810E+01 -1.81725E+01 -1.81370E+01 -1.79886E+01
  -1.76114E+01 -1.71590E+01 -1.66341E+01 -1.60287E+01 -1.54559E+01 -1.50373E+01 -1.48108E+01 -1.47625E+01 -1.48390E+01 -1.49954E+01
  -1.52349E+01 -1.54636E+01 -1.55647E+01 -1.54677E+01 -1.50132E+01 -1.36161E+01 -1.10919E+01 -8.08626E+00 -4.60254E+00 -8.88378E-01
   2.42160E+00  4.70104E+00  5.61732E+00  5.16885E+00  3.43506E+00  4.94634E-01 -3.26228E+00 -7.10619E+00 -1.02682E+01 -1.20905E+01
  -1.24782E+01 -1.22230E+01 -1.20683E+01 -1.19552E+01 -1.18342E+01 -1.16928E+01 -1.15194E+01 -1.12869E+01 -1.08865E+01 -9.77870E+00
  -7.21007E+00 -3.90956E+00 -1.00001E-01  4.05824E+00  7.93855E+00  1.08163E+01  1.22739E+01  1.22130E+01  1.06701E+01  7.71695E+00
   3.61348E+00 -9.31751E-01 -5.00853E+00 -7.80310E+00 -8.92377E+00 -8.95444E+00 -8.91137E+00 -8.83905E+00 -8.62552E+00 -8.27903E+00
  -7.84923E+00 -7.42430E+00 -7.11888E+00 -6.98887E+00 -7.00518E+00 -7.11443E+00 -7.24777E+00 -7.35051E+00 -7.40586E+00 -7.40479E+00
  -7.37612E+00 -7.33595E+00 -7.27415E+00 -7.19753E+00 -7.14881E+00 -7.12835E+00 -7.11895E+00 -7.11956E+00 -7.09816E+00 -7.06269E+00
  -7.02195E+00 -6.96442E+00 -6.90644E+00 -6.85901E+00 -6.81053E+00 -6.76286E+00 -6.73559E+00 -6.76317E+00 -6.88415E+00 -7.09348E+00
  -7.31050E+00 -7.43025E+00 -7.45709E+00 -7.42311E+00 -7.38972E+00 -7.35250E+00 -7.27407E+00 -7.16635E+00 -7.04355E+00 -6.89058E+00
  -6.74316E+00 -6.61125E+00 -6.46115E+00 -6.27143E+00 -5.96356E+00 -5.45709E+00 -4.77981E+00 -4.04877E+00 -3.36477E+00 -2.79170E+00
  -2.35112E+00 -2.08993E+00 -2.01946E+00 -2.13814E+00 -2.40122E+00 -2.69784E+00 -2.86926E+00 -2.80958E+00 -2.56474E+00 -2.18049E+00
  -1.71909E+00 -1.28382E+00 -9.20586E-01 -7.20586E-01 -7.25917E-01 -9.25666E-01 -1.31478E+00 -1.78869E+00 -2.21287E+00 -2.41472E+00
  -2.24590E+00 -1.78028E+00 -1.04747E+00 -2.00720E-01  5.28514E-01  8.77361E-01  6.78350E-01 -1.41136E-03 -1.02781E+00 -2.28232E+00
  -3.51179E+00 -4.35166E+00 -4.53162E+00 -3.99777E+00 -2.93903E+00 -1.65060E+00 -3.82954E-01  7.06015E-01  1.46828E+00  1.85666E+00
   1.95616E+00  1.93611E+00  1.97119E+00  2.10857E+00  2.24389E+00  2.30883E+00  2.21771E+00  1.94696E+00  1.57643E+00  1.19094E+00
   8.95047E-01  8.31037E-01  1.07201E+00  1.57603E+00  2.22847E+00  2.89504E+00  3.46186E+00  3.86679E+00  4.16724E+00  4.57180E+00
   5.08875E+00  5.78835E+00  6.94599E+00  9.52111E+00  1.38669E+01  1.87087E+01  2.38852E+01  2.89911E+01  3.30405E+01  3.51257E+01
   3.50030E+01  3.29162E+01  2.91693E+01  2.39626E+01  1.77630E+01  1.14931E+01  6.31425E+00  3.24168E+00  2.42978E+00  2.65391E+00
   2.73438E+00  2.78381E+00  2.87541E+00  2.97861E+00  3.06338E+00  3.13700E+00  3.18900E+00  3.20593E+00  3.18918E+00  3.15396E+00
   3.11831E+00  3.10249E+00  3.11481E+00  3.14609E+00  3.18459E+00  3.22731E+00  3.27219E+00  3.31677E+00  3.35951E+00  3.40275E+00
   3.45238E+00  3.50930E+00  3.56936E+00  3.63138E+00  3.69355E+00  3.75258E+00  3.80701E+00  3.85771E+00  3.90637E+00  3.95522E+00
   4.00479E+00  4.05349E+00  4.09948E+00  4.14113E+00  4.17661E+00  4.20458E+00  4.22401E+00  4.23564E+00  4.24134E+00  4.24249E+00
   4.24022E+00  4.23609E+00  4.23118E+00  4.22671E+00  4.22399E+00  4.22487E+00  4.23139E+00  4.24669E+00  4.27579E+00  4.33054E+00
   4.42253E+00  4.50618E+00  4.55860E+00  4.57611E+00  4.53571E+00  4.42025E+00  4.23131E+00  3.98989E+00  3.76373E+00  3.59367E+00
   3.49074E+00  3.49591E+00  3.63053E+00  3.87479E+00  4.17550E+00  4.45931E+00  4.66713E+00  4.79328E+00  4.83683E+00  4.79688E+00
   4.69299E+00  4.56182E+00  4.45144E+00  4.39351E+00  4.36821E+00  4.35032E+00  4.33816E+00  4.33168E+00  4.33032E+00  4.33370E+00
   4.34101E+00  4.35136E+00  4.36337E+00  4.37569E+00  4.38677E+00  4.39549E+00  4.40089E+00  4.40271E+00  4.40107E+00  4.39672E+00
   4.39059E+00  4.38388E+00  4.37748E+00  4.37223E+00  4.36848E+00  4.36646E+00  4.36600E+00  4.36700E+00  4.36910E+00  4.37217E+00
   4.37599E+00  4.38067E+00  4.38625E+00  4.39304E+00  4.40123E+00  4.41130E+00  4.42355E+00  4.43853E+00  4.45660E+00  4.47834E+00
   4.50408E+00  4.53437E+00  4.56955E+00  4.61013E+00  4.65634E+00  4.70853E+00  4.76676E+00  4.83115E+00  4.90148E+00  4.97754E+00
   5.05866E+00  5.14417E+00  5.23291E+00  5.32369E+00  5.41490E+00  5.50489E+00  5.59167E+00  5.67334E+00  5.74779E+00  5.81322E+00
   5.86777E+00  5.91005E+00  5.93879E+00  5.95335E+00  5.95333E+00  5.93902E+00  5.91097E+00  5.87035E+00  5.81850E+00  5.75726E+00
   5.68848E+00  5.61433E+00  5.53679E+00  5.45795E+00  5.37956E+00  5.30336E+00  5.23063E+00  5.16260E+00  5.09997E+00  5.04339E+00
   4.99304E+00  4.94911E+00  4.91140E+00  4.87974E+00  4.85369E+00  4.83289E+00  4.81679E+00  4.80499E+00  4.79694E+00  4.79225E+00
   4.79041E+00  4.79110E+00  4.79390E+00  4.79859E+00  4.80481E+00  4.81241E+00  4.82109E+00  4.83076E+00  4.84121E+00  4.85238E+00
   4.86410E+00  4.87633E+00  4.88893E+00  4.90190E+00  4.91511E+00  4.92860E+00  4.94223E+00  4.95604E+00  4.96991E+00  4.98391E+00
   4.99791E+00  5.01199E+00  5.02603E+00  5.04010E+00  5.05409E+00  5.06810E+00  5.08204E+00  5.09598E+00  5.10982E+00  5.12365E+00
   5.13738E+00  5.15110E+00  5.16472E+00  5.17832E+00  5.19181E+00  5.20529E+00  5.21866E+00  5.23202E+00  5.24527E+00  5.25851E+00
   5.27165E+00  5.28477E+00  5.29780E+00  5.31083E+00  5.32377E+00  5.33670E+00  5.34955E+00  5.36240E+00  5.37518E+00  5.38797E+00
   5.40069E+00  5.41342E+00  5.42608E+00  5.43878E+00  5.45143E+00  5.46413E+00  5.47678E+00  5.48948E+00  5.50215E+00  5.51491E+00
   5.52765E+00  5.54049E+00  5.55334E+00  5.56629E+00  5.57930E+00  5.59246E+00  5.60570E+00  5.61912E+00
 NY background values follow
    -4.401E+01   -4.369E+01   -4.336E+01   -4.303E+01   -4.271E+01   -4.238E+01   -4.206E+01   -4.173E+01   -4.141E+01   -4.108E+01
    -4.076E+01   -4.043E+01   -4.011E+01   -3.978E+01   -3.946E+01   -3.913E+01   -3.881E+01   -3.848E+01   -3.816E+01   -3.784E+01
    -3.751E+01   -3.719E+01   -3.687E+01   -3.655E+01   -3.623E+01   -3.591E+01   -3.559E+01   -3.527E+01   -3.495E+01   -3.463E+01
    -3.431E+01   -3.400E+01   -3.368E+01   -3.337E+01   -3.305E+01   -3.274E+01   -3.242E+01   -3.211E+01   -3.180E+01   -3.149E+01
    -3.118E+01   -3.087E+01   -3.057E+01   -3.026E+01   -2.996E+01   -2.965E+01   -2.935E+01   -2.905E+01   -2.875E+01   -2.845E+01
    -2.815E+01   -2.785E+01   -2.756E+01   -2.726E+01   -2.697E+01   -2.668E+01   -2.639E+01   -2.610E+01   -2.581E+01   -2.552E+01
    -2.524E+01   -2.495E+01   -2.467E+01   -2.439E+01   -2.411E+01   -2.383E+01   -2.356E+01   -2.328E+01   -2.301E+01   -2.274E+01
    -2.247E+01   -2.220E+01   -2.194E+01   -2.167E+01   -2.141E+01   -2.115E+01   -2.089E+01   -2.064E+01   -2.038E+01   -2.013E+01
    -1.988E+01   -1.963E+01   -1.938E+01   -1.913E+01   -1.889E+01   -1.865E+01   -1.841E+01   -1.817E+01   -1.794E+01   -1.770E+01
    -1.747E+01   -1.724E+01   -1.702E+01   -1.679E+01   -1.657E+01   -1.635E+01   -1.613E+01   -1.592E+01   -1.570E+01   -1.549E+01
    -1.528E+01   -1.507E+01   -1.487E+01   -1.467E+01   -1.447E+01   -1.427E+01   -1.407E+01   -1.388E+01   -1.368E+01   -1.349E+01
    -1.331E+01   -1.312E+01   -1.294E+01   -1.276E+01   -1.258E+01   -1.240E+01   -1.223E+01   -1.205E+01   -1.188E+01   -1.172E+01
    -1.155E+01   -1.139E+01   -1.123E+01   -1.107E+01   -1.091E+01   -1.075E+01   -1.060E+01   -1.045E+01   -1.030E+01   -1.016E+01
    -1.001E+01   -9.872E+00   -9.733E+00   -9.595E+00   -9.460E+00   -9.328E+00   -9.197E+00   -9.069E+00   -8.942E+00   -8.818E+00
    -8.696E+00   -8.576E+00   -8.458E+00   -8.341E+00   -8.226E+00   -8.113E+00   -8.002E+00   -7.893E+00   -7.785E+00   -7.678E+00
    -7.573E+00   -7.469E+00   -7.367E+00   -7.266E+00   -7.166E+00   -7.068E+00   -6.970E+00   -6.874E+00   -6.778E+00   -6.684E+00
    -6.590E+00   -6.498E+00   -6.406E+00   -6.315E+00   -6.224E+00   -6.134E+00   -6.045E+00   -5.956E+00   -5.868E+00   -5.780E+00
    -5.692E+00   -5.605E+00   -5.518E+00   -5.431E+00   -5.344E+00   -5.258E+00   -5.171E+00   -5.084E+00   -4.998E+00   -4.911E+00
    -4.824E+00   -4.736E+00   -4.648E+00   -4.560E+00   -4.472E+00   -4.384E+00   -4.295E+00   -4.206E+00   -4.117E+00   -4.027E+00
    -3.938E+00   -3.848E+00   -3.759E+00   -3.669E+00   -3.579E+00   -3.489E+00   -3.399E+00   -3.309E+00   -3.219E+00   -3.129E+00
    -3.039E+00   -2.949E+00   -2.859E+00   -2.769E+00   -2.680E+00   -2.590E+00   -2.501E+00   -2.412E+00   -2.323E+00   -2.234E+00
    -2.145E+00   -2.057E+00   -1.969E+00   -1.881E+00   -1.793E+00   -1.706E+00   -1.619E+00   -1.532E+00   -1.446E+00   -1.360E+00
    -1.275E+00   -1.190E+00   -1.105E+00   -1.021E+00   -9.378E-01   -8.547E-01   -7.721E-01   -6.901E-01   -6.086E-01   -5.276E-01
    -4.472E-01   -3.674E-01   -2.882E-01   -2.095E-01   -1.315E-01   -5.410E-02    2.269E-02    9.885E-02    1.744E-01    2.492E-01
     3.234E-01    3.969E-01    4.697E-01    5.419E-01    6.133E-01    6.840E-01    7.540E-01    8.232E-01    8.917E-01    9.595E-01
     1.026E+00    1.093E+00    1.158E+00    1.223E+00    1.286E+00    1.349E+00    1.412E+00    1.473E+00    1.533E+00    1.593E+00
     1.652E+00    1.710E+00    1.767E+00    1.823E+00    1.878E+00    1.932E+00    1.986E+00    2.038E+00    2.089E+00    2.140E+00
     2.189E+00    2.238E+00    2.286E+00    2.332E+00    2.378E+00    2.422E+00    2.466E+00    2.509E+00    2.551E+00    2.592E+00
     2.632E+00    2.671E+00    2.709E+00    2.747E+00    2.783E+00    2.819E+00    2.854E+00    2.888E+00    2.921E+00    2.953E+00
     2.985E+00    3.016E+00    3.046E+00    3.075E+00    3.104E+00    3.132E+00    3.159E+00    3.185E+00    3.211E+00    3.236E+00
     3.260E+00    3.284E+00    3.307E+00    3.329E+00    3.351E+00    3.372E+00    3.393E+00    3.412E+00    3.432E+00    3.450E+00
     3.469E+00    3.486E+00    3.503E+00    3.520E+00    3.536E+00    3.551E+00    3.566E+00    3.580E+00    3.594E+00    3.608E+00
     3.621E+00    3.633E+00    3.646E+00    3.657E+00    3.669E+00    3.680E+00    3.690E+00    3.701E+00    3.711E+00    3.720E+00
     3.730E+00    3.739E+00    3.747E+00    3.756E+00    3.764E+00    3.772E+00    3.780E+00    3.787E+00    3.795E+00    3.802E+00
     3.809E+00    3.816E+00    3.822E+00    3.829E+00    3.835E+00    3.842E+00    3.848E+00    3.854E+00    3.861E+00    3.867E+00
     3.873E+00    3.879E+00    3.885E+00    3.891E+00    3.898E+00    3.904E+00    3.910E+00    3.917E+00    3.923E+00    3.930E+00
     3.936E+00    3.943E+00    3.950E+00    3.957E+00    3.965E+00    3.972E+00    3.980E+00    3.988E+00    3.995E+00    4.004E+00
     4.012E+00    4.020E+00    4.029E+00    4.038E+00    4.046E+00    4.056E+00    4.065E+00    4.074E+00    4.084E+00    4.093E+00
     4.103E+00    4.113E+00    4.124E+00    4.134E+00    4.145E+00    4.155E+00    4.166E+00    4.177E+00    4.189E+00    4.200E+00
     4.212E+00    4.223E+00    4.235E+00    4.247E+00    4.260E+00    4.272E+00    4.285E+00    4.297E+00    4.310E+00    4.324E+00
     4.337E+00    4.350E+00    4.364E+00    4.378E+00    4.392E+00    4.406E+00    4.421E+00    4.435E+00    4.450E+00    4.465E+00
     4.480E+00    4.496E+00    4.511E+00    4.527E+00    4.542E+00    4.558E+00    4.574E+00    4.590E+00    4.606E+00    4.623E+00
     4.639E+00    4.655E+00    4.672E+00    4.688E+00    4.705E+00    4.722E+00    4.739E+00    4.755E+00    4.772E+00    4.789E+00
     4.806E+00    4.823E+00    4.840E+00    4.857E+00    4.874E+00    4.890E+00    4.907E+00    4.924E+00    4.941E+00    4.958E+00
     4.974E+00    4.991E+00    5.007E+00    5.024E+00    5.040E+00    5.057E+00    5.073E+00    5.089E+00    5.105E+00    5.121E+00
     5.136E+00    5.152E+00    5.167E+00    5.183E+00    5.198E+00    5.213E+00    5.228E+00    5.243E+00    5.257E+00    5.272E+00
     5.286E+00    5.300E+00    5.314E+00    5.328E+00    5.342E+00    5.356E+00    5.370E+00    5.383E+00    5.396E+00    5.410E+00
     5.423E+00    5.436E+00    5.449E+00    5.462E+00    5.475E+00    5.488E+00    5.500E+00    5.513E+00    5.525E+00    5.538E+00
     5.550E+00    5.562E+00    5.574E+00    5.587E+00    5.599E+00    5.611E+00    5.623E+00    5.634E+00    5.646E+00    5.658E+00
     5.670E+00    5.681E+00    5.693E+00    5.705E+00    5.716E+00    5.728E+00    5.739E+00    5.751E+00
 Ala      Conc. = 6.22E+01
