 LCModel (Version 6.3-1L) Copyright: S.W. Provencher.          Ref.: Magn. Reson. Med. 30:672-679 (1993).                
 Slice#3 Row#14 Col#8  K_02_press_1_raw_act
 36 lines in following concentration table = NCONC+1
    Conc.  %SD /Cr+PCr  Metabolite                                         
   24.659 111%   0.413 Ala                                                 
    7.881 109%   0.132 Asp                                                 
   16.854 210%   0.283 Cr                                                  
   42.781  83%   0.717 PCr                                                 
    4.432 116% 7.4E-02 GABA                                                
    3.905 133% 6.5E-02 Glc                                                 
    0.000 999%   0.000 Gln                                                 
   48.823 120%   0.819 Glu                                                 
    7.915  70%   0.133 GPC                                                 
    0.000 999%   0.000 PCh                                                 
    0.000 999%   0.000 GSH                                                 
    0.000 999%   0.000 Ins                                                 
    0.000 999%   0.000 Lac                                                 
   62.399  31%   1.046 NAA                                                 
   14.731 131%   0.247 NAAG                                                
    1.400 121% 2.3E-02 Scyllo                                              
    5.290 162% 8.9E-02 Tau                                                 
    0.000 999%   0.000 -CrCH2                                              
    7.915  70%   0.133 GPC+PCh                                             
   77.130  27%   1.293 NAA+NAAG                                            
   59.635  26%   1.000 Cr+PCr                                              
   48.823 120%   0.819 Glu+Gln                                             
    0.000 999%   0.000 Lip13a                                              
   15.291 220%   0.256 Lip13b                                              
    0.000 999%   0.000 Lip09                                               
    0.000 999%   0.000 MM09                                                
    3.745 400% 6.3E-02 Lip20                                               
 2.16E-03 999% 3.6E-05 MM20                                                
    0.000 999%   0.000 MM12                                                
    0.000 999%   0.000 MM14                                                
 6.04E-02 999% 1.0E-03 MM17                                                
   15.291 220%   0.256 Lip13a+Lip13b                                       
   15.291 220%   0.256 MM14+Lip13a+Lip13b+MM12                             
    0.000 999%   0.000 MM09+Lip09                                          
    3.747 401% 6.3E-02 MM20+Lip20                                          
   6 lines in following misc. output table
  FWHM = 0.031 ppm    S/N =   1                                            
  Data shift =-0.008 ppm                                                   
  Ph: 101 deg      16.3 deg/ppm                                            
  alphaB,S = 4.3E-01,   1.2E+01                                            
   14 spline knots.   Ns = 5(1)                                            
  ( 7) 2 infls.   ( 7) 1 extrs.                                            
  498 points on ppm-axis = NY
      4.000000     3.992357     3.984714     3.977070     3.969427     3.961784     3.954141     3.946497     3.938854     3.931211
      3.923568     3.915925     3.908281     3.900638     3.892995     3.885352     3.877708     3.870065     3.862422     3.854779
      3.847136     3.839492     3.831849     3.824206     3.816563     3.808919     3.801276     3.793633     3.785990     3.778347
      3.770703     3.763060     3.755417     3.747774     3.740130     3.732487     3.724844     3.717201     3.709558     3.701914
      3.694271     3.686628     3.678985     3.671341     3.663698     3.656055     3.648412     3.640769     3.633125     3.625482
      3.617839     3.610196     3.602552     3.594909     3.587266     3.579623     3.571980     3.564336     3.556693     3.549050
      3.541407     3.533763     3.526120     3.518477     3.510834     3.503191     3.495547     3.487904     3.480261     3.472618
      3.464974     3.457331     3.449688     3.442045     3.434402     3.426758     3.419115     3.411472     3.403829     3.396185
      3.388542     3.380899     3.373256     3.365613     3.357969     3.350326     3.342683     3.335040     3.327396     3.319753
      3.312110     3.304467     3.296824     3.289180     3.281537     3.273894     3.266251     3.258607     3.250964     3.243321
      3.235678     3.228034     3.220391     3.212748     3.205105     3.197462     3.189818     3.182175     3.174532     3.166889
      3.159245     3.151602     3.143959     3.136316     3.128673     3.121029     3.113386     3.105743     3.098100     3.090456
      3.082813     3.075170     3.067527     3.059884     3.052240     3.044597     3.036954     3.029311     3.021667     3.014024
      3.006381     2.998738     2.991095     2.983451     2.975808     2.968165     2.960522     2.952878     2.945235     2.937592
      2.929949     2.922306     2.914662     2.907019     2.899376     2.891733     2.884089     2.876446     2.868803     2.861160
      2.853517     2.845873     2.838230     2.830587     2.822944     2.815300     2.807657     2.800014     2.792371     2.784728
      2.777084     2.769441     2.761798     2.754155     2.746511     2.738868     2.731225     2.723582     2.715939     2.708295
      2.700652     2.693009     2.685366     2.677722     2.670079     2.662436     2.654793     2.647150     2.639506     2.631863
      2.624220     2.616577     2.608933     2.601290     2.593647     2.586004     2.578361     2.570717     2.563074     2.555431
      2.547788     2.540144     2.532501     2.524858     2.517215     2.509572     2.501928     2.494285     2.486642     2.478999
      2.471355     2.463712     2.456069     2.448426     2.440783     2.433139     2.425496     2.417853     2.410210     2.402566
      2.394923     2.387280     2.379637     2.371994     2.364350     2.356707     2.349064     2.341421     2.333777     2.326134
      2.318491     2.310848     2.303205     2.295561     2.287918     2.280275     2.272632     2.264988     2.257345     2.249702
      2.242059     2.234416     2.226772     2.219129     2.211486     2.203843     2.196199     2.188556     2.180913     2.173270
      2.165627     2.157983     2.150340     2.142697     2.135054     2.127410     2.119767     2.112124     2.104481     2.096838
      2.089194     2.081551     2.073908     2.066265     2.058621     2.050978     2.043335     2.035692     2.028049     2.020405
      2.012762     2.005119     1.997476     1.989833     1.982190     1.974546     1.966903     1.959260     1.951617     1.943974
      1.936331     1.928688     1.921045     1.913402     1.905759     1.898115     1.890472     1.882829     1.875186     1.867543
      1.859900     1.852257     1.844614     1.836971     1.829327     1.821684     1.814041     1.806398     1.798755     1.791112
      1.783469     1.775826     1.768183     1.760540     1.752896     1.745253     1.737610     1.729967     1.722324     1.714681
      1.707038     1.699395     1.691752     1.684108     1.676465     1.668822     1.661179     1.653536     1.645893     1.638250
      1.630607     1.622964     1.615321     1.607677     1.600034     1.592391     1.584748     1.577105     1.569462     1.561819
      1.554176     1.546533     1.538890     1.531246     1.523603     1.515960     1.508317     1.500674     1.493031     1.485388
      1.477745     1.470102     1.462458     1.454815     1.447172     1.439529     1.431886     1.424243     1.416600     1.408957
      1.401314     1.393671     1.386027     1.378384     1.370741     1.363098     1.355455     1.347812     1.340169     1.332526
      1.324883     1.317240     1.309596     1.301953     1.294310     1.286667     1.279024     1.271381     1.263738     1.256095
      1.248452     1.240808     1.233165     1.225522     1.217879     1.210236     1.202593     1.194950     1.187307     1.179664
      1.172021     1.164377     1.156734     1.149091     1.141448     1.133805     1.126162     1.118519     1.110876     1.103233
      1.095590     1.087946     1.080303     1.072660     1.065017     1.057374     1.049731     1.042088     1.034445     1.026802
      1.019158     1.011515     1.003872     0.996229     0.988586     0.980943     0.973300     0.965657     0.958014     0.950371
      0.942727     0.935084     0.927441     0.919798     0.912155     0.904512     0.896869     0.889226     0.881583     0.873940
      0.866296     0.858653     0.851010     0.843367     0.835724     0.828081     0.820438     0.812795     0.805152     0.797508
      0.789865     0.782222     0.774579     0.766936     0.759293     0.751650     0.744007     0.736364     0.728721     0.721077
      0.713434     0.705791     0.698148     0.690505     0.682862     0.675219     0.667576     0.659933     0.652290     0.644646
      0.637003     0.629360     0.621717     0.614074     0.606431     0.598788     0.591145     0.583502     0.575858     0.568215
      0.560572     0.552929     0.545286     0.537643     0.530000     0.522357     0.514714     0.507071     0.499427     0.491784
      0.484141     0.476498     0.468855     0.461212     0.453569     0.445925     0.438282     0.430639     0.422996     0.415353
      0.407710     0.400067     0.392424     0.384780     0.377137     0.369494     0.361851     0.354208     0.346565     0.338922
      0.331278     0.323635     0.315992     0.308349     0.300706     0.293063     0.285420     0.277777     0.270133     0.262490
      0.254847     0.247204     0.239561     0.231918     0.224275     0.216631     0.208988     0.201345
 NY phased data points follow
   2.21409E+01  2.12771E+01  2.01824E+01  1.79547E+01  1.80891E+01  2.06520E+01  1.96825E+01  1.84358E+01  2.08196E+01  1.82939E+01
   1.78645E+01  1.98742E+01  1.85054E+01  1.81220E+01  1.76494E+01  1.59186E+01  1.71236E+01  1.66918E+01  1.66240E+01  1.70765E+01
   1.63145E+01  1.37823E+01  1.64994E+01  1.77915E+01  1.45207E+01  1.58165E+01  1.30354E+01  1.41336E+01  1.32243E+01  1.51188E+01
   1.39602E+01  1.38151E+01  1.23330E+01  1.28081E+01  1.66736E+01  1.36135E+01  1.28918E+01  1.49763E+01  1.44553E+01  1.28673E+01
   1.10368E+01  1.25402E+01  1.14073E+01  1.13004E+01  1.18803E+01  1.18823E+01  1.30183E+01  1.33668E+01  1.03918E+01  1.28092E+01
   1.14470E+01  1.28203E+01  9.69873E+00  9.46845E+00  1.19761E+01  1.21622E+01  9.54507E+00  1.08620E+01  1.14835E+01  9.89265E+00
   9.73653E+00  1.07388E+01  1.04893E+01  1.08068E+01  1.22250E+01  1.07371E+01  1.07800E+01  8.72640E+00  1.11153E+01  9.49061E+00
   1.00988E+01  1.07626E+01  7.06354E+00  1.09874E+01  1.12552E+01  7.08963E+00  9.95656E+00  8.85468E+00  8.70213E+00  8.47808E+00
   8.64638E+00  1.13069E+01  1.05758E+01  5.75793E+00  9.42962E+00  1.11075E+01  8.47675E+00  8.50619E+00  1.02416E+01  7.68089E+00
   1.02168E+01  8.87180E+00  1.02671E+01  9.59508E+00  9.05682E+00  8.86757E+00  9.77796E+00  9.02874E+00  9.17480E+00  8.07679E+00
   9.27021E+00  7.51127E+00  9.27249E+00  1.12181E+01  1.02154E+01  8.21390E+00  8.15905E+00  7.61560E+00  6.54599E+00  7.85616E+00
   8.95430E+00  8.93552E+00  7.69636E+00  8.10679E+00  8.89406E+00  6.51682E+00  9.61342E+00  8.95057E+00  7.42908E+00  6.57295E+00
   7.50219E+00  8.16197E+00  7.55836E+00  6.84250E+00  6.74685E+00  6.84163E+00  9.94853E+00  1.09627E+01  9.32949E+00  8.19752E+00
   7.13882E+00  8.17026E+00  8.01006E+00  6.61126E+00  7.97968E+00  6.36038E+00  6.49509E+00  8.77451E+00  9.11996E+00  7.01746E+00
   6.58066E+00  7.79869E+00  8.17475E+00  5.25419E+00  1.00447E+01  6.79707E+00  5.84012E+00  8.61261E+00  5.64197E+00  6.80379E+00
   7.83368E+00  8.00267E+00  7.54156E+00  8.92882E+00  7.65508E+00  7.02501E+00  5.41403E+00  6.16339E+00  7.94255E+00  5.96727E+00
   6.39341E+00  6.75014E+00  7.05808E+00  6.43334E+00  3.95368E+00  8.37323E+00  6.91388E+00  7.01476E+00  5.24045E+00  5.42060E+00
   8.02162E+00  4.87844E+00  6.29501E+00  6.84453E+00  6.18901E+00  5.39155E+00  6.00674E+00  6.79625E+00  8.08420E+00  5.81626E+00
   5.59551E+00  5.38889E+00  4.53721E+00  5.86813E+00  4.15065E+00  7.93500E+00  3.08441E+00  7.83509E+00  6.21673E+00  5.72236E+00
   6.82078E+00  6.20862E+00  6.93031E+00  4.62387E+00  6.38428E+00  6.27251E+00  4.49117E+00  5.38058E+00  6.83704E+00  8.34033E+00
   7.78555E+00  7.50457E+00  6.35162E+00  6.19534E+00  7.72425E+00  8.09441E+00  6.73318E+00  7.04166E+00  5.10132E+00  6.44508E+00
   6.08707E+00  6.33253E+00  7.34499E+00  7.27451E+00  5.84026E+00  5.80040E+00  5.41688E+00  6.15906E+00  5.82544E+00  5.61446E+00
   3.78488E+00  5.99055E+00  5.23136E+00  5.36540E+00  7.50439E+00  5.19131E+00  5.86741E+00  5.87636E+00  7.28491E+00  5.89805E+00
   4.85718E+00  7.03852E+00  6.00185E+00  6.86495E+00  6.37577E+00  4.65822E+00  6.66453E+00  5.32840E+00  7.39231E+00  4.48824E+00
   4.81291E+00  6.01562E+00  3.72607E+00  4.92091E+00  5.16375E+00  6.06797E+00  5.55925E+00  4.77915E+00  7.03524E+00  3.82944E+00
   4.65113E+00  5.88142E+00  3.86773E+00  6.86626E+00  5.49250E+00  5.86981E+00  6.60951E+00  5.34955E+00  7.49142E+00  8.09209E+00
   7.89247E+00  9.77606E+00  7.06237E+00  4.66129E+00  6.35844E+00  4.39433E+00  4.98070E+00  6.20246E+00  7.66050E+00  6.30330E+00
   7.46903E+00  4.19612E+00  6.13406E+00  5.87655E+00  2.90649E+00  5.07867E+00  5.36805E+00  4.58373E+00  4.14630E+00  2.02217E+00
   3.67663E+00  5.80452E+00  4.92112E+00  4.81720E+00  4.39411E+00  7.65040E+00  4.35006E+00  4.21088E+00  5.27094E+00  5.60326E+00
   4.05783E+00  5.39211E+00  3.35742E+00  5.86714E+00  6.81869E+00  7.10792E+00  6.04974E+00  8.13179E+00  7.03277E+00  4.87101E+00
   4.49029E+00  4.53051E+00  6.21035E+00  7.15407E+00  4.44762E+00  6.54832E+00  4.99181E+00  6.44648E+00  4.88392E+00  4.58390E+00
   2.89790E+00  6.16754E+00  5.31729E+00  5.50341E+00  3.22384E+00  4.25915E+00  4.08516E+00  2.97725E+00  4.16690E+00  3.85199E+00
   3.08682E+00  3.80455E+00  2.89280E+00  4.91517E+00  3.11502E+00  2.64184E+00  2.83244E+00  4.50567E+00  3.12285E+00 -5.98725E-01
   2.60465E+00  2.39384E+00 -4.96453E-01  1.39061E-01 -1.44037E-01 -7.23177E-01  1.15512E+00 -6.43406E-01 -1.80088E+00 -1.38551E+00
   4.88150E-01 -1.39866E+00 -1.42833E+00  1.24057E+00  1.03215E+00  4.13743E+00  2.76011E+00  1.35246E+00  9.77540E-01  1.53899E+00
   1.17264E+00  1.30267E+00  1.57479E+00  6.68273E-01  2.01344E+00  2.55196E+00  5.12127E-02  2.50382E+00  1.05684E+00  4.09521E-01
   2.55415E+00  7.33563E-01  2.66458E+00  6.01399E-02  2.03743E+00  1.99555E+00  2.11085E+00 -1.31206E+00 -2.94615E-01 -1.63623E+00
   1.61618E-01  2.06858E+00  1.02544E-01  9.25912E-01  1.58165E+00  6.74585E-02  1.18209E+00 -1.81648E+00 -7.13951E-02  2.41859E+00
  -8.13310E-01 -1.50059E+00  2.43912E-01 -8.01550E-01 -1.11597E+00  2.40542E-01 -5.84009E-01  8.04438E-02 -3.34008E-01 -1.22855E+00
   4.74518E-01  1.35217E-01  1.84177E-01 -6.32422E-01 -9.00540E-01  9.80152E-02  7.81375E-02 -4.53311E-01 -1.94022E+00 -7.24194E-01
  -7.69178E-01 -7.49054E-02 -2.17480E+00 -1.34305E+00 -2.35362E-01 -6.59323E-01 -5.69695E-01 -5.51444E-01  7.72551E-01 -3.79048E-01
  -1.27487E+00  1.33496E+00  4.05750E-01 -2.18721E+00 -2.19777E+00 -1.70307E+00 -2.46784E+00 -2.80749E+00 -9.12793E-01 -2.00259E+00
  -3.10940E-01 -1.81156E+00 -8.12178E-01  7.00915E-02  3.50876E-02 -1.36009E+00 -8.62353E-01 -5.27830E-01  6.54259E-01  4.03377E-01
   4.07038E-01 -1.16376E+00 -1.36913E+00 -1.56808E+00 -8.11476E-01  1.31725E+00  1.52504E+00 -7.58271E-01  6.44465E-01  6.77805E-01
   1.63251E+00 -2.13986E+00  4.96168E-01  3.06231E-01  7.78958E-01 -1.28462E+00 -1.26262E-01 -1.41323E+00 -2.44673E+00 -6.07965E-01
  -1.33267E+00  1.51266E+00 -2.40567E+00  1.17972E+00  1.61031E-01  1.76693E-01 -1.07640E+00 -7.62879E-02 -2.80009E-01  6.50721E-01
  -8.84885E-01  2.14050E+00 -5.39238E-01 -3.53606E-01 -5.77097E-01  1.34413E+00  1.80834E-01 -3.90809E-01 -1.93700E-01 -6.42678E-01
  -1.54581E+00  2.83663E-02 -7.93781E-01 -1.02900E+00 -5.20982E-01 -2.36319E+00  1.26063E+00 -2.51128E+00 -1.51096E+00  3.62272E-01
  -4.28726E-02 -9.13819E-01  1.08906E+00 -7.95344E-01 -4.95269E-01  8.07584E-01 -1.18149E+00  1.23792E+00  7.10397E-01 -1.43176E+00
  -1.14030E+00  1.03147E-01  1.07159E+00  3.54757E-01 -3.92562E-01  1.80329E+00  6.44813E-01  8.27989E-01
 NY points of the fit to the data follow
   1.77100E+01  1.76063E+01  1.75095E+01  1.74307E+01  1.74001E+01  1.74219E+01  1.75621E+01  1.78682E+01  1.82278E+01  1.84118E+01
   1.82645E+01  1.78538E+01  1.73635E+01  1.69112E+01  1.65386E+01  1.62545E+01  1.60469E+01  1.58696E+01  1.57132E+01  1.55958E+01
   1.55112E+01  1.54411E+01  1.53708E+01  1.52929E+01  1.51944E+01  1.50452E+01  1.48334E+01  1.45964E+01  1.44004E+01  1.42838E+01
   1.42367E+01  1.42394E+01  1.42685E+01  1.42717E+01  1.41903E+01  1.40165E+01  1.38036E+01  1.36205E+01  1.34928E+01  1.34033E+01
   1.33252E+01  1.32456E+01  1.31604E+01  1.30685E+01  1.29686E+01  1.28632E+01  1.27562E+01  1.26515E+01  1.25519E+01  1.24630E+01
   1.23798E+01  1.22894E+01  1.21890E+01  1.20871E+01  1.19890E+01  1.18922E+01  1.17937E+01  1.16953E+01  1.16003E+01  1.15100E+01
   1.14229E+01  1.13368E+01  1.12515E+01  1.11680E+01  1.10874E+01  1.10077E+01  1.09264E+01  1.08425E+01  1.07565E+01  1.06706E+01
   1.05883E+01  1.05119E+01  1.04420E+01  1.03799E+01  1.03229E+01  1.02617E+01  1.01862E+01  1.00955E+01  1.00008E+01  9.91468E+00
   9.84187E+00  9.78205E+00  9.73056E+00  9.68628E+00  9.65334E+00  9.62603E+00  9.58260E+00  9.50506E+00  9.40300E+00  9.30434E+00
   9.22292E+00  9.15015E+00  9.07493E+00  8.99916E+00  8.93063E+00  8.87458E+00  8.83506E+00  8.81698E+00  8.83483E+00  8.88401E+00
   9.01755E+00  9.28039E+00  9.56907E+00  9.65983E+00  9.43813E+00  9.04623E+00  8.71411E+00  8.51475E+00  8.38359E+00  8.27131E+00
   8.18937E+00  8.13032E+00  8.07867E+00  8.03025E+00  7.98381E+00  7.93924E+00  7.89621E+00  7.85391E+00  7.81173E+00  7.77193E+00
   7.74085E+00  7.74391E+00  7.84131E+00  8.04904E+00  8.50142E+00  9.28928E+00  1.01341E+01  1.04748E+01  1.00303E+01  9.14971E+00
   8.40065E+00  7.97329E+00  7.71579E+00  7.51065E+00  7.38625E+00  7.32267E+00  7.27816E+00  7.24097E+00  7.20883E+00  7.17975E+00
   7.14930E+00  7.11600E+00  7.08409E+00  7.05970E+00  7.04289E+00  7.02652E+00  7.00372E+00  6.97383E+00  6.94219E+00  6.91366E+00
   6.88883E+00  6.86515E+00  6.83972E+00  6.81334E+00  6.78982E+00  6.77189E+00  6.75804E+00  6.74223E+00  6.71283E+00  6.66323E+00
   6.60613E+00  6.56642E+00  6.56328E+00  6.58706E+00  6.60549E+00  6.59484E+00  6.55799E+00  6.51357E+00  6.47571E+00  6.44840E+00
   6.42970E+00  6.41489E+00  6.39801E+00  6.36989E+00  6.32730E+00  6.28648E+00  6.27030E+00  6.28559E+00  6.30656E+00  6.29924E+00
   6.26225E+00  6.22828E+00  6.22408E+00  6.24409E+00  6.25936E+00  6.25219E+00  6.23687E+00  6.24273E+00  6.27562E+00  6.31181E+00
   6.32584E+00  6.31649E+00  6.29925E+00  6.28450E+00  6.27876E+00  6.28262E+00  6.28305E+00  6.26473E+00  6.23046E+00  6.19875E+00
   6.18158E+00  6.18370E+00  6.20339E+00  6.23154E+00  6.24436E+00  6.21848E+00  6.15832E+00  6.08289E+00  6.00548E+00  5.93745E+00
   5.89055E+00  5.88250E+00  5.91946E+00  6.01665E+00  6.16167E+00  6.28248E+00  6.28771E+00  6.15470E+00  5.95496E+00  5.76285E+00
   5.59128E+00  5.45366E+00  5.41174E+00  5.50804E+00  5.68604E+00  5.84060E+00  5.91703E+00  5.93335E+00  5.91865E+00  5.87834E+00
   5.82278E+00  5.77772E+00  5.76057E+00  5.76524E+00  5.77603E+00  5.77721E+00  5.76220E+00  5.73033E+00  5.68274E+00  5.62712E+00
   5.56969E+00  5.52150E+00  5.50083E+00  5.51761E+00  5.55493E+00  5.58041E+00  5.57593E+00  5.54530E+00  5.49642E+00  5.43381E+00
   5.37849E+00  5.37387E+00  5.43174E+00  5.56312E+00  5.78047E+00  6.06797E+00  6.32903E+00  6.56153E+00  7.03855E+00  7.82560E+00
   8.46009E+00  8.36608E+00  7.56789E+00  6.65833E+00  6.06251E+00  5.72817E+00  5.47997E+00  5.29599E+00  5.19441E+00  5.12184E+00
   5.06479E+00  5.02577E+00  5.00225E+00  4.98651E+00  4.96880E+00  4.94053E+00  4.90052E+00  4.85410E+00  4.80658E+00  4.75990E+00
   4.71498E+00  4.67393E+00  4.63740E+00  4.60347E+00  4.56937E+00  4.53379E+00  4.49657E+00  4.45772E+00  4.41725E+00  4.37637E+00
   4.33670E+00  4.29881E+00  4.26162E+00  4.22335E+00  4.18289E+00  4.14089E+00  4.09815E+00  4.05456E+00  4.01017E+00  3.96612E+00
   3.92335E+00  3.88154E+00  3.83976E+00  3.79742E+00  3.75447E+00  3.71101E+00  3.66706E+00  3.62277E+00  3.57830E+00  3.53368E+00
   3.48899E+00  3.44424E+00  3.39947E+00  3.35475E+00  3.31021E+00  3.26603E+00  3.22245E+00  3.17980E+00  3.13860E+00  3.09974E+00
   3.06489E+00  3.03784E+00  3.02654E+00  3.02932E+00  3.04968E+00  3.08573E+00  3.07406E+00  2.92894E+00  2.64416E+00  2.32872E+00
   2.10630E+00  1.99187E+00  1.92631E+00  1.92637E+00  2.05164E+00  2.26852E+00  2.43873E+00  2.46501E+00  2.37737E+00  2.26686E+00
   2.17488E+00  2.09054E+00  2.00852E+00  1.93902E+00  1.87897E+00  1.82547E+00  1.77768E+00  1.73548E+00  1.69894E+00  1.66794E+00
   1.64191E+00  1.61972E+00  1.59958E+00  1.57920E+00  1.55601E+00  1.52757E+00  1.49198E+00  1.44823E+00  1.39635E+00  1.33743E+00
   1.27331E+00  1.20633E+00  1.13883E+00  1.07289E+00  1.01002E+00  9.51104E-01  8.96439E-01  8.45859E-01  7.98912E-01  7.55023E-01
   7.13606E-01  6.74130E-01  6.36163E-01  5.99384E-01  5.63579E-01  5.28610E-01  4.94392E-01  4.60861E-01  4.27977E-01  3.95715E-01
   3.64072E-01  3.33048E-01  3.02636E-01  2.72824E-01  2.43603E-01  2.14973E-01  1.86941E-01  1.59511E-01  1.32676E-01  1.06428E-01
   8.07627E-02  5.56849E-02  3.12023E-02  7.31596E-03 -1.59818E-02 -3.86984E-02 -6.08331E-02 -8.23780E-02 -1.03327E-01 -1.23683E-01
  -1.43455E-01 -1.62646E-01 -1.81252E-01 -1.99264E-01 -2.16681E-01 -2.33507E-01 -2.49750E-01 -2.65411E-01 -2.80484E-01 -2.94974E-01
  -3.08891E-01 -3.22251E-01 -3.35068E-01 -3.47349E-01 -3.59096E-01 -3.70312E-01 -3.81013E-01 -3.91214E-01 -4.00927E-01 -4.10155E-01
  -4.18900E-01 -4.27172E-01 -4.34986E-01 -4.42357E-01 -4.49293E-01 -4.55794E-01 -4.61865E-01 -4.67519E-01 -4.72773E-01 -4.77639E-01
  -4.82120E-01 -4.86218E-01 -4.89941E-01 -4.93305E-01 -4.96323E-01 -4.99006E-01 -5.01355E-01 -5.03373E-01 -5.05073E-01 -5.06470E-01
  -5.07576E-01 -5.08398E-01 -5.08936E-01 -5.09198E-01 -5.09197E-01 -5.08950E-01 -5.08465E-01 -5.07746E-01 -5.06795E-01 -5.05624E-01
  -5.04247E-01 -5.02678E-01 -5.00924E-01 -4.98984E-01 -4.96860E-01 -4.94562E-01 -4.92099E-01 -4.89478E-01 -4.86698E-01 -4.83757E-01
  -4.80660E-01 -4.77418E-01 -4.74039E-01 -4.70526E-01 -4.66877E-01 -4.63092E-01 -4.59180E-01 -4.55150E-01 -4.51011E-01 -4.46761E-01
  -4.42399E-01 -4.37927E-01 -4.33356E-01 -4.28696E-01 -4.23951E-01 -4.19118E-01 -4.14198E-01 -4.09196E-01 -4.04124E-01 -3.98990E-01
  -3.93795E-01 -3.88536E-01 -3.83215E-01 -3.77842E-01 -3.72428E-01 -3.66978E-01 -3.61489E-01 -3.55961E-01 -3.50399E-01 -3.44815E-01
  -3.39219E-01 -3.33610E-01 -3.27988E-01 -3.22352E-01 -3.16713E-01 -3.11082E-01 -3.05466E-01 -2.99863E-01
 NY background values follow
     1.769E+01    1.757E+01    1.746E+01    1.735E+01    1.723E+01    1.712E+01    1.701E+01    1.689E+01    1.678E+01    1.667E+01
     1.655E+01    1.644E+01    1.633E+01    1.621E+01    1.610E+01    1.599E+01    1.588E+01    1.576E+01    1.565E+01    1.554E+01
     1.543E+01    1.532E+01    1.521E+01    1.510E+01    1.499E+01    1.488E+01    1.477E+01    1.466E+01    1.455E+01    1.444E+01
     1.433E+01    1.423E+01    1.412E+01    1.401E+01    1.391E+01    1.380E+01    1.370E+01    1.360E+01    1.349E+01    1.339E+01
     1.329E+01    1.319E+01    1.309E+01    1.299E+01    1.289E+01    1.279E+01    1.269E+01    1.259E+01    1.250E+01    1.240E+01
     1.231E+01    1.221E+01    1.212E+01    1.203E+01    1.193E+01    1.184E+01    1.175E+01    1.166E+01    1.158E+01    1.149E+01
     1.140E+01    1.132E+01    1.123E+01    1.115E+01    1.106E+01    1.098E+01    1.090E+01    1.082E+01    1.074E+01    1.066E+01
     1.058E+01    1.050E+01    1.042E+01    1.035E+01    1.027E+01    1.020E+01    1.013E+01    1.005E+01    9.981E+00    9.910E+00
     9.840E+00    9.770E+00    9.702E+00    9.635E+00    9.568E+00    9.502E+00    9.438E+00    9.374E+00    9.311E+00    9.249E+00
     9.187E+00    9.127E+00    9.068E+00    9.009E+00    8.951E+00    8.895E+00    8.839E+00    8.784E+00    8.729E+00    8.676E+00
     8.623E+00    8.572E+00    8.521E+00    8.471E+00    8.421E+00    8.373E+00    8.325E+00    8.278E+00    8.232E+00    8.186E+00
     8.142E+00    8.098E+00    8.054E+00    8.012E+00    7.970E+00    7.929E+00    7.889E+00    7.849E+00    7.810E+00    7.772E+00
     7.734E+00    7.697E+00    7.660E+00    7.625E+00    7.590E+00    7.555E+00    7.521E+00    7.488E+00    7.455E+00    7.423E+00
     7.392E+00    7.361E+00    7.331E+00    7.301E+00    7.272E+00    7.243E+00    7.215E+00    7.187E+00    7.160E+00    7.133E+00
     7.107E+00    7.082E+00    7.057E+00    7.032E+00    7.008E+00    6.984E+00    6.961E+00    6.938E+00    6.916E+00    6.894E+00
     6.872E+00    6.851E+00    6.830E+00    6.810E+00    6.790E+00    6.770E+00    6.751E+00    6.732E+00    6.714E+00    6.696E+00
     6.678E+00    6.660E+00    6.643E+00    6.626E+00    6.609E+00    6.593E+00    6.577E+00    6.561E+00    6.546E+00    6.531E+00
     6.516E+00    6.501E+00    6.486E+00    6.472E+00    6.458E+00    6.444E+00    6.430E+00    6.417E+00    6.404E+00    6.391E+00
     6.378E+00    6.365E+00    6.352E+00    6.340E+00    6.327E+00    6.315E+00    6.303E+00    6.291E+00    6.279E+00    6.267E+00
     6.255E+00    6.243E+00    6.232E+00    6.220E+00    6.209E+00    6.197E+00    6.186E+00    6.175E+00    6.163E+00    6.152E+00
     6.141E+00    6.130E+00    6.118E+00    6.107E+00    6.096E+00    6.084E+00    6.073E+00    6.062E+00    6.050E+00    6.039E+00
     6.027E+00    6.016E+00    6.004E+00    5.992E+00    5.980E+00    5.968E+00    5.956E+00    5.944E+00    5.932E+00    5.919E+00
     5.907E+00    5.894E+00    5.881E+00    5.868E+00    5.855E+00    5.842E+00    5.828E+00    5.815E+00    5.801E+00    5.787E+00
     5.773E+00    5.758E+00    5.743E+00    5.728E+00    5.713E+00    5.698E+00    5.682E+00    5.666E+00    5.650E+00    5.634E+00
     5.617E+00    5.600E+00    5.582E+00    5.565E+00    5.547E+00    5.529E+00    5.510E+00    5.491E+00    5.472E+00    5.452E+00
     5.432E+00    5.412E+00    5.391E+00    5.370E+00    5.349E+00    5.327E+00    5.305E+00    5.282E+00    5.259E+00    5.236E+00
     5.212E+00    5.188E+00    5.163E+00    5.138E+00    5.112E+00    5.086E+00    5.059E+00    5.032E+00    5.005E+00    4.977E+00
     4.948E+00    4.919E+00    4.890E+00    4.860E+00    4.829E+00    4.798E+00    4.766E+00    4.734E+00    4.702E+00    4.669E+00
     4.635E+00    4.601E+00    4.567E+00    4.532E+00    4.497E+00    4.461E+00    4.425E+00    4.388E+00    4.351E+00    4.314E+00
     4.276E+00    4.237E+00    4.198E+00    4.159E+00    4.120E+00    4.080E+00    4.039E+00    3.999E+00    3.957E+00    3.916E+00
     3.874E+00    3.832E+00    3.789E+00    3.746E+00    3.703E+00    3.659E+00    3.615E+00    3.571E+00    3.526E+00    3.481E+00
     3.435E+00    3.390E+00    3.344E+00    3.297E+00    3.251E+00    3.204E+00    3.157E+00    3.109E+00    3.062E+00    3.014E+00
     2.965E+00    2.917E+00    2.868E+00    2.819E+00    2.770E+00    2.721E+00    2.672E+00    2.623E+00    2.573E+00    2.524E+00
     2.474E+00    2.424E+00    2.375E+00    2.325E+00    2.276E+00    2.226E+00    2.177E+00    2.127E+00    2.078E+00    2.029E+00
     1.980E+00    1.931E+00    1.882E+00    1.834E+00    1.786E+00    1.738E+00    1.690E+00    1.642E+00    1.595E+00    1.548E+00
     1.502E+00    1.456E+00    1.410E+00    1.364E+00    1.319E+00    1.275E+00    1.230E+00    1.187E+00    1.143E+00    1.100E+00
     1.058E+00    1.016E+00    9.753E-01    9.347E-01    8.946E-01    8.551E-01    8.162E-01    7.778E-01    7.399E-01    7.027E-01
     6.660E-01    6.299E-01    5.943E-01    5.593E-01    5.249E-01    4.910E-01    4.577E-01    4.250E-01    3.928E-01    3.612E-01
     3.302E-01    2.997E-01    2.699E-01    2.405E-01    2.118E-01    1.836E-01    1.560E-01    1.290E-01    1.026E-01    7.669E-02
     5.140E-02    2.667E-02    2.523E-03   -2.105E-02   -4.404E-02   -6.646E-02   -8.830E-02   -1.096E-01   -1.302E-01   -1.503E-01
    -1.699E-01   -1.888E-01   -2.072E-01   -2.249E-01   -2.421E-01   -2.587E-01   -2.748E-01   -2.902E-01   -3.051E-01   -3.193E-01
    -3.331E-01   -3.462E-01   -3.589E-01   -3.710E-01   -3.825E-01   -3.936E-01   -4.041E-01   -4.141E-01   -4.237E-01   -4.327E-01
    -4.413E-01   -4.494E-01   -4.571E-01   -4.643E-01   -4.711E-01   -4.774E-01   -4.833E-01   -4.889E-01   -4.940E-01   -4.987E-01
    -5.030E-01   -5.070E-01   -5.106E-01   -5.138E-01   -5.167E-01   -5.192E-01   -5.215E-01   -5.234E-01   -5.249E-01   -5.262E-01
    -5.272E-01   -5.279E-01   -5.283E-01   -5.284E-01   -5.283E-01   -5.280E-01   -5.274E-01   -5.265E-01   -5.255E-01   -5.242E-01
    -5.227E-01   -5.210E-01   -5.191E-01   -5.171E-01   -5.149E-01   -5.125E-01   -5.099E-01   -5.072E-01   -5.043E-01   -5.012E-01
    -4.980E-01   -4.947E-01   -4.912E-01   -4.876E-01   -4.838E-01   -4.799E-01   -4.759E-01   -4.718E-01   -4.675E-01   -4.632E-01
    -4.587E-01   -4.541E-01   -4.495E-01   -4.447E-01   -4.398E-01   -4.349E-01   -4.299E-01   -4.248E-01   -4.196E-01   -4.144E-01
    -4.090E-01   -4.037E-01   -3.982E-01   -3.928E-01   -3.872E-01   -3.817E-01   -3.761E-01   -3.704E-01   -3.647E-01   -3.590E-01
    -3.533E-01   -3.476E-01   -3.418E-01   -3.360E-01   -3.303E-01   -3.245E-01   -3.187E-01   -3.130E-01
 Ala      Conc. = 2.47E+01
