 LCModel (Version 6.3-1L) Copyright: S.W. Provencher.          Ref.: Magn. Reson. Med. 30:672-679 (1993).                
 Slice#1 Row#6 Col#10  K_02_press_1_raw_act
 36 lines in following concentration table = NCONC+1
    Conc.  %SD /Cr+PCr  Metabolite                                         
  395.896  33%   0.323 Ala                                                 
    0.000 999%   0.000 Asp                                                 
    0.000 999%   0.000 Cr                                                  
 1.23E+03   5%   1.000 PCr                                                 
    0.000 999%   0.000 GABA                                                
   41.736 370% 3.4E-02 Glc                                                 
  289.043  87%   0.236 Gln                                                 
 1.18E+03  24%   0.963 Glu                                                 
  524.558   5%   0.428 GPC                                                 
    0.000 999%   0.000 PCh                                                 
  380.484  21%   0.310 GSH                                                 
 1.31E+03  21%   1.067 Ins                                                 
    0.000 999%   0.000 Lac                                                 
 2.11E+03   7%   1.722 NAA                                                 
  478.578  33%   0.390 NAAG                                                
   87.994  34% 7.2E-02 Scyllo                                              
    0.000 999%   0.000 Tau                                                 
  384.115  27%   0.313 -CrCH2                                              
  524.558   5%   0.428 GPC+PCh                                             
 2.59E+03   4%   2.113 NAA+NAAG                                            
 1.23E+03   5%   1.000 Cr+PCr                                              
 1.47E+03  27%   1.198 Glu+Gln                                             
    0.000 999%   0.000 Lip13a                                              
    0.000 999%   0.000 Lip13b                                              
    0.000 999%   0.000 Lip09                                               
 1.39E+03  12%   1.138 MM09                                                
    0.000 999%   0.000 Lip20                                               
 2.46E+03  15%   2.008 MM20                                                
  202.623  72%   0.165 MM12                                                
 1.65E+03  16%   1.343 MM14                                                
 1.72E+03  15%   1.404 MM17                                                
    0.000 999%   0.000 Lip13a+Lip13b                                       
 1.85E+03  14%   1.509 MM14+Lip13a+Lip13b+MM12                             
 1.39E+03  12%   1.138 MM09+Lip09                                          
 2.46E+03  15%   2.008 MM20+Lip20                                          
   6 lines in following misc. output table
  FWHM = 0.054 ppm    S/N =  11                                            
  Data shift = 0.008 ppm                                                   
  Ph:  -1 deg       7.6 deg/ppm                                            
  alphaB,S = 2.9E+00,   1.2E+02                                            
   14 spline knots.   Ns = 7(1)                                            
  (12) 3 infls.   ( 7) 1 extrs.                                            
  498 points on ppm-axis = NY
      4.000000     3.992357     3.984714     3.977070     3.969427     3.961784     3.954141     3.946497     3.938854     3.931211
      3.923568     3.915925     3.908281     3.900638     3.892995     3.885352     3.877708     3.870065     3.862422     3.854779
      3.847136     3.839492     3.831849     3.824206     3.816563     3.808919     3.801276     3.793633     3.785990     3.778347
      3.770703     3.763060     3.755417     3.747774     3.740130     3.732487     3.724844     3.717201     3.709558     3.701914
      3.694271     3.686628     3.678985     3.671341     3.663698     3.656055     3.648412     3.640769     3.633125     3.625482
      3.617839     3.610196     3.602552     3.594909     3.587266     3.579623     3.571980     3.564336     3.556693     3.549050
      3.541407     3.533763     3.526120     3.518477     3.510834     3.503191     3.495547     3.487904     3.480261     3.472618
      3.464974     3.457331     3.449688     3.442045     3.434402     3.426758     3.419115     3.411472     3.403829     3.396185
      3.388542     3.380899     3.373256     3.365613     3.357969     3.350326     3.342683     3.335040     3.327396     3.319753
      3.312110     3.304467     3.296824     3.289180     3.281537     3.273894     3.266251     3.258607     3.250964     3.243321
      3.235678     3.228034     3.220391     3.212748     3.205105     3.197462     3.189818     3.182175     3.174532     3.166889
      3.159245     3.151602     3.143959     3.136316     3.128673     3.121029     3.113386     3.105743     3.098100     3.090456
      3.082813     3.075170     3.067527     3.059884     3.052240     3.044597     3.036954     3.029311     3.021667     3.014024
      3.006381     2.998738     2.991095     2.983451     2.975808     2.968165     2.960522     2.952878     2.945235     2.937592
      2.929949     2.922306     2.914662     2.907019     2.899376     2.891733     2.884089     2.876446     2.868803     2.861160
      2.853517     2.845873     2.838230     2.830587     2.822944     2.815300     2.807657     2.800014     2.792371     2.784728
      2.777084     2.769441     2.761798     2.754155     2.746511     2.738868     2.731225     2.723582     2.715939     2.708295
      2.700652     2.693009     2.685366     2.677722     2.670079     2.662436     2.654793     2.647150     2.639506     2.631863
      2.624220     2.616577     2.608933     2.601290     2.593647     2.586004     2.578361     2.570717     2.563074     2.555431
      2.547788     2.540144     2.532501     2.524858     2.517215     2.509572     2.501928     2.494285     2.486642     2.478999
      2.471355     2.463712     2.456069     2.448426     2.440783     2.433139     2.425496     2.417853     2.410210     2.402566
      2.394923     2.387280     2.379637     2.371994     2.364350     2.356707     2.349064     2.341421     2.333777     2.326134
      2.318491     2.310848     2.303205     2.295561     2.287918     2.280275     2.272632     2.264988     2.257345     2.249702
      2.242059     2.234416     2.226772     2.219129     2.211486     2.203843     2.196199     2.188556     2.180913     2.173270
      2.165627     2.157983     2.150340     2.142697     2.135054     2.127410     2.119767     2.112124     2.104481     2.096838
      2.089194     2.081551     2.073908     2.066265     2.058621     2.050978     2.043335     2.035692     2.028049     2.020405
      2.012762     2.005119     1.997476     1.989833     1.982190     1.974546     1.966903     1.959260     1.951617     1.943974
      1.936331     1.928688     1.921045     1.913402     1.905759     1.898115     1.890472     1.882829     1.875186     1.867543
      1.859900     1.852257     1.844614     1.836971     1.829327     1.821684     1.814041     1.806398     1.798755     1.791112
      1.783469     1.775826     1.768183     1.760540     1.752896     1.745253     1.737610     1.729967     1.722324     1.714681
      1.707038     1.699395     1.691752     1.684108     1.676465     1.668822     1.661179     1.653536     1.645893     1.638250
      1.630607     1.622964     1.615321     1.607677     1.600034     1.592391     1.584748     1.577105     1.569462     1.561819
      1.554176     1.546533     1.538890     1.531246     1.523603     1.515960     1.508317     1.500674     1.493031     1.485388
      1.477745     1.470102     1.462458     1.454815     1.447172     1.439529     1.431886     1.424243     1.416600     1.408957
      1.401314     1.393671     1.386027     1.378384     1.370741     1.363098     1.355455     1.347812     1.340169     1.332526
      1.324883     1.317240     1.309596     1.301953     1.294310     1.286667     1.279024     1.271381     1.263738     1.256095
      1.248452     1.240808     1.233165     1.225522     1.217879     1.210236     1.202593     1.194950     1.187307     1.179664
      1.172021     1.164377     1.156734     1.149091     1.141448     1.133805     1.126162     1.118519     1.110876     1.103233
      1.095590     1.087946     1.080303     1.072660     1.065017     1.057374     1.049731     1.042088     1.034445     1.026802
      1.019158     1.011515     1.003872     0.996229     0.988586     0.980943     0.973300     0.965657     0.958014     0.950371
      0.942727     0.935084     0.927441     0.919798     0.912155     0.904512     0.896869     0.889226     0.881583     0.873940
      0.866296     0.858653     0.851010     0.843367     0.835724     0.828081     0.820438     0.812795     0.805152     0.797508
      0.789865     0.782222     0.774579     0.766936     0.759293     0.751650     0.744007     0.736364     0.728721     0.721077
      0.713434     0.705791     0.698148     0.690505     0.682862     0.675219     0.667576     0.659933     0.652290     0.644646
      0.637003     0.629360     0.621717     0.614074     0.606431     0.598788     0.591145     0.583502     0.575858     0.568215
      0.560572     0.552929     0.545286     0.537643     0.530000     0.522357     0.514714     0.507071     0.499427     0.491784
      0.484141     0.476498     0.468855     0.461212     0.453569     0.445925     0.438282     0.430639     0.422996     0.415353
      0.407710     0.400067     0.392424     0.384780     0.377137     0.369494     0.361851     0.354208     0.346565     0.338922
      0.331278     0.323635     0.315992     0.308349     0.300706     0.293063     0.285420     0.277777     0.270133     0.262490
      0.254847     0.247204     0.239561     0.231918     0.224275     0.216631     0.208988     0.201345
 NY phased data points follow
   1.21937E+01  1.41717E+01  9.27601E+00  1.09493E+01  1.11311E+01  1.46769E+01  2.05731E+01  1.71210E+01  2.31632E+01  2.38408E+01
   3.38776E+01  1.97667E+01  1.98284E+01  1.88074E+01  1.25392E+01  1.88481E+01  8.29071E+00  1.02200E+01  1.12702E+01  1.03361E+01
   1.15731E+01  9.88454E+00  8.44076E+00  1.08072E+01  1.27403E+01  1.53873E+01  7.54643E+00  1.47029E+01  1.20944E+01  1.07641E+01
   8.88640E+00  1.16405E+01  1.41687E+01  9.34746E+00  1.21140E+01  1.30820E+01  8.29595E+00  9.38965E+00  4.44687E+00  1.37053E+01
   1.17259E+01  1.11542E+01  9.98017E+00  1.10238E+01  1.54607E+01  1.18429E+01  1.61935E+01  1.57542E+01  1.48105E+01  1.40673E+01
   1.16060E+01  1.14790E+01  1.06290E+01  9.18219E+00  1.13472E+01  1.46442E+01  1.29425E+01  1.24466E+01  1.17961E+01  1.22308E+01
   9.68611E+00  2.94148E+00  3.31500E+00  3.02567E+00  2.20123E+00  5.91546E-01  3.20826E+00  2.04792E+00  5.34884E+00  4.58021E+00
   7.55504E-01  5.89994E+00  3.69595E+00  3.57589E+00  2.18498E+00  6.17308E+00  4.58620E+00  1.76356E+00  2.74240E+00 -7.97647E-01
   7.70342E-01  3.42659E+00  7.18026E+00  5.20787E+00  1.50169E+00  9.15865E-01  3.06576E+00  5.13078E+00  1.05827E+01  8.99260E+00
   5.49916E+00  1.03890E+01  5.52730E+00  4.55534E+00  9.38104E+00  1.08733E+01  1.06371E+01  1.47886E+01  1.61849E+01  1.92719E+01
   3.12129E+01  4.34128E+01  5.25218E+01  5.33462E+01  4.55419E+01  3.73442E+01  2.94466E+01  2.34765E+01  1.32423E+01  9.74881E+00
   1.02466E+01  4.06615E+00  8.69981E+00  4.74761E+00  6.31671E+00  2.51351E+00  6.13396E+00  2.75983E+00  8.15813E+00  7.02627E+00
   8.38551E+00  7.22404E+00  1.20066E+01  1.61993E+01  2.25550E+01  3.32241E+01  3.81695E+01  4.33867E+01  4.37848E+01  3.79953E+01
   3.36530E+01  2.49113E+01  1.92454E+01  9.12674E+00  1.37739E+01  4.78845E+00  5.73719E+00  8.12962E+00  3.19961E+00  8.37307E+00
   7.02636E+00  2.08780E+00  2.48798E+00 -1.97331E+00  4.82837E+00  4.00540E+00  7.74120E+00  5.93246E+00  5.48140E+00  2.66252E+00
   4.97522E+00  1.92415E-01  4.05621E+00 -1.65282E+00  2.34417E+00  2.44187E+00  1.63835E+00  5.60895E+00  1.02763E+01 -3.17506E+00
   9.72732E-01 -4.34872E-01 -4.58821E-01  1.54018E+00  5.60563E+00  5.05757E+00 -1.12401E+00 -6.82131E+00 -3.12242E+00 -7.39361E+00
  -1.06549E+01 -1.12472E+01 -9.13239E+00 -1.51884E+01 -1.26863E+01 -1.31341E+01 -1.47404E+01 -8.19984E+00 -1.17573E+01 -1.41578E+01
  -6.23196E+00 -5.41426E+00 -8.17126E+00 -8.06591E+00 -6.57454E+00 -3.64576E+00 -6.96420E+00 -5.48851E+00 -1.32263E+00 -1.31761E+00
   4.19977E-01 -5.84748E-01  2.35174E+00 -3.96815E+00 -2.43281E+00 -5.05459E+00 -5.35720E+00 -5.20244E+00 -8.88752E+00 -6.50243E+00
  -5.18397E+00 -7.61675E+00  1.76781E+00 -3.14401E+00 -3.81651E+00  1.62561E-01  5.32682E+00  3.24235E+00 -2.16918E+00  6.44435E-01
   5.01996E+00  5.23294E+00  4.34643E+00  7.25639E+00  2.29625E+00  7.89856E+00  8.52465E+00  1.00714E+01  9.21091E+00  4.45626E+00
   3.37889E+00 -5.00703E+00 -1.34694E+00 -1.71880E+00 -2.59114E+00  4.98145E+00  4.15769E+00  9.59941E+00  5.24149E+00  6.32472E+00
   1.11384E+01  9.99979E+00  7.00926E+00  3.92656E+00  7.39813E+00  7.49713E+00  4.26250E+00  1.06718E+01  2.84021E+00  7.26677E+00
   5.98556E+00  2.70657E+00  5.15689E+00  1.74805E+00  1.41800E+00  4.40354E+00  6.71864E+00  8.43239E+00  9.60414E+00  1.27117E+01
   1.45362E+01  1.90734E+01  2.27982E+01  2.82923E+01  3.72522E+01  3.87951E+01  4.35044E+01  5.93655E+01  6.97233E+01  7.91170E+01
   8.70771E+01  8.50345E+01  7.40933E+01  6.00275E+01  4.10309E+01  2.83939E+01  1.43928E+01  1.03251E+01  1.06867E+01  9.00394E+00
   1.30675E+00  1.19740E+00  6.96691E+00  3.49669E+00  1.71095E+00  2.42359E+00  2.04479E+00  4.40409E+00  1.70326E-01  6.55264E+00
   2.24294E+00  5.80379E+00  6.64360E+00 -2.83157E+00  5.46664E+00  6.84997E+00  4.93113E+00 -2.35716E-01  6.97574E+00  2.53146E+00
   6.32313E+00  7.70038E+00  6.61960E+00  4.30511E+00  8.84110E+00  6.24469E+00  8.87430E+00  8.84561E+00  4.29197E+00  3.96838E+00
   2.99163E+00  1.10288E+01  6.37014E+00  9.73370E+00  1.15151E+01  1.04178E+01  1.05494E+01  8.77331E+00  1.10316E+01  7.13364E+00
   1.07482E+01  1.05720E+01  1.70182E+01  1.26938E+01  1.63436E+01  1.04083E+01  1.16171E+01  1.22877E+01  1.62676E+01  9.19602E+00
   9.96874E+00  1.16917E+01  1.34257E+01  9.49863E+00  4.61622E+00  1.55400E+00  4.04093E+00  4.35662E+00  3.39316E+00 -3.19470E-01
   6.79526E-01 -6.43227E-01  7.42289E-01  6.80319E+00  9.16503E+00  1.09276E+01  8.49286E+00  6.50218E+00  8.66349E+00  1.37169E+01
   1.58669E+01  1.05305E+01  1.36819E+01  1.52632E+01  1.50714E+01  1.65393E+01  1.75198E+01  1.52966E+01  1.59355E+01  1.59659E+01
   1.45217E+01  4.32583E+00  9.11723E+00  5.04508E+00  7.23065E+00  8.76307E+00  4.12967E+00  6.51918E+00  7.34364E+00  9.11791E-01
  -2.06864E+00  1.17188E+00 -8.84795E-01  1.52419E+00  2.64899E+00  1.37327E+00  2.06867E+00 -7.87143E-01 -3.73388E+00  3.01009E-01
  -2.99325E+00 -1.04849E+00 -1.24270E+00 -2.00337E+00 -1.27311E+00  1.90015E+00  5.65357E-01  2.66588E+00  4.37345E+00 -2.52734E+00
   4.87697E+00 -2.36786E+00  4.73690E+00  5.03323E-01 -1.17700E+00  2.40513E+00 -2.73343E+00  2.82635E+00  1.05282E+00 -1.37295E+00
   1.41646E+00  1.31326E+00  6.24420E+00  1.70659E+00  4.58821E+00  9.69557E+00  8.11766E+00  8.68060E+00  1.57259E+01  9.23532E+00
   8.10508E+00  1.23282E+01  1.10446E+01  1.54123E+01  1.30571E+01  1.63760E+01  1.11066E+01  1.71790E+01  1.34515E+01  1.38538E+01
   8.03751E+00  1.58600E+01  1.16770E+01  7.69740E+00  1.21750E+01  8.52490E+00  4.29254E+00  8.88441E+00  3.05128E+00 -1.82622E-01
   4.54732E+00  3.98865E+00 -3.55693E+00  2.46129E-01  6.80093E+00  3.18603E-01  8.48131E-01  1.00094E+00 -2.30819E+00  1.53394E+00
   1.33426E+00  2.71258E+00  2.96994E+00 -2.49032E+00  1.41527E+00 -1.44559E-01  6.53299E+00  1.20933E+00  3.83074E+00  5.18679E+00
   6.09621E+00  3.31898E+00  9.76293E-01  3.05677E+00 -1.25973E+00  5.94629E-02  2.15979E-01  2.53033E+00  1.85673E+00  1.88896E+00
   3.61178E+00  1.96910E+00  2.45361E+00  2.39695E+00  6.80399E+00  4.35201E-01  3.52551E+00  8.86329E-01  1.46530E+00  6.13683E-01
   2.47183E+00  9.18734E-01 -9.77161E-01 -2.44150E-01 -2.15266E+00  6.85664E+00  2.77891E+00  7.50774E-01  2.68942E+00  1.26530E+00
   3.38165E-01 -4.38936E-01  3.77959E+00 -1.36387E+00  2.23203E+00 -2.00824E+00  2.12278E+00  1.95355E+00  4.83412E+00  4.40034E-01
   8.44210E-01  2.53772E-01  7.23367E-01  1.58938E+00  3.78596E+00  3.26004E+00  4.27540E+00 -1.28803E+00 -4.57806E-01  4.08875E+00
   1.35953E+00 -2.44668E+00  1.66341E+00  2.69449E+00 -3.10114E+00  2.51411E+00  2.54517E+00 -5.14424E+00
 NY points of the fit to the data follow
   7.76630E+00  7.74657E+00  8.45544E+00  1.01650E+01  1.21199E+01  1.42996E+01  1.71329E+01  2.05661E+01  2.38913E+01  2.61436E+01
   2.65688E+01  2.49915E+01  2.20060E+01  1.84922E+01  1.51972E+01  1.25861E+01  1.07599E+01  9.49927E+00  8.69335E+00  8.36539E+00
   8.19772E+00  8.01293E+00  7.99085E+00  8.29187E+00  8.48353E+00  8.61961E+00  9.16629E+00  1.02796E+01  1.17580E+01  1.32561E+01
   1.45109E+01  1.52095E+01  1.51865E+01  1.45025E+01  1.32805E+01  1.17440E+01  1.01746E+01  8.61899E+00  7.34229E+00  6.91112E+00
   7.34767E+00  8.25456E+00  9.41844E+00  1.09446E+01  1.27671E+01  1.44838E+01  1.55907E+01  1.56657E+01  1.46240E+01  1.27569E+01
   1.05059E+01  8.41971E+00  6.95723E+00  6.15224E+00  5.86150E+00  5.96542E+00  6.40142E+00  7.00813E+00  7.54810E+00  7.83282E+00
   7.73098E+00  7.21379E+00  6.40429E+00  5.51872E+00  4.86222E+00  4.57456E+00  4.60685E+00  4.88392E+00  5.33188E+00  5.82134E+00
   6.22879E+00  6.45074E+00  6.44915E+00  6.25804E+00  5.94949E+00  5.60478E+00  5.29340E+00  5.04702E+00  4.86807E+00  4.74957E+00
   4.83446E+00  4.93334E+00  4.98017E+00  5.11318E+00  5.38280E+00  5.67220E+00  5.82164E+00  5.71635E+00  5.36284E+00  4.91584E+00
   4.50531E+00  4.24431E+00  4.19550E+00  4.34852E+00  4.72657E+00  6.12646E+00  9.71223E+00  1.37398E+01  1.81151E+01  2.44412E+01
   3.31114E+01  4.23224E+01  4.92408E+01  5.14599E+01  4.81898E+01  4.06833E+01  3.12202E+01  2.20105E+01  1.45667E+01  9.40312E+00
   6.00554E+00  3.85835E+00  3.07899E+00  2.89833E+00  2.86590E+00  2.89352E+00  2.96409E+00  3.09674E+00  3.35963E+00  4.03446E+00
   6.19770E+00  9.78229E+00  1.35058E+01  1.79688E+01  2.41680E+01  3.16745E+01  3.86628E+01  4.29302E+01  4.29785E+01  3.89280E+01
   3.22524E+01  2.47249E+01  1.77932E+01  1.22405E+01  8.13283E+00  5.07153E+00  3.13721E+00  2.39995E+00  2.33564E+00  2.67211E+00
   3.16021E+00  3.56788E+00  3.77107E+00  3.73195E+00  3.48079E+00  3.11889E+00  2.73471E+00  2.35380E+00  2.00851E+00  1.71200E+00
   1.45275E+00  1.22052E+00  1.01773E+00  8.26092E-01  6.02834E-01  4.45767E-01  3.77999E-01  2.99402E-01  1.35233E-01 -2.23655E-01
  -6.70906E-01 -9.66597E-01 -1.00306E+00 -8.93131E-01 -8.06200E-01 -8.92357E-01 -1.23185E+00 -1.76744E+00 -2.36699E+00 -2.93624E+00
  -3.37168E+00 -3.60446E+00 -3.81990E+00 -4.15674E+00 -4.56897E+00 -4.85568E+00 -4.85948E+00 -4.62321E+00 -4.36245E+00 -4.23726E+00
  -4.27407E+00 -4.26590E+00 -4.07819E+00 -3.74757E+00 -3.29726E+00 -2.69262E+00 -1.87576E+00 -7.83633E-01  5.47793E-01  1.91793E+00
   2.99389E+00  3.49393E+00  3.46202E+00  3.03562E+00  2.36702E+00  1.65919E+00  1.12693E+00  9.74562E-01  1.20301E+00  1.75687E+00
   2.53716E+00  3.40395E+00  4.17765E+00  4.55840E+00  4.45015E+00  3.81913E+00  2.61349E+00  1.07684E+00 -3.75097E-01 -1.32249E+00
  -1.65894E+00 -1.40955E+00 -4.19976E-01  1.29054E+00  3.27747E+00  4.81957E+00  5.35365E+00  4.80430E+00  3.36773E+00  1.21391E+00
  -1.13080E+00 -2.95931E+00 -3.75530E+00 -3.31649E+00 -1.89812E+00  1.01991E-01  2.21590E+00  3.94409E+00  5.01354E+00  5.42807E+00
   5.49526E+00  5.47411E+00  5.49742E+00  5.71587E+00  6.17106E+00  6.68589E+00  6.98207E+00  6.97954E+00  6.71137E+00  6.22482E+00
   5.60539E+00  5.12737E+00  5.07377E+00  5.53593E+00  6.42102E+00  7.50999E+00  8.59958E+00  9.51869E+00  1.04040E+01  1.16984E+01
   1.30787E+01  1.46715E+01  1.75277E+01  2.41453E+01  3.33733E+01  4.18010E+01  5.01208E+01  6.00710E+01  7.11213E+01  8.04425E+01
   8.47632E+01  8.19696E+01  7.24592E+01  5.87591E+01  4.40590E+01  3.11719E+01  2.14739E+01  1.48164E+01  1.01206E+01  7.37701E+00
   6.27534E+00  5.67827E+00  5.29196E+00  5.01740E+00  4.77170E+00  4.49417E+00  4.18667E+00  3.85743E+00  3.52524E+00  3.22314E+00
   2.98052E+00  2.80265E+00  2.67935E+00  2.59470E+00  2.53628E+00  2.49754E+00  2.47065E+00  2.46097E+00  2.48925E+00  2.57816E+00
   2.74049E+00  2.97884E+00  3.28717E+00  3.65798E+00  4.07951E+00  4.54139E+00  5.03947E+00  5.57553E+00  6.15384E+00  6.77365E+00
   7.42815E+00  8.10499E+00  8.78359E+00  9.43942E+00  1.00484E+01  1.05887E+01  1.10430E+01  1.13972E+01  1.16400E+01  1.17664E+01
   1.17755E+01  1.16697E+01  1.14567E+01  1.11491E+01  1.07646E+01  1.03256E+01  9.85963E+00  9.40094E+00  8.99891E+00  8.74459E+00
   8.69652E+00  8.59686E+00  8.45444E+00  8.43409E+00  8.44723E+00  8.18056E+00  7.34999E+00  5.91863E+00  4.34693E+00  3.00854E+00
   2.07149E+00  1.81764E+00  2.51940E+00  4.18379E+00  6.49513E+00  8.99727E+00  1.12716E+01  1.29361E+01  1.38956E+01  1.42798E+01
   1.42917E+01  1.41311E+01  1.38965E+01  1.35736E+01  1.32300E+01  1.28831E+01  1.24839E+01  1.20142E+01  1.14735E+01  1.08687E+01
   1.02117E+01  9.51643E+00  8.79836E+00  8.07285E+00  7.35478E+00  6.65703E+00  5.99080E+00  5.36467E+00  4.78537E+00  4.25696E+00
   3.78167E+00  3.35924E+00  2.98817E+00  2.66538E+00  2.38743E+00  2.14992E+00  1.94853E+00  1.77846E+00  1.63557E+00  1.51585E+00
   1.41626E+00  1.33396E+00  1.26697E+00  1.21353E+00  1.17295E+00  1.14486E+00  1.12995E+00  1.12899E+00  1.14367E+00  1.17584E+00
   1.22847E+00  1.30480E+00  1.40908E+00  1.54562E+00  1.71955E+00  1.93606E+00  2.20101E+00  2.51985E+00  2.89798E+00  3.33945E+00
   3.84736E+00  4.42267E+00  5.06442E+00  5.76840E+00  6.52742E+00  7.33031E+00  8.16277E+00  9.00688E+00  9.84228E+00  1.06461E+01
   1.13946E+01  1.20638E+01  1.26315E+01  1.30778E+01  1.33871E+01  1.35483E+01  1.35561E+01  1.34106E+01  1.31185E+01  1.26912E+01
   1.21453E+01  1.15004E+01  1.07788E+01  1.00034E+01  9.19759E+00  8.38282E+00  7.57877E+00  6.80172E+00  6.06504E+00  5.37837E+00
   4.74847E+00  4.17864E+00  3.66985E+00  3.22047E+00  2.82763E+00  2.48702E+00  2.19404E+00  1.94332E+00  1.72977E+00  1.54815E+00
   1.39399E+00  1.26298E+00  1.15169E+00  1.05672E+00  9.75473E-01  9.05445E-01  8.44952E-01  7.92326E-01  7.46495E-01  7.06189E-01
   6.70667E-01  6.39038E-01  6.10967E-01  5.85866E-01  5.63521E-01  5.43362E-01  5.25247E-01  5.08786E-01  4.94030E-01  4.80670E-01
   4.68708E-01  4.57773E-01  4.47912E-01  4.38902E-01  4.30901E-01  4.23665E-01  4.17248E-01  4.11359E-01  4.06131E-01  4.01400E-01
   3.97344E-01  3.93721E-01  3.90611E-01  3.87775E-01  3.85399E-01  3.83346E-01  3.81779E-01  3.80451E-01  3.79458E-01  3.78609E-01
   3.78117E-01  3.77841E-01  3.77924E-01  3.78118E-01  3.78550E-01  3.79062E-01  3.79876E-01  3.80831E-01  3.82046E-01  3.83281E-01
   3.84690E-01  3.86144E-01  3.87857E-01  3.89644E-01  3.91610E-01  3.93536E-01  3.95608E-01  3.97705E-01  4.00021E-01  4.02345E-01
   4.04782E-01  4.07138E-01  4.09621E-01  4.12108E-01  4.14764E-01  4.17362E-01  4.20016E-01  4.22562E-01
 NY background values follow
     3.449E+00    3.427E+00    3.404E+00    3.382E+00    3.359E+00    3.337E+00    3.314E+00    3.292E+00    3.269E+00    3.247E+00
     3.224E+00    3.202E+00    3.179E+00    3.157E+00    3.134E+00    3.112E+00    3.089E+00    3.067E+00    3.044E+00    3.022E+00
     2.999E+00    2.977E+00    2.954E+00    2.932E+00    2.909E+00    2.887E+00    2.864E+00    2.842E+00    2.819E+00    2.797E+00
     2.774E+00    2.752E+00    2.730E+00    2.707E+00    2.685E+00    2.662E+00    2.640E+00    2.618E+00    2.595E+00    2.573E+00
     2.550E+00    2.528E+00    2.506E+00    2.483E+00    2.461E+00    2.439E+00    2.416E+00    2.394E+00    2.372E+00    2.350E+00
     2.327E+00    2.305E+00    2.283E+00    2.261E+00    2.239E+00    2.216E+00    2.194E+00    2.172E+00    2.150E+00    2.128E+00
     2.106E+00    2.084E+00    2.062E+00    2.040E+00    2.018E+00    1.996E+00    1.974E+00    1.952E+00    1.930E+00    1.908E+00
     1.887E+00    1.865E+00    1.843E+00    1.821E+00    1.800E+00    1.778E+00    1.756E+00    1.735E+00    1.713E+00    1.692E+00
     1.670E+00    1.649E+00    1.627E+00    1.606E+00    1.584E+00    1.563E+00    1.542E+00    1.521E+00    1.499E+00    1.478E+00
     1.457E+00    1.436E+00    1.415E+00    1.394E+00    1.373E+00    1.352E+00    1.331E+00    1.311E+00    1.290E+00    1.269E+00
     1.248E+00    1.228E+00    1.207E+00    1.187E+00    1.166E+00    1.146E+00    1.125E+00    1.105E+00    1.085E+00    1.065E+00
     1.044E+00    1.024E+00    1.004E+00    9.843E-01    9.643E-01    9.444E-01    9.246E-01    9.048E-01    8.851E-01    8.655E-01
     8.459E-01    8.263E-01    8.068E-01    7.874E-01    7.681E-01    7.488E-01    7.296E-01    7.104E-01    6.913E-01    6.722E-01
     6.533E-01    6.344E-01    6.155E-01    5.967E-01    5.780E-01    5.594E-01    5.408E-01    5.223E-01    5.039E-01    4.855E-01
     4.672E-01    4.490E-01    4.309E-01    4.128E-01    3.949E-01    3.770E-01    3.591E-01    3.414E-01    3.238E-01    3.062E-01
     2.887E-01    2.714E-01    2.541E-01    2.369E-01    2.198E-01    2.028E-01    1.859E-01    1.691E-01    1.524E-01    1.357E-01
     1.192E-01    1.028E-01    8.655E-02    7.036E-02    5.429E-02    3.832E-02    2.246E-02    6.721E-03   -8.906E-03   -2.442E-02
    -3.981E-02   -5.508E-02   -7.024E-02   -8.527E-02   -1.002E-01   -1.150E-01   -1.296E-01   -1.441E-01   -1.585E-01   -1.728E-01
    -1.870E-01   -2.010E-01   -2.148E-01   -2.286E-01   -2.422E-01   -2.556E-01   -2.690E-01   -2.822E-01   -2.952E-01   -3.082E-01
    -3.210E-01   -3.337E-01   -3.462E-01   -3.586E-01   -3.709E-01   -3.831E-01   -3.951E-01   -4.071E-01   -4.188E-01   -4.305E-01
    -4.420E-01   -4.535E-01   -4.648E-01   -4.759E-01   -4.870E-01   -4.979E-01   -5.087E-01   -5.194E-01   -5.299E-01   -5.404E-01
    -5.507E-01   -5.609E-01   -5.710E-01   -5.810E-01   -5.908E-01   -6.006E-01   -6.102E-01   -6.197E-01   -6.291E-01   -6.384E-01
    -6.475E-01   -6.566E-01   -6.655E-01   -6.743E-01   -6.831E-01   -6.917E-01   -7.002E-01   -7.086E-01   -7.168E-01   -7.250E-01
    -7.331E-01   -7.410E-01   -7.489E-01   -7.566E-01   -7.642E-01   -7.717E-01   -7.792E-01   -7.865E-01   -7.937E-01   -8.008E-01
    -8.078E-01   -8.147E-01   -8.215E-01   -8.281E-01   -8.347E-01   -8.412E-01   -8.476E-01   -8.538E-01   -8.600E-01   -8.661E-01
    -8.720E-01   -8.779E-01   -8.837E-01   -8.893E-01   -8.949E-01   -9.004E-01   -9.057E-01   -9.110E-01   -9.162E-01   -9.212E-01
    -9.262E-01   -9.311E-01   -9.358E-01   -9.405E-01   -9.451E-01   -9.496E-01   -9.540E-01   -9.583E-01   -9.625E-01   -9.666E-01
    -9.706E-01   -9.745E-01   -9.783E-01   -9.821E-01   -9.857E-01   -9.892E-01   -9.927E-01   -9.960E-01   -9.993E-01   -1.002E+00
    -1.006E+00   -1.009E+00   -1.011E+00   -1.014E+00   -1.017E+00   -1.020E+00   -1.022E+00   -1.025E+00   -1.027E+00   -1.029E+00
    -1.032E+00   -1.034E+00   -1.036E+00   -1.038E+00   -1.039E+00   -1.041E+00   -1.043E+00   -1.045E+00   -1.046E+00   -1.047E+00
    -1.049E+00   -1.050E+00   -1.051E+00   -1.052E+00   -1.053E+00   -1.054E+00   -1.055E+00   -1.056E+00   -1.057E+00   -1.057E+00
    -1.058E+00   -1.058E+00   -1.059E+00   -1.059E+00   -1.059E+00   -1.059E+00   -1.059E+00   -1.059E+00   -1.059E+00   -1.059E+00
    -1.059E+00   -1.059E+00   -1.058E+00   -1.058E+00   -1.057E+00   -1.057E+00   -1.056E+00   -1.055E+00   -1.054E+00   -1.053E+00
    -1.052E+00   -1.051E+00   -1.050E+00   -1.049E+00   -1.048E+00   -1.046E+00   -1.045E+00   -1.043E+00   -1.042E+00   -1.040E+00
    -1.038E+00   -1.036E+00   -1.034E+00   -1.032E+00   -1.030E+00   -1.028E+00   -1.026E+00   -1.024E+00   -1.021E+00   -1.019E+00
    -1.016E+00   -1.014E+00   -1.011E+00   -1.008E+00   -1.006E+00   -1.003E+00   -9.997E-01   -9.966E-01   -9.935E-01   -9.903E-01
    -9.870E-01   -9.837E-01   -9.803E-01   -9.768E-01   -9.732E-01   -9.695E-01   -9.658E-01   -9.620E-01   -9.582E-01   -9.543E-01
    -9.503E-01   -9.462E-01   -9.420E-01   -9.378E-01   -9.336E-01   -9.292E-01   -9.248E-01   -9.203E-01   -9.158E-01   -9.112E-01
    -9.065E-01   -9.017E-01   -8.969E-01   -8.921E-01   -8.871E-01   -8.822E-01   -8.771E-01   -8.720E-01   -8.668E-01   -8.616E-01
    -8.563E-01   -8.509E-01   -8.455E-01   -8.401E-01   -8.345E-01   -8.290E-01   -8.233E-01   -8.176E-01   -8.119E-01   -8.061E-01
    -8.002E-01   -7.943E-01   -7.884E-01   -7.824E-01   -7.763E-01   -7.702E-01   -7.640E-01   -7.578E-01   -7.516E-01   -7.452E-01
    -7.389E-01   -7.325E-01   -7.261E-01   -7.196E-01   -7.130E-01   -7.065E-01   -6.998E-01   -6.932E-01   -6.865E-01   -6.798E-01
    -6.730E-01   -6.662E-01   -6.593E-01   -6.525E-01   -6.455E-01   -6.386E-01   -6.316E-01   -6.246E-01   -6.176E-01   -6.105E-01
    -6.034E-01   -5.963E-01   -5.891E-01   -5.820E-01   -5.748E-01   -5.675E-01   -5.603E-01   -5.530E-01   -5.457E-01   -5.384E-01
    -5.311E-01   -5.237E-01   -5.164E-01   -5.090E-01   -5.016E-01   -4.942E-01   -4.868E-01   -4.793E-01   -4.719E-01   -4.644E-01
    -4.570E-01   -4.495E-01   -4.420E-01   -4.345E-01   -4.270E-01   -4.195E-01   -4.120E-01   -4.045E-01   -3.969E-01   -3.894E-01
    -3.819E-01   -3.743E-01   -3.668E-01   -3.592E-01   -3.516E-01   -3.441E-01   -3.365E-01   -3.289E-01   -3.214E-01   -3.138E-01
    -3.062E-01   -2.986E-01   -2.910E-01   -2.834E-01   -2.758E-01   -2.682E-01   -2.606E-01   -2.530E-01   -2.454E-01   -2.378E-01
    -2.302E-01   -2.226E-01   -2.150E-01   -2.074E-01   -1.998E-01   -1.922E-01   -1.846E-01   -1.770E-01   -1.694E-01   -1.618E-01
    -1.542E-01   -1.466E-01   -1.390E-01   -1.314E-01   -1.238E-01   -1.162E-01   -1.086E-01   -1.010E-01
 Ala      Conc. = 3.96E+02
