 LCModel (Version 6.3-1L) Copyright: S.W. Provencher.          Ref.: Magn. Reson. Med. 30:672-679 (1993).                
 Slice#3 Row#9 Col#13  K_02_press_1_raw_act
 36 lines in following concentration table = NCONC+1
    Conc.  %SD /Cr+PCr  Metabolite                                         
    0.000 999%   0.000 Ala                                                 
   33.001 102%   1.828 Asp                                                 
   18.057  94%   1.000 Cr                                                  
    0.000 999%   0.000 PCr                                                 
   18.015 112%   0.998 GABA                                                
   10.488 193%   0.581 Glc                                                 
   19.187 372%   1.063 Gln                                                 
  303.101  27%  16.786 Glu                                                 
    0.000 999%   0.000 GPC                                                 
   11.754  56%   0.651 PCh                                                 
    0.000 999%   0.000 GSH                                                 
   91.819  86%   5.085 Ins                                                 
    0.000 999%   0.000 Lac                                                 
  573.567   8%  31.765 NAA                                                 
    9.034 548%   0.500 NAAG                                                
    0.312 999% 1.7E-02 Scyllo                                              
   30.849 104%   1.708 Tau                                                 
    4.835 138%   0.268 -CrCH2                                              
   11.754  56%   0.651 GPC+PCh                                             
  582.601   6%  32.265 NAA+NAAG                                            
   18.057  94%   1.000 Cr+PCr                                              
  322.288  34%  17.849 Glu+Gln                                             
 1.47E+04   8% 814.185 Lip13a                                              
    0.000 999%   0.000 Lip13b                                              
 2.52E+03  17% 139.369 Lip09                                               
    0.000 999%   0.000 MM09                                                
 1.47E+03  22%  81.462 Lip20                                               
  463.542  46%  25.672 MM20                                                
    0.000 999%   0.000 MM12                                                
 2.43E+03  19% 134.610 MM14                                                
 1.34E+03  22%  74.237 MM17                                                
 1.47E+04   8% 814.185 Lip13a+Lip13b                                       
 1.71E+04   6% 948.795 MM14+Lip13a+Lip13b+MM12                             
 2.52E+03  17% 139.369 MM09+Lip09                                          
 1.93E+03  15% 107.134 MM20+Lip20                                          
   6 lines in following misc. output table
  FWHM = 0.046 ppm    S/N =  13                                            
  Data shift =-0.008 ppm                                                   
  Ph: -52 deg     -29.1 deg/ppm                                            
  alphaB,S = 8.5E+01,   5.1E+01                                            
   14 spline knots.   Ns = 6(1)                                            
   2 inflections.     1 extrema                                            
  498 points on ppm-axis = NY
      4.000000     3.992357     3.984714     3.977070     3.969427     3.961784     3.954141     3.946497     3.938854     3.931211
      3.923568     3.915925     3.908281     3.900638     3.892995     3.885352     3.877708     3.870065     3.862422     3.854779
      3.847136     3.839492     3.831849     3.824206     3.816563     3.808919     3.801276     3.793633     3.785990     3.778347
      3.770703     3.763060     3.755417     3.747774     3.740130     3.732487     3.724844     3.717201     3.709558     3.701914
      3.694271     3.686628     3.678985     3.671341     3.663698     3.656055     3.648412     3.640769     3.633125     3.625482
      3.617839     3.610196     3.602552     3.594909     3.587266     3.579623     3.571980     3.564336     3.556693     3.549050
      3.541407     3.533763     3.526120     3.518477     3.510834     3.503191     3.495547     3.487904     3.480261     3.472618
      3.464974     3.457331     3.449688     3.442045     3.434402     3.426758     3.419115     3.411472     3.403829     3.396185
      3.388542     3.380899     3.373256     3.365613     3.357969     3.350326     3.342683     3.335040     3.327396     3.319753
      3.312110     3.304467     3.296824     3.289180     3.281537     3.273894     3.266251     3.258607     3.250964     3.243321
      3.235678     3.228034     3.220391     3.212748     3.205105     3.197462     3.189818     3.182175     3.174532     3.166889
      3.159245     3.151602     3.143959     3.136316     3.128673     3.121029     3.113386     3.105743     3.098100     3.090456
      3.082813     3.075170     3.067527     3.059884     3.052240     3.044597     3.036954     3.029311     3.021667     3.014024
      3.006381     2.998738     2.991095     2.983451     2.975808     2.968165     2.960522     2.952878     2.945235     2.937592
      2.929949     2.922306     2.914662     2.907019     2.899376     2.891733     2.884089     2.876446     2.868803     2.861160
      2.853517     2.845873     2.838230     2.830587     2.822944     2.815300     2.807657     2.800014     2.792371     2.784728
      2.777084     2.769441     2.761798     2.754155     2.746511     2.738868     2.731225     2.723582     2.715939     2.708295
      2.700652     2.693009     2.685366     2.677722     2.670079     2.662436     2.654793     2.647150     2.639506     2.631863
      2.624220     2.616577     2.608933     2.601290     2.593647     2.586004     2.578361     2.570717     2.563074     2.555431
      2.547788     2.540144     2.532501     2.524858     2.517215     2.509572     2.501928     2.494285     2.486642     2.478999
      2.471355     2.463712     2.456069     2.448426     2.440783     2.433139     2.425496     2.417853     2.410210     2.402566
      2.394923     2.387280     2.379637     2.371994     2.364350     2.356707     2.349064     2.341421     2.333777     2.326134
      2.318491     2.310848     2.303205     2.295561     2.287918     2.280275     2.272632     2.264988     2.257345     2.249702
      2.242059     2.234416     2.226772     2.219129     2.211486     2.203843     2.196199     2.188556     2.180913     2.173270
      2.165627     2.157983     2.150340     2.142697     2.135054     2.127410     2.119767     2.112124     2.104481     2.096838
      2.089194     2.081551     2.073908     2.066265     2.058621     2.050978     2.043335     2.035692     2.028049     2.020405
      2.012762     2.005119     1.997476     1.989833     1.982190     1.974546     1.966903     1.959260     1.951617     1.943974
      1.936331     1.928688     1.921045     1.913402     1.905759     1.898115     1.890472     1.882829     1.875186     1.867543
      1.859900     1.852257     1.844614     1.836971     1.829327     1.821684     1.814041     1.806398     1.798755     1.791112
      1.783469     1.775826     1.768183     1.760540     1.752896     1.745253     1.737610     1.729967     1.722324     1.714681
      1.707038     1.699395     1.691752     1.684108     1.676465     1.668822     1.661179     1.653536     1.645893     1.638250
      1.630607     1.622964     1.615321     1.607677     1.600034     1.592391     1.584748     1.577105     1.569462     1.561819
      1.554176     1.546533     1.538890     1.531246     1.523603     1.515960     1.508317     1.500674     1.493031     1.485388
      1.477745     1.470102     1.462458     1.454815     1.447172     1.439529     1.431886     1.424243     1.416600     1.408957
      1.401314     1.393671     1.386027     1.378384     1.370741     1.363098     1.355455     1.347812     1.340169     1.332526
      1.324883     1.317240     1.309596     1.301953     1.294310     1.286667     1.279024     1.271381     1.263738     1.256095
      1.248452     1.240808     1.233165     1.225522     1.217879     1.210236     1.202593     1.194950     1.187307     1.179664
      1.172021     1.164377     1.156734     1.149091     1.141448     1.133805     1.126162     1.118519     1.110876     1.103233
      1.095590     1.087946     1.080303     1.072660     1.065017     1.057374     1.049731     1.042088     1.034445     1.026802
      1.019158     1.011515     1.003872     0.996229     0.988586     0.980943     0.973300     0.965657     0.958014     0.950371
      0.942727     0.935084     0.927441     0.919798     0.912155     0.904512     0.896869     0.889226     0.881583     0.873940
      0.866296     0.858653     0.851010     0.843367     0.835724     0.828081     0.820438     0.812795     0.805152     0.797508
      0.789865     0.782222     0.774579     0.766936     0.759293     0.751650     0.744007     0.736364     0.728721     0.721077
      0.713434     0.705791     0.698148     0.690505     0.682862     0.675219     0.667576     0.659933     0.652290     0.644646
      0.637003     0.629360     0.621717     0.614074     0.606431     0.598788     0.591145     0.583502     0.575858     0.568215
      0.560572     0.552929     0.545286     0.537643     0.530000     0.522357     0.514714     0.507071     0.499427     0.491784
      0.484141     0.476498     0.468855     0.461212     0.453569     0.445925     0.438282     0.430639     0.422996     0.415353
      0.407710     0.400067     0.392424     0.384780     0.377137     0.369494     0.361851     0.354208     0.346565     0.338922
      0.331278     0.323635     0.315992     0.308349     0.300706     0.293063     0.285420     0.277777     0.270133     0.262490
      0.254847     0.247204     0.239561     0.231918     0.224275     0.216631     0.208988     0.201345
 NY phased data points follow
   5.73424E+00  4.20926E+00  5.26692E+00  4.45837E+00  3.65408E+00  4.94781E+00  6.10605E+00  5.91208E+00  3.72813E+00  6.31042E+00
   3.66953E+00  4.91435E+00  6.51939E+00  4.91916E+00  7.04381E+00  6.35338E+00  4.94479E+00  6.41205E+00  6.54200E+00  5.50739E+00
   7.91605E+00  8.06836E+00  8.47794E+00  8.09400E+00  4.22854E+00  8.87012E+00  6.50963E+00  5.48211E+00  5.32844E+00  5.77511E+00
   6.15553E+00  4.31431E+00  5.21011E+00  6.11225E+00  6.60674E+00  6.06450E+00  5.38006E+00  4.14660E+00  5.18076E+00  5.69898E+00
   7.24299E+00  5.73695E+00  7.62494E+00  6.12836E+00  6.16612E+00  6.89688E+00  7.22486E+00  7.11884E+00  6.88919E+00  6.20219E+00
   7.87872E+00  6.97007E+00  6.53201E+00  5.04425E+00  5.06372E+00  7.03190E+00  7.51300E+00  4.86743E+00  6.73565E+00  6.32167E+00
   7.10070E+00  5.85055E+00  5.41968E+00  4.58860E+00  5.32275E+00  7.43005E+00  6.94144E+00  7.38630E+00  7.44374E+00  7.39447E+00
   6.92021E+00  5.11862E+00  6.07079E+00  6.43062E+00  3.51819E+00  4.98584E+00  6.61048E+00  6.18184E+00  6.72694E+00  5.59119E+00
   4.24844E+00  4.87253E+00  6.20016E+00  5.12717E+00  4.97726E+00  6.59002E+00  3.47799E+00  5.74968E+00  6.11178E+00  4.79336E+00
   4.94769E+00  4.92350E+00  9.25048E+00  4.29078E+00  5.84585E+00  6.81738E+00  7.13930E+00  6.25336E+00  7.12188E+00  6.55922E+00
   4.74097E+00  7.09829E+00  5.06372E+00  6.08369E+00  9.55293E+00  8.26435E+00  6.05402E+00  7.48800E+00  5.36760E+00  7.50987E+00
   7.30472E+00  6.24450E+00  8.74676E+00  8.39167E+00  5.85244E+00  7.69164E+00  5.68990E+00  4.73372E+00  6.42558E+00  8.18784E+00
   5.33205E+00  6.90009E+00  7.99380E+00  5.28288E+00  8.65849E+00  6.28129E+00  6.13824E+00  1.02425E+01  9.22004E+00  7.91780E+00
   5.91966E+00  6.29444E+00  6.41479E+00  7.65994E+00  8.01017E+00  8.79809E+00  8.11676E+00  7.10029E+00  9.07803E+00  7.50798E+00
   8.59582E+00  8.62674E+00  8.82672E+00  9.13620E+00  7.68460E+00  8.86915E+00  5.24275E+00  7.02391E+00  5.89223E+00  6.34690E+00
   7.49145E+00  8.21988E+00  9.35684E+00  7.36671E+00  7.83641E+00  7.74863E+00  8.32496E+00  8.41925E+00  7.02001E+00  7.28250E+00
   6.20846E+00  7.83774E+00  9.48333E+00  6.29311E+00  7.02842E+00  8.03105E+00  8.29087E+00  7.16081E+00  5.97014E+00  6.72886E+00
   9.36787E+00  5.38241E+00  6.62079E+00  6.26343E+00  7.76521E+00  5.48405E+00  5.96517E+00  7.72601E+00  6.38173E+00  6.96864E+00
   6.16072E+00  9.43214E+00  6.75085E+00  4.43553E+00  6.35512E+00  6.46354E+00  8.34494E+00  6.86673E+00  5.17543E+00  4.69446E+00
   8.22712E+00  8.30607E+00  8.93473E+00  5.28875E+00  5.34071E+00  9.13178E+00  6.18008E+00  5.87630E+00  6.83390E+00  5.57099E+00
   6.04125E+00  6.48694E+00  7.48583E+00  9.13584E+00  8.85326E+00  8.78717E+00  8.17991E+00  9.05455E+00  8.92246E+00  8.06775E+00
   7.57766E+00  8.28124E+00  6.84672E+00  1.12591E+01  9.37888E+00  1.14202E+01  1.15542E+01  8.25783E+00  8.64404E+00  8.50463E+00
   8.34375E+00  8.02261E+00  7.38668E+00  7.52792E+00  8.80551E+00  6.87765E+00  1.08372E+01  9.22091E+00  1.03179E+01  9.39354E+00
   9.34936E+00  1.07645E+01  8.88490E+00  1.10463E+01  8.70732E+00  9.30257E+00  1.16485E+01  1.31546E+01  1.22598E+01  9.39456E+00
   1.22268E+01  1.11418E+01  1.12327E+01  9.73132E+00  1.31125E+01  1.08058E+01  1.24619E+01  1.32323E+01  1.29290E+01  1.33551E+01
   1.39962E+01  1.25443E+01  1.43746E+01  1.62964E+01  1.47507E+01  1.55003E+01  2.13827E+01  2.39945E+01  2.81552E+01  3.26366E+01
   3.31748E+01  3.50500E+01  3.06418E+01  2.80967E+01  2.12555E+01  1.78724E+01  1.38512E+01  1.50628E+01  1.17223E+01  1.09505E+01
   1.45673E+01  1.24552E+01  1.14562E+01  1.24181E+01  1.29608E+01  1.17822E+01  1.04062E+01  1.31987E+01  1.14614E+01  1.01434E+01
   1.25639E+01  1.00162E+01  1.23114E+01  1.05424E+01  1.19359E+01  1.12914E+01  1.45114E+01  1.43361E+01  1.45340E+01  1.45232E+01
   1.17978E+01  1.57752E+01  1.53634E+01  1.55209E+01  1.49052E+01  1.43194E+01  1.62052E+01  1.57851E+01  1.62339E+01  1.67791E+01
   1.75511E+01  1.90433E+01  1.95235E+01  1.94088E+01  1.98763E+01  1.84021E+01  2.08893E+01  2.04169E+01  2.14480E+01  1.94769E+01
   2.02809E+01  2.34801E+01  2.36386E+01  2.27323E+01  2.23613E+01  2.40698E+01  2.31720E+01  2.39155E+01  2.52661E+01  2.34214E+01
   2.56828E+01  2.78984E+01  2.71604E+01  2.88807E+01  2.96289E+01  3.11556E+01  3.22920E+01  3.38681E+01  3.18100E+01  3.32376E+01
   3.42338E+01  3.44349E+01  3.44210E+01  3.49830E+01  3.51519E+01  3.51336E+01  3.33754E+01  3.32143E+01  3.58773E+01  3.55726E+01
   3.55934E+01  3.62433E+01  3.69028E+01  3.61966E+01  3.73018E+01  3.61075E+01  3.82206E+01  3.78292E+01  3.86471E+01  3.77657E+01
   3.84341E+01  3.99404E+01  3.65080E+01  3.86289E+01  4.04935E+01  3.90239E+01  3.94830E+01  3.86474E+01  3.94311E+01  4.03144E+01
   3.93534E+01  4.07622E+01  4.05958E+01  4.00754E+01  3.95780E+01  4.12345E+01  4.10486E+01  4.16376E+01  4.05167E+01  4.00405E+01
   3.87595E+01  3.86591E+01  3.79475E+01  3.71670E+01  3.85841E+01  3.82058E+01  3.55371E+01  3.44754E+01  3.46824E+01  3.26997E+01
   3.39176E+01  3.20726E+01  3.17518E+01  2.93358E+01  3.14597E+01  3.11477E+01  2.85633E+01  3.03345E+01  2.93010E+01  2.66435E+01
   2.73789E+01  2.76117E+01  2.51637E+01  2.59473E+01  2.30150E+01  2.52792E+01  2.49086E+01  2.43440E+01  2.40475E+01  2.48011E+01
   2.56428E+01  2.19062E+01  2.40864E+01  2.42230E+01  1.96264E+01  2.35984E+01  2.02922E+01  2.07106E+01  1.98243E+01  2.01563E+01
   1.90514E+01  1.84352E+01  1.77570E+01  1.78527E+01  1.52364E+01  1.80340E+01  1.55940E+01  1.46164E+01  1.23109E+01  1.32107E+01
   1.39562E+01  1.17858E+01  1.39763E+01  1.23412E+01  1.23730E+01  1.18483E+01  1.19500E+01  1.27507E+01  9.92600E+00  9.05360E+00
   1.15382E+01  8.35205E+00  1.08277E+01  8.74547E+00  1.13196E+01  7.05061E+00  8.80899E+00  8.34951E+00  6.89608E+00  9.37244E+00
   8.50709E+00  7.82013E+00  7.19353E+00  7.12584E+00  6.80473E+00  6.08357E+00  7.32735E+00  6.66465E+00  6.07194E+00  7.13461E+00
   7.97341E+00  6.08658E+00  6.33206E+00  7.24981E+00  6.83884E+00  7.46920E+00  5.24704E+00  5.55019E+00  7.07327E+00  5.13744E+00
   5.26506E+00  5.75655E+00  3.76949E+00  5.45325E+00  6.50478E+00  3.06663E+00  4.29091E+00  6.05700E+00  4.15234E+00  7.89917E+00
   4.80687E+00  3.73442E+00  5.33170E+00  2.12743E+00  4.26725E+00  5.58447E+00  5.39395E+00  4.85164E+00  4.06262E+00  4.11016E+00
   3.56500E+00  2.75677E+00  4.98144E+00  3.92012E+00  4.77246E+00  4.62023E+00  3.39221E+00  3.05578E+00  6.92380E+00  5.05410E+00
   6.95414E+00  5.12321E+00  4.82602E+00  1.61936E+00  3.17641E+00  2.86144E+00  4.71851E+00  3.38701E+00
 NY points of the fit to the data follow
   6.04173E+00  5.99806E+00  5.97129E+00  5.94821E+00  5.92171E+00  5.89632E+00  5.89104E+00  5.91848E+00  5.97402E+00  6.05003E+00
   6.13656E+00  6.21573E+00  6.26229E+00  6.25519E+00  6.19427E+00  6.10450E+00  6.02326E+00  5.97339E+00  5.95463E+00  5.96684E+00
   6.01643E+00  6.10120E+00  6.19715E+00  6.25356E+00  6.23702E+00  6.14181E+00  5.98839E+00  5.83421E+00  5.75282E+00  5.80443E+00
   6.00174E+00  6.29656E+00  6.59093E+00  6.76460E+00  6.74254E+00  6.54475E+00  6.24072E+00  5.93696E+00  5.73280E+00  5.67300E+00
   5.74261E+00  5.89202E+00  6.07711E+00  6.26618E+00  6.43132E+00  6.56532E+00  6.66267E+00  6.69799E+00  6.65306E+00  6.52257E+00
   6.32754E+00  6.11731E+00  5.94843E+00  5.85470E+00  5.83536E+00  5.87197E+00  5.94400E+00  6.03066E+00  6.11209E+00  6.17306E+00
   6.20282E+00  6.19724E+00  6.16000E+00  6.10312E+00  6.04852E+00  6.01380E+00  6.00503E+00  6.02278E+00  6.05692E+00  6.09476E+00
   6.13478E+00  6.17820E+00  6.21993E+00  6.25127E+00  6.26405E+00  6.25184E+00  6.21225E+00  6.15536E+00  6.09255E+00  6.03493E+00
   5.99757E+00  5.98414E+00  5.97948E+00  5.96507E+00  5.93132E+00  5.87721E+00  5.81455E+00  5.76260E+00  5.73610E+00  5.73981E+00
   5.77143E+00  5.82067E+00  5.87147E+00  5.91351E+00  5.94745E+00  5.97495E+00  6.00216E+00  6.04556E+00  6.13892E+00  6.30727E+00
   6.52959E+00  6.76949E+00  6.99115E+00  7.15184E+00  7.21027E+00  7.13923E+00  6.95282E+00  6.71014E+00  6.48833E+00  6.33932E+00
   6.25971E+00  6.22184E+00  6.21792E+00  6.22874E+00  6.24542E+00  6.26325E+00  6.28240E+00  6.30300E+00  6.32469E+00  6.34906E+00
   6.38187E+00  6.43940E+00  6.54644E+00  6.70682E+00  6.89954E+00  7.10021E+00  7.28083E+00  7.40931E+00  7.45853E+00  7.42259E+00
   7.32414E+00  7.20689E+00  7.11496E+00  7.06725E+00  7.05602E+00  7.07682E+00  7.12263E+00  7.17918E+00  7.23927E+00  7.30015E+00
   7.36152E+00  7.42530E+00  7.49161E+00  7.55882E+00  7.62735E+00  7.69480E+00  7.75583E+00  7.80628E+00  7.84581E+00  7.87900E+00
   7.91099E+00  7.94531E+00  7.98222E+00  8.01868E+00  8.05010E+00  8.06043E+00  8.02325E+00  7.93272E+00  7.80855E+00  7.68407E+00
   7.59876E+00  7.56973E+00  7.59547E+00  7.66236E+00  7.73278E+00  7.75242E+00  7.67807E+00  7.51258E+00  7.30276E+00  7.09409E+00
   6.90994E+00  6.73661E+00  6.55782E+00  6.40255E+00  6.28973E+00  6.21993E+00  6.18774E+00  6.19051E+00  6.22574E+00  6.27085E+00
   6.29615E+00  6.27835E+00  6.22648E+00  6.19558E+00  6.22690E+00  6.31007E+00  6.43443E+00  6.59561E+00  6.79875E+00  7.02566E+00
   7.24104E+00  7.41696E+00  7.54141E+00  7.62100E+00  7.67368E+00  7.69987E+00  7.69072E+00  7.64703E+00  7.58649E+00  7.55514E+00
   7.59066E+00  7.70875E+00  7.89090E+00  8.07941E+00  8.19884E+00  8.18960E+00  8.03363E+00  7.75984E+00  7.43683E+00  7.17717E+00
   7.09974E+00  7.28348E+00  7.71535E+00  8.29584E+00  8.90451E+00  9.38822E+00  9.59179E+00  9.41022E+00  8.86107E+00  8.14046E+00
   7.51785E+00  7.18728E+00  7.23819E+00  7.64823E+00  8.33838E+00  9.15049E+00  9.89130E+00  1.04206E+01  1.07029E+01  1.08061E+01
   1.08199E+01  1.08091E+01  1.08259E+01  1.09011E+01  1.10235E+01  1.11657E+01  1.12965E+01  1.13964E+01  1.14598E+01  1.15058E+01
   1.15662E+01  1.16673E+01  1.18269E+01  1.20543E+01  1.23336E+01  1.26177E+01  1.28557E+01  1.30238E+01  1.31302E+01  1.32110E+01
   1.33244E+01  1.35120E+01  1.38002E+01  1.42321E+01  1.50777E+01  1.69656E+01  2.01984E+01  2.42441E+01  2.83901E+01  3.19071E+01
   3.39534E+01  3.38341E+01  3.13368E+01  2.70028E+01  2.20190E+01  1.77624E+01  1.49499E+01  1.32908E+01  1.23491E+01  1.19496E+01
   1.17409E+01  1.16126E+01  1.15448E+01  1.15232E+01  1.15258E+01  1.15353E+01  1.15371E+01  1.15281E+01  1.15163E+01  1.15171E+01
   1.15433E+01  1.16046E+01  1.17072E+01  1.18514E+01  1.20345E+01  1.22522E+01  1.25002E+01  1.27758E+01  1.30782E+01  1.34061E+01
   1.37590E+01  1.41361E+01  1.45351E+01  1.49523E+01  1.53837E+01  1.58248E+01  1.62704E+01  1.67155E+01  1.71551E+01  1.75844E+01
   1.79991E+01  1.83958E+01  1.87721E+01  1.91269E+01  1.94606E+01  1.97755E+01  2.00752E+01  2.03652E+01  2.06524E+01  2.09445E+01
   2.12497E+01  2.15767E+01  2.19335E+01  2.23277E+01  2.27657E+01  2.32522E+01  2.37903E+01  2.43806E+01  2.50216E+01  2.57092E+01
   2.64370E+01  2.71969E+01  2.79785E+01  2.87702E+01  2.95598E+01  3.03342E+01  3.10812E+01  3.17890E+01  3.24473E+01  3.30479E+01
   3.35845E+01  3.40537E+01  3.44546E+01  3.47890E+01  3.50614E+01  3.52783E+01  3.54485E+01  3.55818E+01  3.56894E+01  3.57825E+01
   3.58724E+01  3.59695E+01  3.60831E+01  3.62209E+01  3.63890E+01  3.65912E+01  3.68293E+01  3.71030E+01  3.74099E+01  3.77459E+01
   3.81053E+01  3.84807E+01  3.88641E+01  3.92466E+01  3.96188E+01  3.99716E+01  4.02956E+01  4.05824E+01  4.08238E+01  4.10130E+01
   4.11440E+01  4.12120E+01  4.12136E+01  4.11466E+01  4.10101E+01  4.08047E+01  4.05320E+01  4.01949E+01  3.97973E+01  3.93441E+01
   3.88408E+01  3.82936E+01  3.77093E+01  3.70948E+01  3.64572E+01  3.58035E+01  3.51405E+01  3.44750E+01  3.38131E+01  3.31602E+01
   3.25215E+01  3.19011E+01  3.13026E+01  3.07287E+01  3.01812E+01  2.96612E+01  2.91689E+01  2.87036E+01  2.82642E+01  2.78485E+01
   2.74540E+01  2.70775E+01  2.67154E+01  2.63640E+01  2.60191E+01  2.56766E+01  2.53325E+01  2.49829E+01  2.46242E+01  2.42534E+01
   2.38678E+01  2.34654E+01  2.30446E+01  2.26047E+01  2.21455E+01  2.16677E+01  2.11722E+01  2.06606E+01  2.01352E+01  1.95984E+01
   1.90529E+01  1.85017E+01  1.79479E+01  1.73944E+01  1.68443E+01  1.63003E+01  1.57650E+01  1.52409E+01  1.47298E+01  1.42336E+01
   1.37535E+01  1.32909E+01  1.28463E+01  1.24204E+01  1.20134E+01  1.16254E+01  1.12561E+01  1.09052E+01  1.05723E+01  1.02569E+01
   9.95821E+00  9.67556E+00  9.40821E+00  9.15541E+00  8.91637E+00  8.69033E+00  8.47654E+00  8.27425E+00  8.08279E+00  7.90148E+00
   7.72968E+00  7.56679E+00  7.41224E+00  7.26550E+00  7.12608E+00  6.99352E+00  6.86737E+00  6.74724E+00  6.63274E+00  6.52353E+00
   6.41929E+00  6.31972E+00  6.22453E+00  6.13346E+00  6.04627E+00  5.96274E+00  5.88267E+00  5.80585E+00  5.73210E+00  5.66125E+00
   5.59314E+00  5.52763E+00  5.46459E+00  5.40388E+00  5.34537E+00  5.28897E+00  5.23455E+00  5.18204E+00  5.13133E+00  5.08234E+00
   5.03497E+00  4.98916E+00  4.94484E+00  4.90194E+00  4.86039E+00  4.82013E+00  4.78110E+00  4.74326E+00  4.70655E+00  4.67092E+00
   4.63633E+00  4.60273E+00  4.57008E+00  4.53835E+00  4.50751E+00  4.47750E+00  4.44831E+00  4.41989E+00  4.39223E+00  4.36530E+00
   4.33907E+00  4.31350E+00  4.28859E+00  4.26430E+00  4.24062E+00  4.21754E+00  4.19503E+00  4.17308E+00
 NY background values follow
     5.782E+00    5.777E+00    5.773E+00    5.769E+00    5.765E+00    5.761E+00    5.756E+00    5.752E+00    5.748E+00    5.744E+00
     5.739E+00    5.735E+00    5.731E+00    5.727E+00    5.723E+00    5.718E+00    5.714E+00    5.710E+00    5.706E+00    5.701E+00
     5.697E+00    5.693E+00    5.689E+00    5.684E+00    5.680E+00    5.676E+00    5.672E+00    5.668E+00    5.663E+00    5.659E+00
     5.655E+00    5.651E+00    5.646E+00    5.642E+00    5.638E+00    5.634E+00    5.629E+00    5.625E+00    5.621E+00    5.617E+00
     5.612E+00    5.608E+00    5.604E+00    5.600E+00    5.596E+00    5.591E+00    5.587E+00    5.583E+00    5.579E+00    5.574E+00
     5.570E+00    5.566E+00    5.562E+00    5.557E+00    5.553E+00    5.549E+00    5.545E+00    5.540E+00    5.536E+00    5.532E+00
     5.528E+00    5.523E+00    5.519E+00    5.515E+00    5.511E+00    5.506E+00    5.502E+00    5.498E+00    5.494E+00    5.489E+00
     5.485E+00    5.481E+00    5.476E+00    5.472E+00    5.468E+00    5.464E+00    5.459E+00    5.455E+00    5.451E+00    5.447E+00
     5.442E+00    5.438E+00    5.434E+00    5.430E+00    5.425E+00    5.421E+00    5.417E+00    5.413E+00    5.408E+00    5.404E+00
     5.400E+00    5.395E+00    5.391E+00    5.387E+00    5.383E+00    5.378E+00    5.374E+00    5.370E+00    5.366E+00    5.361E+00
     5.357E+00    5.353E+00    5.348E+00    5.344E+00    5.340E+00    5.336E+00    5.331E+00    5.327E+00    5.323E+00    5.319E+00
     5.314E+00    5.310E+00    5.306E+00    5.301E+00    5.297E+00    5.293E+00    5.289E+00    5.284E+00    5.280E+00    5.276E+00
     5.271E+00    5.267E+00    5.263E+00    5.259E+00    5.254E+00    5.250E+00    5.246E+00    5.241E+00    5.237E+00    5.233E+00
     5.228E+00    5.224E+00    5.220E+00    5.216E+00    5.211E+00    5.207E+00    5.203E+00    5.198E+00    5.194E+00    5.190E+00
     5.186E+00    5.181E+00    5.177E+00    5.173E+00    5.168E+00    5.164E+00    5.160E+00    5.155E+00    5.151E+00    5.147E+00
     5.143E+00    5.138E+00    5.134E+00    5.130E+00    5.125E+00    5.121E+00    5.117E+00    5.112E+00    5.108E+00    5.104E+00
     5.099E+00    5.095E+00    5.091E+00    5.087E+00    5.082E+00    5.078E+00    5.074E+00    5.069E+00    5.065E+00    5.061E+00
     5.056E+00    5.052E+00    5.048E+00    5.043E+00    5.039E+00    5.035E+00    5.030E+00    5.026E+00    5.022E+00    5.018E+00
     5.013E+00    5.009E+00    5.005E+00    5.000E+00    4.996E+00    4.992E+00    4.987E+00    4.983E+00    4.979E+00    4.974E+00
     4.970E+00    4.966E+00    4.961E+00    4.957E+00    4.953E+00    4.948E+00    4.944E+00    4.940E+00    4.935E+00    4.931E+00
     4.927E+00    4.922E+00    4.918E+00    4.914E+00    4.909E+00    4.905E+00    4.901E+00    4.896E+00    4.892E+00    4.888E+00
     4.883E+00    4.879E+00    4.875E+00    4.870E+00    4.866E+00    4.862E+00    4.857E+00    4.853E+00    4.849E+00    4.844E+00
     4.840E+00    4.836E+00    4.831E+00    4.827E+00    4.823E+00    4.818E+00    4.814E+00    4.810E+00    4.805E+00    4.801E+00
     4.797E+00    4.792E+00    4.788E+00    4.784E+00    4.779E+00    4.775E+00    4.771E+00    4.766E+00    4.762E+00    4.758E+00
     4.753E+00    4.749E+00    4.745E+00    4.740E+00    4.736E+00    4.732E+00    4.727E+00    4.723E+00    4.719E+00    4.714E+00
     4.710E+00    4.705E+00    4.701E+00    4.697E+00    4.692E+00    4.688E+00    4.684E+00    4.679E+00    4.675E+00    4.671E+00
     4.666E+00    4.662E+00    4.658E+00    4.653E+00    4.649E+00    4.645E+00    4.640E+00    4.636E+00    4.631E+00    4.627E+00
     4.623E+00    4.618E+00    4.614E+00    4.610E+00    4.605E+00    4.601E+00    4.597E+00    4.592E+00    4.588E+00    4.584E+00
     4.579E+00    4.575E+00    4.570E+00    4.566E+00    4.562E+00    4.557E+00    4.553E+00    4.549E+00    4.544E+00    4.540E+00
     4.536E+00    4.531E+00    4.527E+00    4.522E+00    4.518E+00    4.514E+00    4.509E+00    4.505E+00    4.501E+00    4.496E+00
     4.492E+00    4.488E+00    4.483E+00    4.479E+00    4.474E+00    4.470E+00    4.466E+00    4.461E+00    4.457E+00    4.453E+00
     4.448E+00    4.444E+00    4.440E+00    4.435E+00    4.431E+00    4.426E+00    4.422E+00    4.418E+00    4.413E+00    4.409E+00
     4.405E+00    4.400E+00    4.396E+00    4.391E+00    4.387E+00    4.383E+00    4.378E+00    4.374E+00    4.370E+00    4.365E+00
     4.361E+00    4.356E+00    4.352E+00    4.348E+00    4.343E+00    4.339E+00    4.335E+00    4.330E+00    4.326E+00    4.321E+00
     4.317E+00    4.313E+00    4.308E+00    4.304E+00    4.300E+00    4.295E+00    4.291E+00    4.286E+00    4.282E+00    4.278E+00
     4.273E+00    4.269E+00    4.264E+00    4.260E+00    4.256E+00    4.251E+00    4.247E+00    4.243E+00    4.238E+00    4.234E+00
     4.229E+00    4.225E+00    4.221E+00    4.216E+00    4.212E+00    4.208E+00    4.203E+00    4.199E+00    4.194E+00    4.190E+00
     4.186E+00    4.181E+00    4.177E+00    4.172E+00    4.168E+00    4.164E+00    4.159E+00    4.155E+00    4.150E+00    4.146E+00
     4.142E+00    4.137E+00    4.133E+00    4.129E+00    4.124E+00    4.120E+00    4.115E+00    4.111E+00    4.107E+00    4.102E+00
     4.098E+00    4.093E+00    4.089E+00    4.085E+00    4.080E+00    4.076E+00    4.071E+00    4.067E+00    4.063E+00    4.058E+00
     4.054E+00    4.050E+00    4.045E+00    4.041E+00    4.036E+00    4.032E+00    4.028E+00    4.023E+00    4.019E+00    4.014E+00
     4.010E+00    4.006E+00    4.001E+00    3.997E+00    3.992E+00    3.988E+00    3.984E+00    3.979E+00    3.975E+00    3.970E+00
     3.966E+00    3.962E+00    3.957E+00    3.953E+00    3.948E+00    3.944E+00    3.940E+00    3.935E+00    3.931E+00    3.926E+00
     3.922E+00    3.918E+00    3.913E+00    3.909E+00    3.904E+00    3.900E+00    3.896E+00    3.891E+00    3.887E+00    3.883E+00
     3.878E+00    3.874E+00    3.869E+00    3.865E+00    3.861E+00    3.856E+00    3.852E+00    3.847E+00    3.843E+00    3.839E+00
     3.834E+00    3.830E+00    3.825E+00    3.821E+00    3.817E+00    3.812E+00    3.808E+00    3.803E+00    3.799E+00    3.795E+00
     3.790E+00    3.786E+00    3.781E+00    3.777E+00    3.773E+00    3.768E+00    3.764E+00    3.759E+00    3.755E+00    3.751E+00
     3.746E+00    3.742E+00    3.737E+00    3.733E+00    3.729E+00    3.724E+00    3.720E+00    3.715E+00    3.711E+00    3.707E+00
     3.702E+00    3.698E+00    3.693E+00    3.689E+00    3.685E+00    3.680E+00    3.676E+00    3.671E+00    3.667E+00    3.663E+00
     3.658E+00    3.654E+00    3.649E+00    3.645E+00    3.641E+00    3.636E+00    3.632E+00    3.627E+00
 Asp      Conc. = 3.30E+01
