 LCModel (Version 6.3-1L) Copyright: S.W. Provencher.          Ref.: Magn. Reson. Med. 30:672-679 (1993).                
 Slice#1 Row#7 Col#2  K_02_press_1_raw_act
 36 lines in following concentration table = NCONC+1
    Conc.  %SD /Cr+PCr  Metabolite                                         
    0.000 999%   0.000 Ala                                                 
   45.882 247% 6.7E-02 Asp                                                 
  468.926  74%   0.684 Cr                                                  
  217.049 158%   0.316 PCr                                                 
   62.756 114% 9.1E-02 GABA                                                
   51.571 137% 7.5E-02 Glc                                                 
 1.29E+03  39%   1.878 Gln                                                 
  349.944 166%   0.510 Glu                                                 
   52.869 177% 7.7E-02 GPC                                                 
  147.946  64%   0.216 PCh                                                 
  129.371  83%   0.189 GSH                                                 
  895.273  37%   1.305 Ins                                                 
    0.000 999%   0.000 Lac                                                 
  974.119   6%   1.420 NAA                                                 
    0.000 999%   0.000 NAAG                                                
   73.421  27%   0.107 Scyllo                                              
  163.589  67%   0.238 Tau                                                 
  751.747  17%   1.096 -CrCH2                                              
  200.815  12%   0.293 GPC+PCh                                             
  974.119   6%   1.420 NAA+NAAG                                            
  685.975   8%   1.000 Cr+PCr                                              
 1.64E+03  59%   2.388 Glu+Gln                                             
    0.000 999%   0.000 Lip13a                                              
    0.000 999%   0.000 Lip13b                                              
    0.000 999%   0.000 Lip09                                               
  160.252  59%   0.234 MM09                                                
 3.19E-03 999% 4.6E-06 Lip20                                               
  288.506  54%   0.421 MM20                                                
   39.087  92% 5.7E-02 MM12                                                
   27.051 392% 3.9E-02 MM14                                                
  136.254  49%   0.199 MM17                                                
    0.000 999%   0.000 Lip13a+Lip13b                                       
   66.138 195% 9.6E-02 MM14+Lip13a+Lip13b+MM12                             
  160.252  59%   0.234 MM09+Lip09                                          
  288.509  54%   0.421 MM20+Lip20                                          
   6 lines in following misc. output table
  FWHM = 0.107 ppm    S/N =   4                                            
  Data shift = 0.015 ppm                                                   
  Ph: -43 deg      -9.0 deg/ppm                                            
  alphaB,S = 8.8E-01,   5.1E+01                                            
   14 spline knots.   Ns = 7(2)                                            
  ( 9) 5 infls.   ( 7) 3 extrs.                                            
  498 points on ppm-axis = NY
      4.000000     3.992357     3.984714     3.977070     3.969427     3.961784     3.954141     3.946497     3.938854     3.931211
      3.923568     3.915925     3.908281     3.900638     3.892995     3.885352     3.877708     3.870065     3.862422     3.854779
      3.847136     3.839492     3.831849     3.824206     3.816563     3.808919     3.801276     3.793633     3.785990     3.778347
      3.770703     3.763060     3.755417     3.747774     3.740130     3.732487     3.724844     3.717201     3.709558     3.701914
      3.694271     3.686628     3.678985     3.671341     3.663698     3.656055     3.648412     3.640769     3.633125     3.625482
      3.617839     3.610196     3.602552     3.594909     3.587266     3.579623     3.571980     3.564336     3.556693     3.549050
      3.541407     3.533763     3.526120     3.518477     3.510834     3.503191     3.495547     3.487904     3.480261     3.472618
      3.464974     3.457331     3.449688     3.442045     3.434402     3.426758     3.419115     3.411472     3.403829     3.396185
      3.388542     3.380899     3.373256     3.365613     3.357969     3.350326     3.342683     3.335040     3.327396     3.319753
      3.312110     3.304467     3.296824     3.289180     3.281537     3.273894     3.266251     3.258607     3.250964     3.243321
      3.235678     3.228034     3.220391     3.212748     3.205105     3.197462     3.189818     3.182175     3.174532     3.166889
      3.159245     3.151602     3.143959     3.136316     3.128673     3.121029     3.113386     3.105743     3.098100     3.090456
      3.082813     3.075170     3.067527     3.059884     3.052240     3.044597     3.036954     3.029311     3.021667     3.014024
      3.006381     2.998738     2.991095     2.983451     2.975808     2.968165     2.960522     2.952878     2.945235     2.937592
      2.929949     2.922306     2.914662     2.907019     2.899376     2.891733     2.884089     2.876446     2.868803     2.861160
      2.853517     2.845873     2.838230     2.830587     2.822944     2.815300     2.807657     2.800014     2.792371     2.784728
      2.777084     2.769441     2.761798     2.754155     2.746511     2.738868     2.731225     2.723582     2.715939     2.708295
      2.700652     2.693009     2.685366     2.677722     2.670079     2.662436     2.654793     2.647150     2.639506     2.631863
      2.624220     2.616577     2.608933     2.601290     2.593647     2.586004     2.578361     2.570717     2.563074     2.555431
      2.547788     2.540144     2.532501     2.524858     2.517215     2.509572     2.501928     2.494285     2.486642     2.478999
      2.471355     2.463712     2.456069     2.448426     2.440783     2.433139     2.425496     2.417853     2.410210     2.402566
      2.394923     2.387280     2.379637     2.371994     2.364350     2.356707     2.349064     2.341421     2.333777     2.326134
      2.318491     2.310848     2.303205     2.295561     2.287918     2.280275     2.272632     2.264988     2.257345     2.249702
      2.242059     2.234416     2.226772     2.219129     2.211486     2.203843     2.196199     2.188556     2.180913     2.173270
      2.165627     2.157983     2.150340     2.142697     2.135054     2.127410     2.119767     2.112124     2.104481     2.096838
      2.089194     2.081551     2.073908     2.066265     2.058621     2.050978     2.043335     2.035692     2.028049     2.020405
      2.012762     2.005119     1.997476     1.989833     1.982190     1.974546     1.966903     1.959260     1.951617     1.943974
      1.936331     1.928688     1.921045     1.913402     1.905759     1.898115     1.890472     1.882829     1.875186     1.867543
      1.859900     1.852257     1.844614     1.836971     1.829327     1.821684     1.814041     1.806398     1.798755     1.791112
      1.783469     1.775826     1.768183     1.760540     1.752896     1.745253     1.737610     1.729967     1.722324     1.714681
      1.707038     1.699395     1.691752     1.684108     1.676465     1.668822     1.661179     1.653536     1.645893     1.638250
      1.630607     1.622964     1.615321     1.607677     1.600034     1.592391     1.584748     1.577105     1.569462     1.561819
      1.554176     1.546533     1.538890     1.531246     1.523603     1.515960     1.508317     1.500674     1.493031     1.485388
      1.477745     1.470102     1.462458     1.454815     1.447172     1.439529     1.431886     1.424243     1.416600     1.408957
      1.401314     1.393671     1.386027     1.378384     1.370741     1.363098     1.355455     1.347812     1.340169     1.332526
      1.324883     1.317240     1.309596     1.301953     1.294310     1.286667     1.279024     1.271381     1.263738     1.256095
      1.248452     1.240808     1.233165     1.225522     1.217879     1.210236     1.202593     1.194950     1.187307     1.179664
      1.172021     1.164377     1.156734     1.149091     1.141448     1.133805     1.126162     1.118519     1.110876     1.103233
      1.095590     1.087946     1.080303     1.072660     1.065017     1.057374     1.049731     1.042088     1.034445     1.026802
      1.019158     1.011515     1.003872     0.996229     0.988586     0.980943     0.973300     0.965657     0.958014     0.950371
      0.942727     0.935084     0.927441     0.919798     0.912155     0.904512     0.896869     0.889226     0.881583     0.873940
      0.866296     0.858653     0.851010     0.843367     0.835724     0.828081     0.820438     0.812795     0.805152     0.797508
      0.789865     0.782222     0.774579     0.766936     0.759293     0.751650     0.744007     0.736364     0.728721     0.721077
      0.713434     0.705791     0.698148     0.690505     0.682862     0.675219     0.667576     0.659933     0.652290     0.644646
      0.637003     0.629360     0.621717     0.614074     0.606431     0.598788     0.591145     0.583502     0.575858     0.568215
      0.560572     0.552929     0.545286     0.537643     0.530000     0.522357     0.514714     0.507071     0.499427     0.491784
      0.484141     0.476498     0.468855     0.461212     0.453569     0.445925     0.438282     0.430639     0.422996     0.415353
      0.407710     0.400067     0.392424     0.384780     0.377137     0.369494     0.361851     0.354208     0.346565     0.338922
      0.331278     0.323635     0.315992     0.308349     0.300706     0.293063     0.285420     0.277777     0.270133     0.262490
      0.254847     0.247204     0.239561     0.231918     0.224275     0.216631     0.208988     0.201345
 NY phased data points follow
  -3.96874E+01 -3.80289E+01 -3.48968E+01 -3.67474E+01 -3.72840E+01 -3.25768E+01 -3.14470E+01 -2.90823E+01 -2.89218E+01 -3.29002E+01
  -3.23083E+01 -3.24918E+01 -3.36138E+01 -2.78732E+01 -2.99706E+01 -3.29355E+01 -2.73106E+01 -2.51404E+01 -2.78998E+01 -3.02149E+01
  -2.72886E+01 -3.08100E+01 -2.80340E+01 -2.95818E+01 -2.59979E+01 -2.85930E+01 -2.77576E+01 -2.91527E+01 -2.65110E+01 -2.49444E+01
  -2.41490E+01 -2.84069E+01 -2.46380E+01 -2.37894E+01 -2.21954E+01 -2.09106E+01 -2.30999E+01 -2.17583E+01 -2.02814E+01 -2.10413E+01
  -2.46186E+01 -2.19825E+01 -2.21627E+01 -2.08689E+01 -1.75106E+01 -2.50287E+01 -1.84128E+01 -1.73291E+01 -1.84353E+01 -2.02726E+01
  -1.96204E+01 -1.86535E+01 -2.01834E+01 -2.26661E+01 -1.75563E+01 -2.50871E+01 -1.99606E+01 -2.04477E+01 -1.83996E+01 -1.95621E+01
  -1.91351E+01 -2.00470E+01 -2.07357E+01 -1.92495E+01 -1.80400E+01 -2.18658E+01 -1.57829E+01 -1.88991E+01 -1.99080E+01 -2.00761E+01
  -1.98162E+01 -1.82070E+01 -2.02220E+01 -1.60091E+01 -1.86412E+01 -1.83359E+01 -1.71372E+01 -1.51061E+01 -1.70806E+01 -1.66074E+01
  -1.86278E+01 -1.67812E+01 -1.35488E+01 -1.44230E+01 -1.65603E+01 -1.49721E+01 -1.74379E+01 -1.32492E+01 -1.36706E+01 -1.19272E+01
  -1.46984E+01 -1.31516E+01 -1.32012E+01 -1.20831E+01 -1.30549E+01 -1.27005E+01 -1.21466E+01 -1.06520E+01 -7.25766E+00 -5.93507E+00
  -5.60930E+00 -6.81924E+00 -5.19376E+00 -8.50764E+00 -9.89357E+00 -1.09373E+01 -7.44506E+00 -7.79795E+00 -3.41091E+00 -4.56658E+00
  -1.29058E+01 -8.86470E+00 -7.86508E+00 -1.24936E+01 -1.01537E+01 -1.03132E+01 -1.14374E+01 -1.23028E+01 -9.77634E+00 -1.01498E+01
  -8.84974E+00 -9.85182E+00 -5.75850E+00 -2.40122E+00 -2.23522E+00 -1.55997E+00 -1.39101E-01  2.61112E-01 -5.80224E+00  1.26236E-01
  -6.19025E-02 -2.93364E-01 -2.66139E+00 -3.42278E+00 -1.48534E+00 -5.64347E+00 -6.51674E+00 -6.73719E+00 -6.72441E+00 -7.36763E+00
  -4.83098E+00 -7.30907E+00 -8.25633E+00 -9.29856E+00 -7.27062E+00 -9.06341E+00 -1.04751E+01 -5.95129E+00 -1.51375E+01 -8.81035E+00
  -1.14103E+01 -1.07399E+01 -1.35541E+01 -9.78744E+00 -9.20311E+00 -9.26977E+00 -7.69202E+00 -1.08856E+01 -9.59214E+00 -9.48786E+00
  -1.21904E+01 -8.18137E+00 -4.83208E+00 -7.29508E+00 -6.53324E+00 -6.97565E+00 -8.08107E+00 -6.88053E+00 -8.56797E+00 -1.12142E+01
  -8.09994E+00 -9.14675E+00 -9.47644E+00 -1.21615E+01 -7.91126E+00 -9.16013E+00 -1.21411E+01 -1.08340E+01 -1.25680E+01 -1.21742E+01
  -7.89665E+00 -1.03949E+01 -1.12780E+01 -1.19736E+01 -1.02140E+01 -1.19754E+01 -9.06346E+00 -5.83200E+00 -7.15203E+00 -6.50435E+00
  -9.50928E+00 -7.17715E+00 -6.83411E+00 -9.47921E+00 -1.02142E+01 -8.32881E+00 -1.03243E+01 -6.88121E+00 -6.76307E+00 -6.10451E+00
  -6.35319E+00 -5.24278E+00 -5.92815E+00 -5.93625E+00 -4.82832E+00 -8.07359E+00 -7.27201E+00 -5.38417E+00 -4.07673E+00 -2.87632E+00
  -3.31339E+00 -3.54592E+00 -1.90272E+00 -1.73301E+00 -3.91872E+00 -5.13856E+00 -3.80300E+00 -4.53664E+00 -2.70234E+00 -1.38497E+00
  -2.34782E-01 -4.76387E+00 -2.33027E+00  2.38346E+00  8.91704E-01 -2.92174E+00 -2.28144E+00 -6.22461E-01 -4.63521E+00 -4.61238E+00
  -3.27580E+00 -5.32186E+00 -4.11622E+00 -6.12373E-01 -6.84013E-01 -3.23945E+00 -2.16427E+00 -2.09299E+00 -1.98446E+00 -3.71284E+00
  -4.88080E+00  2.52523E+00 -1.43956E+00 -1.52801E+00 -1.20602E-01 -2.79175E-01 -6.54571E+00 -1.02793E+00 -6.56028E-01  2.09078E+00
  -1.44559E-01  6.28831E-01  2.78382E+00  3.57412E+00  5.30727E+00  6.65505E+00  1.33759E+01  1.72552E+01  1.48274E+01  1.35664E+01
   9.83526E+00  9.71180E+00  1.48776E+01  1.41537E+01  1.22543E+01  1.51166E+01  1.03084E+01  1.05631E+01  8.31512E+00  5.41992E+00
   8.08962E+00  1.75009E+00 -1.09047E+00 -1.60376E+00 -1.99652E-01  3.33876E+00 -9.91217E-01 -1.41634E-01 -6.67464E-01  9.52291E-01
  -1.87803E+00  8.68035E-01  2.08066E+00 -2.01270E+00 -2.84342E+00 -2.61461E+00 -3.68352E+00  4.19452E-01 -2.45939E+00  6.57361E-01
  -6.77837E-02 -3.08893E+00  7.20808E-01  1.38159E-01 -1.54188E+00  4.61395E-01  1.45146E+00 -3.30881E-01  1.21045E+00 -4.94542E-01
   1.73550E+00 -1.40268E+00 -2.31122E+00  1.41531E+00  2.90829E-01 -3.58341E-01 -8.00664E-01 -1.34161E+00  1.74385E+00  7.35730E-01
  -1.18202E-01  4.44413E-01 -9.16882E-01 -1.92674E+00 -1.80303E+00  2.63014E+00 -1.85664E+00 -1.10680E+00 -1.15954E+00  2.83455E+00
  -4.54132E-01  2.96270E-01  8.07625E-01 -2.44997E+00 -1.99467E-01 -2.05985E+00 -7.48203E-01 -5.86002E-01 -2.17165E-01 -1.25594E+00
  -5.97708E-01 -2.37269E+00 -3.74732E+00 -6.14424E+00 -2.28294E+00 -1.32243E+00 -2.85839E+00 -2.11461E+00  3.87184E+00 -1.58392E+00
   1.88910E+00 -2.52939E+00 -3.10339E+00 -1.32112E+00 -1.74629E+00 -2.41533E+00 -3.77134E+00 -2.70848E+00 -5.95615E+00 -2.25821E+00
  -5.64428E+00 -7.63120E+00 -6.54998E+00 -4.24073E+00 -4.41150E+00 -7.98896E+00 -6.68732E+00 -5.26357E+00 -3.82505E+00 -3.37714E-01
  -6.41411E+00 -5.48514E+00 -2.62626E+00 -1.12936E+00  5.42342E-01 -2.66594E+00 -8.29913E-01 -1.85829E+00 -6.01977E+00 -2.28374E+00
  -3.69325E+00  1.01941E+00 -4.05510E-01 -4.96869E+00  1.14526E+00 -3.48951E+00 -5.64315E+00 -1.66133E+00 -1.58439E+00 -1.96046E+00
   4.10477E-01  5.47720E-02 -1.47338E+00 -2.66995E+00 -2.11670E+00 -3.07844E-01  1.13044E+00 -3.18812E+00 -7.05560E+00  7.19953E-01
  -4.99101E+00  1.63407E-01 -3.17140E+00 -4.14901E+00 -1.82969E+00 -2.73756E+00 -5.57405E+00 -2.04515E-01 -2.89427E-01  1.44517E+00
  -4.38407E-01 -5.43289E+00 -2.22034E+00 -8.95453E-01  1.64329E+00 -5.17179E+00 -8.38350E-01 -8.05616E-01 -3.78295E+00 -1.57008E+00
  -2.86253E-01  8.52473E-02 -1.25480E+00  1.52321E+00 -2.62086E+00 -2.56587E+00 -3.33537E-02 -2.24032E-01 -2.80495E+00 -4.39519E-01
  -2.19686E+00 -1.58237E+00 -1.46097E+00 -3.00124E+00 -1.96026E+00 -5.52977E-01 -3.48959E+00 -1.27557E-01  1.04169E+00 -5.33827E-01
  -4.67983E-01 -3.43125E-01 -4.10308E+00  2.49881E+00 -1.41526E+00 -1.68531E+00  1.35571E+00 -4.22162E+00 -4.59171E+00 -2.99475E+00
   1.88605E+00 -1.56292E+00 -3.66397E+00 -4.56906E+00 -4.97739E+00 -7.81611E-01 -3.09377E-01 -3.65152E+00 -2.09071E+00 -5.42915E+00
  -8.41379E-01 -3.25359E+00 -4.73870E+00 -2.04044E+00 -3.37754E+00 -1.42455E+00  4.62737E-01 -4.51556E-01 -3.10269E+00 -1.59214E-01
  -1.46165E+00 -1.23689E+00 -5.74487E+00 -2.04169E+00 -1.01372E+00 -2.78344E+00 -8.68193E-01 -1.69365E+00  1.28225E-01 -1.75951E+00
  -3.98032E+00 -7.60546E-01 -2.97437E-01 -2.26205E+00 -1.51986E+00 -4.72833E+00  2.63732E+00 -1.02399E+00 -1.29866E+00 -1.11625E+00
  -3.07367E+00 -1.88251E+00 -4.67919E+00 -3.02371E+00 -3.31766E+00 -5.59074E-01 -9.19125E-01  2.07576E-01  3.97209E-01 -2.72850E+00
  -5.71405E+00 -5.45277E-01 -8.73591E-01  2.41845E-01 -2.77020E+00 -2.65791E+00 -1.55644E+00  1.95657E-01
 NY points of the fit to the data follow
  -3.31676E+01 -3.25446E+01 -3.45229E+01 -3.35069E+01 -3.52212E+01 -3.36900E+01 -3.35204E+01 -3.20725E+01 -3.14419E+01 -3.12678E+01
  -3.14688E+01 -3.15258E+01 -3.12837E+01 -3.09015E+01 -2.95567E+01 -2.94554E+01 -2.76011E+01 -2.80610E+01 -2.66554E+01 -2.75349E+01
  -2.67456E+01 -2.75256E+01 -2.70580E+01 -2.74389E+01 -2.63459E+01 -2.63054E+01 -2.51072E+01 -2.51376E+01 -2.42614E+01 -2.47194E+01
  -2.44045E+01 -2.50151E+01 -2.45591E+01 -2.46765E+01 -2.36571E+01 -2.36355E+01 -2.28350E+01 -2.31612E+01 -2.27676E+01 -2.31497E+01
  -2.27522E+01 -2.27400E+01 -2.21024E+01 -2.18009E+01 -2.12486E+01 -2.12910E+01 -2.11756E+01 -2.14804E+01 -2.13285E+01 -2.12988E+01
  -2.08433E+01 -2.07407E+01 -2.03572E+01 -2.04215E+01 -2.02481E+01 -2.04719E+01 -2.03217E+01 -2.05768E+01 -2.03563E+01 -2.05937E+01
  -2.03594E+01 -2.03647E+01 -2.00147E+01 -1.99182E+01 -1.95308E+01 -1.94390E+01 -1.90157E+01 -1.90402E+01 -1.86312E+01 -1.86840E+01
  -1.83467E+01 -1.83213E+01 -1.79508E+01 -1.79270E+01 -1.76109E+01 -1.76516E+01 -1.73493E+01 -1.73097E+01 -1.68731E+01 -1.67411E+01
  -1.63789E+01 -1.62302E+01 -1.60382E+01 -1.59068E+01 -1.61142E+01 -1.60550E+01 -1.62051E+01 -1.60401E+01 -1.58335E+01 -1.51702E+01
  -1.49876E+01 -1.45129E+01 -1.45265E+01 -1.40212E+01 -1.38446E+01 -1.26903E+01 -1.20081E+01 -1.03558E+01 -9.30096E+00 -7.65421E+00
  -6.88925E+00 -6.93638E+00 -6.82390E+00 -7.38742E+00 -7.11666E+00 -6.90610E+00 -6.49974E+00 -6.66496E+00 -6.57823E+00 -7.62990E+00
  -7.93569E+00 -9.44773E+00 -9.74319E+00 -1.03766E+01 -1.04529E+01 -1.08022E+01 -1.07242E+01 -1.05743E+01 -1.01920E+01 -9.15163E+00
  -8.31698E+00 -6.14528E+00 -5.05102E+00 -2.72758E+00 -2.15649E+00 -1.89461E+00 -1.94633E+00 -2.28700E+00 -2.23798E+00 -1.65930E+00
  -1.52460E+00 -1.47001E+00 -1.75114E+00 -2.82915E+00 -3.46870E+00 -5.15948E+00 -5.73552E+00 -7.11604E+00 -7.48040E+00 -8.50042E+00
  -8.70451E+00 -9.32693E+00 -9.42260E+00 -1.00477E+01 -9.97347E+00 -1.00647E+01 -9.86684E+00 -9.95278E+00 -9.78046E+00 -9.85414E+00
  -9.70973E+00 -9.73388E+00 -9.62178E+00 -9.67071E+00 -9.58088E+00 -9.66582E+00 -9.57705E+00 -9.65458E+00 -9.53809E+00 -9.49625E+00
  -9.38923E+00 -9.31505E+00 -9.32860E+00 -9.36673E+00 -9.35836E+00 -9.40336E+00 -9.34985E+00 -9.34887E+00 -9.33117E+00 -9.31778E+00
  -9.31884E+00 -9.35998E+00 -9.33494E+00 -9.43782E+00 -9.24049E+00 -9.35628E+00 -9.11800E+00 -9.24877E+00 -9.02687E+00 -9.12495E+00
  -8.85651E+00 -8.91761E+00 -8.60457E+00 -8.61283E+00 -8.25430E+00 -8.13455E+00 -7.86466E+00 -7.63995E+00 -7.58791E+00 -7.35640E+00
  -7.53486E+00 -7.11156E+00 -7.34065E+00 -6.66788E+00 -6.79379E+00 -6.04490E+00 -6.15641E+00 -5.13811E+00 -5.33954E+00 -4.54920E+00
  -5.13579E+00 -4.71066E+00 -5.67963E+00 -5.40498E+00 -6.43916E+00 -5.99580E+00 -6.80735E+00 -5.70705E+00 -5.96460E+00 -5.14905E+00
  -5.34455E+00 -5.08972E+00 -5.56318E+00 -5.32255E+00 -5.67405E+00 -5.16473E+00 -5.07390E+00 -4.46034E+00 -4.00889E+00 -3.52406E+00
  -3.02081E+00 -2.81128E+00 -2.62202E+00 -2.56093E+00 -2.63145E+00 -2.53044E+00 -2.56499E+00 -2.54936E+00 -2.84889E+00 -2.66710E+00
  -3.00324E+00 -2.69391E+00 -3.09469E+00 -2.34065E+00 -2.58660E+00 -1.90550E+00 -2.30679E+00 -2.03687E+00 -2.84250E+00 -2.87061E+00
  -3.44365E+00 -3.28648E+00 -3.41338E+00 -2.97964E+00 -2.94653E+00 -2.61575E+00 -1.88436E+00 -1.44593E+00 -9.50915E-01 -5.79858E-01
   6.54160E-02  8.80802E-01  2.71425E+00  4.34957E+00  6.91805E+00  9.27463E+00  1.16854E+01  1.38369E+01  1.31297E+01  1.40785E+01
   1.24081E+01  1.30644E+01  1.27315E+01  1.37469E+01  1.28161E+01  1.33748E+01  1.09955E+01  1.06876E+01  7.63404E+00  6.86193E+00
   4.55258E+00  3.85928E+00  2.32386E+00  1.80882E+00  9.22037E-01  5.21984E-01 -3.62940E-01 -7.33719E-01 -8.38882E-01 -9.43932E-01
  -9.76614E-01 -1.04313E+00 -1.05380E+00 -1.11380E+00 -1.11673E+00 -1.16533E+00 -1.15486E+00 -1.18772E+00 -1.16373E+00 -1.17983E+00
  -1.14614E+00 -1.14718E+00 -1.10208E+00 -1.09554E+00 -1.04221E+00 -1.02950E+00 -9.74204E-01 -9.59705E-01 -9.06274E-01 -8.94766E-01
  -8.45005E-01 -8.41418E-01 -8.00023E-01 -8.07632E-01 -7.77473E-01 -7.99333E-01 -7.83956E-01 -8.20480E-01 -8.19481E-01 -8.70632E-01
  -8.82400E-01 -9.45119E-01 -9.66871E-01 -1.03722E+00 -1.06481E+00 -1.13850E+00 -1.16768E+00 -1.24066E+00 -1.26774E+00 -1.33695E+00
  -1.35947E+00 -1.42310E+00 -1.43986E+00 -1.49716E+00 -1.50784E+00 -1.55910E+00 -1.56443E+00 -1.61057E+00 -1.61157E+00 -1.65371E+00
  -1.65155E+00 -1.69095E+00 -1.68690E+00 -1.72465E+00 -1.71960E+00 -1.75645E+00 -1.75106E+00 -1.78759E+00 -1.78226E+00 -1.81868E+00
  -1.81343E+00 -1.84964E+00 -1.84435E+00 -1.88018E+00 -1.87456E+00 -1.90959E+00 -1.90316E+00 -1.93698E+00 -1.92942E+00 -1.96176E+00
  -1.95278E+00 -1.98336E+00 -1.97278E+00 -2.00156E+00 -1.98949E+00 -2.01669E+00 -2.00334E+00 -2.02921E+00 -2.01497E+00 -2.04000E+00
  -2.02540E+00 -2.05010E+00 -2.03556E+00 -2.06031E+00 -2.04623E+00 -2.07144E+00 -2.05812E+00 -2.08388E+00 -2.07125E+00 -2.09739E+00
  -2.08520E+00 -2.11137E+00 -2.09908E+00 -2.12457E+00 -2.11137E+00 -2.13531E+00 -2.12029E+00 -2.14171E+00 -2.12375E+00 -2.14142E+00
  -2.11926E+00 -2.13191E+00 -2.10425E+00 -2.11049E+00 -2.07586E+00 -2.07422E+00 -2.03121E+00 -2.02041E+00 -1.96790E+00 -1.94701E+00
  -1.88436E+00 -1.85318E+00 -1.78078E+00 -1.74039E+00 -1.66002E+00 -1.61294E+00 -1.52793E+00 -1.47832E+00 -1.39361E+00 -1.34704E+00
  -1.26861E+00 -1.23124E+00 -1.16518E+00 -1.14283E+00 -1.09442E+00 -1.09149E+00 -1.06396E+00 -1.08239E+00 -1.07636E+00 -1.11542E+00
  -1.12883E+00 -1.18522E+00 -1.21372E+00 -1.28232E+00 -1.32032E+00 -1.39534E+00 -1.43706E+00 -1.51298E+00 -1.55335E+00 -1.62571E+00
  -1.66104E+00 -1.72694E+00 -1.75505E+00 -1.81300E+00 -1.83304E+00 -1.88277E+00 -1.89500E+00 -1.93714E+00 -1.94238E+00 -1.97790E+00
  -1.97724E+00 -2.00732E+00 -2.00195E+00 -2.02769E+00 -2.01861E+00 -2.04093E+00 -2.02898E+00 -2.04865E+00 -2.03452E+00 -2.05213E+00
  -2.03629E+00 -2.05225E+00 -2.03510E+00 -2.04976E+00 -2.03160E+00 -2.04521E+00 -2.02621E+00 -2.03893E+00 -2.01928E+00 -2.03128E+00
  -2.01110E+00 -2.02247E+00 -2.00184E+00 -2.01266E+00 -1.99168E+00 -2.00206E+00 -1.98078E+00 -1.99073E+00 -1.96917E+00 -1.97875E+00
  -1.95699E+00 -1.96625E+00 -1.94431E+00 -1.95324E+00 -1.93113E+00 -1.93981E+00 -1.91759E+00 -1.92602E+00 -1.90368E+00 -1.91186E+00
  -1.88943E+00 -1.89743E+00 -1.87494E+00 -1.88274E+00 -1.86018E+00 -1.86780E+00 -1.84522E+00 -1.85270E+00 -1.83010E+00 -1.83743E+00
  -1.81481E+00 -1.82200E+00 -1.79940E+00 -1.80651E+00 -1.78392E+00 -1.79092E+00 -1.76835E+00 -1.77527E+00 -1.75277E+00 -1.75964E+00
  -1.73720E+00 -1.74400E+00 -1.72163E+00 -1.72842E+00 -1.70618E+00 -1.71296E+00 -1.69083E+00 -1.69761E+00
 NY background values follow
    -3.403E+01   -3.384E+01   -3.365E+01   -3.346E+01   -3.327E+01   -3.308E+01   -3.289E+01   -3.270E+01   -3.251E+01   -3.232E+01
    -3.213E+01   -3.194E+01   -3.175E+01   -3.156E+01   -3.137E+01   -3.118E+01   -3.100E+01   -3.081E+01   -3.062E+01   -3.043E+01
    -3.024E+01   -3.005E+01   -2.986E+01   -2.968E+01   -2.949E+01   -2.930E+01   -2.911E+01   -2.893E+01   -2.874E+01   -2.855E+01
    -2.837E+01   -2.818E+01   -2.800E+01   -2.781E+01   -2.763E+01   -2.744E+01   -2.726E+01   -2.707E+01   -2.689E+01   -2.671E+01
    -2.652E+01   -2.634E+01   -2.616E+01   -2.598E+01   -2.579E+01   -2.561E+01   -2.543E+01   -2.525E+01   -2.507E+01   -2.490E+01
    -2.472E+01   -2.454E+01   -2.436E+01   -2.419E+01   -2.401E+01   -2.383E+01   -2.366E+01   -2.348E+01   -2.331E+01   -2.314E+01
    -2.296E+01   -2.279E+01   -2.262E+01   -2.245E+01   -2.227E+01   -2.210E+01   -2.193E+01   -2.177E+01   -2.160E+01   -2.143E+01
    -2.126E+01   -2.110E+01   -2.093E+01   -2.076E+01   -2.060E+01   -2.044E+01   -2.027E+01   -2.011E+01   -1.995E+01   -1.979E+01
    -1.962E+01   -1.946E+01   -1.931E+01   -1.915E+01   -1.899E+01   -1.883E+01   -1.867E+01   -1.852E+01   -1.836E+01   -1.821E+01
    -1.806E+01   -1.790E+01   -1.775E+01   -1.760E+01   -1.745E+01   -1.730E+01   -1.715E+01   -1.700E+01   -1.685E+01   -1.671E+01
    -1.656E+01   -1.642E+01   -1.627E+01   -1.613E+01   -1.599E+01   -1.584E+01   -1.570E+01   -1.556E+01   -1.542E+01   -1.528E+01
    -1.514E+01   -1.501E+01   -1.487E+01   -1.473E+01   -1.460E+01   -1.446E+01   -1.433E+01   -1.420E+01   -1.406E+01   -1.393E+01
    -1.380E+01   -1.367E+01   -1.354E+01   -1.341E+01   -1.329E+01   -1.316E+01   -1.303E+01   -1.291E+01   -1.278E+01   -1.266E+01
    -1.254E+01   -1.242E+01   -1.230E+01   -1.217E+01   -1.205E+01   -1.194E+01   -1.182E+01   -1.170E+01   -1.158E+01   -1.147E+01
    -1.135E+01   -1.124E+01   -1.113E+01   -1.101E+01   -1.090E+01   -1.079E+01   -1.068E+01   -1.057E+01   -1.046E+01   -1.035E+01
    -1.024E+01   -1.014E+01   -1.003E+01   -9.927E+00   -9.822E+00   -9.718E+00   -9.615E+00   -9.512E+00   -9.410E+00   -9.309E+00
    -9.209E+00   -9.109E+00   -9.010E+00   -8.912E+00   -8.814E+00   -8.717E+00   -8.620E+00   -8.525E+00   -8.429E+00   -8.335E+00
    -8.241E+00   -8.148E+00   -8.055E+00   -7.963E+00   -7.872E+00   -7.781E+00   -7.691E+00   -7.602E+00   -7.513E+00   -7.425E+00
    -7.337E+00   -7.250E+00   -7.164E+00   -7.078E+00   -6.993E+00   -6.908E+00   -6.824E+00   -6.741E+00   -6.658E+00   -6.576E+00
    -6.494E+00   -6.413E+00   -6.333E+00   -6.253E+00   -6.175E+00   -6.096E+00   -6.019E+00   -5.942E+00   -5.866E+00   -5.790E+00
    -5.715E+00   -5.641E+00   -5.568E+00   -5.495E+00   -5.423E+00   -5.352E+00   -5.281E+00   -5.212E+00   -5.143E+00   -5.074E+00
    -5.007E+00   -4.940E+00   -4.874E+00   -4.809E+00   -4.744E+00   -4.681E+00   -4.618E+00   -4.556E+00   -4.495E+00   -4.434E+00
    -4.374E+00   -4.316E+00   -4.258E+00   -4.200E+00   -4.144E+00   -4.088E+00   -4.034E+00   -3.980E+00   -3.927E+00   -3.875E+00
    -3.824E+00   -3.773E+00   -3.724E+00   -3.675E+00   -3.627E+00   -3.580E+00   -3.533E+00   -3.488E+00   -3.443E+00   -3.399E+00
    -3.356E+00   -3.314E+00   -3.273E+00   -3.232E+00   -3.192E+00   -3.153E+00   -3.115E+00   -3.078E+00   -3.041E+00   -3.005E+00
    -2.970E+00   -2.936E+00   -2.902E+00   -2.869E+00   -2.837E+00   -2.806E+00   -2.775E+00   -2.746E+00   -2.716E+00   -2.688E+00
    -2.661E+00   -2.634E+00   -2.608E+00   -2.583E+00   -2.558E+00   -2.534E+00   -2.511E+00   -2.489E+00   -2.467E+00   -2.446E+00
    -2.426E+00   -2.406E+00   -2.387E+00   -2.369E+00   -2.352E+00   -2.335E+00   -2.319E+00   -2.303E+00   -2.288E+00   -2.274E+00
    -2.261E+00   -2.248E+00   -2.236E+00   -2.224E+00   -2.213E+00   -2.203E+00   -2.193E+00   -2.184E+00   -2.175E+00   -2.168E+00
    -2.160E+00   -2.153E+00   -2.147E+00   -2.141E+00   -2.136E+00   -2.132E+00   -2.128E+00   -2.124E+00   -2.121E+00   -2.118E+00
    -2.116E+00   -2.115E+00   -2.114E+00   -2.113E+00   -2.113E+00   -2.114E+00   -2.115E+00   -2.116E+00   -2.118E+00   -2.120E+00
    -2.123E+00   -2.126E+00   -2.129E+00   -2.133E+00   -2.138E+00   -2.142E+00   -2.147E+00   -2.153E+00   -2.159E+00   -2.165E+00
    -2.172E+00   -2.179E+00   -2.186E+00   -2.193E+00   -2.201E+00   -2.209E+00   -2.217E+00   -2.226E+00   -2.235E+00   -2.244E+00
    -2.253E+00   -2.262E+00   -2.271E+00   -2.281E+00   -2.291E+00   -2.300E+00   -2.310E+00   -2.320E+00   -2.330E+00   -2.340E+00
    -2.350E+00   -2.360E+00   -2.370E+00   -2.380E+00   -2.390E+00   -2.400E+00   -2.410E+00   -2.420E+00   -2.429E+00   -2.439E+00
    -2.448E+00   -2.458E+00   -2.467E+00   -2.475E+00   -2.484E+00   -2.493E+00   -2.501E+00   -2.509E+00   -2.517E+00   -2.524E+00
    -2.531E+00   -2.538E+00   -2.544E+00   -2.551E+00   -2.556E+00   -2.562E+00   -2.567E+00   -2.572E+00   -2.577E+00   -2.581E+00
    -2.585E+00   -2.588E+00   -2.592E+00   -2.595E+00   -2.598E+00   -2.600E+00   -2.602E+00   -2.604E+00   -2.606E+00   -2.607E+00
    -2.609E+00   -2.609E+00   -2.610E+00   -2.610E+00   -2.611E+00   -2.611E+00   -2.610E+00   -2.610E+00   -2.609E+00   -2.608E+00
    -2.607E+00   -2.605E+00   -2.604E+00   -2.602E+00   -2.600E+00   -2.597E+00   -2.595E+00   -2.592E+00   -2.589E+00   -2.586E+00
    -2.583E+00   -2.580E+00   -2.576E+00   -2.573E+00   -2.569E+00   -2.565E+00   -2.561E+00   -2.556E+00   -2.552E+00   -2.547E+00
    -2.543E+00   -2.538E+00   -2.533E+00   -2.528E+00   -2.522E+00   -2.517E+00   -2.511E+00   -2.506E+00   -2.500E+00   -2.494E+00
    -2.488E+00   -2.482E+00   -2.476E+00   -2.469E+00   -2.463E+00   -2.456E+00   -2.450E+00   -2.443E+00   -2.436E+00   -2.429E+00
    -2.422E+00   -2.415E+00   -2.408E+00   -2.400E+00   -2.393E+00   -2.385E+00   -2.378E+00   -2.370E+00   -2.362E+00   -2.355E+00
    -2.347E+00   -2.339E+00   -2.331E+00   -2.323E+00   -2.314E+00   -2.306E+00   -2.298E+00   -2.289E+00   -2.281E+00   -2.272E+00
    -2.264E+00   -2.255E+00   -2.247E+00   -2.238E+00   -2.229E+00   -2.221E+00   -2.212E+00   -2.203E+00   -2.194E+00   -2.185E+00
    -2.176E+00   -2.167E+00   -2.158E+00   -2.149E+00   -2.140E+00   -2.131E+00   -2.121E+00   -2.112E+00   -2.103E+00   -2.094E+00
    -2.084E+00   -2.075E+00   -2.066E+00   -2.056E+00   -2.047E+00   -2.037E+00   -2.028E+00   -2.018E+00   -2.009E+00   -1.999E+00
    -1.990E+00   -1.980E+00   -1.971E+00   -1.961E+00   -1.952E+00   -1.942E+00   -1.932E+00   -1.923E+00   -1.913E+00   -1.904E+00
    -1.894E+00   -1.884E+00   -1.875E+00   -1.865E+00   -1.855E+00   -1.846E+00   -1.836E+00   -1.826E+00
 Asp      Conc. = 4.59E+01
