 LCModel (Version 6.3-1L) Copyright: S.W. Provencher.          Ref.: Magn. Reson. Med. 30:672-679 (1993).                
 Slice#1 Row#7 Col#3  K_02_press_1_raw_act
 36 lines in following concentration table = NCONC+1
    Conc.  %SD /Cr+PCr  Metabolite                                         
    0.000 999%   0.000 Ala                                                 
    4.085 999% 2.9E-03 Asp                                                 
    0.000 999%   0.000 Cr                                                  
 1.40E+03   5%   1.000 PCr                                                 
   88.226 195% 6.3E-02 GABA                                                
   47.483 345% 3.4E-02 Glc                                                 
  897.770  49%   0.643 Gln                                                 
 1.08E+03  47%   0.773 Glu                                                 
  457.649   6%   0.328 GPC                                                 
    0.000 999%   0.000 PCh                                                 
  126.279  82% 9.0E-02 GSH                                                 
  627.287  52%   0.449 Ins                                                 
  312.214  72%   0.224 Lac                                                 
 2.73E+03   8%   1.957 NAA                                                 
   49.276 488% 3.5E-02 NAAG                                                
  137.678  24% 9.9E-02 Scyllo                                              
  393.059  56%   0.281 Tau                                                 
 1.07E+03  11%   0.765 -CrCH2                                              
  457.649   6%   0.328 GPC+PCh                                             
 2.78E+03   3%   1.992 NAA+NAAG                                            
 1.40E+03   5%   1.000 Cr+PCr                                              
 1.98E+03  42%   1.416 Glu+Gln                                             
  347.055 132%   0.249 Lip13a                                              
  123.477 217% 8.8E-02 Lip13b                                              
    0.000 999%   0.000 Lip09                                               
  731.069  19%   0.523 MM09                                                
  142.955  62%   0.102 Lip20                                               
 1.76E+03  15%   1.262 MM20                                                
  222.296  33%   0.159 MM12                                                
  419.878  48%   0.301 MM14                                                
  391.037  36%   0.280 MM17                                                
  470.532  56%   0.337 Lip13a+Lip13b                                       
 1.11E+03  26%   0.797 MM14+Lip13a+Lip13b+MM12                             
  731.069  19%   0.523 MM09+Lip09                                          
 1.91E+03  15%   1.365 MM20+Lip20                                          
   6 lines in following misc. output table
  FWHM = 0.084 ppm    S/N =  10                                            
  Data shift = 0.023 ppm                                                   
  Ph: -66 deg     -16.9 deg/ppm                                            
  alphaB,S = 2.3E+00,   8.7E+01                                            
   14 spline knots.   Ns =10(1)                                            
  (15) 4 infls.   (11) 1 extrs.                                            
  498 points on ppm-axis = NY
      4.000000     3.992357     3.984714     3.977070     3.969427     3.961784     3.954141     3.946497     3.938854     3.931211
      3.923568     3.915925     3.908281     3.900638     3.892995     3.885352     3.877708     3.870065     3.862422     3.854779
      3.847136     3.839492     3.831849     3.824206     3.816563     3.808919     3.801276     3.793633     3.785990     3.778347
      3.770703     3.763060     3.755417     3.747774     3.740130     3.732487     3.724844     3.717201     3.709558     3.701914
      3.694271     3.686628     3.678985     3.671341     3.663698     3.656055     3.648412     3.640769     3.633125     3.625482
      3.617839     3.610196     3.602552     3.594909     3.587266     3.579623     3.571980     3.564336     3.556693     3.549050
      3.541407     3.533763     3.526120     3.518477     3.510834     3.503191     3.495547     3.487904     3.480261     3.472618
      3.464974     3.457331     3.449688     3.442045     3.434402     3.426758     3.419115     3.411472     3.403829     3.396185
      3.388542     3.380899     3.373256     3.365613     3.357969     3.350326     3.342683     3.335040     3.327396     3.319753
      3.312110     3.304467     3.296824     3.289180     3.281537     3.273894     3.266251     3.258607     3.250964     3.243321
      3.235678     3.228034     3.220391     3.212748     3.205105     3.197462     3.189818     3.182175     3.174532     3.166889
      3.159245     3.151602     3.143959     3.136316     3.128673     3.121029     3.113386     3.105743     3.098100     3.090456
      3.082813     3.075170     3.067527     3.059884     3.052240     3.044597     3.036954     3.029311     3.021667     3.014024
      3.006381     2.998738     2.991095     2.983451     2.975808     2.968165     2.960522     2.952878     2.945235     2.937592
      2.929949     2.922306     2.914662     2.907019     2.899376     2.891733     2.884089     2.876446     2.868803     2.861160
      2.853517     2.845873     2.838230     2.830587     2.822944     2.815300     2.807657     2.800014     2.792371     2.784728
      2.777084     2.769441     2.761798     2.754155     2.746511     2.738868     2.731225     2.723582     2.715939     2.708295
      2.700652     2.693009     2.685366     2.677722     2.670079     2.662436     2.654793     2.647150     2.639506     2.631863
      2.624220     2.616577     2.608933     2.601290     2.593647     2.586004     2.578361     2.570717     2.563074     2.555431
      2.547788     2.540144     2.532501     2.524858     2.517215     2.509572     2.501928     2.494285     2.486642     2.478999
      2.471355     2.463712     2.456069     2.448426     2.440783     2.433139     2.425496     2.417853     2.410210     2.402566
      2.394923     2.387280     2.379637     2.371994     2.364350     2.356707     2.349064     2.341421     2.333777     2.326134
      2.318491     2.310848     2.303205     2.295561     2.287918     2.280275     2.272632     2.264988     2.257345     2.249702
      2.242059     2.234416     2.226772     2.219129     2.211486     2.203843     2.196199     2.188556     2.180913     2.173270
      2.165627     2.157983     2.150340     2.142697     2.135054     2.127410     2.119767     2.112124     2.104481     2.096838
      2.089194     2.081551     2.073908     2.066265     2.058621     2.050978     2.043335     2.035692     2.028049     2.020405
      2.012762     2.005119     1.997476     1.989833     1.982190     1.974546     1.966903     1.959260     1.951617     1.943974
      1.936331     1.928688     1.921045     1.913402     1.905759     1.898115     1.890472     1.882829     1.875186     1.867543
      1.859900     1.852257     1.844614     1.836971     1.829327     1.821684     1.814041     1.806398     1.798755     1.791112
      1.783469     1.775826     1.768183     1.760540     1.752896     1.745253     1.737610     1.729967     1.722324     1.714681
      1.707038     1.699395     1.691752     1.684108     1.676465     1.668822     1.661179     1.653536     1.645893     1.638250
      1.630607     1.622964     1.615321     1.607677     1.600034     1.592391     1.584748     1.577105     1.569462     1.561819
      1.554176     1.546533     1.538890     1.531246     1.523603     1.515960     1.508317     1.500674     1.493031     1.485388
      1.477745     1.470102     1.462458     1.454815     1.447172     1.439529     1.431886     1.424243     1.416600     1.408957
      1.401314     1.393671     1.386027     1.378384     1.370741     1.363098     1.355455     1.347812     1.340169     1.332526
      1.324883     1.317240     1.309596     1.301953     1.294310     1.286667     1.279024     1.271381     1.263738     1.256095
      1.248452     1.240808     1.233165     1.225522     1.217879     1.210236     1.202593     1.194950     1.187307     1.179664
      1.172021     1.164377     1.156734     1.149091     1.141448     1.133805     1.126162     1.118519     1.110876     1.103233
      1.095590     1.087946     1.080303     1.072660     1.065017     1.057374     1.049731     1.042088     1.034445     1.026802
      1.019158     1.011515     1.003872     0.996229     0.988586     0.980943     0.973300     0.965657     0.958014     0.950371
      0.942727     0.935084     0.927441     0.919798     0.912155     0.904512     0.896869     0.889226     0.881583     0.873940
      0.866296     0.858653     0.851010     0.843367     0.835724     0.828081     0.820438     0.812795     0.805152     0.797508
      0.789865     0.782222     0.774579     0.766936     0.759293     0.751650     0.744007     0.736364     0.728721     0.721077
      0.713434     0.705791     0.698148     0.690505     0.682862     0.675219     0.667576     0.659933     0.652290     0.644646
      0.637003     0.629360     0.621717     0.614074     0.606431     0.598788     0.591145     0.583502     0.575858     0.568215
      0.560572     0.552929     0.545286     0.537643     0.530000     0.522357     0.514714     0.507071     0.499427     0.491784
      0.484141     0.476498     0.468855     0.461212     0.453569     0.445925     0.438282     0.430639     0.422996     0.415353
      0.407710     0.400067     0.392424     0.384780     0.377137     0.369494     0.361851     0.354208     0.346565     0.338922
      0.331278     0.323635     0.315992     0.308349     0.300706     0.293063     0.285420     0.277777     0.270133     0.262490
      0.254847     0.247204     0.239561     0.231918     0.224275     0.216631     0.208988     0.201345
 NY phased data points follow
  -2.37316E+01 -1.88620E+01 -2.04369E+01 -1.83047E+01 -1.56909E+01 -1.03508E+01 -1.10889E+01 -1.24721E+01 -1.47225E+01 -1.16028E+01
  -1.19979E+01 -1.62678E+01 -1.25101E+01 -1.49660E+01 -2.40254E+01 -1.87556E+01 -1.63914E+01 -1.99195E+01 -1.96765E+01 -2.06690E+01
  -2.09323E+01 -1.97665E+01 -1.67084E+01 -1.91637E+01 -2.13277E+01 -1.75140E+01 -1.80769E+01 -1.65089E+01 -1.21971E+01 -1.50126E+01
  -1.74877E+01 -1.61287E+01 -1.53974E+01 -1.64071E+01 -1.62197E+01 -1.96498E+01 -1.87905E+01 -1.55103E+01 -1.37953E+01 -1.92071E+01
  -1.31496E+01 -1.57577E+01 -1.42529E+01 -1.26576E+01 -9.67829E+00 -1.14727E+01 -8.14601E+00 -1.05210E+01 -1.33962E+01 -1.09592E+01
  -1.03424E+01 -8.83044E+00 -1.23429E+01 -9.52574E+00 -1.63862E+01 -1.55072E+01 -1.21129E+01 -1.69910E+01 -1.67264E+01 -1.54340E+01
  -1.54833E+01 -1.69883E+01 -1.55391E+01 -1.84997E+01 -1.55975E+01 -1.28383E+01 -1.78641E+01 -1.57796E+01 -1.78890E+01 -1.32217E+01
  -1.56162E+01 -1.44790E+01 -1.90949E+01 -1.63908E+01 -1.58061E+01 -1.42967E+01 -1.51485E+01 -1.18578E+01 -1.20624E+01 -1.05160E+01
  -1.21601E+01 -7.13951E+00 -1.08032E+01 -9.87488E+00 -1.38027E+01 -1.04730E+01 -1.36476E+01 -9.48211E+00 -4.77200E+00 -1.22236E+01
  -1.09627E+01 -8.41013E+00 -8.29570E+00 -3.64618E+00 -9.51081E+00 -4.43561E+00  3.60112E-01  7.50586E+00  1.12829E+01  1.23172E+01
   1.42161E+01  1.71998E+01  1.52419E+01  1.14442E+01  8.66451E+00  1.28071E+01  7.47626E+00  7.86134E-01  3.50634E+00 -5.12814E+00
  -7.01926E+00 -4.18954E+00 -5.77155E+00 -4.06370E+00 -5.73290E+00 -7.45650E+00 -1.06807E+01 -7.71793E+00 -7.33476E+00 -1.68267E+00
  -2.19025E+00  2.06240E+00  7.65113E+00  1.43667E+01  1.81764E+01  2.34109E+01  1.91511E+01  1.57098E+01  1.51562E+01  1.55405E+01
   1.45928E+01  8.54632E+00  5.61654E+00  5.18794E+00 -2.38279E+00 -6.09129E+00 -6.61139E+00 -8.52028E+00 -5.89569E+00 -1.00128E+01
  -8.64523E+00 -4.77319E+00 -1.14793E+01 -7.13143E+00 -9.45610E+00 -1.06456E+01 -9.16683E+00 -1.36673E+01 -1.01027E+01 -1.00108E+01
  -1.32167E+01 -1.25811E+01 -1.29029E+01 -9.14706E+00 -8.97116E+00 -7.14542E+00 -1.46287E+01 -1.01166E+01 -9.79708E+00 -1.64346E+01
  -6.89886E+00 -9.09416E+00 -7.01974E+00 -1.05492E+01 -9.62131E+00 -1.08548E+01 -9.96980E+00 -1.17996E+01 -1.48654E+01 -1.05578E+01
  -1.49604E+01 -1.82206E+01 -1.51265E+01 -1.68883E+01 -1.61945E+01 -2.00981E+01 -1.97593E+01 -2.25430E+01 -2.25707E+01 -1.72799E+01
  -1.76993E+01 -1.92059E+01 -1.57292E+01 -1.56032E+01 -1.29221E+01 -9.20633E+00 -1.25916E+01 -3.60376E+00 -7.66807E+00 -7.81782E+00
  -9.67730E+00 -8.23627E+00 -1.38329E+01 -1.28916E+01 -1.11651E+01 -1.35002E+01 -1.17159E+01 -1.24674E+01 -1.50123E+01 -9.35213E+00
  -8.30871E+00 -9.89690E+00 -9.29941E+00 -5.27175E+00 -1.19876E+01 -7.76055E+00 -7.15846E+00 -5.52867E+00 -7.44430E+00 -7.12942E+00
  -5.78322E+00 -3.14754E+00 -2.06900E+00 -8.79237E-01 -2.47677E+00  2.95176E-01 -1.47469E+00 -9.59404E-01 -4.87628E-01 -5.20144E-01
  -5.83965E+00 -2.77783E+00  1.04375E+00 -5.41094E+00 -4.49989E+00 -8.06432E+00 -6.82731E+00 -1.86932E+00 -1.75355E+00 -2.07350E+00
  -1.90397E+00 -1.52168E+00  2.80670E+00 -3.91030E+00 -1.26270E+00  2.12489E+00  7.77854E-02 -2.38646E+00 -3.08611E+00 -2.03113E+00
   5.80870E+00 -4.74583E+00 -1.88584E-01 -2.12946E+00  2.37660E+00 -2.98787E+00  3.88137E+00  2.45468E+00  6.06054E+00  6.26939E+00
   1.02773E+01  1.13578E+01  1.19054E+01  1.86030E+01  2.30899E+01  3.60174E+01  4.46484E+01  4.64049E+01  5.50278E+01  5.80228E+01
   5.65103E+01  6.50291E+01  6.28140E+01  5.08465E+01  5.20814E+01  3.84893E+01  2.98240E+01  1.85240E+01  1.73108E+01  1.31183E+01
   2.78784E+00  7.27998E+00  2.75244E-03  9.62163E-01  6.09958E+00  2.97023E+00  2.07655E+00 -1.30213E+00 -6.01711E-01 -4.48033E+00
   7.89605E-01  1.10505E+00 -1.72729E+00 -1.06912E+00 -3.71290E+00  8.34680E-01  2.01833E-01  1.11518E+00 -2.25926E+00 -3.11395E+00
  -4.22810E+00 -1.51704E+00 -2.05156E+00 -5.15350E-01 -4.08730E-01 -1.03038E+00 -6.51662E+00 -1.05332E+00 -2.16038E+00  2.13830E+00
  -1.53831E+00 -6.86933E+00  1.61843E+00  6.21799E-01 -2.76801E+00 -2.58387E+00 -1.61158E+00  2.37637E-01 -2.27091E-01  2.64872E+00
  -1.82540E+00 -1.10008E+00 -1.18086E+00  7.21358E-01  2.28662E+00 -3.03348E+00 -2.44134E-01 -2.40146E+00 -3.55554E-01 -1.69932E+00
  -3.52697E+00 -2.34211E+00 -3.68923E+00 -4.76270E+00 -2.43679E+00 -5.54692E+00 -2.64752E+00  6.34380E-01 -1.85498E-01 -3.00086E-01
   2.32193E+00 -4.82642E-01  3.39072E-01  6.25962E-01  2.68512E+00 -6.40896E-01 -1.16802E+00  3.38405E-01 -2.69746E+00  3.16772E-01
   1.34060E-01  2.82064E+00  5.20862E+00  4.37689E+00  3.96204E+00  1.69616E+00  1.41008E+00  3.09879E+00  3.68429E+00 -1.19132E+00
   1.25742E+00 -2.21690E+00  4.91195E+00  3.64774E+00  1.84599E+00  1.04061E+00  3.46989E+00  2.11174E+00  3.97165E+00  1.06876E+00
   6.18205E-01  2.78089E+00  9.13890E+00  2.89750E+00 -3.84440E-01  4.56436E+00  4.22065E+00 -3.23740E+00 -2.56521E+00 -3.64139E-01
   4.33410E+00 -1.43977E+00 -1.23195E-01  5.89582E+00  8.27450E-01 -5.94569E-01  4.49188E+00  2.33485E+00  2.92739E-01  1.83315E+00
   3.03638E+00 -1.73666E-01  1.90100E+00 -1.56216E+00 -1.46113E+00  3.11567E+00 -2.64867E+00 -6.91596E+00  2.22857E+00 -3.31134E+00
  -1.69752E+00  1.69708E+00 -1.03933E+00  2.55324E+00 -1.25768E+00 -3.78141E-01 -2.09911E-01  4.24314E-01  3.27801E+00 -2.00444E+00
  -1.82911E+00  4.04581E+00  3.78242E+00  1.22986E+00  1.33708E+00  2.35458E+00  3.14101E+00  3.59712E+00  2.46070E+00  7.61360E+00
   7.05623E+00  4.03891E+00  4.39585E+00 -2.44838E-01  1.01719E-02  5.67716E-01  5.17521E-01  3.14985E+00  2.12042E+00 -5.60326E-01
   2.34684E+00  1.17511E+00 -2.51841E+00  1.42485E+00  4.37513E+00  1.24958E+00  1.08344E+00  3.80145E+00  1.94053E+00  4.28580E+00
   2.14076E+00  2.54471E+00  5.72819E+00 -6.04173E-01  4.50199E+00  1.33902E+00 -5.27011E-01  4.85446E+00  3.66747E-01  3.73221E+00
   3.86501E+00  7.85689E-01  2.70001E-01 -3.58189E+00  3.51559E+00  8.33149E-01 -1.18570E+00  1.86699E+00 -1.44579E+00 -2.27968E+00
   2.21612E+00 -1.16391E+00  6.94151E-01  4.49546E+00  5.59841E+00  7.48499E-01  4.99110E+00  1.60864E+00  9.80609E-01  1.26156E+00
   8.22876E-02 -1.78242E+00  7.86775E-01 -4.91102E-01  1.07737E+00 -2.37694E-01  6.05104E-01 -1.83011E+00 -2.91584E-01 -7.65440E-01
  -5.70955E-01  3.18056E+00 -1.41185E+00  1.22265E+00 -3.86490E+00  9.83710E+00  1.86731E+00  1.73034E-01 -1.25465E+00  1.41174E+00
   3.48424E+00  1.01944E+00 -2.07069E-01 -5.77926E-01 -3.48799E-01  2.63215E+00  4.66079E-01  1.73790E+00  3.96249E+00 -4.66725E-01
  -5.39121E-01 -3.65948E-01  1.83498E+00  1.44730E+00 -2.18527E+00 -9.86079E-01  3.85097E+00  1.73529E-01
 NY points of the fit to the data follow
  -1.84327E+01 -1.80179E+01 -1.66808E+01 -1.50757E+01 -1.40279E+01 -1.34898E+01 -1.31803E+01 -1.31515E+01 -1.32181E+01 -1.32583E+01
  -1.36284E+01 -1.42061E+01 -1.49283E+01 -1.60472E+01 -1.69583E+01 -1.72640E+01 -1.73507E+01 -1.74049E+01 -1.74712E+01 -1.79223E+01
  -1.82516E+01 -1.79331E+01 -1.78239E+01 -1.78363E+01 -1.77666E+01 -1.74678E+01 -1.70481E+01 -1.65169E+01 -1.59115E+01 -1.53702E+01
  -1.49886E+01 -1.46709E+01 -1.44197E+01 -1.43061E+01 -1.43843E+01 -1.45259E+01 -1.47388E+01 -1.49638E+01 -1.51086E+01 -1.50840E+01
  -1.49884E+01 -1.47646E+01 -1.43178E+01 -1.37989E+01 -1.32974E+01 -1.29081E+01 -1.27273E+01 -1.26878E+01 -1.27481E+01 -1.29041E+01
  -1.31462E+01 -1.34644E+01 -1.39115E+01 -1.44199E+01 -1.48126E+01 -1.50300E+01 -1.51423E+01 -1.51625E+01 -1.51955E+01 -1.52433E+01
  -1.52737E+01 -1.52457E+01 -1.51611E+01 -1.50724E+01 -1.50554E+01 -1.50387E+01 -1.49554E+01 -1.48757E+01 -1.47926E+01 -1.46271E+01
  -1.44199E+01 -1.42476E+01 -1.41093E+01 -1.40333E+01 -1.40487E+01 -1.40533E+01 -1.38183E+01 -1.35207E+01 -1.33865E+01 -1.31315E+01
  -1.26035E+01 -1.18669E+01 -1.11357E+01 -1.05802E+01 -1.02065E+01 -9.97156E+00 -9.86868E+00 -9.92354E+00 -1.01407E+01 -1.04477E+01
  -1.08568E+01 -1.08470E+01 -9.53284E+00 -8.30397E+00 -7.08959E+00 -4.52324E+00 -3.12614E-01  4.29797E+00  8.32915E+00  1.16183E+01
   1.38879E+01  1.51133E+01  1.56340E+01  1.52386E+01  1.37700E+01  1.15003E+01  8.09248E+00  3.85625E+00 -3.35248E-02 -3.08670E+00
  -5.46202E+00 -7.20180E+00 -8.81764E+00 -1.06803E+01 -1.15703E+01 -1.15754E+01 -1.03540E+01 -8.26753E+00 -6.78050E+00 -4.85242E+00
  -1.22618E+00  3.78347E+00  8.76797E+00  1.28583E+01  1.59175E+01  1.78236E+01  1.88056E+01  1.90695E+01  1.82644E+01  1.64374E+01
   1.36012E+01  9.49029E+00  4.96187E+00  1.12858E+00 -1.81370E+00 -4.01932E+00 -5.71097E+00 -7.57846E+00 -9.26154E+00 -9.83433E+00
  -1.00081E+01 -1.00761E+01 -1.00986E+01 -1.01044E+01 -1.01318E+01 -1.01784E+01 -1.02238E+01 -1.02741E+01 -1.03219E+01 -1.03563E+01
  -1.03996E+01 -1.05017E+01 -1.06216E+01 -1.06857E+01 -1.07349E+01 -1.08134E+01 -1.09829E+01 -1.12151E+01 -1.13681E+01 -1.13967E+01
  -1.13752E+01 -1.14060E+01 -1.15145E+01 -1.16640E+01 -1.18495E+01 -1.20378E+01 -1.22322E+01 -1.24809E+01 -1.27159E+01 -1.30319E+01
  -1.35080E+01 -1.40360E+01 -1.43865E+01 -1.45014E+01 -1.45499E+01 -1.46285E+01 -1.47674E+01 -1.48755E+01 -1.48133E+01 -1.45721E+01
  -1.42927E+01 -1.40164E+01 -1.37262E+01 -1.33754E+01 -1.29331E+01 -1.23587E+01 -1.16755E+01 -1.09213E+01 -1.02699E+01 -9.78784E+00
  -9.33141E+00 -8.81528E+00 -8.26839E+00 -7.83909E+00 -7.50333E+00 -7.15763E+00 -6.80956E+00 -6.40032E+00 -5.88798E+00 -5.42030E+00
  -5.19755E+00 -5.02842E+00 -5.05975E+00 -5.52908E+00 -6.26899E+00 -6.98892E+00 -7.60499E+00 -8.15217E+00 -8.74004E+00 -9.06742E+00
  -8.98096E+00 -8.53375E+00 -7.95082E+00 -7.38950E+00 -6.73791E+00 -6.12680E+00 -5.86107E+00 -5.90725E+00 -6.06048E+00 -6.19572E+00
  -6.29649E+00 -6.37717E+00 -6.48676E+00 -6.39701E+00 -6.03885E+00 -5.60427E+00 -5.17815E+00 -4.61567E+00 -3.97323E+00 -3.40790E+00
  -3.03534E+00 -2.72153E+00 -2.44303E+00 -2.14016E+00 -1.70964E+00 -1.29280E+00 -1.03531E+00 -8.99277E-01 -8.36165E-01 -7.97166E-01
  -6.98475E-01 -5.66249E-01 -4.67992E-01 -3.69050E-01 -2.33901E-01 -2.08175E-02  3.85678E-01  1.01728E+00  1.80580E+00  3.02233E+00
   5.98052E+00  1.08154E+01  1.45056E+01  1.84284E+01  2.50954E+01  3.43236E+01  4.36124E+01  5.11029E+01  5.64488E+01  5.94685E+01
   6.04770E+01  6.00386E+01  5.77036E+01  5.34524E+01  4.75172E+01  3.93464E+01  3.01895E+01  2.22320E+01  1.60894E+01  1.14574E+01
   7.95588E+00  4.40548E+00  9.04199E-01 -5.51395E-01 -1.06550E+00 -1.36765E+00 -1.58861E+00 -1.74544E+00 -1.89585E+00 -2.04501E+00
  -2.17920E+00 -2.29442E+00 -2.39048E+00 -2.45456E+00 -2.49425E+00 -2.51415E+00 -2.50752E+00 -2.47423E+00 -2.42127E+00 -2.35035E+00
  -2.26779E+00 -2.17635E+00 -2.07481E+00 -1.96776E+00 -1.85924E+00 -1.74877E+00 -1.64016E+00 -1.53587E+00 -1.43712E+00 -1.34456E+00
  -1.26227E+00 -1.19214E+00 -1.13604E+00 -1.09462E+00 -1.06893E+00 -1.05712E+00 -1.05981E+00 -1.07485E+00 -1.10123E+00 -1.13549E+00
  -1.17533E+00 -1.21720E+00 -1.25901E+00 -1.29711E+00 -1.32992E+00 -1.35429E+00 -1.36880E+00 -1.37110E+00 -1.36093E+00 -1.33686E+00
  -1.29937E+00 -1.24758E+00 -1.18255E+00 -1.10414E+00 -1.01409E+00 -9.12700E-01 -8.01795E-01 -6.81627E-01 -5.54004E-01 -4.19140E-01
  -2.78561E-01 -1.31714E-01  2.12875E-02  1.83048E-01  3.56694E-01  5.51360E-01  7.87834E-01  1.10959E+00  1.40934E+00  1.59098E+00
   1.83079E+00  2.15836E+00  2.41369E+00  2.43848E+00  2.23635E+00  2.01053E+00  1.77567E+00  1.43811E+00  1.09799E+00  8.95149E-01
   9.06936E-01  1.05227E+00  1.25087E+00  1.56746E+00  1.99627E+00  2.46404E+00  2.90868E+00  3.24098E+00  3.41511E+00  3.48538E+00
   3.42698E+00  3.17769E+00  2.85151E+00  2.51812E+00  2.21383E+00  1.94703E+00  1.62805E+00  1.30882E+00  1.08104E+00  9.07232E-01
   7.64921E-01  6.45652E-01  5.43922E-01  4.57616E-01  3.84479E-01  3.24368E-01  2.76320E-01  2.41014E-01  2.17970E-01  2.08115E-01
   2.11124E-01  2.28046E-01  2.58671E-01  3.04098E-01  3.64088E-01  4.39664E-01  5.30530E-01  6.37647E-01  7.60610E-01  9.00126E-01
   1.05539E+00  1.22658E+00  1.41234E+00  1.61217E+00  1.82392E+00  2.04613E+00  2.27558E+00  2.50976E+00  2.74449E+00  2.97641E+00
   3.20057E+00  3.41303E+00  3.60854E+00  3.78323E+00  3.93234E+00  4.05282E+00  4.14107E+00  4.19546E+00  4.21410E+00  4.19730E+00
   4.14521E+00  4.06018E+00  3.94419E+00  3.80117E+00  3.63448E+00  3.44913E+00  3.24919E+00  3.03991E+00  2.82520E+00  2.60985E+00
   2.39708E+00  2.19079E+00  1.99317E+00  1.80694E+00  1.63306E+00  1.47313E+00  1.32713E+00  1.19579E+00  1.07833E+00  9.74793E-01
   8.83884E-01  8.05313E-01  7.37609E-01  6.80400E-01  6.32156E-01  5.92477E-01  5.59891E-01  5.34141E-01  5.13943E-01  4.99190E-01
   4.88704E-01  4.82467E-01  4.79437E-01  4.79765E-01  4.82563E-01  4.88064E-01  4.95422E-01  5.04913E-01  5.15785E-01  5.28424E-01
   5.42150E-01  5.57355E-01  5.73351E-01  5.90552E-01  6.08344E-01  6.27207E-01  6.46545E-01  6.66804E-01  6.87372E-01  7.08725E-01
   7.30314E-01  7.52648E-01  7.75162E-01  7.98320E-01  8.21553E-01  8.45367E-01  8.69246E-01  8.93702E-01  9.18181E-01  9.43156E-01
   9.68092E-01  9.93509E-01  1.01891E+00  1.04479E+00  1.07061E+00  1.09685E+00  1.12301E+00  1.14960E+00  1.17613E+00  1.20310E+00
   1.22996E+00  1.25721E+00  1.28437E+00  1.31196E+00  1.33948E+00  1.36741E+00  1.39525E+00  1.42348E+00  1.45165E+00  1.48028E+00
   1.50887E+00  1.53790E+00  1.56689E+00  1.59634E+00  1.62583E+00  1.65587E+00  1.68597E+00  1.71665E+00
 NY background values follow
    -2.197E+01   -2.190E+01   -2.183E+01   -2.176E+01   -2.169E+01   -2.162E+01   -2.155E+01   -2.148E+01   -2.141E+01   -2.134E+01
    -2.127E+01   -2.120E+01   -2.114E+01   -2.107E+01   -2.100E+01   -2.093E+01   -2.086E+01   -2.079E+01   -2.072E+01   -2.065E+01
    -2.058E+01   -2.051E+01   -2.044E+01   -2.037E+01   -2.030E+01   -2.023E+01   -2.016E+01   -2.009E+01   -2.002E+01   -1.995E+01
    -1.989E+01   -1.982E+01   -1.975E+01   -1.968E+01   -1.961E+01   -1.954E+01   -1.947E+01   -1.940E+01   -1.933E+01   -1.926E+01
    -1.919E+01   -1.912E+01   -1.905E+01   -1.898E+01   -1.891E+01   -1.884E+01   -1.878E+01   -1.871E+01   -1.864E+01   -1.857E+01
    -1.850E+01   -1.843E+01   -1.836E+01   -1.829E+01   -1.822E+01   -1.815E+01   -1.808E+01   -1.802E+01   -1.795E+01   -1.788E+01
    -1.781E+01   -1.774E+01   -1.767E+01   -1.760E+01   -1.753E+01   -1.747E+01   -1.740E+01   -1.733E+01   -1.726E+01   -1.719E+01
    -1.712E+01   -1.705E+01   -1.699E+01   -1.692E+01   -1.685E+01   -1.678E+01   -1.671E+01   -1.665E+01   -1.658E+01   -1.651E+01
    -1.644E+01   -1.637E+01   -1.631E+01   -1.624E+01   -1.617E+01   -1.610E+01   -1.604E+01   -1.597E+01   -1.590E+01   -1.583E+01
    -1.577E+01   -1.570E+01   -1.563E+01   -1.557E+01   -1.550E+01   -1.543E+01   -1.537E+01   -1.530E+01   -1.523E+01   -1.517E+01
    -1.510E+01   -1.504E+01   -1.497E+01   -1.490E+01   -1.484E+01   -1.477E+01   -1.471E+01   -1.464E+01   -1.457E+01   -1.451E+01
    -1.444E+01   -1.438E+01   -1.431E+01   -1.425E+01   -1.418E+01   -1.412E+01   -1.405E+01   -1.399E+01   -1.392E+01   -1.386E+01
    -1.379E+01   -1.373E+01   -1.367E+01   -1.360E+01   -1.354E+01   -1.347E+01   -1.341E+01   -1.335E+01   -1.328E+01   -1.322E+01
    -1.316E+01   -1.309E+01   -1.303E+01   -1.297E+01   -1.290E+01   -1.284E+01   -1.278E+01   -1.271E+01   -1.265E+01   -1.259E+01
    -1.253E+01   -1.247E+01   -1.240E+01   -1.234E+01   -1.228E+01   -1.222E+01   -1.216E+01   -1.209E+01   -1.203E+01   -1.197E+01
    -1.191E+01   -1.185E+01   -1.179E+01   -1.173E+01   -1.167E+01   -1.161E+01   -1.154E+01   -1.148E+01   -1.142E+01   -1.136E+01
    -1.130E+01   -1.124E+01   -1.118E+01   -1.112E+01   -1.106E+01   -1.100E+01   -1.094E+01   -1.089E+01   -1.083E+01   -1.077E+01
    -1.071E+01   -1.065E+01   -1.059E+01   -1.053E+01   -1.047E+01   -1.041E+01   -1.035E+01   -1.030E+01   -1.024E+01   -1.018E+01
    -1.012E+01   -1.006E+01   -1.001E+01   -9.947E+00   -9.890E+00   -9.832E+00   -9.774E+00   -9.717E+00   -9.660E+00   -9.603E+00
    -9.546E+00   -9.489E+00   -9.432E+00   -9.375E+00   -9.318E+00   -9.262E+00   -9.206E+00   -9.149E+00   -9.093E+00   -9.037E+00
    -8.982E+00   -8.926E+00   -8.870E+00   -8.815E+00   -8.760E+00   -8.705E+00   -8.650E+00   -8.595E+00   -8.540E+00   -8.485E+00
    -8.431E+00   -8.377E+00   -8.323E+00   -8.269E+00   -8.215E+00   -8.162E+00   -8.108E+00   -8.055E+00   -8.002E+00   -7.949E+00
    -7.896E+00   -7.844E+00   -7.791E+00   -7.739E+00   -7.687E+00   -7.635E+00   -7.583E+00   -7.532E+00   -7.481E+00   -7.429E+00
    -7.378E+00   -7.328E+00   -7.277E+00   -7.227E+00   -7.176E+00   -7.126E+00   -7.077E+00   -7.027E+00   -6.977E+00   -6.928E+00
    -6.879E+00   -6.830E+00   -6.781E+00   -6.733E+00   -6.684E+00   -6.636E+00   -6.588E+00   -6.540E+00   -6.493E+00   -6.445E+00
    -6.398E+00   -6.351E+00   -6.304E+00   -6.257E+00   -6.210E+00   -6.164E+00   -6.118E+00   -6.072E+00   -6.026E+00   -5.980E+00
    -5.935E+00   -5.889E+00   -5.844E+00   -5.799E+00   -5.755E+00   -5.710E+00   -5.666E+00   -5.621E+00   -5.577E+00   -5.534E+00
    -5.490E+00   -5.446E+00   -5.403E+00   -5.360E+00   -5.317E+00   -5.274E+00   -5.232E+00   -5.189E+00   -5.147E+00   -5.105E+00
    -5.063E+00   -5.021E+00   -4.980E+00   -4.938E+00   -4.897E+00   -4.856E+00   -4.815E+00   -4.774E+00   -4.733E+00   -4.693E+00
    -4.653E+00   -4.613E+00   -4.573E+00   -4.533E+00   -4.493E+00   -4.454E+00   -4.414E+00   -4.375E+00   -4.336E+00   -4.297E+00
    -4.258E+00   -4.220E+00   -4.181E+00   -4.143E+00   -4.104E+00   -4.066E+00   -4.028E+00   -3.991E+00   -3.953E+00   -3.915E+00
    -3.878E+00   -3.841E+00   -3.804E+00   -3.767E+00   -3.730E+00   -3.693E+00   -3.656E+00   -3.620E+00   -3.583E+00   -3.547E+00
    -3.511E+00   -3.475E+00   -3.439E+00   -3.403E+00   -3.368E+00   -3.332E+00   -3.297E+00   -3.261E+00   -3.226E+00   -3.191E+00
    -3.156E+00   -3.121E+00   -3.086E+00   -3.051E+00   -3.017E+00   -2.982E+00   -2.948E+00   -2.914E+00   -2.879E+00   -2.845E+00
    -2.811E+00   -2.777E+00   -2.744E+00   -2.710E+00   -2.676E+00   -2.643E+00   -2.609E+00   -2.576E+00   -2.542E+00   -2.509E+00
    -2.476E+00   -2.443E+00   -2.410E+00   -2.377E+00   -2.344E+00   -2.312E+00   -2.279E+00   -2.246E+00   -2.214E+00   -2.181E+00
    -2.149E+00   -2.117E+00   -2.084E+00   -2.052E+00   -2.020E+00   -1.988E+00   -1.956E+00   -1.924E+00   -1.892E+00   -1.861E+00
    -1.829E+00   -1.797E+00   -1.766E+00   -1.734E+00   -1.702E+00   -1.671E+00   -1.640E+00   -1.608E+00   -1.577E+00   -1.546E+00
    -1.514E+00   -1.483E+00   -1.452E+00   -1.421E+00   -1.390E+00   -1.359E+00   -1.328E+00   -1.297E+00   -1.267E+00   -1.236E+00
    -1.205E+00   -1.174E+00   -1.144E+00   -1.113E+00   -1.082E+00   -1.052E+00   -1.021E+00   -9.906E-01   -9.601E-01   -9.296E-01
    -8.992E-01   -8.688E-01   -8.384E-01   -8.080E-01   -7.777E-01   -7.474E-01   -7.171E-01   -6.869E-01   -6.566E-01   -6.264E-01
    -5.962E-01   -5.660E-01   -5.359E-01   -5.057E-01   -4.756E-01   -4.455E-01   -4.154E-01   -3.854E-01   -3.554E-01   -3.254E-01
    -2.954E-01   -2.654E-01   -2.355E-01   -2.056E-01   -1.757E-01   -1.458E-01   -1.160E-01   -8.613E-02   -5.633E-02   -2.656E-02
     3.197E-03    3.293E-02    6.263E-02    9.232E-02    1.220E-01    1.516E-01    1.812E-01    2.108E-01    2.404E-01    2.699E-01
     2.994E-01    3.289E-01    3.584E-01    3.878E-01    4.172E-01    4.466E-01    4.760E-01    5.053E-01    5.346E-01    5.639E-01
     5.931E-01    6.224E-01    6.516E-01    6.808E-01    7.099E-01    7.390E-01    7.682E-01    7.972E-01    8.263E-01    8.553E-01
     8.843E-01    9.133E-01    9.423E-01    9.712E-01    1.000E+00    1.029E+00    1.058E+00    1.087E+00    1.116E+00    1.145E+00
     1.173E+00    1.202E+00    1.231E+00    1.260E+00    1.288E+00    1.317E+00    1.346E+00    1.375E+00    1.403E+00    1.432E+00
     1.461E+00    1.489E+00    1.518E+00    1.547E+00    1.575E+00    1.604E+00    1.633E+00    1.661E+00    1.690E+00    1.719E+00
     1.747E+00    1.776E+00    1.804E+00    1.833E+00    1.862E+00    1.890E+00    1.919E+00    1.947E+00
 Asp      Conc. = 4.08E+00
