 LCModel (Version 6.3-1L) Copyright: S.W. Provencher.          Ref.: Magn. Reson. Med. 30:672-679 (1993).                
 Slice#3 Row#6 Col#13  K_02_press_1_raw_act
 36 lines in following concentration table = NCONC+1
    Conc.  %SD /Cr+PCr  Metabolite                                         
    0.000 999%   0.000 Ala                                                 
   66.855 125%   0.199 Asp                                                 
    0.000 999%   0.000 Cr                                                  
  335.587  20%   1.000 PCr                                                 
   44.831 114%   0.134 GABA                                                
   51.078 100%   0.152 Glc                                                 
  212.383 342%   0.633 Gln                                                 
    0.000 999%   0.000 Glu                                                 
    0.000 999%   0.000 GPC                                                 
   86.050  35%   0.256 PCh                                                 
  121.904 105%   0.363 GSH                                                 
  482.845  77%   1.439 Ins                                                 
    0.000 999%   0.000 Lac                                                 
  919.285  14%   2.739 NAA                                                 
    0.000 999%   0.000 NAAG                                                
   25.698  63% 7.7E-02 Scyllo                                              
  114.481  72%   0.341 Tau                                                 
   57.366 114%   0.171 -CrCH2                                              
   86.050  35%   0.256 GPC+PCh                                             
  919.285  14%   2.739 NAA+NAAG                                            
  335.587  20%   1.000 Cr+PCr                                              
  212.383 687%   0.633 Glu+Gln                                             
 1.15E+05   7% 341.905 Lip13a                                              
    0.000 999%   0.000 Lip13b                                              
 2.95E+04  10%  87.952 Lip09                                               
 7.50E+03  22%  22.361 MM09                                                
 2.32E+03  26%   6.904-Lip20                                               
    0.000 999%   0.000 MM20                                                
 5.36E+03  24%  15.970 MM12                                                
 2.08E+04  23%  62.019 MM14                                                
 2.52E+04  14%  75.212+MM17                                                
 1.15E+05   7% 341.905 Lip13a+Lip13b                                       
 1.41E+05   6% 419.894 MM14+Lip13a+Lip13b+MM12                             
 3.70E+04   8% 110.312 MM09+Lip09                                          
 2.32E+03  26%   6.904 MM20+Lip20                                          
   6 lines in following misc. output table
  FWHM = 0.107 ppm    S/N =  77                                            
  Data shift = 0.061 ppm                                                   
  Ph: -80 deg     -44.9 deg/ppm                                            
  alphaB,S = 1.7E+01,   8.9E+01                                            
    6 spline knots.   Ns = 9(2)                                            
  ( 9) 4 infls.   ( 6) 1 extrs.                                            
  498 points on ppm-axis = NY
      4.000000     3.992357     3.984714     3.977070     3.969427     3.961784     3.954141     3.946497     3.938854     3.931211
      3.923568     3.915925     3.908281     3.900638     3.892995     3.885352     3.877708     3.870065     3.862422     3.854779
      3.847136     3.839492     3.831849     3.824206     3.816563     3.808919     3.801276     3.793633     3.785990     3.778347
      3.770703     3.763060     3.755417     3.747774     3.740130     3.732487     3.724844     3.717201     3.709558     3.701914
      3.694271     3.686628     3.678985     3.671341     3.663698     3.656055     3.648412     3.640769     3.633125     3.625482
      3.617839     3.610196     3.602552     3.594909     3.587266     3.579623     3.571980     3.564336     3.556693     3.549050
      3.541407     3.533763     3.526120     3.518477     3.510834     3.503191     3.495547     3.487904     3.480261     3.472618
      3.464974     3.457331     3.449688     3.442045     3.434402     3.426758     3.419115     3.411472     3.403829     3.396185
      3.388542     3.380899     3.373256     3.365613     3.357969     3.350326     3.342683     3.335040     3.327396     3.319753
      3.312110     3.304467     3.296824     3.289180     3.281537     3.273894     3.266251     3.258607     3.250964     3.243321
      3.235678     3.228034     3.220391     3.212748     3.205105     3.197462     3.189818     3.182175     3.174532     3.166889
      3.159245     3.151602     3.143959     3.136316     3.128673     3.121029     3.113386     3.105743     3.098100     3.090456
      3.082813     3.075170     3.067527     3.059884     3.052240     3.044597     3.036954     3.029311     3.021667     3.014024
      3.006381     2.998738     2.991095     2.983451     2.975808     2.968165     2.960522     2.952878     2.945235     2.937592
      2.929949     2.922306     2.914662     2.907019     2.899376     2.891733     2.884089     2.876446     2.868803     2.861160
      2.853517     2.845873     2.838230     2.830587     2.822944     2.815300     2.807657     2.800014     2.792371     2.784728
      2.777084     2.769441     2.761798     2.754155     2.746511     2.738868     2.731225     2.723582     2.715939     2.708295
      2.700652     2.693009     2.685366     2.677722     2.670079     2.662436     2.654793     2.647150     2.639506     2.631863
      2.624220     2.616577     2.608933     2.601290     2.593647     2.586004     2.578361     2.570717     2.563074     2.555431
      2.547788     2.540144     2.532501     2.524858     2.517215     2.509572     2.501928     2.494285     2.486642     2.478999
      2.471355     2.463712     2.456069     2.448426     2.440783     2.433139     2.425496     2.417853     2.410210     2.402566
      2.394923     2.387280     2.379637     2.371994     2.364350     2.356707     2.349064     2.341421     2.333777     2.326134
      2.318491     2.310848     2.303205     2.295561     2.287918     2.280275     2.272632     2.264988     2.257345     2.249702
      2.242059     2.234416     2.226772     2.219129     2.211486     2.203843     2.196199     2.188556     2.180913     2.173270
      2.165627     2.157983     2.150340     2.142697     2.135054     2.127410     2.119767     2.112124     2.104481     2.096838
      2.089194     2.081551     2.073908     2.066265     2.058621     2.050978     2.043335     2.035692     2.028049     2.020405
      2.012762     2.005119     1.997476     1.989833     1.982190     1.974546     1.966903     1.959260     1.951617     1.943974
      1.936331     1.928688     1.921045     1.913402     1.905759     1.898115     1.890472     1.882829     1.875186     1.867543
      1.859900     1.852257     1.844614     1.836971     1.829327     1.821684     1.814041     1.806398     1.798755     1.791112
      1.783469     1.775826     1.768183     1.760540     1.752896     1.745253     1.737610     1.729967     1.722324     1.714681
      1.707038     1.699395     1.691752     1.684108     1.676465     1.668822     1.661179     1.653536     1.645893     1.638250
      1.630607     1.622964     1.615321     1.607677     1.600034     1.592391     1.584748     1.577105     1.569462     1.561819
      1.554176     1.546533     1.538890     1.531246     1.523603     1.515960     1.508317     1.500674     1.493031     1.485388
      1.477745     1.470102     1.462458     1.454815     1.447172     1.439529     1.431886     1.424243     1.416600     1.408957
      1.401314     1.393671     1.386027     1.378384     1.370741     1.363098     1.355455     1.347812     1.340169     1.332526
      1.324883     1.317240     1.309596     1.301953     1.294310     1.286667     1.279024     1.271381     1.263738     1.256095
      1.248452     1.240808     1.233165     1.225522     1.217879     1.210236     1.202593     1.194950     1.187307     1.179664
      1.172021     1.164377     1.156734     1.149091     1.141448     1.133805     1.126162     1.118519     1.110876     1.103233
      1.095590     1.087946     1.080303     1.072660     1.065017     1.057374     1.049731     1.042088     1.034445     1.026802
      1.019158     1.011515     1.003872     0.996229     0.988586     0.980943     0.973300     0.965657     0.958014     0.950371
      0.942727     0.935084     0.927441     0.919798     0.912155     0.904512     0.896869     0.889226     0.881583     0.873940
      0.866296     0.858653     0.851010     0.843367     0.835724     0.828081     0.820438     0.812795     0.805152     0.797508
      0.789865     0.782222     0.774579     0.766936     0.759293     0.751650     0.744007     0.736364     0.728721     0.721077
      0.713434     0.705791     0.698148     0.690505     0.682862     0.675219     0.667576     0.659933     0.652290     0.644646
      0.637003     0.629360     0.621717     0.614074     0.606431     0.598788     0.591145     0.583502     0.575858     0.568215
      0.560572     0.552929     0.545286     0.537643     0.530000     0.522357     0.514714     0.507071     0.499427     0.491784
      0.484141     0.476498     0.468855     0.461212     0.453569     0.445925     0.438282     0.430639     0.422996     0.415353
      0.407710     0.400067     0.392424     0.384780     0.377137     0.369494     0.361851     0.354208     0.346565     0.338922
      0.331278     0.323635     0.315992     0.308349     0.300706     0.293063     0.285420     0.277777     0.270133     0.262490
      0.254847     0.247204     0.239561     0.231918     0.224275     0.216631     0.208988     0.201345
 NY phased data points follow
   4.05088E+01  4.22237E+01  4.20099E+01  4.14942E+01  4.03232E+01  4.27945E+01  4.15370E+01  4.25737E+01  4.13230E+01  3.98983E+01
   4.27186E+01  3.99579E+01  3.91675E+01  4.19188E+01  4.43036E+01  4.38964E+01  3.99383E+01  4.06769E+01  4.17625E+01  4.24696E+01
   4.47946E+01  4.44707E+01  4.53488E+01  4.18552E+01  4.41189E+01  4.41267E+01  4.45326E+01  4.34386E+01  4.37999E+01  4.56212E+01
   4.50901E+01  4.53634E+01  4.58498E+01  4.41442E+01  4.45047E+01  4.41801E+01  4.76545E+01  4.70557E+01  4.56136E+01  4.71380E+01
   4.60200E+01  4.29073E+01  4.66042E+01  4.82723E+01  4.44750E+01  4.87641E+01  4.47045E+01  4.52091E+01  4.66339E+01  4.73851E+01
   4.55179E+01  4.80937E+01  4.61137E+01  4.88841E+01  4.55750E+01  4.89509E+01  4.46346E+01  4.85967E+01  4.77135E+01  4.60092E+01
   5.07025E+01  5.01456E+01  4.70839E+01  4.70960E+01  4.79198E+01  4.66462E+01  4.87897E+01  4.78642E+01  4.93312E+01  4.85959E+01
   4.94954E+01  5.01947E+01  4.80366E+01  5.05629E+01  4.88014E+01  5.04683E+01  4.73098E+01  4.82308E+01  4.92885E+01  5.04041E+01
   4.88849E+01  5.05600E+01  4.94028E+01  5.29821E+01  4.94207E+01  4.92744E+01  4.87978E+01  4.84544E+01  4.83256E+01  4.98985E+01
   5.15715E+01  4.98325E+01  5.29224E+01  5.02339E+01  5.11933E+01  5.13568E+01  5.10242E+01  5.12698E+01  5.37398E+01  5.22618E+01
   5.13261E+01  5.29641E+01  5.28225E+01  5.32598E+01  5.20925E+01  4.93681E+01  4.88658E+01  5.13130E+01  5.35893E+01  5.12113E+01
   5.27080E+01  5.20866E+01  4.98532E+01  5.28648E+01  5.29693E+01  5.41183E+01  5.49746E+01  5.61369E+01  5.32446E+01  5.32407E+01
   5.27474E+01  5.37742E+01  5.44406E+01  5.58389E+01  5.36429E+01  5.44049E+01  5.48391E+01  5.62610E+01  5.34638E+01  5.27061E+01
   5.47202E+01  5.41543E+01  5.29420E+01  5.54950E+01  5.41938E+01  5.28970E+01  5.37724E+01  5.44355E+01  5.36737E+01  5.22388E+01
   5.48084E+01  5.60540E+01  5.46829E+01  5.49507E+01  5.43809E+01  5.43501E+01  5.62737E+01  5.29529E+01  5.38419E+01  5.45350E+01
   5.53213E+01  5.16240E+01  5.29654E+01  5.41172E+01  5.21260E+01  5.55687E+01  5.37918E+01  5.14091E+01  5.51876E+01  5.43347E+01
   5.27091E+01  5.14284E+01  5.31094E+01  5.20425E+01  5.26851E+01  5.28374E+01  5.46641E+01  5.31953E+01  5.22544E+01  5.32438E+01
   5.25781E+01  5.09257E+01  5.35691E+01  5.26147E+01  5.33733E+01  5.19701E+01  5.33489E+01  5.15854E+01  5.50783E+01  5.10586E+01
   5.27464E+01  5.43530E+01  5.41307E+01  5.15531E+01  5.30470E+01  5.42160E+01  5.38011E+01  5.17370E+01  5.21155E+01  5.50329E+01
   5.52448E+01  5.43308E+01  5.75486E+01  5.43128E+01  5.60749E+01  5.21357E+01  5.70182E+01  5.36760E+01  5.38052E+01  5.76759E+01
   5.62142E+01  5.70209E+01  5.92120E+01  5.58634E+01  5.85064E+01  6.01921E+01  6.17446E+01  5.89421E+01  5.80905E+01  5.79921E+01
   5.75529E+01  5.98358E+01  5.83930E+01  6.12759E+01  6.01387E+01  6.14880E+01  6.09118E+01  6.08149E+01  6.36868E+01  6.28746E+01
   6.26556E+01  6.44584E+01  6.54843E+01  6.44683E+01  6.61344E+01  6.52604E+01  6.61832E+01  6.65006E+01  6.93359E+01  6.89230E+01
   6.94666E+01  6.72037E+01  6.75840E+01  6.89472E+01  6.75090E+01  6.81789E+01  6.87245E+01  6.91797E+01  7.06587E+01  7.11524E+01
   7.31168E+01  7.21508E+01  7.25152E+01  7.51998E+01  7.52216E+01  7.90951E+01  7.99864E+01  7.99081E+01  8.31203E+01  8.57932E+01
   9.48942E+01  9.56805E+01  9.47936E+01  9.35487E+01  9.35990E+01  9.18117E+01  9.34527E+01  9.01704E+01  9.01153E+01  9.01097E+01
   8.99040E+01  8.58645E+01  8.64250E+01  8.84473E+01  8.78421E+01  9.03175E+01  8.57507E+01  8.69252E+01  8.87139E+01  8.87539E+01
   8.76178E+01  8.82712E+01  8.94096E+01  8.68990E+01  8.73278E+01  8.98809E+01  8.87146E+01  8.85375E+01  9.30287E+01  9.35866E+01
   9.25603E+01  9.41033E+01  9.54766E+01  9.63422E+01  9.85394E+01  9.91539E+01  9.97241E+01  1.02587E+02  1.03420E+02  1.07413E+02
   1.09914E+02  1.10070E+02  1.12260E+02  1.17339E+02  1.19246E+02  1.20623E+02  1.23130E+02  1.26979E+02  1.30471E+02  1.32691E+02
   1.36845E+02  1.43818E+02  1.47882E+02  1.52103E+02  1.56175E+02  1.64457E+02  1.66866E+02  1.73490E+02  1.81121E+02  1.87917E+02
   1.93258E+02  1.97093E+02  2.07254E+02  2.16053E+02  2.22322E+02  2.30326E+02  2.40176E+02  2.51340E+02  2.60025E+02  2.70392E+02
   2.82083E+02  2.92130E+02  3.04531E+02  3.16378E+02  3.26770E+02  3.38001E+02  3.48899E+02  3.58485E+02  3.68706E+02  3.80637E+02
   3.90449E+02  3.99989E+02  4.07883E+02  4.18171E+02  4.26557E+02  4.40649E+02  4.50230E+02  4.63197E+02  4.74442E+02  4.83738E+02
   4.95450E+02  5.00315E+02  5.09659E+02  5.13612E+02  5.16174E+02  5.17280E+02  5.17613E+02  5.14902E+02  5.10952E+02  5.05102E+02
   4.95729E+02  4.86815E+02  4.80749E+02  4.68505E+02  4.57211E+02  4.45744E+02  4.34590E+02  4.25921E+02  4.13554E+02  4.06259E+02
   3.93930E+02  3.86138E+02  3.81665E+02  3.72059E+02  3.66151E+02  3.57449E+02  3.51544E+02  3.44866E+02  3.39283E+02  3.32227E+02
   3.27413E+02  3.21988E+02  3.14762E+02  3.13951E+02  3.07870E+02  3.06105E+02  3.01741E+02  2.94079E+02  2.91918E+02  2.89032E+02
   2.83878E+02  2.78579E+02  2.74209E+02  2.72088E+02  2.67967E+02  2.64841E+02  2.59815E+02  2.54416E+02  2.47693E+02  2.47378E+02
   2.42600E+02  2.40695E+02  2.35922E+02  2.31268E+02  2.27641E+02  2.27937E+02  2.24162E+02  2.19532E+02  2.17487E+02  2.14259E+02
   2.10669E+02  2.09014E+02  2.06441E+02  2.04152E+02  1.99488E+02  1.98080E+02  1.96656E+02  1.91407E+02  1.92352E+02  1.87758E+02
   1.83856E+02  1.82891E+02  1.81455E+02  1.79300E+02  1.77250E+02  1.73813E+02  1.72605E+02  1.71424E+02  1.66375E+02  1.66511E+02
   1.64492E+02  1.61766E+02  1.59742E+02  1.59516E+02  1.56109E+02  1.56300E+02  1.53058E+02  1.53293E+02  1.50291E+02  1.48492E+02
   1.44077E+02  1.44198E+02  1.45017E+02  1.42770E+02  1.41760E+02  1.38946E+02  1.38355E+02  1.36860E+02  1.34851E+02  1.31338E+02
   1.32947E+02  1.31234E+02  1.31224E+02  1.30031E+02  1.28415E+02  1.25774E+02  1.26978E+02  1.25259E+02  1.21676E+02  1.20384E+02
   1.19216E+02  1.19568E+02  1.19175E+02  1.17160E+02  1.14701E+02  1.15011E+02  1.13465E+02  1.12536E+02  1.11124E+02  1.10543E+02
   1.10640E+02  1.10168E+02  1.06344E+02  1.07177E+02  1.06385E+02  1.03393E+02  1.01892E+02  1.04714E+02  1.02482E+02  1.03076E+02
   1.04250E+02  1.00705E+02  1.00306E+02  9.97314E+01  9.85423E+01  9.96568E+01  9.75403E+01  9.69921E+01  9.41672E+01  9.53102E+01
   9.40338E+01  9.47057E+01  9.27626E+01  9.26218E+01  9.30004E+01  8.84902E+01  9.06744E+01  8.89526E+01  8.71867E+01  8.77041E+01
   8.65755E+01  8.51660E+01  8.21165E+01  8.43196E+01  8.51698E+01  8.31416E+01  8.41696E+01  8.25794E+01
 NY points of the fit to the data follow
   4.13408E+01  4.19684E+01  4.17141E+01  4.21245E+01  4.18132E+01  4.20772E+01  4.17730E+01  4.19491E+01  4.16890E+01  4.18287E+01
   4.16467E+01  4.18454E+01  4.18238E+01  4.20957E+01  4.22169E+01  4.24748E+01  4.27312E+01  4.29511E+01  4.33400E+01  4.34947E+01
   4.39420E+01  4.39692E+01  4.43250E+01  4.42355E+01  4.44751E+01  4.43477E+01  4.45195E+01  4.44220E+01  4.45566E+01  4.45365E+01
   4.47000E+01  4.47633E+01  4.49710E+01  4.51082E+01  4.53732E+01  4.55593E+01  4.58203E+01  4.59902E+01  4.61741E+01  4.62380E+01
   4.62988E+01  4.63005E+01  4.62985E+01  4.63068E+01  4.62930E+01  4.63336E+01  4.63490E+01  4.64324E+01  4.65071E+01  4.66237E+01
   4.67340E+01  4.68533E+01  4.69486E+01  4.70341E+01  4.70993E+01  4.71815E+01  4.72364E+01  4.73524E+01  4.74116E+01  4.75411E+01
   4.76111E+01  4.77270E+01  4.78125E+01  4.79179E+01  4.80238E+01  4.81112E+01  4.82192E+01  4.82580E+01  4.83707E+01  4.83691E+01
   4.84763E+01  4.84503E+01  4.85587E+01  4.85187E+01  4.86288E+01  4.85694E+01  4.86601E+01  4.85811E+01  4.86346E+01  4.85498E+01
   4.86007E+01  4.85253E+01  4.85758E+01  4.85208E+01  4.85958E+01  4.87159E+01  4.89746E+01  4.91910E+01  4.96488E+01  4.98821E+01
   5.05706E+01  5.07237E+01  5.16308E+01  5.15335E+01  5.25324E+01  5.20097E+01  5.28690E+01  5.20484E+01  5.27132E+01  5.17910E+01
   5.22870E+01  5.13959E+01  5.17484E+01  5.09748E+01  5.12241E+01  5.06158E+01  5.08188E+01  5.04120E+01  5.07544E+01  5.07438E+01
   5.10998E+01  5.15016E+01  5.17976E+01  5.26244E+01  5.27735E+01  5.40004E+01  5.38182E+01  5.51883E+01  5.44985E+01  5.56293E+01
   5.46113E+01  5.54502E+01  5.43613E+01  5.49105E+01  5.38754E+01  5.41881E+01  5.33106E+01  5.34922E+01  5.28542E+01  5.30228E+01
   5.26357E+01  5.28471E+01  5.25922E+01  5.27545E+01  5.25965E+01  5.27268E+01  5.26376E+01  5.27362E+01  5.26905E+01  5.27415E+01
   5.27396E+01  5.27561E+01  5.28222E+01  5.28450E+01  5.29994E+01  5.30757E+01  5.32639E+01  5.33399E+01  5.35227E+01  5.35890E+01
   5.37554E+01  5.38180E+01  5.39609E+01  5.40396E+01  5.41209E+01  5.42046E+01  5.41961E+01  5.42512E+01  5.41588E+01  5.41885E+01
   5.40568E+01  5.40613E+01  5.39004E+01  5.38564E+01  5.36966E+01  5.36151E+01  5.35059E+01  5.34028E+01  5.33585E+01  5.32082E+01
   5.32346E+01  5.30590E+01  5.31751E+01  5.30242E+01  5.32252E+01  5.31102E+01  5.33809E+01  5.33144E+01  5.36443E+01  5.36318E+01
   5.39476E+01  5.39850E+01  5.42435E+01  5.43190E+01  5.44979E+01  5.46365E+01  5.47656E+01  5.49865E+01  5.50902E+01  5.53773E+01
   5.54947E+01  5.58002E+01  5.59144E+01  5.62032E+01  5.62858E+01  5.64909E+01  5.65385E+01  5.66548E+01  5.66872E+01  5.67565E+01
   5.68334E+01  5.69073E+01  5.70838E+01  5.71891E+01  5.74786E+01  5.76509E+01  5.80351E+01  5.82841E+01  5.87267E+01  5.90290E+01
   5.94965E+01  5.98303E+01  6.02925E+01  6.06322E+01  6.10645E+01  6.14079E+01  6.18150E+01  6.21552E+01  6.25369E+01  6.29080E+01
   6.32893E+01  6.36996E+01  6.40942E+01  6.45497E+01  6.49478E+01  6.54035E+01  6.57889E+01  6.62126E+01  6.65861E+01  6.69466E+01
   6.73071E+01  6.75950E+01  6.79583E+01  6.82070E+01  6.86013E+01  6.88661E+01  6.93155E+01  6.96452E+01  7.01609E+01  7.05882E+01
   7.12105E+01  7.19589E+01  7.34882E+01  7.45907E+01  7.68702E+01  7.81920E+01  8.11248E+01  8.25222E+01  8.59393E+01  8.71360E+01
   9.03003E+01  9.08842E+01  9.27312E+01  9.26310E+01  9.32807E+01  9.27560E+01  9.26761E+01  9.19696E+01  9.14851E+01  9.07757E+01
   9.01681E+01  8.95954E+01  8.91560E+01  8.88106E+01  8.87008E+01  8.85120E+01  8.84322E+01  8.83571E+01  8.83590E+01  8.84126E+01
   8.84976E+01  8.86764E+01  8.88116E+01  8.91265E+01  8.93430E+01  8.98540E+01  9.03325E+01  9.10983E+01  9.19654E+01  9.29302E+01
   9.39596E+01  9.50720E+01  9.62528E+01  9.75112E+01  9.88399E+01  1.00252E+02  1.01743E+02  1.03327E+02  1.05000E+02  1.06781E+02
   1.08665E+02  1.10673E+02  1.12805E+02  1.15082E+02  1.17508E+02  1.20105E+02  1.22881E+02  1.25860E+02  1.29055E+02  1.32492E+02
   1.36187E+02  1.40167E+02  1.44451E+02  1.49068E+02  1.54034E+02  1.59376E+02  1.65108E+02  1.71249E+02  1.77805E+02  1.84786E+02
   1.92186E+02  1.99999E+02  2.08206E+02  2.16786E+02  2.25701E+02  2.34919E+02  2.44391E+02  2.54073E+02  2.63916E+02  2.73878E+02
   2.83915E+02  2.93999E+02  3.04105E+02  3.14228E+02  3.24368E+02  3.34543E+02  3.44778E+02  3.55108E+02  3.65568E+02  3.76194E+02
   3.87008E+02  3.98022E+02  4.09219E+02  4.20562E+02  4.31976E+02  4.43358E+02  4.54567E+02  4.65437E+02  4.75774E+02  4.85370E+02
   4.94007E+02  5.01476E+02  5.07579E+02  5.12151E+02  5.15057E+02  5.16216E+02  5.15589E+02  5.13200E+02  5.09116E+02  5.03465E+02
   4.96408E+02  4.88148E+02  4.78907E+02  4.68925E+02  4.58439E+02  4.47684E+02  4.36870E+02  4.26187E+02  4.15790E+02  4.05803E+02
   3.96311E+02  3.87367E+02  3.78991E+02  3.71176E+02  3.63891E+02  3.57093E+02  3.50720E+02  3.44715E+02  3.39013E+02  3.33559E+02
   3.28301E+02  3.23200E+02  3.18225E+02  3.13358E+02  3.08586E+02  3.03908E+02  2.99325E+02  2.94845E+02  2.90471E+02  2.86210E+02
   2.82063E+02  2.78029E+02  2.74101E+02  2.70272E+02  2.66525E+02  2.62848E+02  2.59223E+02  2.55636E+02  2.52070E+02  2.48518E+02
   2.44969E+02  2.41421E+02  2.37874E+02  2.34335E+02  2.30810E+02  2.27312E+02  2.23851E+02  2.20445E+02  2.17104E+02  2.13845E+02
   2.10674E+02  2.07605E+02  2.04641E+02  2.01789E+02  1.99048E+02  1.96419E+02  1.93896E+02  1.91477E+02  1.89152E+02  1.86917E+02
   1.84759E+02  1.82674E+02  1.80649E+02  1.78678E+02  1.76751E+02  1.74863E+02  1.73004E+02  1.71171E+02  1.69357E+02  1.67560E+02
   1.65773E+02  1.63998E+02  1.62229E+02  1.60468E+02  1.58712E+02  1.56964E+02  1.55221E+02  1.53487E+02  1.51760E+02  1.50044E+02
   1.48338E+02  1.46646E+02  1.44968E+02  1.43307E+02  1.41663E+02  1.40040E+02  1.38436E+02  1.36856E+02  1.35299E+02  1.33769E+02
   1.32263E+02  1.30786E+02  1.29335E+02  1.27915E+02  1.26522E+02  1.25161E+02  1.23828E+02  1.22527E+02  1.21254E+02  1.20013E+02
   1.18801E+02  1.17620E+02  1.16467E+02  1.15345E+02  1.14250E+02  1.13185E+02  1.12147E+02  1.11137E+02  1.10152E+02  1.09194E+02
   1.08260E+02  1.07353E+02  1.06468E+02  1.05608E+02  1.04769E+02  1.03953E+02  1.03157E+02  1.02384E+02  1.01628E+02  1.00893E+02
   1.00176E+02  9.94772E+01  9.87945E+01  9.81301E+01  9.74800E+01  9.68469E+01  9.62270E+01  9.56230E+01  9.50310E+01  9.44538E+01
   9.38876E+01  9.33351E+01  9.27926E+01  9.22629E+01  9.17422E+01  9.12334E+01  9.07327E+01  9.02430E+01  8.97607E+01  8.92885E+01
   8.88229E+01  8.83668E+01  8.79165E+01  8.74749E+01  8.70385E+01  8.66103E+01  8.61866E+01  8.57705E+01
 NY background values follow
     3.558E+01    3.578E+01    3.597E+01    3.616E+01    3.635E+01    3.653E+01    3.671E+01    3.689E+01    3.707E+01    3.724E+01
     3.741E+01    3.757E+01    3.774E+01    3.790E+01    3.806E+01    3.821E+01    3.837E+01    3.852E+01    3.867E+01    3.881E+01
     3.896E+01    3.910E+01    3.923E+01    3.937E+01    3.950E+01    3.963E+01    3.976E+01    3.989E+01    4.001E+01    4.013E+01
     4.025E+01    4.037E+01    4.048E+01    4.059E+01    4.070E+01    4.081E+01    4.091E+01    4.102E+01    4.112E+01    4.122E+01
     4.131E+01    4.141E+01    4.150E+01    4.159E+01    4.168E+01    4.177E+01    4.185E+01    4.193E+01    4.201E+01    4.209E+01
     4.217E+01    4.225E+01    4.232E+01    4.239E+01    4.246E+01    4.253E+01    4.259E+01    4.266E+01    4.272E+01    4.278E+01
     4.284E+01    4.290E+01    4.296E+01    4.301E+01    4.306E+01    4.312E+01    4.317E+01    4.321E+01    4.326E+01    4.331E+01
     4.335E+01    4.340E+01    4.344E+01    4.348E+01    4.352E+01    4.355E+01    4.359E+01    4.363E+01    4.366E+01    4.369E+01
     4.372E+01    4.375E+01    4.378E+01    4.381E+01    4.384E+01    4.386E+01    4.389E+01    4.391E+01    4.394E+01    4.396E+01
     4.398E+01    4.400E+01    4.402E+01    4.404E+01    4.405E+01    4.407E+01    4.408E+01    4.410E+01    4.411E+01    4.413E+01
     4.414E+01    4.415E+01    4.416E+01    4.417E+01    4.418E+01    4.419E+01    4.420E+01    4.421E+01    4.422E+01    4.422E+01
     4.423E+01    4.424E+01    4.424E+01    4.425E+01    4.425E+01    4.426E+01    4.426E+01    4.427E+01    4.427E+01    4.427E+01
     4.428E+01    4.428E+01    4.428E+01    4.428E+01    4.428E+01    4.429E+01    4.429E+01    4.429E+01    4.429E+01    4.429E+01
     4.429E+01    4.430E+01    4.430E+01    4.430E+01    4.430E+01    4.430E+01    4.430E+01    4.431E+01    4.431E+01    4.431E+01
     4.431E+01    4.432E+01    4.432E+01    4.432E+01    4.432E+01    4.433E+01    4.433E+01    4.434E+01    4.434E+01    4.435E+01
     4.435E+01    4.436E+01    4.436E+01    4.437E+01    4.438E+01    4.439E+01    4.439E+01    4.440E+01    4.441E+01    4.442E+01
     4.443E+01    4.445E+01    4.446E+01    4.447E+01    4.449E+01    4.450E+01    4.452E+01    4.453E+01    4.455E+01    4.457E+01
     4.458E+01    4.460E+01    4.462E+01    4.464E+01    4.467E+01    4.469E+01    4.471E+01    4.474E+01    4.476E+01    4.479E+01
     4.481E+01    4.484E+01    4.487E+01    4.490E+01    4.493E+01    4.496E+01    4.499E+01    4.502E+01    4.505E+01    4.508E+01
     4.512E+01    4.515E+01    4.519E+01    4.522E+01    4.526E+01    4.530E+01    4.534E+01    4.537E+01    4.541E+01    4.545E+01
     4.550E+01    4.554E+01    4.558E+01    4.562E+01    4.567E+01    4.571E+01    4.576E+01    4.580E+01    4.585E+01    4.590E+01
     4.595E+01    4.600E+01    4.605E+01    4.610E+01    4.615E+01    4.620E+01    4.625E+01    4.630E+01    4.636E+01    4.641E+01
     4.647E+01    4.652E+01    4.658E+01    4.664E+01    4.669E+01    4.675E+01    4.681E+01    4.687E+01    4.693E+01    4.699E+01
     4.705E+01    4.712E+01    4.718E+01    4.724E+01    4.731E+01    4.737E+01    4.744E+01    4.751E+01    4.757E+01    4.764E+01
     4.771E+01    4.778E+01    4.785E+01    4.792E+01    4.799E+01    4.806E+01    4.813E+01    4.820E+01    4.827E+01    4.835E+01
     4.842E+01    4.850E+01    4.857E+01    4.865E+01    4.873E+01    4.880E+01    4.888E+01    4.896E+01    4.904E+01    4.912E+01
     4.920E+01    4.928E+01    4.936E+01    4.944E+01    4.952E+01    4.961E+01    4.969E+01    4.977E+01    4.986E+01    4.994E+01
     5.003E+01    5.012E+01    5.020E+01    5.029E+01    5.038E+01    5.047E+01    5.056E+01    5.065E+01    5.074E+01    5.083E+01
     5.092E+01    5.101E+01    5.110E+01    5.120E+01    5.129E+01    5.138E+01    5.148E+01    5.157E+01    5.167E+01    5.176E+01
     5.186E+01    5.196E+01    5.206E+01    5.215E+01    5.225E+01    5.235E+01    5.245E+01    5.255E+01    5.265E+01    5.275E+01
     5.285E+01    5.296E+01    5.306E+01    5.316E+01    5.326E+01    5.337E+01    5.347E+01    5.358E+01    5.368E+01    5.379E+01
     5.389E+01    5.400E+01    5.411E+01    5.422E+01    5.432E+01    5.443E+01    5.454E+01    5.465E+01    5.476E+01    5.487E+01
     5.498E+01    5.509E+01    5.520E+01    5.532E+01    5.543E+01    5.554E+01    5.565E+01    5.577E+01    5.588E+01    5.600E+01
     5.611E+01    5.623E+01    5.634E+01    5.646E+01    5.658E+01    5.669E+01    5.681E+01    5.693E+01    5.705E+01    5.716E+01
     5.728E+01    5.740E+01    5.752E+01    5.764E+01    5.776E+01    5.788E+01    5.800E+01    5.812E+01    5.824E+01    5.836E+01
     5.848E+01    5.860E+01    5.872E+01    5.884E+01    5.896E+01    5.908E+01    5.920E+01    5.932E+01    5.944E+01    5.956E+01
     5.968E+01    5.979E+01    5.991E+01    6.003E+01    6.015E+01    6.027E+01    6.039E+01    6.051E+01    6.062E+01    6.074E+01
     6.086E+01    6.098E+01    6.109E+01    6.121E+01    6.132E+01    6.144E+01    6.155E+01    6.167E+01    6.178E+01    6.190E+01
     6.201E+01    6.212E+01    6.223E+01    6.234E+01    6.246E+01    6.256E+01    6.267E+01    6.278E+01    6.289E+01    6.300E+01
     6.310E+01    6.321E+01    6.332E+01    6.342E+01    6.352E+01    6.363E+01    6.373E+01    6.383E+01    6.393E+01    6.403E+01
     6.413E+01    6.422E+01    6.432E+01    6.442E+01    6.451E+01    6.461E+01    6.470E+01    6.479E+01    6.488E+01    6.497E+01
     6.506E+01    6.514E+01    6.523E+01    6.532E+01    6.540E+01    6.548E+01    6.556E+01    6.564E+01    6.572E+01    6.580E+01
     6.587E+01    6.595E+01    6.602E+01    6.609E+01    6.617E+01    6.623E+01    6.630E+01    6.637E+01    6.643E+01    6.650E+01
     6.656E+01    6.662E+01    6.668E+01    6.674E+01    6.679E+01    6.685E+01    6.690E+01    6.695E+01    6.700E+01    6.705E+01
     6.709E+01    6.714E+01    6.718E+01    6.722E+01    6.726E+01    6.730E+01    6.733E+01    6.737E+01    6.740E+01    6.743E+01
     6.746E+01    6.748E+01    6.751E+01    6.753E+01    6.755E+01    6.757E+01    6.758E+01    6.760E+01    6.761E+01    6.762E+01
     6.763E+01    6.764E+01    6.764E+01    6.764E+01    6.764E+01    6.764E+01    6.763E+01    6.763E+01    6.762E+01    6.761E+01
     6.759E+01    6.758E+01    6.756E+01    6.754E+01    6.751E+01    6.749E+01    6.746E+01    6.743E+01    6.740E+01    6.736E+01
     6.732E+01    6.728E+01    6.724E+01    6.720E+01    6.715E+01    6.710E+01    6.705E+01    6.699E+01    6.693E+01    6.687E+01
     6.681E+01    6.674E+01    6.667E+01    6.660E+01    6.653E+01    6.645E+01    6.637E+01    6.629E+01
 Asp      Conc. = 6.69E+01
