 LCModel (Version 6.3-1L) Copyright: S.W. Provencher.          Ref.: Magn. Reson. Med. 30:672-679 (1993).                
 Slice#1 Row#12 Col#2  K_02_press_1_raw_act
 36 lines in following concentration table = NCONC+1
    Conc.  %SD /Cr+PCr  Metabolite                                         
   42.581 208%   0.142 Ala                                                 
   15.235 165% 5.1E-02 Asp                                                 
    0.000 999%   0.000 Cr                                                  
  300.686  10%   1.000 PCr                                                 
   10.632 143% 3.5E-02 GABA                                                
    7.527 202% 2.5E-02 Glc                                                 
    0.000 999%   0.000 Gln                                                 
  199.185 100%   0.662 Glu                                                 
   26.768  43% 8.9E-02 GPC                                                 
    0.000 999%   0.000 PCh                                                 
    0.000 999%   0.000 GSH                                                 
  445.882  33%   1.483 Ins                                                 
    0.000 999%   0.000 Lac                                                 
   59.361  52%   0.197 NAA                                                 
    0.000 999%   0.000 NAAG                                                
    2.711 183% 9.0E-03 Scyllo                                              
    2.108 999% 7.0E-03 Tau                                                 
    0.000 999%   0.000 -CrCH2                                              
   26.768  43% 8.9E-02 GPC+PCh                                             
   59.361  52%   0.197 NAA+NAAG                                            
  300.686  10%   1.000 Cr+PCr                                              
  199.185 100%   0.662 Glu+Gln                                             
   86.657 127%   0.288 Lip13a                                              
    0.000 999%   0.000 Lip13b                                              
    0.000 999%   0.000 Lip09                                               
    0.000 999%   0.000 MM09                                                
    3.964 936% 1.3E-02 Lip20                                               
    0.000 999%   0.000 MM20                                                
 1.95E-03 999% 6.5E-06 MM12                                                
 2.00E-02 999% 6.6E-05 MM14                                                
 7.90E-03 999% 2.6E-05 MM17                                                
   86.657 127%   0.288 Lip13a+Lip13b                                       
   86.679 127%   0.288 MM14+Lip13a+Lip13b+MM12                             
    0.000 999%   0.000 MM09+Lip09                                          
    3.964 936% 1.3E-02 MM20+Lip20                                          
   6 lines in following misc. output table
  FWHM = 0.092 ppm    S/N =   2                                            
  Data shift = 0.000 ppm                                                   
  Ph: 123 deg      27.9 deg/ppm                                            
  alphaB,S = 5.8E-01,   2.6E+01                                            
   14 spline knots.   Ns = 8(1)                                            
  (11) 7 infls.   (13) 3 extrs.                                            
  498 points on ppm-axis = NY
      4.000000     3.992357     3.984714     3.977070     3.969427     3.961784     3.954141     3.946497     3.938854     3.931211
      3.923568     3.915925     3.908281     3.900638     3.892995     3.885352     3.877708     3.870065     3.862422     3.854779
      3.847136     3.839492     3.831849     3.824206     3.816563     3.808919     3.801276     3.793633     3.785990     3.778347
      3.770703     3.763060     3.755417     3.747774     3.740130     3.732487     3.724844     3.717201     3.709558     3.701914
      3.694271     3.686628     3.678985     3.671341     3.663698     3.656055     3.648412     3.640769     3.633125     3.625482
      3.617839     3.610196     3.602552     3.594909     3.587266     3.579623     3.571980     3.564336     3.556693     3.549050
      3.541407     3.533763     3.526120     3.518477     3.510834     3.503191     3.495547     3.487904     3.480261     3.472618
      3.464974     3.457331     3.449688     3.442045     3.434402     3.426758     3.419115     3.411472     3.403829     3.396185
      3.388542     3.380899     3.373256     3.365613     3.357969     3.350326     3.342683     3.335040     3.327396     3.319753
      3.312110     3.304467     3.296824     3.289180     3.281537     3.273894     3.266251     3.258607     3.250964     3.243321
      3.235678     3.228034     3.220391     3.212748     3.205105     3.197462     3.189818     3.182175     3.174532     3.166889
      3.159245     3.151602     3.143959     3.136316     3.128673     3.121029     3.113386     3.105743     3.098100     3.090456
      3.082813     3.075170     3.067527     3.059884     3.052240     3.044597     3.036954     3.029311     3.021667     3.014024
      3.006381     2.998738     2.991095     2.983451     2.975808     2.968165     2.960522     2.952878     2.945235     2.937592
      2.929949     2.922306     2.914662     2.907019     2.899376     2.891733     2.884089     2.876446     2.868803     2.861160
      2.853517     2.845873     2.838230     2.830587     2.822944     2.815300     2.807657     2.800014     2.792371     2.784728
      2.777084     2.769441     2.761798     2.754155     2.746511     2.738868     2.731225     2.723582     2.715939     2.708295
      2.700652     2.693009     2.685366     2.677722     2.670079     2.662436     2.654793     2.647150     2.639506     2.631863
      2.624220     2.616577     2.608933     2.601290     2.593647     2.586004     2.578361     2.570717     2.563074     2.555431
      2.547788     2.540144     2.532501     2.524858     2.517215     2.509572     2.501928     2.494285     2.486642     2.478999
      2.471355     2.463712     2.456069     2.448426     2.440783     2.433139     2.425496     2.417853     2.410210     2.402566
      2.394923     2.387280     2.379637     2.371994     2.364350     2.356707     2.349064     2.341421     2.333777     2.326134
      2.318491     2.310848     2.303205     2.295561     2.287918     2.280275     2.272632     2.264988     2.257345     2.249702
      2.242059     2.234416     2.226772     2.219129     2.211486     2.203843     2.196199     2.188556     2.180913     2.173270
      2.165627     2.157983     2.150340     2.142697     2.135054     2.127410     2.119767     2.112124     2.104481     2.096838
      2.089194     2.081551     2.073908     2.066265     2.058621     2.050978     2.043335     2.035692     2.028049     2.020405
      2.012762     2.005119     1.997476     1.989833     1.982190     1.974546     1.966903     1.959260     1.951617     1.943974
      1.936331     1.928688     1.921045     1.913402     1.905759     1.898115     1.890472     1.882829     1.875186     1.867543
      1.859900     1.852257     1.844614     1.836971     1.829327     1.821684     1.814041     1.806398     1.798755     1.791112
      1.783469     1.775826     1.768183     1.760540     1.752896     1.745253     1.737610     1.729967     1.722324     1.714681
      1.707038     1.699395     1.691752     1.684108     1.676465     1.668822     1.661179     1.653536     1.645893     1.638250
      1.630607     1.622964     1.615321     1.607677     1.600034     1.592391     1.584748     1.577105     1.569462     1.561819
      1.554176     1.546533     1.538890     1.531246     1.523603     1.515960     1.508317     1.500674     1.493031     1.485388
      1.477745     1.470102     1.462458     1.454815     1.447172     1.439529     1.431886     1.424243     1.416600     1.408957
      1.401314     1.393671     1.386027     1.378384     1.370741     1.363098     1.355455     1.347812     1.340169     1.332526
      1.324883     1.317240     1.309596     1.301953     1.294310     1.286667     1.279024     1.271381     1.263738     1.256095
      1.248452     1.240808     1.233165     1.225522     1.217879     1.210236     1.202593     1.194950     1.187307     1.179664
      1.172021     1.164377     1.156734     1.149091     1.141448     1.133805     1.126162     1.118519     1.110876     1.103233
      1.095590     1.087946     1.080303     1.072660     1.065017     1.057374     1.049731     1.042088     1.034445     1.026802
      1.019158     1.011515     1.003872     0.996229     0.988586     0.980943     0.973300     0.965657     0.958014     0.950371
      0.942727     0.935084     0.927441     0.919798     0.912155     0.904512     0.896869     0.889226     0.881583     0.873940
      0.866296     0.858653     0.851010     0.843367     0.835724     0.828081     0.820438     0.812795     0.805152     0.797508
      0.789865     0.782222     0.774579     0.766936     0.759293     0.751650     0.744007     0.736364     0.728721     0.721077
      0.713434     0.705791     0.698148     0.690505     0.682862     0.675219     0.667576     0.659933     0.652290     0.644646
      0.637003     0.629360     0.621717     0.614074     0.606431     0.598788     0.591145     0.583502     0.575858     0.568215
      0.560572     0.552929     0.545286     0.537643     0.530000     0.522357     0.514714     0.507071     0.499427     0.491784
      0.484141     0.476498     0.468855     0.461212     0.453569     0.445925     0.438282     0.430639     0.422996     0.415353
      0.407710     0.400067     0.392424     0.384780     0.377137     0.369494     0.361851     0.354208     0.346565     0.338922
      0.331278     0.323635     0.315992     0.308349     0.300706     0.293063     0.285420     0.277777     0.270133     0.262490
      0.254847     0.247204     0.239561     0.231918     0.224275     0.216631     0.208988     0.201345
 NY phased data points follow
   7.94348E+01  7.98746E+01  7.52399E+01  7.56523E+01  7.22463E+01  7.19589E+01  7.39971E+01  7.25382E+01  7.28998E+01  7.10774E+01
   6.98585E+01  7.24696E+01  7.08605E+01  6.87417E+01  6.84041E+01  6.67381E+01  6.49769E+01  6.24136E+01  6.22931E+01  6.05466E+01
   5.72887E+01  5.86228E+01  5.78597E+01  6.00021E+01  5.91875E+01  5.88466E+01  5.73606E+01  5.51878E+01  5.74763E+01  5.48886E+01
   5.31559E+01  5.41874E+01  5.39999E+01  5.31172E+01  5.14705E+01  5.21886E+01  5.35688E+01  5.09464E+01  5.10262E+01  5.21319E+01
   5.07403E+01  5.13832E+01  5.08191E+01  5.02154E+01  4.64847E+01  5.17729E+01  4.69138E+01  4.91535E+01  4.62216E+01  5.11115E+01
   4.73670E+01  4.86272E+01  4.52530E+01  4.64993E+01  4.53091E+01  4.39940E+01  4.51174E+01  4.28580E+01  4.11031E+01  4.34575E+01
   3.85976E+01  4.14812E+01  3.87579E+01  3.85056E+01  3.83854E+01  3.91946E+01  3.97258E+01  3.81441E+01  3.90055E+01  3.56114E+01
   3.41219E+01  3.74499E+01  3.68024E+01  3.52297E+01  3.41708E+01  3.39798E+01  3.44167E+01  3.63758E+01  3.32819E+01  3.27216E+01
   3.21977E+01  3.50902E+01  3.13548E+01  3.29485E+01  3.33065E+01  3.35559E+01  3.06420E+01  2.93872E+01  3.10343E+01  3.14956E+01
   2.89249E+01  2.85291E+01  2.95729E+01  2.86031E+01  2.84267E+01  2.79132E+01  2.76719E+01  2.64402E+01  2.94998E+01  3.00870E+01
   3.06318E+01  2.68000E+01  2.77614E+01  3.05960E+01  2.98613E+01  2.80306E+01  2.70907E+01  2.81002E+01  2.64213E+01  2.37697E+01
   2.66975E+01  2.47286E+01  2.60538E+01  2.27215E+01  2.54778E+01  2.63860E+01  2.55258E+01  2.65756E+01  2.56507E+01  2.38372E+01
   2.74529E+01  2.43460E+01  2.52890E+01  2.83987E+01  2.79167E+01  2.80795E+01  2.54000E+01  2.85973E+01  3.12310E+01  2.66117E+01
   2.61949E+01  2.52652E+01  2.32309E+01  2.46948E+01  2.46807E+01  2.08376E+01  2.32471E+01  2.36332E+01  2.07101E+01  2.14817E+01
   2.14635E+01  2.42556E+01  2.25603E+01  2.12285E+01  2.07794E+01  2.22683E+01  2.08205E+01  2.08946E+01  2.04303E+01  2.10932E+01
   1.78777E+01  2.09271E+01  2.03255E+01  2.08003E+01  2.02906E+01  2.10156E+01  2.14010E+01  1.86981E+01  2.13617E+01  1.95279E+01
   1.95776E+01  1.74050E+01  1.85519E+01  1.77039E+01  1.92265E+01  1.92251E+01  1.93061E+01  1.80740E+01  1.61967E+01  1.69434E+01
   1.72362E+01  1.53133E+01  1.77451E+01  1.61803E+01  1.76911E+01  1.64667E+01  1.71003E+01  1.58204E+01  1.86524E+01  1.82468E+01
   1.72589E+01  1.71867E+01  1.76093E+01  1.55748E+01  1.73604E+01  1.79066E+01  1.61720E+01  1.69973E+01  2.01902E+01  1.77773E+01
   1.79755E+01  1.73999E+01  2.01798E+01  1.93371E+01  1.65174E+01  1.74522E+01  1.81298E+01  1.56315E+01  1.76809E+01  1.62129E+01
   1.61502E+01  1.38652E+01  1.50890E+01  1.55245E+01  1.53549E+01  1.55183E+01  1.42129E+01  1.73386E+01  1.58274E+01  1.42329E+01
   1.19772E+01  1.43180E+01  1.43255E+01  1.31192E+01  1.25476E+01  1.44072E+01  1.26174E+01  1.46092E+01  1.56140E+01  1.25229E+01
   1.36588E+01  1.01591E+01  1.24830E+01  1.13915E+01  1.08535E+01  1.12639E+01  1.04807E+01  1.16682E+01  1.23075E+01  1.35737E+01
   8.91664E+00  1.38455E+01  1.12466E+01  9.29576E+00  9.26263E+00  8.69430E+00  9.02083E+00  1.18849E+01  8.02496E+00  1.00054E+01
   1.09179E+01  1.00751E+01  1.08652E+01  8.14305E+00  6.12565E+00  8.19414E+00  6.13996E+00  8.37558E+00  4.58292E+00  6.52427E+00
   8.34482E+00  7.38862E+00  8.14986E+00  7.82887E+00  1.19953E+01  7.54607E+00  8.29218E+00  7.74242E+00  5.86446E+00  7.78689E+00
   7.73840E+00  9.95416E+00  1.10717E+01  1.01681E+01  6.31302E+00  6.11416E+00  2.90173E+00  5.85580E+00  6.19331E+00  6.16274E+00
   8.18832E+00  6.78236E+00  8.37251E+00  4.65086E+00  5.55121E+00  3.80953E+00  4.85508E+00  5.28231E+00  5.08121E+00  5.51412E+00
   3.85478E+00  5.03748E+00  1.08875E+00  4.65967E+00  2.92936E+00  3.05045E+00  4.18118E+00  3.16394E+00  2.96909E+00  1.98848E+00
   1.87619E+00  5.62639E+00  6.37169E+00  3.65473E+00  2.34269E+00  4.27596E+00  1.34767E+00  4.60827E+00  2.09195E+00  1.86661E+00
   3.97945E+00  3.38061E+00  3.32538E+00  3.48624E+00  5.73422E+00  5.21253E+00  2.38804E+00  4.27165E+00  1.49530E+00  4.60213E+00
   3.89497E+00  1.71429E+00  3.95111E-01  3.44368E+00  1.65427E+00  4.21151E+00  2.70178E+00  5.26020E+00  6.93527E-01  3.92209E+00
   2.35211E+00  1.45752E+00  2.44209E+00  2.35751E+00  2.26237E+00  2.34326E+00  3.06239E+00  4.23583E+00  1.93997E+00 -1.04132E+00
   4.20363E+00  1.94285E+00  2.74037E+00  6.12457E-01  1.25825E+00  3.48280E-01  3.24785E-01  2.16498E+00  1.03258E+00  3.11096E+00
   7.72621E-01  4.32678E-01 -1.03589E-01  1.44766E+00 -4.13076E-01  1.92121E-01  1.87599E+00  1.86842E+00 -2.33778E+00  8.69588E-01
   3.11619E+00  4.05672E-01 -1.03988E+00 -6.56139E-01 -2.27585E-01 -6.84514E-01  1.93652E+00  1.24787E+00  1.42186E+00 -8.54036E-01
  -2.77413E+00  1.98552E-01  1.14756E-01 -1.12327E+00 -6.11689E-01  1.22498E+00  1.73002E+00  4.58422E-01  2.95198E-01 -2.53119E+00
   1.23250E+00  1.54541E+00  1.88840E-01 -1.46947E+00 -1.34230E+00 -4.26998E-01  9.71326E-01  9.29321E-02 -2.23413E-01 -6.65919E-01
  -5.35452E+00  2.29738E-01 -1.47166E+00 -1.30073E+00 -1.99444E+00 -2.23933E+00 -1.04855E-01  4.07366E-01 -1.65380E+00 -1.95720E+00
  -2.00809E+00 -3.46608E+00 -4.08593E+00 -2.40365E+00 -4.10909E+00 -2.92131E+00 -3.57838E+00 -4.04130E-01 -4.52306E+00 -1.18423E+00
  -3.48894E+00 -3.17220E+00 -1.68319E+00 -1.06270E+00 -4.12321E+00 -4.25357E+00 -5.80861E+00 -6.64390E+00 -4.45421E+00 -3.54653E+00
  -4.08318E+00 -3.07578E+00 -2.59273E+00 -3.95782E+00 -3.77203E+00 -5.60609E+00 -2.20233E+00 -4.77594E+00 -7.09408E+00 -3.94034E+00
  -5.29956E+00 -3.93143E+00 -2.99345E+00 -4.81997E+00 -3.74715E+00 -4.57661E+00 -2.11307E+00 -2.86229E+00 -4.38413E+00 -4.72521E+00
  -4.85155E+00 -5.65119E+00 -4.56411E+00 -3.43297E+00 -5.79575E+00 -5.03693E+00 -5.11341E+00 -6.18775E+00 -4.54275E+00 -1.79252E+00
  -7.13509E+00 -3.42527E+00 -9.41485E-01 -2.53748E+00 -3.91425E+00 -4.56351E+00 -3.60723E+00 -5.20263E+00 -4.97211E+00 -5.15915E+00
  -2.78659E+00 -4.49105E+00 -4.58533E+00 -5.10949E+00 -6.29887E+00 -3.38910E+00 -6.36186E+00 -4.81102E+00 -5.44700E+00 -6.51264E+00
  -3.83675E+00 -3.37680E+00 -4.88715E+00 -5.18072E+00 -6.00310E+00 -5.92421E+00 -6.15427E+00 -6.38906E+00 -6.83215E+00 -7.40415E+00
  -7.16023E+00 -6.98749E+00 -7.01072E+00 -3.96799E+00 -4.77468E+00 -5.25638E+00 -7.00484E+00 -5.86470E+00 -5.03754E+00 -4.59267E+00
  -7.80754E+00 -5.53326E+00 -6.53499E+00 -5.98806E+00 -3.03825E+00 -5.51009E+00 -9.37164E+00 -3.96153E+00 -6.97862E+00 -2.53329E+00
  -5.73647E+00 -5.74378E+00 -5.95355E+00 -1.89352E+00 -3.73295E+00 -3.49798E+00 -5.29015E+00 -4.95306E+00
 NY points of the fit to the data follow
   7.41072E+01  7.42954E+01  7.36017E+01  7.25167E+01  7.18302E+01  7.16219E+01  7.14674E+01  7.11607E+01  7.09522E+01  7.10146E+01
   7.09156E+01  7.01319E+01  6.87646E+01  6.73478E+01  6.63044E+01  6.55149E+01  6.44511E+01  6.30846E+01  6.20222E+01  6.13212E+01
   6.06513E+01  6.00320E+01  5.94992E+01  5.90107E+01  5.85320E+01  5.80741E+01  5.76414E+01  5.71466E+01  5.65570E+01  5.59501E+01
   5.54257E+01  5.50011E+01  5.45636E+01  5.40660E+01  5.35897E+01  5.31781E+01  5.27526E+01  5.22387E+01  5.17032E+01  5.13246E+01
   5.12187E+01  5.10965E+01  5.05766E+01  4.97648E+01  4.91149E+01  4.87874E+01  4.85614E+01  4.82405E+01  4.79307E+01  4.77792E+01
   4.75688E+01  4.70208E+01  4.62304E+01  4.54368E+01  4.47944E+01  4.42372E+01  4.35671E+01  4.27971E+01  4.21643E+01  4.17756E+01
   4.15431E+01  4.13490E+01  4.11402E+01  4.08316E+01  4.04252E+01  3.99669E+01  3.94742E+01  3.89915E+01  3.85295E+01  3.81123E+01
   3.77501E+01  3.74044E+01  3.70753E+01  3.67813E+01  3.65074E+01  3.62038E+01  3.58310E+01  3.54086E+01  3.50000E+01  3.45789E+01
   3.40768E+01  3.35162E+01  3.30191E+01  3.26398E+01  3.22931E+01  3.19202E+01  3.15446E+01  3.11952E+01  3.08259E+01  3.04295E+01
   3.00075E+01  2.96206E+01  2.93443E+01  2.91959E+01  2.92122E+01  2.94465E+01  2.94962E+01  2.92527E+01  2.89649E+01  2.88204E+01
   2.87262E+01  2.85405E+01  2.83303E+01  2.82554E+01  2.82731E+01  2.81170E+01  2.76818E+01  2.71571E+01  2.67415E+01  2.64884E+01
   2.62256E+01  2.57858E+01  2.53255E+01  2.50711E+01  2.49205E+01  2.47959E+01  2.47372E+01  2.50177E+01  2.63165E+01  2.74821E+01
   2.73890E+01  2.67396E+01  2.66578E+01  2.72723E+01  2.78459E+01  2.81173E+01  2.85604E+01  2.93759E+01  2.98382E+01  2.92281E+01
   2.78071E+01  2.64032E+01  2.56027E+01  2.50923E+01  2.40588E+01  2.26375E+01  2.17949E+01  2.15067E+01  2.13403E+01  2.11990E+01
   2.10671E+01  2.09458E+01  2.08336E+01  2.07254E+01  2.06166E+01  2.05101E+01  2.04105E+01  2.03134E+01  2.02126E+01  2.01081E+01
   2.00046E+01  1.99048E+01  1.98038E+01  1.96972E+01  1.95921E+01  1.94954E+01  1.94056E+01  1.93181E+01  1.92230E+01  1.91242E+01
   1.90270E+01  1.89308E+01  1.88340E+01  1.87392E+01  1.86511E+01  1.85689E+01  1.84862E+01  1.83960E+01  1.82964E+01  1.81982E+01
   1.81133E+01  1.80299E+01  1.79346E+01  1.78227E+01  1.77118E+01  1.76162E+01  1.75261E+01  1.74310E+01  1.73284E+01  1.72248E+01
   1.71326E+01  1.70494E+01  1.69576E+01  1.68543E+01  1.67535E+01  1.66623E+01  1.65726E+01  1.64740E+01  1.63716E+01  1.62778E+01
   1.61883E+01  1.60923E+01  1.59863E+01  1.58738E+01  1.57624E+01  1.56633E+01  1.55773E+01  1.54880E+01  1.53869E+01  1.52530E+01
   1.51135E+01  1.49770E+01  1.48235E+01  1.46718E+01  1.45388E+01  1.44281E+01  1.43474E+01  1.43019E+01  1.43016E+01  1.41857E+01
   1.39475E+01  1.37043E+01  1.35346E+01  1.33786E+01  1.31497E+01  1.29601E+01  1.29518E+01  1.30094E+01  1.29011E+01  1.25956E+01
   1.22419E+01  1.19645E+01  1.17308E+01  1.14554E+01  1.11940E+01  1.10976E+01  1.11836E+01  1.12723E+01  1.12706E+01  1.12203E+01
   1.11964E+01  1.11801E+01  1.10626E+01  1.08581E+01  1.06591E+01  1.04831E+01  1.03360E+01  1.02100E+01  1.00717E+01  9.91448E+00
   9.76310E+00  9.60594E+00  9.42089E+00  9.22290E+00  9.06255E+00  8.97242E+00  8.90590E+00  8.80764E+00  8.67582E+00  8.53717E+00
   8.38661E+00  8.28242E+00  8.37073E+00  8.56139E+00  8.54044E+00  8.35367E+00  8.22106E+00  8.21505E+00  8.23541E+00  8.21141E+00
   8.20988E+00  8.29333E+00  8.35357E+00  8.21542E+00  7.86961E+00  7.48025E+00  7.20244E+00  7.02084E+00  6.75924E+00  6.37592E+00
   6.05893E+00  5.88140E+00  5.73672E+00  5.61175E+00  5.51918E+00  5.43942E+00  5.35605E+00  5.26758E+00  5.17548E+00  5.08340E+00
   4.99169E+00  4.89600E+00  4.79427E+00  4.69326E+00  4.59779E+00  4.50636E+00  4.41797E+00  4.33325E+00  4.25213E+00  4.17382E+00
   4.09622E+00  4.01864E+00  3.94222E+00  3.86661E+00  3.79093E+00  3.71581E+00  3.64243E+00  3.57060E+00  3.49950E+00  3.42950E+00
   3.36096E+00  3.29346E+00  3.22690E+00  3.16151E+00  3.09711E+00  3.03359E+00  2.97084E+00  2.90885E+00  2.84774E+00  2.78766E+00
   2.72873E+00  2.67095E+00  2.61449E+00  2.55979E+00  2.50738E+00  2.45810E+00  2.41363E+00  2.37783E+00  2.36171E+00  2.37688E+00
   2.33564E+00  2.20377E+00  2.07524E+00  2.00814E+00  1.96742E+00  1.88793E+00  1.76980E+00  1.71853E+00  1.75175E+00  1.70864E+00
   1.53108E+00  1.32540E+00  1.21037E+00  1.18384E+00  1.15866E+00  1.10031E+00  1.08857E+00  1.17905E+00  1.27736E+00  1.29690E+00
   1.25363E+00  1.20480E+00  1.18620E+00  1.15830E+00  1.07211E+00  9.65936E-01  8.86132E-01  8.21073E-01  7.62191E-01  7.06116E-01
   6.51110E-01  5.96096E-01  5.40321E-01  4.83225E-01  4.24382E-01  3.63493E-01  3.00361E-01  2.34878E-01  1.67007E-01  9.67813E-02
   2.43010E-02 -5.02650E-02 -1.26698E-01 -2.04735E-01 -2.84088E-01 -3.64458E-01 -4.45535E-01 -5.27018E-01 -6.08621E-01 -6.90099E-01
  -7.71239E-01 -8.51860E-01 -9.31807E-01 -1.01095E+00 -1.08921E+00 -1.16652E+00 -1.24286E+00 -1.31823E+00 -1.39263E+00 -1.46606E+00
  -1.53855E+00 -1.61015E+00 -1.68091E+00 -1.75085E+00 -1.82001E+00 -1.88842E+00 -1.95611E+00 -2.02313E+00 -2.08950E+00 -2.15523E+00
  -2.22034E+00 -2.28482E+00 -2.34871E+00 -2.41201E+00 -2.47472E+00 -2.53684E+00 -2.59834E+00 -2.65924E+00 -2.71953E+00 -2.77920E+00
  -2.83824E+00 -2.89664E+00 -2.95437E+00 -3.01142E+00 -3.06779E+00 -3.12347E+00 -3.17843E+00 -3.23264E+00 -3.28610E+00 -3.33883E+00
  -3.39083E+00 -3.44211E+00 -3.49266E+00 -3.54249E+00 -3.59161E+00 -3.64003E+00 -3.68775E+00 -3.73477E+00 -3.78110E+00 -3.82673E+00
  -3.87168E+00 -3.91595E+00 -3.95955E+00 -4.00248E+00 -4.04473E+00 -4.08631E+00 -4.12724E+00 -4.16751E+00 -4.20713E+00 -4.24609E+00
  -4.28439E+00 -4.32206E+00 -4.35909E+00 -4.39548E+00 -4.43124E+00 -4.46636E+00 -4.50084E+00 -4.53470E+00 -4.56795E+00 -4.60058E+00
  -4.63259E+00 -4.66398E+00 -4.69475E+00 -4.72493E+00 -4.75451E+00 -4.78348E+00 -4.81185E+00 -4.83961E+00 -4.86679E+00 -4.89339E+00
  -4.91939E+00 -4.94482E+00 -4.96965E+00 -4.99391E+00 -5.01760E+00 -5.04074E+00 -5.06332E+00 -5.08536E+00 -5.10685E+00 -5.12782E+00
  -5.14828E+00 -5.16823E+00 -5.18768E+00 -5.20663E+00 -5.22509E+00 -5.24308E+00 -5.26061E+00 -5.27768E+00 -5.29429E+00 -5.31045E+00
  -5.32618E+00 -5.34150E+00 -5.35639E+00 -5.37088E+00 -5.38495E+00 -5.39864E+00 -5.41194E+00 -5.42487E+00 -5.43743E+00 -5.44963E+00
  -5.46147E+00 -5.47297E+00 -5.48414E+00 -5.49498E+00 -5.50551E+00 -5.51572E+00 -5.52562E+00 -5.53524E+00 -5.54457E+00 -5.55362E+00
  -5.56240E+00 -5.57091E+00 -5.57917E+00 -5.58719E+00 -5.59496E+00 -5.60251E+00 -5.60982E+00 -5.61691E+00
 NY background values follow
     7.112E+01    7.056E+01    7.001E+01    6.946E+01    6.891E+01    6.836E+01    6.780E+01    6.725E+01    6.670E+01    6.615E+01
     6.560E+01    6.505E+01    6.450E+01    6.396E+01    6.341E+01    6.286E+01    6.232E+01    6.177E+01    6.123E+01    6.069E+01
     6.015E+01    5.961E+01    5.908E+01    5.854E+01    5.801E+01    5.748E+01    5.695E+01    5.642E+01    5.590E+01    5.538E+01
     5.486E+01    5.434E+01    5.382E+01    5.331E+01    5.280E+01    5.229E+01    5.179E+01    5.129E+01    5.079E+01    5.029E+01
     4.980E+01    4.931E+01    4.882E+01    4.834E+01    4.786E+01    4.739E+01    4.691E+01    4.645E+01    4.598E+01    4.552E+01
     4.507E+01    4.461E+01    4.416E+01    4.372E+01    4.328E+01    4.284E+01    4.241E+01    4.198E+01    4.155E+01    4.113E+01
     4.072E+01    4.030E+01    3.989E+01    3.949E+01    3.909E+01    3.869E+01    3.830E+01    3.791E+01    3.753E+01    3.715E+01
     3.678E+01    3.641E+01    3.604E+01    3.568E+01    3.532E+01    3.497E+01    3.462E+01    3.428E+01    3.394E+01    3.360E+01
     3.327E+01    3.295E+01    3.263E+01    3.231E+01    3.200E+01    3.169E+01    3.139E+01    3.109E+01    3.080E+01    3.051E+01
     3.023E+01    2.996E+01    2.968E+01    2.941E+01    2.915E+01    2.889E+01    2.864E+01    2.839E+01    2.815E+01    2.791E+01
     2.767E+01    2.744E+01    2.721E+01    2.699E+01    2.677E+01    2.655E+01    2.634E+01    2.613E+01    2.593E+01    2.573E+01
     2.554E+01    2.534E+01    2.516E+01    2.497E+01    2.479E+01    2.461E+01    2.444E+01    2.427E+01    2.410E+01    2.393E+01
     2.377E+01    2.361E+01    2.346E+01    2.331E+01    2.316E+01    2.301E+01    2.286E+01    2.272E+01    2.258E+01    2.245E+01
     2.231E+01    2.218E+01    2.205E+01    2.193E+01    2.180E+01    2.168E+01    2.156E+01    2.144E+01    2.133E+01    2.121E+01
     2.110E+01    2.099E+01    2.088E+01    2.077E+01    2.067E+01    2.056E+01    2.046E+01    2.036E+01    2.026E+01    2.016E+01
     2.006E+01    1.996E+01    1.987E+01    1.977E+01    1.968E+01    1.959E+01    1.949E+01    1.940E+01    1.931E+01    1.922E+01
     1.913E+01    1.903E+01    1.894E+01    1.885E+01    1.876E+01    1.867E+01    1.858E+01    1.849E+01    1.840E+01    1.831E+01
     1.822E+01    1.812E+01    1.803E+01    1.794E+01    1.784E+01    1.775E+01    1.765E+01    1.756E+01    1.746E+01    1.736E+01
     1.726E+01    1.716E+01    1.706E+01    1.695E+01    1.685E+01    1.674E+01    1.663E+01    1.653E+01    1.642E+01    1.631E+01
     1.619E+01    1.608E+01    1.597E+01    1.585E+01    1.574E+01    1.562E+01    1.550E+01    1.538E+01    1.526E+01    1.514E+01
     1.502E+01    1.490E+01    1.477E+01    1.465E+01    1.453E+01    1.440E+01    1.427E+01    1.415E+01    1.402E+01    1.389E+01
     1.376E+01    1.363E+01    1.350E+01    1.337E+01    1.323E+01    1.310E+01    1.297E+01    1.283E+01    1.270E+01    1.256E+01
     1.243E+01    1.229E+01    1.216E+01    1.202E+01    1.188E+01    1.174E+01    1.161E+01    1.147E+01    1.133E+01    1.119E+01
     1.105E+01    1.091E+01    1.077E+01    1.063E+01    1.049E+01    1.035E+01    1.021E+01    1.007E+01    9.934E+00    9.795E+00
     9.656E+00    9.518E+00    9.380E+00    9.242E+00    9.105E+00    8.968E+00    8.832E+00    8.696E+00    8.561E+00    8.427E+00
     8.293E+00    8.161E+00    8.029E+00    7.898E+00    7.768E+00    7.639E+00    7.511E+00    7.384E+00    7.258E+00    7.133E+00
     7.010E+00    6.887E+00    6.767E+00    6.647E+00    6.529E+00    6.412E+00    6.297E+00    6.184E+00    6.072E+00    5.962E+00
     5.853E+00    5.746E+00    5.641E+00    5.538E+00    5.436E+00    5.336E+00    5.238E+00    5.142E+00    5.047E+00    4.953E+00
     4.861E+00    4.771E+00    4.682E+00    4.594E+00    4.508E+00    4.423E+00    4.340E+00    4.257E+00    4.176E+00    4.097E+00
     4.018E+00    3.940E+00    3.864E+00    3.789E+00    3.714E+00    3.641E+00    3.569E+00    3.497E+00    3.426E+00    3.357E+00
     3.288E+00    3.220E+00    3.152E+00    3.085E+00    3.019E+00    2.954E+00    2.889E+00    2.825E+00    2.761E+00    2.698E+00
     2.635E+00    2.572E+00    2.510E+00    2.449E+00    2.387E+00    2.326E+00    2.265E+00    2.205E+00    2.144E+00    2.084E+00
     2.024E+00    1.964E+00    1.904E+00    1.844E+00    1.785E+00    1.725E+00    1.666E+00    1.607E+00    1.548E+00    1.489E+00
     1.430E+00    1.371E+00    1.312E+00    1.253E+00    1.194E+00    1.135E+00    1.076E+00    1.017E+00    9.581E-01    8.992E-01
     8.402E-01    7.811E-01    7.220E-01    6.628E-01    6.035E-01    5.441E-01    4.846E-01    4.249E-01    3.652E-01    3.053E-01
     2.453E-01    1.850E-01    1.247E-01    6.412E-02    3.366E-03   -5.759E-02   -1.188E-01   -1.801E-01   -2.418E-01   -3.036E-01
    -3.658E-01   -4.282E-01   -4.908E-01   -5.538E-01   -6.170E-01   -6.804E-01   -7.440E-01   -8.078E-01   -8.718E-01   -9.359E-01
    -1.000E+00   -1.064E+00   -1.129E+00   -1.193E+00   -1.258E+00   -1.322E+00   -1.387E+00   -1.451E+00   -1.516E+00   -1.580E+00
    -1.644E+00   -1.708E+00   -1.772E+00   -1.836E+00   -1.900E+00   -1.963E+00   -2.026E+00   -2.089E+00   -2.152E+00   -2.214E+00
    -2.276E+00   -2.338E+00   -2.399E+00   -2.460E+00   -2.521E+00   -2.581E+00   -2.640E+00   -2.700E+00   -2.758E+00   -2.817E+00
    -2.874E+00   -2.931E+00   -2.988E+00   -3.044E+00   -3.099E+00   -3.154E+00   -3.208E+00   -3.261E+00   -3.314E+00   -3.366E+00
    -3.417E+00   -3.468E+00   -3.518E+00   -3.567E+00   -3.615E+00   -3.663E+00   -3.711E+00   -3.757E+00   -3.803E+00   -3.848E+00
    -3.892E+00   -3.936E+00   -3.980E+00   -4.022E+00   -4.064E+00   -4.105E+00   -4.146E+00   -4.186E+00   -4.225E+00   -4.264E+00
    -4.302E+00   -4.339E+00   -4.376E+00   -4.412E+00   -4.447E+00   -4.482E+00   -4.516E+00   -4.550E+00   -4.583E+00   -4.615E+00
    -4.647E+00   -4.678E+00   -4.709E+00   -4.739E+00   -4.768E+00   -4.797E+00   -4.825E+00   -4.853E+00   -4.880E+00   -4.906E+00
    -4.932E+00   -4.957E+00   -4.982E+00   -5.006E+00   -5.030E+00   -5.053E+00   -5.075E+00   -5.097E+00   -5.118E+00   -5.139E+00
    -5.159E+00   -5.179E+00   -5.199E+00   -5.217E+00   -5.236E+00   -5.254E+00   -5.271E+00   -5.288E+00   -5.304E+00   -5.320E+00
    -5.336E+00   -5.351E+00   -5.366E+00   -5.380E+00   -5.394E+00   -5.408E+00   -5.421E+00   -5.434E+00   -5.447E+00   -5.459E+00
    -5.470E+00   -5.482E+00   -5.493E+00   -5.504E+00   -5.514E+00   -5.524E+00   -5.534E+00   -5.544E+00   -5.553E+00   -5.562E+00
    -5.571E+00   -5.579E+00   -5.588E+00   -5.596E+00   -5.603E+00   -5.611E+00   -5.618E+00   -5.625E+00
 Ala      Conc. = 4.26E+01
