 LCModel (Version 6.3-1L) Copyright: S.W. Provencher.          Ref.: Magn. Reson. Med. 30:672-679 (1993).                
 Slice#2 Row#14 Col#4  K_02_press_1_raw_act
 36 lines in following concentration table = NCONC+1
    Conc.  %SD /Cr+PCr  Metabolite                                         
  688.202  43%   2.217 Ala                                                 
    0.000 999%   0.000 Asp                                                 
    0.000 999%   0.000 Cr                                                  
  310.476  13%   1.000 PCr                                                 
    7.819 368% 2.5E-02 GABA                                                
    0.000 999%   0.000 Glc                                                 
  711.153  52%   2.291 Gln                                                 
  485.293  99%   1.563 Glu                                                 
   70.747  24%   0.228 GPC                                                 
    0.000 999%   0.000 PCh                                                 
    0.000 999%   0.000 GSH                                                 
 2.31E+03   9%   7.433 Ins                                                 
 1.52E+03  30%   4.880 Lac                                                 
  103.894  37%   0.335 NAA                                                 
    0.000 999%   0.000 NAAG                                                
    0.000 999%   0.000 Scyllo                                              
    0.000 999%   0.000 Tau                                                 
    0.000 999%   0.000 -CrCH2                                              
   70.747  24%   0.228 GPC+PCh                                             
  103.894  37%   0.335 NAA+NAAG                                            
  310.476  13%   1.000 Cr+PCr                                              
 1.20E+03  63%   3.854 Glu+Gln                                             
  316.780 164%   1.020 Lip13a                                              
  152.774  88%   0.492 Lip13b                                              
  122.454  81%   0.394 Lip09                                               
   55.899 119%   0.180 MM09                                                
   30.331 256% 9.8E-02 Lip20                                               
    0.000 999%   0.000 MM20                                                
   16.157 219% 5.2E-02 MM12                                                
  337.874  35%   1.088 MM14                                                
   26.539 286% 8.5E-02 MM17                                                
  469.553  87%   1.512 Lip13a+Lip13b                                       
  823.584  48%   2.653 MM14+Lip13a+Lip13b+MM12                             
  178.353  46%   0.574 MM09+Lip09                                          
   30.331 256% 9.8E-02 MM20+Lip20                                          
   6 lines in following misc. output table
  FWHM = 0.138 ppm    S/N =   3                                            
  Data shift = 0.069 ppm                                                   
  Ph:-170 deg      24.8 deg/ppm                                            
  alphaB,S = 1.3E+00,   1.7E+02                                            
   12 spline knots.   Ns = 9(2)                                            
  (14) 4 infls.   ( 8) 1 extrs.                                            
  498 points on ppm-axis = NY
      4.000000     3.992357     3.984714     3.977070     3.969427     3.961784     3.954141     3.946497     3.938854     3.931211
      3.923568     3.915925     3.908281     3.900638     3.892995     3.885352     3.877708     3.870065     3.862422     3.854779
      3.847136     3.839492     3.831849     3.824206     3.816563     3.808919     3.801276     3.793633     3.785990     3.778347
      3.770703     3.763060     3.755417     3.747774     3.740130     3.732487     3.724844     3.717201     3.709558     3.701914
      3.694271     3.686628     3.678985     3.671341     3.663698     3.656055     3.648412     3.640769     3.633125     3.625482
      3.617839     3.610196     3.602552     3.594909     3.587266     3.579623     3.571980     3.564336     3.556693     3.549050
      3.541407     3.533763     3.526120     3.518477     3.510834     3.503191     3.495547     3.487904     3.480261     3.472618
      3.464974     3.457331     3.449688     3.442045     3.434402     3.426758     3.419115     3.411472     3.403829     3.396185
      3.388542     3.380899     3.373256     3.365613     3.357969     3.350326     3.342683     3.335040     3.327396     3.319753
      3.312110     3.304467     3.296824     3.289180     3.281537     3.273894     3.266251     3.258607     3.250964     3.243321
      3.235678     3.228034     3.220391     3.212748     3.205105     3.197462     3.189818     3.182175     3.174532     3.166889
      3.159245     3.151602     3.143959     3.136316     3.128673     3.121029     3.113386     3.105743     3.098100     3.090456
      3.082813     3.075170     3.067527     3.059884     3.052240     3.044597     3.036954     3.029311     3.021667     3.014024
      3.006381     2.998738     2.991095     2.983451     2.975808     2.968165     2.960522     2.952878     2.945235     2.937592
      2.929949     2.922306     2.914662     2.907019     2.899376     2.891733     2.884089     2.876446     2.868803     2.861160
      2.853517     2.845873     2.838230     2.830587     2.822944     2.815300     2.807657     2.800014     2.792371     2.784728
      2.777084     2.769441     2.761798     2.754155     2.746511     2.738868     2.731225     2.723582     2.715939     2.708295
      2.700652     2.693009     2.685366     2.677722     2.670079     2.662436     2.654793     2.647150     2.639506     2.631863
      2.624220     2.616577     2.608933     2.601290     2.593647     2.586004     2.578361     2.570717     2.563074     2.555431
      2.547788     2.540144     2.532501     2.524858     2.517215     2.509572     2.501928     2.494285     2.486642     2.478999
      2.471355     2.463712     2.456069     2.448426     2.440783     2.433139     2.425496     2.417853     2.410210     2.402566
      2.394923     2.387280     2.379637     2.371994     2.364350     2.356707     2.349064     2.341421     2.333777     2.326134
      2.318491     2.310848     2.303205     2.295561     2.287918     2.280275     2.272632     2.264988     2.257345     2.249702
      2.242059     2.234416     2.226772     2.219129     2.211486     2.203843     2.196199     2.188556     2.180913     2.173270
      2.165627     2.157983     2.150340     2.142697     2.135054     2.127410     2.119767     2.112124     2.104481     2.096838
      2.089194     2.081551     2.073908     2.066265     2.058621     2.050978     2.043335     2.035692     2.028049     2.020405
      2.012762     2.005119     1.997476     1.989833     1.982190     1.974546     1.966903     1.959260     1.951617     1.943974
      1.936331     1.928688     1.921045     1.913402     1.905759     1.898115     1.890472     1.882829     1.875186     1.867543
      1.859900     1.852257     1.844614     1.836971     1.829327     1.821684     1.814041     1.806398     1.798755     1.791112
      1.783469     1.775826     1.768183     1.760540     1.752896     1.745253     1.737610     1.729967     1.722324     1.714681
      1.707038     1.699395     1.691752     1.684108     1.676465     1.668822     1.661179     1.653536     1.645893     1.638250
      1.630607     1.622964     1.615321     1.607677     1.600034     1.592391     1.584748     1.577105     1.569462     1.561819
      1.554176     1.546533     1.538890     1.531246     1.523603     1.515960     1.508317     1.500674     1.493031     1.485388
      1.477745     1.470102     1.462458     1.454815     1.447172     1.439529     1.431886     1.424243     1.416600     1.408957
      1.401314     1.393671     1.386027     1.378384     1.370741     1.363098     1.355455     1.347812     1.340169     1.332526
      1.324883     1.317240     1.309596     1.301953     1.294310     1.286667     1.279024     1.271381     1.263738     1.256095
      1.248452     1.240808     1.233165     1.225522     1.217879     1.210236     1.202593     1.194950     1.187307     1.179664
      1.172021     1.164377     1.156734     1.149091     1.141448     1.133805     1.126162     1.118519     1.110876     1.103233
      1.095590     1.087946     1.080303     1.072660     1.065017     1.057374     1.049731     1.042088     1.034445     1.026802
      1.019158     1.011515     1.003872     0.996229     0.988586     0.980943     0.973300     0.965657     0.958014     0.950371
      0.942727     0.935084     0.927441     0.919798     0.912155     0.904512     0.896869     0.889226     0.881583     0.873940
      0.866296     0.858653     0.851010     0.843367     0.835724     0.828081     0.820438     0.812795     0.805152     0.797508
      0.789865     0.782222     0.774579     0.766936     0.759293     0.751650     0.744007     0.736364     0.728721     0.721077
      0.713434     0.705791     0.698148     0.690505     0.682862     0.675219     0.667576     0.659933     0.652290     0.644646
      0.637003     0.629360     0.621717     0.614074     0.606431     0.598788     0.591145     0.583502     0.575858     0.568215
      0.560572     0.552929     0.545286     0.537643     0.530000     0.522357     0.514714     0.507071     0.499427     0.491784
      0.484141     0.476498     0.468855     0.461212     0.453569     0.445925     0.438282     0.430639     0.422996     0.415353
      0.407710     0.400067     0.392424     0.384780     0.377137     0.369494     0.361851     0.354208     0.346565     0.338922
      0.331278     0.323635     0.315992     0.308349     0.300706     0.293063     0.285420     0.277777     0.270133     0.262490
      0.254847     0.247204     0.239561     0.231918     0.224275     0.216631     0.208988     0.201345
 NY phased data points follow
   9.12919E+01  9.02855E+01  9.02496E+01  8.87659E+01  8.71375E+01  8.93465E+01  8.52308E+01  8.43440E+01  8.67767E+01  8.55325E+01
   8.26698E+01  8.60636E+01  8.04829E+01  8.42810E+01  8.48719E+01  7.99916E+01  8.02439E+01  7.72330E+01  7.46984E+01  7.71459E+01
   7.85625E+01  7.48422E+01  7.27435E+01  7.36310E+01  7.50558E+01  7.51897E+01  7.16008E+01  7.14100E+01  7.11428E+01  7.07190E+01
   7.18194E+01  7.06265E+01  6.87312E+01  7.18565E+01  6.95872E+01  6.87643E+01  6.92208E+01  6.79051E+01  6.72596E+01  6.95402E+01
   6.72131E+01  7.03258E+01  6.87813E+01  6.72543E+01  6.88363E+01  6.74893E+01  6.78067E+01  6.78167E+01  6.97391E+01  6.89780E+01
   6.86234E+01  6.85218E+01  6.65603E+01  7.05582E+01  6.68417E+01  6.69074E+01  6.64208E+01  6.59345E+01  6.74356E+01  6.62965E+01
   6.61275E+01  6.62643E+01  6.61057E+01  6.23332E+01  6.23293E+01  6.27415E+01  6.51857E+01  6.08770E+01  6.05381E+01  6.18347E+01
   5.98957E+01  6.04444E+01  5.94335E+01  6.07836E+01  6.00916E+01  5.78146E+01  5.82471E+01  5.74115E+01  5.53127E+01  5.65508E+01
   5.54152E+01  5.49768E+01  5.20851E+01  5.42285E+01  5.49163E+01  5.41349E+01  5.16532E+01  5.41955E+01  5.29470E+01  5.36378E+01
   5.01340E+01  4.95105E+01  5.01621E+01  4.84829E+01  4.87992E+01  4.83401E+01  4.77056E+01  4.93003E+01  4.75818E+01  5.04511E+01
   5.12217E+01  4.83934E+01  5.12022E+01  4.87729E+01  4.99304E+01  5.06930E+01  4.69174E+01  4.91624E+01  5.09600E+01  4.96074E+01
   4.93151E+01  5.00001E+01  4.99646E+01  4.83762E+01  5.05189E+01  4.41721E+01  4.83475E+01  5.00922E+01  4.64764E+01  4.80513E+01
   4.84218E+01  4.63186E+01  4.86514E+01  4.77447E+01  4.67076E+01  4.81190E+01  5.05084E+01  5.02288E+01  5.04762E+01  4.98233E+01
   4.84784E+01  4.95854E+01  4.93032E+01  5.03560E+01  4.83014E+01  4.94867E+01  4.82074E+01  4.79669E+01  4.70860E+01  4.85335E+01
   4.68584E+01  4.64146E+01  4.70768E+01  4.73906E+01  4.83338E+01  4.69339E+01  4.54229E+01  4.65893E+01  4.52279E+01  4.42472E+01
   4.37614E+01  4.45581E+01  4.47125E+01  4.42034E+01  4.59085E+01  4.33736E+01  4.44964E+01  4.62817E+01  4.75327E+01  4.64256E+01
   4.33102E+01  4.38492E+01  4.66536E+01  4.58855E+01  4.38935E+01  4.60669E+01  4.63854E+01  4.67982E+01  4.61192E+01  4.26942E+01
   4.37653E+01  4.42739E+01  4.27205E+01  4.35943E+01  4.42252E+01  4.27903E+01  4.32434E+01  4.13774E+01  4.34579E+01  4.46674E+01
   4.21419E+01  4.25933E+01  4.20114E+01  4.39984E+01  4.08003E+01  4.20063E+01  4.00942E+01  4.05334E+01  3.93246E+01  4.03090E+01
   4.19032E+01  4.22871E+01  4.18018E+01  3.99406E+01  4.14214E+01  4.17528E+01  4.01921E+01  4.27288E+01  3.97929E+01  4.11644E+01
   4.11945E+01  4.29547E+01  4.07097E+01  4.04404E+01  4.01682E+01  3.85983E+01  3.86440E+01  4.01589E+01  3.98960E+01  3.87824E+01
   3.77237E+01  3.87773E+01  3.97838E+01  3.94415E+01  3.84616E+01  3.84451E+01  4.01147E+01  3.62659E+01  3.88424E+01  3.85534E+01
   3.74860E+01  3.89916E+01  3.72029E+01  3.80896E+01  3.72398E+01  3.79939E+01  3.68862E+01  3.81536E+01  3.54606E+01  3.68676E+01
   3.81200E+01  3.74710E+01  3.75800E+01  3.62959E+01  3.44483E+01  3.71130E+01  3.62466E+01  3.54762E+01  3.74059E+01  3.68360E+01
   3.50266E+01  3.60976E+01  3.38025E+01  3.59168E+01  3.67043E+01  3.36618E+01  3.31781E+01  3.19844E+01  3.04417E+01  3.36672E+01
   3.09143E+01  3.15164E+01  3.19489E+01  3.19260E+01  3.21595E+01  3.13302E+01  3.43887E+01  3.36168E+01  3.49693E+01  3.66830E+01
   3.71352E+01  3.56623E+01  3.57986E+01  3.34841E+01  3.29028E+01  3.69844E+01  3.45500E+01  3.51660E+01  3.44452E+01  3.39924E+01
   3.39057E+01  3.46807E+01  3.28025E+01  3.53421E+01  3.46303E+01  3.42795E+01  3.27430E+01  3.21940E+01  3.35470E+01  3.38669E+01
   3.30815E+01  3.24555E+01  3.23656E+01  3.31316E+01  3.03465E+01  3.29795E+01  3.28769E+01  3.34693E+01  3.13736E+01  3.21779E+01
   3.19535E+01  3.07570E+01  3.40821E+01  3.06661E+01  3.08621E+01  3.21283E+01  3.04247E+01  2.98362E+01  3.15227E+01  3.02796E+01
   2.99266E+01  3.08062E+01  2.94364E+01  3.02577E+01  3.14935E+01  2.98015E+01  3.15527E+01  3.11180E+01  3.35373E+01  3.03162E+01
   3.02036E+01  2.95433E+01  3.15098E+01  2.83463E+01  3.00704E+01  3.15149E+01  3.17622E+01  3.10603E+01  3.15439E+01  2.98247E+01
   3.02614E+01  3.00542E+01  3.28463E+01  3.39146E+01  3.27964E+01  3.30643E+01  3.11523E+01  3.08903E+01  3.08577E+01  3.22463E+01
   3.30398E+01  2.98692E+01  3.04848E+01  3.14561E+01  3.18899E+01  3.29756E+01  3.27453E+01  3.25779E+01  3.56215E+01  3.49377E+01
   3.38720E+01  3.39885E+01  3.33985E+01  3.56298E+01  3.33267E+01  3.46789E+01  3.26412E+01  3.25739E+01  3.28134E+01  3.41138E+01
   3.25507E+01  3.31084E+01  3.21421E+01  3.16532E+01  3.22682E+01  3.31679E+01  3.18191E+01  3.08338E+01  2.89976E+01  3.18176E+01
   2.97938E+01  2.96582E+01  2.92679E+01  2.78417E+01  2.96338E+01  2.89989E+01  2.63116E+01  2.67269E+01  2.84032E+01  2.59012E+01
   2.67491E+01  2.59600E+01  2.72924E+01  2.60001E+01  2.62803E+01  2.57922E+01  2.61938E+01  2.69325E+01  2.53641E+01  2.32403E+01
   2.43293E+01  2.50503E+01  2.60026E+01  2.38011E+01  2.42952E+01  2.24910E+01  2.14903E+01  2.24147E+01  2.21617E+01  2.19268E+01
   2.01606E+01  1.97154E+01  2.02116E+01  2.24917E+01  2.02052E+01  1.97362E+01  1.97859E+01  1.89405E+01  2.10914E+01  2.15197E+01
   1.99724E+01  2.15118E+01  1.99495E+01  2.00346E+01  2.07183E+01  1.90659E+01  2.08314E+01  2.02821E+01  2.10533E+01  1.88907E+01
   1.91487E+01  2.05200E+01  1.99706E+01  1.98989E+01  1.99997E+01  1.98811E+01  1.82726E+01  1.85224E+01  1.76863E+01  1.92460E+01
   1.67444E+01  1.64346E+01  1.77411E+01  1.57986E+01  1.45698E+01  1.55274E+01  1.39607E+01  1.39728E+01  1.83747E+01  1.61294E+01
   1.43326E+01  1.49464E+01  1.53621E+01  1.30142E+01  1.61492E+01  1.19176E+01  1.39182E+01  1.44712E+01  1.51064E+01  1.59231E+01
   1.29594E+01  1.36096E+01  1.45247E+01  1.22703E+01  1.41695E+01  1.29385E+01  1.51987E+01  1.41391E+01  1.27754E+01  1.37710E+01
   1.43673E+01  1.48487E+01  1.49060E+01  1.32836E+01  1.22052E+01  1.34554E+01  1.38866E+01  1.36885E+01  1.39649E+01  1.32216E+01
   9.30945E+00  1.17651E+01  1.30035E+01  1.15857E+01  1.22289E+01  1.03733E+01  1.28409E+01  1.28277E+01  1.02929E+01  1.00576E+01
   8.79916E+00  1.04322E+01  9.48589E+00  9.53716E+00  1.07660E+01  1.06238E+01  8.89188E+00  9.27534E+00  1.02799E+01  9.12061E+00
   9.32591E+00  1.09696E+01  7.11884E+00  7.49091E+00  9.93101E+00  9.13338E+00  8.20306E+00  8.10836E+00  9.48554E+00  7.82751E+00
   8.32635E+00  7.07284E+00  7.79291E+00  9.08227E+00  7.95868E+00  1.15319E+01  9.81657E+00  1.03751E+01
 NY points of the fit to the data follow
   8.89493E+01  8.91040E+01  8.81234E+01  8.81717E+01  8.71904E+01  8.72668E+01  8.61065E+01  8.60315E+01  8.47452E+01  8.44740E+01
   8.31268E+01  8.26768E+01  8.13739E+01  8.11231E+01  7.98050E+01  7.96902E+01  7.85664E+01  7.83690E+01  7.73598E+01  7.71653E+01
   7.61535E+01  7.59538E+01  7.49779E+01  7.47605E+01  7.38404E+01  7.36055E+01  7.27418E+01  7.24582E+01  7.17074E+01  7.14179E+01
   7.08284E+01  7.06920E+01  7.01602E+01  6.99897E+01  6.95761E+01  6.94736E+01  6.92429E+01  6.92188E+01  6.91377E+01  6.91273E+01
   6.91230E+01  6.91028E+01  6.91378E+01  6.90910E+01  6.92138E+01  6.91852E+01  6.94155E+01  6.93889E+01  6.94846E+01  6.92705E+01
   6.91610E+01  6.87953E+01  6.85050E+01  6.80771E+01  6.77031E+01  6.72587E+01  6.68461E+01  6.63565E+01  6.58842E+01  6.53901E+01
   6.49118E+01  6.45655E+01  6.39578E+01  6.36020E+01  6.29065E+01  6.25811E+01  6.17646E+01  6.14304E+01  6.06044E+01  6.04928E+01
   6.00724E+01  6.03630E+01  5.99770E+01  6.01720E+01  5.96579E+01  5.97151E+01  5.90606E+01  5.89719E+01  5.81608E+01  5.79366E+01
   5.70104E+01  5.66896E+01  5.58462E+01  5.55845E+01  5.47816E+01  5.45307E+01  5.36188E+01  5.33366E+01  5.23379E+01  5.21113E+01
   5.11718E+01  5.10634E+01  5.02757E+01  5.02843E+01  4.96986E+01  4.98657E+01  4.94319E+01  4.96260E+01  4.93274E+01  4.95333E+01
   4.93812E+01  4.95312E+01  4.95057E+01  4.95419E+01  4.96077E+01  4.95304E+01  4.96787E+01  4.95079E+01  4.96955E+01  4.93436E+01
   4.94188E+01  4.88906E+01  4.89100E+01  4.83874E+01  4.84288E+01  4.80607E+01  4.81473E+01  4.80400E+01  4.81228E+01  4.83018E+01
   4.82887E+01  4.86072E+01  4.84453E+01  4.89919E+01  4.86961E+01  4.96004E+01  4.91971E+01  5.01069E+01  4.95312E+01  5.03868E+01
   4.96586E+01  5.04163E+01  4.95585E+01  5.01484E+01  4.92355E+01  4.96653E+01  4.87471E+01  4.89997E+01  4.81403E+01  4.82490E+01
   4.74824E+01  4.74605E+01  4.68021E+01  4.66637E+01  4.61020E+01  4.58164E+01  4.54002E+01  4.50546E+01  4.49356E+01  4.48613E+01
   4.47990E+01  4.47398E+01  4.46840E+01  4.46271E+01  4.45712E+01  4.45134E+01  4.44547E+01  4.43934E+01  4.43316E+01  4.42659E+01
   4.41999E+01  4.41310E+01  4.40593E+01  4.39861E+01  4.39083E+01  4.38294E+01  4.37459E+01  4.36605E+01  4.35727E+01  4.34806E+01
   4.33897E+01  4.32910E+01  4.31977E+01  4.30929E+01  4.29993E+01  4.28903E+01  4.28001E+01  4.26889E+01  4.26065E+01  4.24940E+01
   4.24153E+01  4.23004E+01  4.22090E+01  4.20824E+01  4.19613E+01  4.18277E+01  4.16740E+01  4.15508E+01  4.13751E+01  4.12793E+01
   4.10968E+01  4.10618E+01  4.08880E+01  4.09136E+01  4.07398E+01  4.07925E+01  4.05714E+01  4.06425E+01  4.03435E+01  4.04412E+01
   4.00661E+01  4.02133E+01  3.97848E+01  3.99799E+01  3.95220E+01  3.97425E+01  3.92480E+01  3.94806E+01  3.89624E+01  3.91959E+01
   3.87020E+01  3.89242E+01  3.84993E+01  3.86951E+01  3.83533E+01  3.85075E+01  3.82329E+01  3.83288E+01  3.80717E+01  3.81001E+01
   3.78866E+01  3.78426E+01  3.76566E+01  3.76142E+01  3.74945E+01  3.74751E+01  3.73858E+01  3.74604E+01  3.73947E+01  3.74703E+01
   3.73363E+01  3.73081E+01  3.69607E+01  3.69708E+01  3.65752E+01  3.66188E+01  3.62379E+01  3.63430E+01  3.60598E+01  3.61284E+01
   3.58834E+01  3.58806E+01  3.56564E+01  3.55310E+01  3.52803E+01  3.50522E+01  3.49003E+01  3.46654E+01  3.46185E+01  3.44338E+01
   3.44801E+01  3.43572E+01  3.44675E+01  3.44090E+01  3.45372E+01  3.45321E+01  3.46571E+01  3.46605E+01  3.46710E+01  3.47507E+01
   3.47032E+01  3.48744E+01  3.47680E+01  3.50248E+01  3.48035E+01  3.50042E+01  3.46961E+01  3.48335E+01  3.44526E+01  3.45297E+01
   3.41194E+01  3.41323E+01  3.37317E+01  3.37156E+01  3.33551E+01  3.33244E+01  3.30164E+01  3.29613E+01  3.26730E+01  3.25701E+01
   3.23110E+01  3.21796E+01  3.20662E+01  3.19912E+01  3.19005E+01  3.18303E+01  3.17600E+01  3.16849E+01  3.16200E+01  3.15495E+01
   3.14882E+01  3.14183E+01  3.13567E+01  3.12863E+01  3.12224E+01  3.11578E+01  3.11002E+01  3.10421E+01  3.09893E+01  3.09370E+01
   3.08877E+01  3.08400E+01  3.07924E+01  3.07472E+01  3.07034E+01  3.06625E+01  3.06234E+01  3.05865E+01  3.05479E+01  3.05072E+01
   3.05016E+01  3.04916E+01  3.05740E+01  3.06656E+01  3.08156E+01  3.10189E+01  3.11792E+01  3.14336E+01  3.15081E+01  3.17437E+01
   3.16497E+01  3.18840E+01  3.16515E+01  3.19395E+01  3.15629E+01  3.18654E+01  3.13717E+01  3.16413E+01  3.10881E+01  3.12784E+01
   3.07896E+01  3.10389E+01  3.08091E+01  3.12628E+01  3.13533E+01  3.19990E+01  3.22834E+01  3.28859E+01  3.31935E+01  3.35737E+01
   3.37531E+01  3.39045E+01  3.39259E+01  3.40399E+01  3.38346E+01  3.38601E+01  3.34745E+01  3.35237E+01  3.31373E+01  3.34006E+01
   3.27545E+01  3.31084E+01  3.23282E+01  3.26858E+01  3.17705E+01  3.20437E+01  3.09048E+01  3.12772E+01  3.02795E+01  3.06411E+01
   2.97171E+01  2.99174E+01  2.90706E+01  2.91552E+01  2.84248E+01  2.83160E+01  2.78401E+01  2.78257E+01  2.78011E+01  2.82312E+01
   2.80136E+01  2.79690E+01  2.76022E+01  2.70496E+01  2.64935E+01  2.54799E+01  2.48239E+01  2.43595E+01  2.39882E+01  2.36736E+01
   2.33976E+01  2.31504E+01  2.29257E+01  2.27195E+01  2.25291E+01  2.23525E+01  2.21883E+01  2.20353E+01  2.18928E+01  2.17600E+01
   2.16365E+01  2.15215E+01  2.14144E+01  2.13145E+01  2.12209E+01  2.11325E+01  2.10481E+01  2.09665E+01  2.08861E+01  2.08053E+01
   2.07223E+01  2.06355E+01  2.05431E+01  2.04437E+01  2.03358E+01  2.02184E+01  2.00906E+01  1.99519E+01  1.98023E+01  1.96421E+01
   1.94718E+01  1.92923E+01  1.91049E+01  1.89110E+01  1.87120E+01  1.85096E+01  1.83052E+01  1.81004E+01  1.78964E+01  1.76946E+01
   1.74957E+01  1.73006E+01  1.71099E+01  1.69239E+01  1.67428E+01  1.65667E+01  1.63955E+01  1.62290E+01  1.60670E+01  1.59091E+01
   1.57551E+01  1.56047E+01  1.54575E+01  1.53131E+01  1.51714E+01  1.50320E+01  1.48948E+01  1.47595E+01  1.46259E+01  1.44939E+01
   1.43634E+01  1.42342E+01  1.41062E+01  1.39793E+01  1.38535E+01  1.37287E+01  1.36049E+01  1.34819E+01  1.33597E+01  1.32382E+01
   1.31175E+01  1.29976E+01  1.28782E+01  1.27595E+01  1.26415E+01  1.25240E+01  1.24070E+01  1.22906E+01  1.21748E+01  1.20594E+01
   1.19446E+01  1.18302E+01  1.17162E+01  1.16028E+01  1.14897E+01  1.13771E+01  1.12649E+01  1.11531E+01  1.10417E+01  1.09307E+01
   1.08200E+01  1.07097E+01  1.05997E+01  1.04901E+01  1.03808E+01  1.02718E+01  1.01632E+01  1.00548E+01  9.94677E+00  9.83901E+00
   9.73152E+00  9.62431E+00  9.51736E+00  9.41067E+00  9.30423E+00  9.19803E+00  9.09208E+00  8.98635E+00  8.88084E+00  8.77555E+00
   8.67047E+00  8.56561E+00  8.46094E+00  8.35646E+00  8.25217E+00  8.14807E+00  8.04415E+00  7.94040E+00
 NY background values follow
     8.025E+01    7.984E+01    7.943E+01    7.902E+01    7.861E+01    7.819E+01    7.778E+01    7.737E+01    7.696E+01    7.655E+01
     7.614E+01    7.573E+01    7.532E+01    7.491E+01    7.450E+01    7.410E+01    7.369E+01    7.328E+01    7.288E+01    7.248E+01
     7.207E+01    7.167E+01    7.127E+01    7.087E+01    7.048E+01    7.008E+01    6.969E+01    6.929E+01    6.890E+01    6.851E+01
     6.813E+01    6.774E+01    6.736E+01    6.698E+01    6.660E+01    6.622E+01    6.585E+01    6.547E+01    6.510E+01    6.474E+01
     6.437E+01    6.401E+01    6.365E+01    6.330E+01    6.294E+01    6.259E+01    6.224E+01    6.190E+01    6.156E+01    6.122E+01
     6.089E+01    6.056E+01    6.023E+01    5.991E+01    5.959E+01    5.927E+01    5.896E+01    5.865E+01    5.834E+01    5.804E+01
     5.774E+01    5.745E+01    5.716E+01    5.687E+01    5.659E+01    5.631E+01    5.604E+01    5.577E+01    5.550E+01    5.523E+01
     5.497E+01    5.472E+01    5.447E+01    5.422E+01    5.397E+01    5.373E+01    5.349E+01    5.326E+01    5.303E+01    5.280E+01
     5.258E+01    5.236E+01    5.215E+01    5.194E+01    5.173E+01    5.152E+01    5.132E+01    5.113E+01    5.093E+01    5.074E+01
     5.056E+01    5.038E+01    5.020E+01    5.002E+01    4.985E+01    4.968E+01    4.952E+01    4.936E+01    4.920E+01    4.905E+01
     4.890E+01    4.876E+01    4.861E+01    4.847E+01    4.834E+01    4.821E+01    4.808E+01    4.796E+01    4.784E+01    4.772E+01
     4.761E+01    4.750E+01    4.739E+01    4.729E+01    4.719E+01    4.709E+01    4.700E+01    4.691E+01    4.682E+01    4.674E+01
     4.665E+01    4.657E+01    4.650E+01    4.642E+01    4.635E+01    4.628E+01    4.621E+01    4.615E+01    4.608E+01    4.602E+01
     4.596E+01    4.590E+01    4.584E+01    4.578E+01    4.573E+01    4.567E+01    4.562E+01    4.557E+01    4.551E+01    4.546E+01
     4.541E+01    4.536E+01    4.531E+01    4.526E+01    4.521E+01    4.516E+01    4.511E+01    4.506E+01    4.501E+01    4.496E+01
     4.491E+01    4.486E+01    4.481E+01    4.475E+01    4.470E+01    4.464E+01    4.459E+01    4.453E+01    4.447E+01    4.441E+01
     4.435E+01    4.428E+01    4.422E+01    4.415E+01    4.408E+01    4.401E+01    4.394E+01    4.386E+01    4.378E+01    4.370E+01
     4.362E+01    4.353E+01    4.345E+01    4.336E+01    4.327E+01    4.318E+01    4.308E+01    4.299E+01    4.289E+01    4.279E+01
     4.269E+01    4.259E+01    4.248E+01    4.238E+01    4.227E+01    4.216E+01    4.205E+01    4.194E+01    4.183E+01    4.172E+01
     4.160E+01    4.149E+01    4.137E+01    4.126E+01    4.114E+01    4.102E+01    4.090E+01    4.078E+01    4.066E+01    4.054E+01
     4.041E+01    4.029E+01    4.017E+01    4.004E+01    3.992E+01    3.980E+01    3.967E+01    3.955E+01    3.942E+01    3.929E+01
     3.917E+01    3.904E+01    3.892E+01    3.879E+01    3.867E+01    3.854E+01    3.842E+01    3.829E+01    3.817E+01    3.804E+01
     3.792E+01    3.780E+01    3.767E+01    3.755E+01    3.743E+01    3.731E+01    3.719E+01    3.707E+01    3.695E+01    3.683E+01
     3.671E+01    3.659E+01    3.648E+01    3.636E+01    3.624E+01    3.613E+01    3.601E+01    3.590E+01    3.578E+01    3.567E+01
     3.556E+01    3.545E+01    3.534E+01    3.523E+01    3.511E+01    3.501E+01    3.490E+01    3.479E+01    3.468E+01    3.457E+01
     3.447E+01    3.436E+01    3.426E+01    3.415E+01    3.405E+01    3.395E+01    3.384E+01    3.374E+01    3.364E+01    3.354E+01
     3.344E+01    3.334E+01    3.325E+01    3.315E+01    3.305E+01    3.296E+01    3.286E+01    3.277E+01    3.267E+01    3.258E+01
     3.249E+01    3.240E+01    3.231E+01    3.222E+01    3.213E+01    3.204E+01    3.195E+01    3.187E+01    3.178E+01    3.170E+01
     3.161E+01    3.153E+01    3.145E+01    3.136E+01    3.128E+01    3.120E+01    3.112E+01    3.104E+01    3.096E+01    3.088E+01
     3.080E+01    3.072E+01    3.064E+01    3.057E+01    3.049E+01    3.041E+01    3.033E+01    3.025E+01    3.018E+01    3.010E+01
     3.002E+01    2.994E+01    2.987E+01    2.979E+01    2.971E+01    2.963E+01    2.956E+01    2.948E+01    2.940E+01    2.932E+01
     2.924E+01    2.916E+01    2.908E+01    2.900E+01    2.892E+01    2.884E+01    2.875E+01    2.867E+01    2.859E+01    2.850E+01
     2.842E+01    2.833E+01    2.825E+01    2.816E+01    2.807E+01    2.798E+01    2.789E+01    2.780E+01    2.771E+01    2.762E+01
     2.753E+01    2.743E+01    2.734E+01    2.724E+01    2.714E+01    2.704E+01    2.694E+01    2.684E+01    2.674E+01    2.664E+01
     2.653E+01    2.643E+01    2.632E+01    2.621E+01    2.611E+01    2.600E+01    2.589E+01    2.578E+01    2.567E+01    2.555E+01
     2.544E+01    2.533E+01    2.521E+01    2.510E+01    2.498E+01    2.486E+01    2.475E+01    2.463E+01    2.451E+01    2.439E+01
     2.427E+01    2.415E+01    2.403E+01    2.391E+01    2.379E+01    2.366E+01    2.354E+01    2.342E+01    2.329E+01    2.317E+01
     2.304E+01    2.292E+01    2.279E+01    2.267E+01    2.254E+01    2.241E+01    2.229E+01    2.216E+01    2.203E+01    2.190E+01
     2.178E+01    2.165E+01    2.152E+01    2.139E+01    2.126E+01    2.113E+01    2.100E+01    2.087E+01    2.074E+01    2.062E+01
     2.049E+01    2.036E+01    2.023E+01    2.010E+01    1.997E+01    1.984E+01    1.971E+01    1.958E+01    1.945E+01    1.932E+01
     1.919E+01    1.906E+01    1.893E+01    1.880E+01    1.867E+01    1.854E+01    1.841E+01    1.828E+01    1.815E+01    1.802E+01
     1.790E+01    1.777E+01    1.764E+01    1.751E+01    1.738E+01    1.725E+01    1.713E+01    1.700E+01    1.687E+01    1.674E+01
     1.662E+01    1.649E+01    1.636E+01    1.624E+01    1.611E+01    1.599E+01    1.586E+01    1.574E+01    1.561E+01    1.549E+01
     1.536E+01    1.524E+01    1.511E+01    1.499E+01    1.487E+01    1.475E+01    1.462E+01    1.450E+01    1.438E+01    1.426E+01
     1.414E+01    1.402E+01    1.390E+01    1.378E+01    1.366E+01    1.355E+01    1.343E+01    1.331E+01    1.320E+01    1.308E+01
     1.296E+01    1.285E+01    1.273E+01    1.262E+01    1.250E+01    1.239E+01    1.228E+01    1.216E+01    1.205E+01    1.194E+01
     1.183E+01    1.172E+01    1.160E+01    1.149E+01    1.138E+01    1.127E+01    1.116E+01    1.105E+01    1.094E+01    1.083E+01
     1.073E+01    1.062E+01    1.051E+01    1.040E+01    1.029E+01    1.019E+01    1.008E+01    9.971E+00    9.865E+00    9.758E+00
     9.652E+00    9.546E+00    9.441E+00    9.335E+00    9.230E+00    9.125E+00    9.020E+00    8.915E+00    8.811E+00    8.706E+00
     8.602E+00    8.498E+00    8.394E+00    8.291E+00    8.187E+00    8.084E+00    7.981E+00    7.878E+00
 Ala      Conc. = 6.88E+02
