 LCModel (Version 6.3-1L) Copyright: S.W. Provencher.          Ref.: Magn. Reson. Med. 30:672-679 (1993).                
 Slice#3 Row#6 Col#5  K_02_press_1_raw_act
 36 lines in following concentration table = NCONC+1
    Conc.  %SD /Cr+PCr  Metabolite                                         
   20.394 514% 9.3E-03 Ala                                                 
    0.000 999%   0.000 Asp                                                 
  908.818  24%   0.414 Cr                                                  
 1.29E+03  17%   0.586 PCr                                                 
    0.000 999%   0.000 GABA                                                
    0.000 999%   0.000 Glc                                                 
  476.502  45%   0.217 Gln                                                 
 1.77E+03  13%   0.805 Glu                                                 
  718.059   4%   0.327 GPC                                                 
    0.000 999%   0.000 PCh                                                 
  604.459  12%   0.275 GSH                                                 
  770.063  35%   0.350 Ins                                                 
    0.000 999%   0.000 Lac                                                 
 2.45E+03   5%   1.114 NAA                                                 
  489.721  22%   0.223 NAAG                                                
   13.105 226% 6.0E-03 Scyllo                                              
    0.000 999%   0.000 Tau                                                 
    0.000 999%   0.000 -CrCH2                                              
  718.059   4%   0.327 GPC+PCh                                             
 2.94E+03   3%   1.337 NAA+NAAG                                            
 2.20E+03   3%   1.000 Cr+PCr                                              
 2.25E+03  15%   1.022 Glu+Gln                                             
    0.000 999%   0.000 Lip13a                                              
    0.000 999%   0.000 Lip13b                                              
    0.000 999%   0.000 Lip09                                               
 1.50E+03  18%   0.681 MM09                                                
 1.83E-03 999% 8.3E-07 Lip20                                               
 2.46E+03  17%   1.120 MM20                                                
  334.453  38%   0.152 MM12                                                
 2.33E+03  15%   1.063 MM14                                                
 1.48E+03  17%   0.672 MM17                                                
    0.000 999%   0.000 Lip13a+Lip13b                                       
 2.67E+03  15%   1.215 MM14+Lip13a+Lip13b+MM12                             
 1.50E+03  18%   0.681 MM09+Lip09                                          
 2.46E+03  17%   1.120 MM20+Lip20                                          
   6 lines in following misc. output table
  FWHM = 0.038 ppm    S/N =  14                                            
  Data shift = 0.015 ppm                                                   
  Ph:   4 deg       0.3 deg/ppm                                            
  alphaB,S = 3.5E-01,   9.1E+01                                            
   14 spline knots.   Ns = 6(1)                                            
  (11) 2 infls.   ( 7) 1 extrs.                                            
  498 points on ppm-axis = NY
      4.000000     3.992357     3.984714     3.977070     3.969427     3.961784     3.954141     3.946497     3.938854     3.931211
      3.923568     3.915925     3.908281     3.900638     3.892995     3.885352     3.877708     3.870065     3.862422     3.854779
      3.847136     3.839492     3.831849     3.824206     3.816563     3.808919     3.801276     3.793633     3.785990     3.778347
      3.770703     3.763060     3.755417     3.747774     3.740130     3.732487     3.724844     3.717201     3.709558     3.701914
      3.694271     3.686628     3.678985     3.671341     3.663698     3.656055     3.648412     3.640769     3.633125     3.625482
      3.617839     3.610196     3.602552     3.594909     3.587266     3.579623     3.571980     3.564336     3.556693     3.549050
      3.541407     3.533763     3.526120     3.518477     3.510834     3.503191     3.495547     3.487904     3.480261     3.472618
      3.464974     3.457331     3.449688     3.442045     3.434402     3.426758     3.419115     3.411472     3.403829     3.396185
      3.388542     3.380899     3.373256     3.365613     3.357969     3.350326     3.342683     3.335040     3.327396     3.319753
      3.312110     3.304467     3.296824     3.289180     3.281537     3.273894     3.266251     3.258607     3.250964     3.243321
      3.235678     3.228034     3.220391     3.212748     3.205105     3.197462     3.189818     3.182175     3.174532     3.166889
      3.159245     3.151602     3.143959     3.136316     3.128673     3.121029     3.113386     3.105743     3.098100     3.090456
      3.082813     3.075170     3.067527     3.059884     3.052240     3.044597     3.036954     3.029311     3.021667     3.014024
      3.006381     2.998738     2.991095     2.983451     2.975808     2.968165     2.960522     2.952878     2.945235     2.937592
      2.929949     2.922306     2.914662     2.907019     2.899376     2.891733     2.884089     2.876446     2.868803     2.861160
      2.853517     2.845873     2.838230     2.830587     2.822944     2.815300     2.807657     2.800014     2.792371     2.784728
      2.777084     2.769441     2.761798     2.754155     2.746511     2.738868     2.731225     2.723582     2.715939     2.708295
      2.700652     2.693009     2.685366     2.677722     2.670079     2.662436     2.654793     2.647150     2.639506     2.631863
      2.624220     2.616577     2.608933     2.601290     2.593647     2.586004     2.578361     2.570717     2.563074     2.555431
      2.547788     2.540144     2.532501     2.524858     2.517215     2.509572     2.501928     2.494285     2.486642     2.478999
      2.471355     2.463712     2.456069     2.448426     2.440783     2.433139     2.425496     2.417853     2.410210     2.402566
      2.394923     2.387280     2.379637     2.371994     2.364350     2.356707     2.349064     2.341421     2.333777     2.326134
      2.318491     2.310848     2.303205     2.295561     2.287918     2.280275     2.272632     2.264988     2.257345     2.249702
      2.242059     2.234416     2.226772     2.219129     2.211486     2.203843     2.196199     2.188556     2.180913     2.173270
      2.165627     2.157983     2.150340     2.142697     2.135054     2.127410     2.119767     2.112124     2.104481     2.096838
      2.089194     2.081551     2.073908     2.066265     2.058621     2.050978     2.043335     2.035692     2.028049     2.020405
      2.012762     2.005119     1.997476     1.989833     1.982190     1.974546     1.966903     1.959260     1.951617     1.943974
      1.936331     1.928688     1.921045     1.913402     1.905759     1.898115     1.890472     1.882829     1.875186     1.867543
      1.859900     1.852257     1.844614     1.836971     1.829327     1.821684     1.814041     1.806398     1.798755     1.791112
      1.783469     1.775826     1.768183     1.760540     1.752896     1.745253     1.737610     1.729967     1.722324     1.714681
      1.707038     1.699395     1.691752     1.684108     1.676465     1.668822     1.661179     1.653536     1.645893     1.638250
      1.630607     1.622964     1.615321     1.607677     1.600034     1.592391     1.584748     1.577105     1.569462     1.561819
      1.554176     1.546533     1.538890     1.531246     1.523603     1.515960     1.508317     1.500674     1.493031     1.485388
      1.477745     1.470102     1.462458     1.454815     1.447172     1.439529     1.431886     1.424243     1.416600     1.408957
      1.401314     1.393671     1.386027     1.378384     1.370741     1.363098     1.355455     1.347812     1.340169     1.332526
      1.324883     1.317240     1.309596     1.301953     1.294310     1.286667     1.279024     1.271381     1.263738     1.256095
      1.248452     1.240808     1.233165     1.225522     1.217879     1.210236     1.202593     1.194950     1.187307     1.179664
      1.172021     1.164377     1.156734     1.149091     1.141448     1.133805     1.126162     1.118519     1.110876     1.103233
      1.095590     1.087946     1.080303     1.072660     1.065017     1.057374     1.049731     1.042088     1.034445     1.026802
      1.019158     1.011515     1.003872     0.996229     0.988586     0.980943     0.973300     0.965657     0.958014     0.950371
      0.942727     0.935084     0.927441     0.919798     0.912155     0.904512     0.896869     0.889226     0.881583     0.873940
      0.866296     0.858653     0.851010     0.843367     0.835724     0.828081     0.820438     0.812795     0.805152     0.797508
      0.789865     0.782222     0.774579     0.766936     0.759293     0.751650     0.744007     0.736364     0.728721     0.721077
      0.713434     0.705791     0.698148     0.690505     0.682862     0.675219     0.667576     0.659933     0.652290     0.644646
      0.637003     0.629360     0.621717     0.614074     0.606431     0.598788     0.591145     0.583502     0.575858     0.568215
      0.560572     0.552929     0.545286     0.537643     0.530000     0.522357     0.514714     0.507071     0.499427     0.491784
      0.484141     0.476498     0.468855     0.461212     0.453569     0.445925     0.438282     0.430639     0.422996     0.415353
      0.407710     0.400067     0.392424     0.384780     0.377137     0.369494     0.361851     0.354208     0.346565     0.338922
      0.331278     0.323635     0.315992     0.308349     0.300706     0.293063     0.285420     0.277777     0.270133     0.262490
      0.254847     0.247204     0.239561     0.231918     0.224275     0.216631     0.208988     0.201345
 NY phased data points follow
   4.31428E+01  4.52937E+01  5.06688E+01  4.66682E+01  5.34620E+01  5.53953E+01  6.50186E+01  7.48693E+01  8.39889E+01  9.67070E+01
   9.83827E+01  1.00217E+02  9.16486E+01  8.42962E+01  6.98319E+01  6.37897E+01  5.23589E+01  5.11229E+01  4.01988E+01  3.84699E+01
   4.31456E+01  3.65441E+01  3.81005E+01  4.33551E+01  4.11051E+01  4.09584E+01  4.76647E+01  4.57481E+01  4.36006E+01  4.59937E+01
   5.04752E+01  5.44408E+01  5.31825E+01  4.77078E+01  4.40873E+01  4.52346E+01  3.89094E+01  3.87988E+01  3.83843E+01  3.45602E+01
   3.95458E+01  4.06931E+01  3.70762E+01  3.73180E+01  3.69929E+01  4.02230E+01  4.43305E+01  4.58516E+01  4.34647E+01  4.25267E+01
   4.20896E+01  3.69325E+01  3.22795E+01  3.20410E+01  2.72153E+01  2.95040E+01  2.97007E+01  3.25573E+01  3.29176E+01  2.82819E+01
   2.70265E+01  2.47832E+01  2.29578E+01  2.21947E+01  2.16828E+01  1.58740E+01  1.72209E+01  1.61205E+01  1.46757E+01  1.81402E+01
   2.12268E+01  1.87099E+01  1.97067E+01  1.61387E+01  1.62398E+01  1.56682E+01  2.05466E+01  1.44413E+01  1.55048E+01  1.60664E+01
   1.53768E+01  1.62981E+01  1.56839E+01  1.90089E+01  1.88201E+01  1.85785E+01  1.53800E+01  1.81458E+01  1.73601E+01  2.05331E+01
   1.68543E+01  1.84652E+01  2.00510E+01  2.41221E+01  2.53628E+01  2.19988E+01  2.51343E+01  2.76218E+01  3.01290E+01  4.21994E+01
   5.44165E+01  6.87980E+01  8.16436E+01  9.11079E+01  8.70906E+01  7.16597E+01  6.19966E+01  4.84436E+01  3.72552E+01  3.03507E+01
   2.77906E+01  2.41093E+01  1.91164E+01  1.87479E+01  1.87549E+01  2.10007E+01  1.94279E+01  2.08886E+01  2.53239E+01  2.50202E+01
   2.05978E+01  2.23016E+01  2.95502E+01  3.56422E+01  4.98836E+01  6.49592E+01  8.49339E+01  9.59876E+01  9.50061E+01  8.14723E+01
   6.37756E+01  5.01931E+01  4.01158E+01  2.45034E+01  2.52827E+01  2.01661E+01  1.60784E+01  1.45690E+01  1.73724E+01  1.25264E+01
   1.93047E+01  1.60758E+01  1.47570E+01  1.62324E+01  1.42332E+01  1.46087E+01  1.61149E+01  1.11957E+01  1.25887E+01  1.25995E+01
   1.27382E+01  8.31986E+00  7.85641E+00  9.84817E+00  8.06768E+00  1.20160E+01  7.35175E+00  7.08724E+00  1.04366E+01  1.12644E+01
   8.05464E+00  7.41897E+00  2.88880E+00  1.67501E+00  3.86612E+00  7.47592E+00  1.41768E+01  7.93928E+00  2.31745E+00  2.33750E+00
   5.60374E+00 -2.15101E+00 -7.63017E+00 -2.06657E+00 -4.67155E+00 -7.83853E+00 -7.61127E+00 -5.16778E+00 -1.53709E+00 -3.20486E+00
  -2.51891E+00 -8.15828E+00 -1.56101E+00 -6.48319E+00 -5.98698E+00 -3.73589E+00  2.85605E+00 -4.21244E+00  4.86019E+00  1.27851E+01
   1.27733E+01  1.29413E+01  2.15913E+01  1.58022E+01  1.27507E+01  1.91859E+01  1.46966E+01  6.38764E+00  8.23797E+00  8.62925E+00
   9.54188E+00  6.26724E+00  1.42090E+01  1.22122E+01  1.58292E+01  1.15278E+01  7.18322E+00  7.52901E+00  6.81084E+00  2.87982E+00
   1.88666E+00  9.41698E+00  5.40528E+00  1.39596E+01  2.14840E+01  2.40233E+01  2.77220E+01  2.25835E+01  2.20921E+01  1.24587E+01
   1.03834E+01  6.80219E+00  5.88880E+00  1.14276E+01  1.34513E+01  1.54301E+01  1.55147E+01  2.26874E+01  2.83427E+01  2.66095E+01
   2.17423E+01  1.99969E+01  2.27887E+01  2.03517E+01  2.24617E+01  2.11287E+01  2.50695E+01  1.88279E+01  2.30754E+01  1.95516E+01
   1.54171E+01  1.19139E+01  1.46986E+01  2.02643E+01  2.03535E+01  1.92891E+01  2.81235E+01  2.60936E+01  2.90555E+01  3.20348E+01
   3.19715E+01  3.57248E+01  3.82607E+01  4.38352E+01  5.22299E+01  5.87058E+01  6.65352E+01  7.55499E+01  8.57203E+01  1.13291E+02
   1.36041E+02  1.31190E+02  1.02519E+02  7.92717E+01  6.40962E+01  4.76365E+01  3.69812E+01  3.27029E+01  2.79533E+01  2.53502E+01
   2.67356E+01  2.37179E+01  2.31911E+01  2.69474E+01  2.38957E+01  2.59450E+01  2.66163E+01  2.51289E+01  1.90190E+01  2.20617E+01
   1.97349E+01  2.16685E+01  2.15623E+01  1.87100E+01  2.14518E+01  1.86094E+01  2.15069E+01  2.42398E+01  2.27251E+01  2.00878E+01
   2.25471E+01  1.89151E+01  2.46293E+01  2.28391E+01  2.53419E+01  2.34794E+01  2.35817E+01  1.89726E+01  2.52435E+01  2.33005E+01
   2.63951E+01  2.65175E+01  2.66497E+01  2.09908E+01  2.38037E+01  3.13231E+01  2.65630E+01  2.25821E+01  2.86485E+01  2.90497E+01
   2.74756E+01  3.18024E+01  2.45974E+01  3.30207E+01  2.57931E+01  2.91911E+01  2.78607E+01  2.48572E+01  3.01611E+01  2.26234E+01
   2.13086E+01  2.52622E+01  2.33446E+01  2.66576E+01  2.01584E+01  2.55727E+01  2.10513E+01  2.27702E+01  2.31448E+01  2.46185E+01
   2.21416E+01  2.11875E+01  1.94776E+01  2.19708E+01  2.18387E+01  2.12000E+01  1.67788E+01  2.07624E+01  1.38701E+01  1.35652E+01
   1.44489E+01  1.07920E+01  1.44542E+01  1.22629E+01  7.87478E+00  9.04475E+00  6.77232E+00  1.00471E+01  1.03255E+01  4.94271E+00
   5.79642E+00  4.32957E+00  2.63591E+00 -8.13693E-02  6.49595E+00  4.04478E-01  1.05744E+00 -5.15097E+00 -7.90726E+00 -6.88608E+00
  -1.06577E+01 -9.18630E+00 -4.04503E+00 -8.80068E+00 -7.28172E+00 -8.89181E+00 -7.80208E+00 -9.13484E+00 -8.47729E+00 -7.16524E+00
  -9.12604E+00 -6.03556E+00 -5.07927E+00 -2.36866E+00 -8.82307E+00 -4.43542E+00 -9.19552E+00 -4.25494E+00 -8.21918E+00 -8.14439E+00
  -3.29563E+00 -7.57906E+00 -7.86706E+00 -3.48655E+00 -4.93670E+00 -1.37051E+01 -9.86956E+00 -8.81457E+00 -1.00607E+01 -6.46578E+00
  -7.06177E+00 -9.08618E+00 -2.93268E+00 -9.88740E+00 -4.43346E+00 -3.98114E+00 -2.07755E-01 -2.75936E+00 -1.79731E+00 -8.27093E+00
  -3.51686E+00 -6.58619E+00 -5.99304E+00 -2.97839E+00 -5.94675E+00  2.80008E+00  9.80384E-01  4.40141E+00  2.69923E+00  2.93634E+00
   3.17874E+00 -3.90892E-01 -5.00240E+00 -4.46046E-01 -3.80286E-01 -1.29379E+00 -4.62543E+00 -7.99326E+00 -2.90167E+00 -4.76492E+00
  -7.29892E+00 -7.43519E+00 -5.17169E+00 -2.68652E+00 -4.29769E+00 -3.17463E+00 -7.70310E+00 -2.28755E+00 -7.23617E+00 -3.11758E+00
  -2.23185E+00 -5.46881E+00 -5.52763E+00 -4.46377E+00 -5.80900E+00 -5.95050E+00 -1.08404E+00 -4.89310E+00 -7.64145E+00 -2.74972E+00
   4.72284E-01 -2.22690E+00 -5.93723E+00 -7.20860E+00 -3.20768E+00 -3.02023E+00 -3.11061E+00 -4.17082E+00 -6.24483E+00 -3.69673E+00
  -8.44772E+00 -3.09540E+00 -2.82812E+00 -4.21464E-01 -3.09491E+00 -6.33526E+00 -5.73074E+00 -5.56466E+00 -5.18504E+00 -4.27125E+00
  -4.62847E+00 -3.85024E+00 -3.86025E+00 -4.72317E+00 -6.54433E+00 -1.24643E+00 -4.25483E+00 -5.09566E+00 -5.11116E+00 -5.64381E+00
  -2.45614E+00 -2.34328E+00 -1.49551E+00 -4.68448E+00 -4.26893E+00 -1.84214E+00 -2.88666E+00 -4.20850E+00 -3.07855E+00 -3.06076E+00
  -3.98583E+00 -1.69208E+00  2.36492E+00 -3.99353E+00 -1.10640E+00 -3.68449E+00 -3.10981E+00 -4.09842E+00 -4.11840E+00 -6.06259E+00
  -4.83122E+00 -2.81284E+00 -2.56501E+00 -3.21512E+00 -3.90243E+00  8.04554E-01 -1.72144E+00 -5.56143E+00
 NY points of the fit to the data follow
   4.73506E+01  4.71255E+01  4.73685E+01  4.86642E+01  5.18114E+01  5.66580E+01  6.32873E+01  7.20646E+01  8.28968E+01  9.33224E+01
   9.90980E+01  9.74738E+01  8.95462E+01  7.90063E+01  6.90941E+01  6.11000E+01  5.48832E+01  5.01806E+01  4.70354E+01  4.51039E+01
   4.39653E+01  4.30677E+01  4.20347E+01  4.09629E+01  4.04417E+01  4.04657E+01  4.08190E+01  4.21079E+01  4.50865E+01  4.94287E+01
   5.32055E+01  5.46100E+01  5.33768E+01  5.03939E+01  4.65598E+01  4.24023E+01  3.85486E+01  3.57460E+01  3.44446E+01  3.42824E+01
   3.46813E+01  3.54184E+01  3.62542E+01  3.69698E+01  3.75858E+01  3.83591E+01  3.91950E+01  3.94583E+01  3.87152E+01  3.71076E+01
   3.51583E+01  3.32928E+01  3.16445E+01  3.02818E+01  2.93046E+01  2.87215E+01  2.84331E+01  2.83041E+01  2.83101E+01  2.83296E+01
   2.81200E+01  2.75299E+01  2.66036E+01  2.55545E+01  2.46128E+01  2.39322E+01  2.35690E+01  2.34561E+01  2.34868E+01  2.35646E+01
   2.36501E+01  2.36701E+01  2.35301E+01  2.31900E+01  2.27148E+01  2.22249E+01  2.17852E+01  2.14055E+01  2.10718E+01  2.07745E+01
   2.05349E+01  2.02918E+01  2.00059E+01  1.96858E+01  1.93295E+01  1.88655E+01  1.82342E+01  1.75269E+01  1.69790E+01  1.67692E+01
   1.69118E+01  1.72800E+01  1.77335E+01  1.82134E+01  1.87321E+01  1.93890E+01  2.08770E+01  2.50895E+01  3.17198E+01  4.02720E+01
   5.24195E+01  6.85603E+01  8.45616E+01  9.27704E+01  8.86583E+01  7.53706E+01  5.98429E+01  4.63997E+01  3.58209E+01  2.76773E+01
   2.16506E+01  1.83981E+01  1.72373E+01  1.67409E+01  1.64697E+01  1.63120E+01  1.62380E+01  1.62367E+01  1.63315E+01  1.66609E+01
   1.78499E+01  2.19658E+01  2.92102E+01  3.82678E+01  5.07409E+01  6.78149E+01  8.61077E+01  9.74667E+01  9.55893E+01  8.24300E+01
   6.56844E+01  5.10284E+01  3.95114E+01  3.02253E+01  2.23689E+01  1.67129E+01  1.37454E+01  1.22974E+01  1.20007E+01  1.25863E+01
   1.36042E+01  1.45473E+01  1.50642E+01  1.50031E+01  1.44800E+01  1.37631E+01  1.30202E+01  1.23177E+01  1.16873E+01  1.10880E+01
   1.05426E+01  1.00225E+01  9.53134E+00  9.11864E+00  8.83825E+00  8.63847E+00  8.50560E+00  8.34243E+00  7.93897E+00  7.24674E+00
   6.36573E+00  5.71610E+00  5.69891E+00  6.17412E+00  6.56757E+00  6.40104E+00  5.63935E+00  4.67264E+00  3.89374E+00  3.32737E+00
   2.87091E+00  2.45747E+00  2.07592E+00  1.59367E+00  9.46094E-01  3.07970E-01  1.53024E-01  6.58429E-01  1.33042E+00  1.54837E+00
   1.26282E+00  9.43130E-01  1.07263E+00  1.58634E+00  2.01504E+00  2.29918E+00  2.98614E+00  4.50729E+00  6.80372E+00  9.28293E+00
   1.12498E+01  1.23301E+01  1.22912E+01  1.14221E+01  1.02396E+01  9.04802E+00  8.04013E+00  7.50719E+00  7.85155E+00  9.13760E+00
   1.10211E+01  1.29683E+01  1.46488E+01  1.58426E+01  1.60321E+01  1.51140E+01  1.31653E+01  1.05391E+01  7.98167E+00  6.25034E+00
   6.04803E+00  7.31657E+00  9.73580E+00  1.31896E+01  1.73031E+01  2.07953E+01  2.19221E+01  2.01129E+01  1.63459E+01  1.20656E+01
   7.98589E+00  4.73991E+00  3.48030E+00  5.00551E+00  8.89190E+00  1.34170E+01  1.70855E+01  1.95856E+01  2.10117E+01  2.13978E+01
   2.08750E+01  2.00978E+01  1.99222E+01  2.05983E+01  2.17298E+01  2.29792E+01  2.41138E+01  2.46771E+01  2.43423E+01  2.31040E+01
   2.14496E+01  2.00286E+01  1.94413E+01  2.00222E+01  2.16316E+01  2.37309E+01  2.56734E+01  2.70672E+01  2.78913E+01  2.87079E+01
   3.01143E+01  3.20431E+01  3.50330E+01  3.98353E+01  4.83991E+01  5.97752E+01  6.94500E+01  7.98158E+01  9.53169E+01  1.14612E+02
   1.27712E+02  1.24870E+02  1.07260E+02  8.50768E+01  6.61682E+01  5.16020E+01  4.03790E+01  3.16733E+01  2.62676E+01  2.45472E+01
   2.38179E+01  2.33988E+01  2.32298E+01  2.32192E+01  2.31724E+01  2.29814E+01  2.26540E+01  2.22825E+01  2.19188E+01  2.15758E+01
   2.12643E+01  2.10233E+01  2.08692E+01  2.07593E+01  2.06357E+01  2.04925E+01  2.03539E+01  2.02354E+01  2.01511E+01  2.01227E+01
   2.01790E+01  2.03291E+01  2.05449E+01  2.07989E+01  2.10876E+01  2.14128E+01  2.17748E+01  2.21769E+01  2.26262E+01  2.31315E+01
   2.36876E+01  2.42698E+01  2.48500E+01  2.54037E+01  2.59080E+01  2.63428E+01  2.66909E+01  2.69395E+01  2.70846E+01  2.71240E+01
   2.70593E+01  2.68964E+01  2.66463E+01  2.63246E+01  2.59508E+01  2.55455E+01  2.51288E+01  2.47196E+01  2.43357E+01  2.39924E+01
   2.37024E+01  2.34739E+01  2.32951E+01  2.31537E+01  2.30443E+01  2.29439E+01  2.28087E+01  2.25946E+01  2.22929E+01  2.19402E+01
   2.15654E+01  2.11534E+01  2.06887E+01  2.01746E+01  1.96136E+01  1.89832E+01  1.82341E+01  1.73411E+01  1.63285E+01  1.52350E+01
   1.40903E+01  1.29158E+01  1.17285E+01  1.05496E+01  9.39876E+00  8.28348E+00  7.21148E+00  6.19026E+00  5.22551E+00  4.32048E+00
   3.47637E+00  2.69305E+00  1.96944E+00  1.30339E+00  6.91445E-01  1.29029E-01 -3.88786E-01 -8.66631E-01 -1.30874E+00 -1.71930E+00
  -2.10266E+00 -2.46306E+00 -2.80401E+00 -3.12824E+00 -3.43796E+00 -3.73520E+00 -4.02187E+00 -4.29944E+00 -4.56853E+00 -4.82896E+00
  -5.08021E+00 -5.32189E+00 -5.55360E+00 -5.77454E+00 -5.98329E+00 -6.17807E+00 -6.35721E+00 -6.51936E+00 -6.66317E+00 -6.78691E+00
  -6.88836E+00 -6.96528E+00 -7.01568E+00 -7.03785E+00 -7.02993E+00 -6.98968E+00 -6.91465E+00 -6.80270E+00 -6.65227E+00 -6.46229E+00
  -6.23188E+00 -5.96044E+00 -5.64810E+00 -5.29628E+00 -4.90784E+00 -4.48686E+00 -4.03847E+00 -3.56890E+00 -3.08589E+00 -2.59872E+00
  -2.11789E+00 -1.65442E+00 -1.21932E+00 -8.23371E-01 -4.77052E-01 -1.90070E-01  2.93753E-02  1.75309E-01  2.44211E-01  2.34850E-01
   1.48181E-01 -1.26019E-02 -2.41913E-01 -5.31897E-01 -8.73027E-01 -1.25489E+00 -1.66682E+00 -2.09808E+00 -2.53805E+00 -2.97657E+00
  -3.40456E+00 -3.81445E+00 -4.20031E+00 -4.55757E+00 -4.88275E+00 -5.17352E+00 -5.42887E+00 -5.64907E+00 -5.83531E+00 -5.98921E+00
  -6.11253E+00 -6.20733E+00 -6.27604E+00 -6.32142E+00 -6.34614E+00 -6.35249E+00 -6.34246E+00 -6.31794E+00 -6.28094E+00 -6.23344E+00
  -6.17707E+00 -6.11303E+00 -6.04229E+00 -5.96592E+00 -5.88510E+00 -5.80093E+00 -5.71417E+00 -5.62527E+00 -5.53470E+00 -5.44314E+00
  -5.35135E+00 -5.25996E+00 -5.16926E+00 -5.07937E+00 -4.99036E+00 -4.90247E+00 -4.81602E+00 -4.73106E+00 -4.64743E+00 -4.56495E+00
  -4.48371E+00 -4.40392E+00 -4.32573E+00 -4.24902E+00 -4.17355E+00 -4.09919E+00 -4.02606E+00 -3.95436E+00 -3.88409E+00 -3.81503E+00
  -3.74693E+00 -3.67974E+00 -3.61364E+00 -3.54873E+00 -3.48490E+00 -3.42185E+00 -3.35941E+00 -3.29764E+00 -3.23670E+00 -3.17660E+00
  -3.11713E+00 -3.05800E+00 -2.99912E+00 -2.94061E+00 -2.88260E+00 -2.82498E+00 -2.76746E+00 -2.70983E+00 -2.65209E+00 -2.59439E+00
  -2.53677E+00 -2.47900E+00 -2.42081E+00 -2.36204E+00 -2.30280E+00 -2.24319E+00 -2.18314E+00 -2.12235E+00
 NY background values follow
     4.436E+01    4.400E+01    4.363E+01    4.327E+01    4.290E+01    4.253E+01    4.217E+01    4.180E+01    4.143E+01    4.106E+01
     4.069E+01    4.031E+01    3.994E+01    3.957E+01    3.920E+01    3.883E+01    3.846E+01    3.809E+01    3.771E+01    3.734E+01
     3.697E+01    3.661E+01    3.624E+01    3.587E+01    3.550E+01    3.514E+01    3.477E+01    3.441E+01    3.405E+01    3.369E+01
     3.333E+01    3.297E+01    3.261E+01    3.226E+01    3.191E+01    3.156E+01    3.121E+01    3.086E+01    3.052E+01    3.018E+01
     2.984E+01    2.950E+01    2.917E+01    2.884E+01    2.851E+01    2.818E+01    2.786E+01    2.754E+01    2.723E+01    2.691E+01
     2.660E+01    2.630E+01    2.600E+01    2.570E+01    2.540E+01    2.510E+01    2.481E+01    2.453E+01    2.424E+01    2.396E+01
     2.369E+01    2.341E+01    2.314E+01    2.287E+01    2.261E+01    2.235E+01    2.209E+01    2.184E+01    2.159E+01    2.134E+01
     2.110E+01    2.086E+01    2.063E+01    2.039E+01    2.016E+01    1.994E+01    1.972E+01    1.950E+01    1.929E+01    1.908E+01
     1.887E+01    1.867E+01    1.847E+01    1.827E+01    1.808E+01    1.789E+01    1.771E+01    1.753E+01    1.735E+01    1.718E+01
     1.701E+01    1.684E+01    1.668E+01    1.652E+01    1.637E+01    1.622E+01    1.607E+01    1.593E+01    1.579E+01    1.565E+01
     1.551E+01    1.538E+01    1.525E+01    1.512E+01    1.499E+01    1.487E+01    1.474E+01    1.462E+01    1.450E+01    1.438E+01
     1.426E+01    1.414E+01    1.403E+01    1.391E+01    1.380E+01    1.368E+01    1.357E+01    1.345E+01    1.334E+01    1.322E+01
     1.311E+01    1.299E+01    1.287E+01    1.276E+01    1.264E+01    1.252E+01    1.239E+01    1.227E+01    1.215E+01    1.202E+01
     1.189E+01    1.176E+01    1.163E+01    1.150E+01    1.136E+01    1.122E+01    1.108E+01    1.093E+01    1.078E+01    1.063E+01
     1.048E+01    1.033E+01    1.017E+01    1.001E+01    9.858E+00    9.700E+00    9.542E+00    9.384E+00    9.226E+00    9.069E+00
     8.913E+00    8.758E+00    8.604E+00    8.452E+00    8.301E+00    8.154E+00    8.008E+00    7.866E+00    7.726E+00    7.590E+00
     7.457E+00    7.329E+00    7.204E+00    7.084E+00    6.969E+00    6.859E+00    6.754E+00    6.655E+00    6.561E+00    6.474E+00
     6.393E+00    6.319E+00    6.252E+00    6.192E+00    6.140E+00    6.095E+00    6.059E+00    6.031E+00    6.011E+00    6.001E+00
     6.000E+00    6.008E+00    6.026E+00    6.053E+00    6.089E+00    6.134E+00    6.188E+00    6.250E+00    6.321E+00    6.399E+00
     6.484E+00    6.577E+00    6.678E+00    6.784E+00    6.898E+00    7.018E+00    7.144E+00    7.276E+00    7.413E+00    7.556E+00
     7.703E+00    7.856E+00    8.013E+00    8.174E+00    8.340E+00    8.509E+00    8.681E+00    8.857E+00    9.036E+00    9.218E+00
     9.403E+00    9.589E+00    9.778E+00    9.968E+00    1.016E+01    1.035E+01    1.055E+01    1.074E+01    1.094E+01    1.113E+01
     1.133E+01    1.152E+01    1.172E+01    1.191E+01    1.211E+01    1.230E+01    1.249E+01    1.268E+01    1.286E+01    1.305E+01
     1.323E+01    1.341E+01    1.359E+01    1.376E+01    1.394E+01    1.411E+01    1.427E+01    1.444E+01    1.460E+01    1.476E+01
     1.492E+01    1.507E+01    1.522E+01    1.536E+01    1.551E+01    1.565E+01    1.578E+01    1.591E+01    1.604E+01    1.617E+01
     1.629E+01    1.640E+01    1.651E+01    1.662E+01    1.672E+01    1.682E+01    1.691E+01    1.700E+01    1.709E+01    1.716E+01
     1.724E+01    1.731E+01    1.737E+01    1.743E+01    1.748E+01    1.753E+01    1.757E+01    1.760E+01    1.763E+01    1.766E+01
     1.767E+01    1.768E+01    1.769E+01    1.769E+01    1.768E+01    1.767E+01    1.765E+01    1.762E+01    1.758E+01    1.754E+01
     1.750E+01    1.745E+01    1.739E+01    1.732E+01    1.725E+01    1.717E+01    1.708E+01    1.699E+01    1.689E+01    1.678E+01
     1.667E+01    1.655E+01    1.642E+01    1.628E+01    1.614E+01    1.599E+01    1.584E+01    1.567E+01    1.550E+01    1.532E+01
     1.514E+01    1.495E+01    1.475E+01    1.454E+01    1.433E+01    1.411E+01    1.388E+01    1.364E+01    1.340E+01    1.315E+01
     1.289E+01    1.262E+01    1.235E+01    1.206E+01    1.177E+01    1.148E+01    1.117E+01    1.086E+01    1.054E+01    1.021E+01
     9.873E+00    9.532E+00    9.184E+00    8.831E+00    8.473E+00    8.109E+00    7.740E+00    7.368E+00    6.991E+00    6.611E+00
     6.227E+00    5.841E+00    5.452E+00    5.061E+00    4.668E+00    4.274E+00    3.878E+00    3.482E+00    3.086E+00    2.690E+00
     2.294E+00    1.898E+00    1.504E+00    1.111E+00    7.206E-01    3.320E-01   -5.415E-02   -4.374E-01   -8.173E-01   -1.194E+00
    -1.566E+00   -1.934E+00   -2.297E+00   -2.655E+00   -3.008E+00   -3.355E+00   -3.695E+00   -4.030E+00   -4.357E+00   -4.677E+00
    -4.989E+00   -5.294E+00   -5.590E+00   -5.878E+00   -6.157E+00   -6.428E+00   -6.690E+00   -6.944E+00   -7.190E+00   -7.428E+00
    -7.657E+00   -7.879E+00   -8.092E+00   -8.298E+00   -8.495E+00   -8.685E+00   -8.866E+00   -9.040E+00   -9.206E+00   -9.365E+00
    -9.515E+00   -9.658E+00   -9.794E+00   -9.921E+00   -1.004E+01   -1.015E+01   -1.026E+01   -1.036E+01   -1.045E+01   -1.053E+01
    -1.061E+01   -1.068E+01   -1.074E+01   -1.080E+01   -1.084E+01   -1.088E+01   -1.092E+01   -1.094E+01   -1.097E+01   -1.098E+01
    -1.099E+01   -1.099E+01   -1.098E+01   -1.097E+01   -1.095E+01   -1.092E+01   -1.089E+01   -1.085E+01   -1.080E+01   -1.075E+01
    -1.069E+01   -1.063E+01   -1.056E+01   -1.049E+01   -1.041E+01   -1.032E+01   -1.023E+01   -1.014E+01   -1.004E+01   -9.941E+00
    -9.836E+00   -9.727E+00   -9.614E+00   -9.499E+00   -9.380E+00   -9.259E+00   -9.135E+00   -9.008E+00   -8.880E+00   -8.749E+00
    -8.617E+00   -8.483E+00   -8.348E+00   -8.211E+00   -8.074E+00   -7.936E+00   -7.798E+00   -7.659E+00   -7.520E+00   -7.381E+00
    -7.242E+00   -7.104E+00   -6.967E+00   -6.831E+00   -6.696E+00   -6.562E+00   -6.429E+00   -6.299E+00   -6.170E+00   -6.044E+00
    -5.920E+00   -5.798E+00   -5.680E+00   -5.564E+00   -5.451E+00   -5.341E+00   -5.234E+00   -5.129E+00   -5.027E+00   -4.927E+00
    -4.830E+00   -4.735E+00   -4.642E+00   -4.552E+00   -4.464E+00   -4.377E+00   -4.293E+00   -4.210E+00   -4.129E+00   -4.050E+00
    -3.973E+00   -3.897E+00   -3.822E+00   -3.749E+00   -3.678E+00   -3.607E+00   -3.538E+00   -3.469E+00   -3.402E+00   -3.336E+00
    -3.270E+00   -3.205E+00   -3.141E+00   -3.078E+00   -3.015E+00   -2.952E+00   -2.890E+00   -2.829E+00   -2.767E+00   -2.706E+00
    -2.644E+00   -2.583E+00   -2.521E+00   -2.460E+00   -2.398E+00   -2.335E+00   -2.273E+00   -2.210E+00
 Ala      Conc. = 2.04E+01
