 LCModel (Version 6.3-1L) Copyright: S.W. Provencher.          Ref.: Magn. Reson. Med. 30:672-679 (1993).                
 Slice#2 Row#10 Col#8  K_02_press_1_raw_act
 36 lines in following concentration table = NCONC+1
    Conc.  %SD /Cr+PCr  Metabolite                                         
    0.000 999%   0.000 Ala                                                 
    0.000 999%   0.000 Asp                                                 
 1.58E+03  10%   0.674 Cr                                                  
  762.560  19%   0.326 PCr                                                 
    0.000 999%   0.000 GABA                                                
    0.000 999%   0.000 Glc                                                 
  655.525  31%   0.280 Gln                                                 
 2.19E+03  11%   0.935 Glu                                                 
  477.728   5%   0.204 GPC                                                 
    0.000 999%   0.000 PCh                                                 
  435.536  17%   0.186 GSH                                                 
 1.12E+03  21%   0.480 Ins                                                 
    0.000 999%   0.000 Lac                                                 
 2.72E+03   4%   1.164 NAA                                                 
  624.056  14%   0.267 NAAG                                                
    0.000 999%   0.000 Scyllo                                              
    0.000 999%   0.000 Tau                                                 
    0.000 999%   0.000 -CrCH2                                              
  477.728   5%   0.204 GPC+PCh                                             
 3.35E+03   3%   1.430 NAA+NAAG                                            
 2.34E+03   3%   1.000 Cr+PCr                                              
 2.84E+03  11%   1.215 Glu+Gln                                             
  330.371 203%   0.141 Lip13a                                              
  190.187 189% 8.1E-02 Lip13b                                              
    0.000 999%   0.000 Lip09                                               
 1.77E+03  16%   0.754 MM09                                                
  121.394 111% 5.2E-02 Lip20                                               
 3.80E+03  13%   1.624 MM20                                                
  554.755  33%   0.237 MM12                                                
 1.65E+03  26%   0.706 MM14                                                
 1.50E+03  22%   0.642 MM17                                                
  520.558  83%   0.222 Lip13a+Lip13b                                       
 2.73E+03  20%   1.166 MM14+Lip13a+Lip13b+MM12                             
 1.77E+03  16%   0.754 MM09+Lip09                                          
 3.92E+03  13%   1.676 MM20+Lip20                                          
   6 lines in following misc. output table
  FWHM = 0.038 ppm    S/N =  15                                            
  Data shift = 0.023 ppm                                                   
  Ph:  22 deg       4.4 deg/ppm                                            
  alphaB,S = 1.7E+00,   2.6E+01                                            
   14 spline knots.   Ns = 5(1)                                            
  ( 6) 2 infls.   ( 1) 1 extrs.                                            
  498 points on ppm-axis = NY
      4.000000     3.992357     3.984714     3.977070     3.969427     3.961784     3.954141     3.946497     3.938854     3.931211
      3.923568     3.915925     3.908281     3.900638     3.892995     3.885352     3.877708     3.870065     3.862422     3.854779
      3.847136     3.839492     3.831849     3.824206     3.816563     3.808919     3.801276     3.793633     3.785990     3.778347
      3.770703     3.763060     3.755417     3.747774     3.740130     3.732487     3.724844     3.717201     3.709558     3.701914
      3.694271     3.686628     3.678985     3.671341     3.663698     3.656055     3.648412     3.640769     3.633125     3.625482
      3.617839     3.610196     3.602552     3.594909     3.587266     3.579623     3.571980     3.564336     3.556693     3.549050
      3.541407     3.533763     3.526120     3.518477     3.510834     3.503191     3.495547     3.487904     3.480261     3.472618
      3.464974     3.457331     3.449688     3.442045     3.434402     3.426758     3.419115     3.411472     3.403829     3.396185
      3.388542     3.380899     3.373256     3.365613     3.357969     3.350326     3.342683     3.335040     3.327396     3.319753
      3.312110     3.304467     3.296824     3.289180     3.281537     3.273894     3.266251     3.258607     3.250964     3.243321
      3.235678     3.228034     3.220391     3.212748     3.205105     3.197462     3.189818     3.182175     3.174532     3.166889
      3.159245     3.151602     3.143959     3.136316     3.128673     3.121029     3.113386     3.105743     3.098100     3.090456
      3.082813     3.075170     3.067527     3.059884     3.052240     3.044597     3.036954     3.029311     3.021667     3.014024
      3.006381     2.998738     2.991095     2.983451     2.975808     2.968165     2.960522     2.952878     2.945235     2.937592
      2.929949     2.922306     2.914662     2.907019     2.899376     2.891733     2.884089     2.876446     2.868803     2.861160
      2.853517     2.845873     2.838230     2.830587     2.822944     2.815300     2.807657     2.800014     2.792371     2.784728
      2.777084     2.769441     2.761798     2.754155     2.746511     2.738868     2.731225     2.723582     2.715939     2.708295
      2.700652     2.693009     2.685366     2.677722     2.670079     2.662436     2.654793     2.647150     2.639506     2.631863
      2.624220     2.616577     2.608933     2.601290     2.593647     2.586004     2.578361     2.570717     2.563074     2.555431
      2.547788     2.540144     2.532501     2.524858     2.517215     2.509572     2.501928     2.494285     2.486642     2.478999
      2.471355     2.463712     2.456069     2.448426     2.440783     2.433139     2.425496     2.417853     2.410210     2.402566
      2.394923     2.387280     2.379637     2.371994     2.364350     2.356707     2.349064     2.341421     2.333777     2.326134
      2.318491     2.310848     2.303205     2.295561     2.287918     2.280275     2.272632     2.264988     2.257345     2.249702
      2.242059     2.234416     2.226772     2.219129     2.211486     2.203843     2.196199     2.188556     2.180913     2.173270
      2.165627     2.157983     2.150340     2.142697     2.135054     2.127410     2.119767     2.112124     2.104481     2.096838
      2.089194     2.081551     2.073908     2.066265     2.058621     2.050978     2.043335     2.035692     2.028049     2.020405
      2.012762     2.005119     1.997476     1.989833     1.982190     1.974546     1.966903     1.959260     1.951617     1.943974
      1.936331     1.928688     1.921045     1.913402     1.905759     1.898115     1.890472     1.882829     1.875186     1.867543
      1.859900     1.852257     1.844614     1.836971     1.829327     1.821684     1.814041     1.806398     1.798755     1.791112
      1.783469     1.775826     1.768183     1.760540     1.752896     1.745253     1.737610     1.729967     1.722324     1.714681
      1.707038     1.699395     1.691752     1.684108     1.676465     1.668822     1.661179     1.653536     1.645893     1.638250
      1.630607     1.622964     1.615321     1.607677     1.600034     1.592391     1.584748     1.577105     1.569462     1.561819
      1.554176     1.546533     1.538890     1.531246     1.523603     1.515960     1.508317     1.500674     1.493031     1.485388
      1.477745     1.470102     1.462458     1.454815     1.447172     1.439529     1.431886     1.424243     1.416600     1.408957
      1.401314     1.393671     1.386027     1.378384     1.370741     1.363098     1.355455     1.347812     1.340169     1.332526
      1.324883     1.317240     1.309596     1.301953     1.294310     1.286667     1.279024     1.271381     1.263738     1.256095
      1.248452     1.240808     1.233165     1.225522     1.217879     1.210236     1.202593     1.194950     1.187307     1.179664
      1.172021     1.164377     1.156734     1.149091     1.141448     1.133805     1.126162     1.118519     1.110876     1.103233
      1.095590     1.087946     1.080303     1.072660     1.065017     1.057374     1.049731     1.042088     1.034445     1.026802
      1.019158     1.011515     1.003872     0.996229     0.988586     0.980943     0.973300     0.965657     0.958014     0.950371
      0.942727     0.935084     0.927441     0.919798     0.912155     0.904512     0.896869     0.889226     0.881583     0.873940
      0.866296     0.858653     0.851010     0.843367     0.835724     0.828081     0.820438     0.812795     0.805152     0.797508
      0.789865     0.782222     0.774579     0.766936     0.759293     0.751650     0.744007     0.736364     0.728721     0.721077
      0.713434     0.705791     0.698148     0.690505     0.682862     0.675219     0.667576     0.659933     0.652290     0.644646
      0.637003     0.629360     0.621717     0.614074     0.606431     0.598788     0.591145     0.583502     0.575858     0.568215
      0.560572     0.552929     0.545286     0.537643     0.530000     0.522357     0.514714     0.507071     0.499427     0.491784
      0.484141     0.476498     0.468855     0.461212     0.453569     0.445925     0.438282     0.430639     0.422996     0.415353
      0.407710     0.400067     0.392424     0.384780     0.377137     0.369494     0.361851     0.354208     0.346565     0.338922
      0.331278     0.323635     0.315992     0.308349     0.300706     0.293063     0.285420     0.277777     0.270133     0.262490
      0.254847     0.247204     0.239561     0.231918     0.224275     0.216631     0.208988     0.201345
 NY phased data points follow
   6.30893E+01  7.05046E+01  7.21826E+01  7.49529E+01  7.12238E+01  7.84824E+01  8.66379E+01  9.28745E+01  1.07622E+02  1.08129E+02
   1.18651E+02  1.25301E+02  1.17631E+02  9.86898E+01  9.42500E+01  8.44142E+01  7.68427E+01  7.23203E+01  6.66580E+01  5.54473E+01
   6.05771E+01  5.84194E+01  5.61600E+01  5.71414E+01  6.37539E+01  5.87720E+01  5.47227E+01  6.55478E+01  6.01875E+01  6.86722E+01
   6.68646E+01  6.14508E+01  7.08008E+01  6.67142E+01  6.34105E+01  5.98518E+01  5.39000E+01  4.79939E+01  5.01709E+01  4.59576E+01
   5.44400E+01  5.54557E+01  4.71214E+01  5.12597E+01  5.18640E+01  5.92295E+01  6.57992E+01  6.51649E+01  6.24850E+01  5.95075E+01
   5.38554E+01  5.12809E+01  4.84310E+01  4.91256E+01  4.36704E+01  4.73988E+01  5.31787E+01  4.98771E+01  5.15317E+01  4.50224E+01
   4.65712E+01  3.72384E+01  3.73376E+01  3.92133E+01  3.14593E+01  2.98363E+01  3.38977E+01  3.44337E+01  3.19063E+01  3.15682E+01
   3.29515E+01  3.54006E+01  3.42128E+01  3.02524E+01  3.64012E+01  3.09478E+01  2.51212E+01  2.59612E+01  2.94971E+01  3.09159E+01
   2.92885E+01  3.65479E+01  2.66591E+01  1.97660E+01  2.96562E+01  2.18932E+01  2.60201E+01  2.50823E+01  3.08140E+01  2.41087E+01
   3.24849E+01  3.00279E+01  2.81013E+01  2.93232E+01  3.15044E+01  2.90927E+01  2.77856E+01  2.87113E+01  3.94872E+01  4.06400E+01
   5.59042E+01  6.84219E+01  8.88513E+01  8.70097E+01  7.27185E+01  6.19782E+01  5.06896E+01  3.81815E+01  3.44572E+01  3.20576E+01
   2.96486E+01  2.71378E+01  2.65861E+01  3.03886E+01  1.92034E+01  3.03717E+01  2.35557E+01  3.23935E+01  2.85556E+01  2.92809E+01
   2.98460E+01  3.53491E+01  4.41290E+01  4.53477E+01  6.79711E+01  8.31593E+01  1.11912E+02  1.14103E+02  1.06443E+02  8.36655E+01
   7.04752E+01  5.75362E+01  4.38541E+01  3.11633E+01  2.88117E+01  2.34661E+01  2.89040E+01  2.54288E+01  2.59055E+01  2.41249E+01
   2.59177E+01  2.26330E+01  3.09473E+01  2.33929E+01  1.86244E+01  2.23659E+01  1.83811E+01  2.01836E+01  1.78205E+01  1.63300E+01
   1.91096E+01  1.38462E+01  1.26191E+01  2.35056E+01  1.56064E+01  1.81166E+01  1.86040E+01  1.74504E+01  2.03465E+01  1.67023E+01
   9.32170E+00  1.65202E+01  1.28828E+01  1.92498E+01  1.58616E+01  2.07519E+01  1.51175E+01  1.56476E+01  7.29660E+00  8.66699E+00
   7.75635E+00  5.89186E+00 -3.36853E+00 -5.30656E+00 -3.47033E+00 -9.56581E+00 -5.39295E+00  2.67915E+00  5.60779E-01 -5.08536E-01
  -8.36570E-01 -5.74513E-02  3.55982E+00  9.69886E-02  5.64056E-01 -3.36382E-01  1.72047E+00  4.04144E+00  1.20159E+01  1.52329E+01
   1.30800E+01  1.46039E+01  2.33776E+01  1.96661E+01  1.32702E+01  1.31696E+01  9.90939E+00  1.26176E+01  5.90680E+00  9.13724E+00
   7.40310E+00  8.46020E+00  2.42836E+01  1.78844E+01  1.99668E+01  1.39630E+01  1.20901E+01  4.97446E+00 -2.64516E+00  1.62971E+00
   4.72731E+00  1.16940E+01  1.20900E+01  1.98505E+01  3.04998E+01  2.44342E+01  2.63029E+01  2.86285E+01  1.35604E+01  2.62668E+00
   4.43661E+00 -7.32516E+00 -1.60339E+00  5.79204E+00  9.78473E+00  1.64559E+01  2.89812E+01  2.00269E+01  2.14856E+01  2.47934E+01
   1.66732E+01  1.61953E+01  1.83606E+01  1.56353E+01  1.63819E+01  1.45210E+01  1.30927E+01  7.86018E+00  8.08590E+00  1.68857E+01
   1.13747E+01  1.38724E+01  1.12486E+01  1.06376E+01  1.39544E+01  1.96388E+01  2.17692E+01  2.69306E+01  2.91862E+01  2.66394E+01
   3.31552E+01  3.55840E+01  4.18314E+01  5.69853E+01  5.25290E+01  4.85988E+01  5.56927E+01  8.19228E+01  1.21409E+02  1.45687E+02
   1.47272E+02  1.23109E+02  1.02426E+02  6.40545E+01  3.84100E+01  3.36895E+01  1.82022E+01  2.02914E+01  1.66228E+01  1.55771E+01
   1.57722E+01  1.80315E+01  1.29719E+01  1.96972E+01  7.79574E+00  1.07932E+01  1.18116E+01  1.73942E+01  7.31553E+00  1.58842E+01
   8.87560E+00  1.13794E+01  1.36171E+01  6.84075E+00  1.34236E+01  5.69067E+00  9.24416E+00  1.13323E+01  9.39856E+00  5.60614E+00
   3.97548E+00  1.54354E+01  1.02209E+01  9.11582E+00  7.17133E+00  1.25918E+01  8.53445E+00  1.16329E+01  2.28797E+00  9.41973E+00
   6.62226E+00  1.08603E+01  7.92422E+00  1.66771E+01  1.48332E+01  1.45714E+01  1.66032E+01  1.61543E+01  1.77488E+01  2.29930E+01
   1.68024E+01  1.03023E+01  1.79121E+01  1.19543E+01  1.58240E+01  1.18447E+01  1.49529E+01  1.12026E+01  1.32831E+01  1.23283E+01
   9.66148E+00  6.46798E+00  6.68298E+00  1.27259E+01  1.37918E+01  1.02619E+01  7.35577E+00  6.88842E+00  1.37116E+01  1.35797E+01
   1.36635E+01  6.50698E+00  1.17471E+01  5.23933E+00  1.32591E+01  1.31957E+01  1.22503E+01  7.82206E+00  1.33488E+01  8.78663E+00
   6.94068E+00  6.48531E+00  1.00051E+01  5.86240E+00  1.25108E+01  1.12969E+01  8.14280E+00  6.15453E+00  1.27371E+01  9.77950E+00
   8.48366E+00  8.70051E+00  1.45515E+01  1.20235E+01  1.34152E+01  4.32753E+00  5.53272E+00  9.08126E+00  8.34658E+00  8.71180E+00
   7.02739E+00  8.40106E+00 -8.17459E-01  6.71415E+00  9.75890E+00  5.83865E+00  8.04306E+00  8.80034E+00  4.39037E+00  2.94391E+00
   5.59463E+00  4.22795E+00  1.19503E+01  7.09337E+00  9.55653E-01  7.33351E-01  1.07018E+00  6.05063E+00  5.86828E+00  3.73492E+00
   7.35882E+00  2.88755E+00  3.44715E+00  8.32175E-01  4.38770E+00  2.75279E+00  4.90002E+00 -2.21015E+00  5.05379E+00  3.92660E+00
   2.35721E+00  3.14785E+00  4.16206E+00  2.15368E+00  8.83671E+00  1.15489E+01  3.70307E+00  1.31296E+01  1.14417E+01  1.44008E+01
   1.24668E+01  9.42695E+00  1.25950E+00  1.48941E+01  1.61889E+01  1.15614E+01  1.12601E+01  1.00495E+01  1.01735E+01  6.80438E+00
   1.27228E+01  5.66385E+00  1.89094E+00  5.60534E+00  9.74030E+00  1.24478E+01  3.41743E+00  1.13885E+00  9.26133E+00  8.05255E+00
   1.44300E+00  3.49448E+00  3.08279E+00  4.19535E+00  1.80424E+00  2.38822E+00 -4.42456E+00 -7.17289E+00 -6.13599E+00 -3.96743E+00
   2.47833E+00 -2.24010E-01  2.47716E+00 -6.37248E+00  5.12085E+00  2.11046E+00 -2.25686E+00 -2.66682E+00  5.68481E-01  2.07997E+00
  -1.27506E+00 -3.64643E+00 -3.91855E+00 -7.32156E+00  7.74019E-02 -2.20831E+00  6.10922E-01  5.91188E-01  8.77723E-01  1.77042E+00
  -2.68467E-01 -3.38538E+00 -1.58437E+00  1.01219E+00 -9.56534E+00  1.74634E+00 -3.03752E+00 -3.09796E+00 -1.90964E+00  1.16281E+00
  -3.68953E+00 -3.07652E+00  3.90513E-01 -3.97144E+00  5.15114E+00 -1.63254E+00 -1.00446E+00 -3.97354E+00 -4.36562E+00 -3.47536E+00
  -2.64830E+00  2.91041E+00 -3.09771E+00 -1.37084E+00  1.80610E+00 -6.31093E+00 -1.25828E+00 -1.36067E+00 -4.78951E+00 -3.12665E+00
  -7.47483E-01 -3.05166E+00 -1.54846E+00 -9.99785E-01  5.07602E+00  6.95142E-01 -5.50653E+00 -2.88213E+00 -6.28902E+00 -1.63597E+00
  -3.08486E+00 -4.11832E+00 -4.22258E+00  6.67584E-01 -1.48198E+00 -4.18800E+00 -9.73918E+00 -2.51425E+00
 NY points of the fit to the data follow
   6.58796E+01  6.55359E+01  6.56397E+01  6.67775E+01  6.99461E+01  7.56681E+01  8.34344E+01  9.09537E+01  9.74319E+01  1.04954E+02
   1.13702E+02  1.17004E+02  1.11716E+02  1.01804E+02  9.09908E+01  8.04589E+01  7.27622E+01  6.82763E+01  6.49846E+01  6.26121E+01
   6.13864E+01  6.05719E+01  5.99255E+01  5.92053E+01  5.82178E+01  5.71664E+01  5.70762E+01  5.94228E+01  6.32986E+01  6.66024E+01
   6.88714E+01  7.00091E+01  6.86788E+01  6.48615E+01  6.01251E+01  5.52642E+01  5.13253E+01  4.94011E+01  4.93867E+01  5.02670E+01
   5.11312E+01  5.19705E+01  5.27499E+01  5.37028E+01  5.58064E+01  5.86717E+01  6.02426E+01  5.93909E+01  5.67675E+01  5.33491E+01
   4.99072E+01  4.71875E+01  4.54747E+01  4.44546E+01  4.39210E+01  4.38386E+01  4.41976E+01  4.49918E+01  4.57910E+01  4.60289E+01
   4.54358E+01  4.40821E+01  4.22815E+01  4.06156E+01  3.94780E+01  3.89413E+01  3.88885E+01  3.91034E+01  3.94038E+01  3.97692E+01
   4.00093E+01  3.98820E+01  3.93331E+01  3.85863E+01  3.77977E+01  3.70504E+01  3.64538E+01  3.59704E+01  3.55197E+01  3.50958E+01
   3.46843E+01  3.42552E+01  3.37090E+01  3.29080E+01  3.16829E+01  3.01457E+01  2.86973E+01  2.77804E+01  2.75375E+01  2.78910E+01
   2.86012E+01  2.94370E+01  3.02052E+01  3.07283E+01  3.09020E+01  3.06533E+01  3.01401E+01  3.00895E+01  3.26590E+01  4.07398E+01
   5.58123E+01  7.49229E+01  8.72233E+01  8.60485E+01  7.55786E+01  6.26005E+01  4.93062E+01  3.92675E+01  3.37796E+01  3.00156E+01
   2.74572E+01  2.65126E+01  2.61532E+01  2.59503E+01  2.58159E+01  2.57179E+01  2.56383E+01  2.55797E+01  2.56241E+01  2.59294E+01
   2.68190E+01  2.94168E+01  3.57565E+01  4.88101E+01  6.96057E+01  9.38030E+01  1.13190E+02  1.18524E+02  1.08335E+02  8.97523E+01
   7.08232E+01  5.42520E+01  4.17837E+01  3.33332E+01  2.69227E+01  2.26356E+01  2.08005E+01  2.05911E+01  2.13610E+01  2.23437E+01
   2.29866E+01  2.30431E+01  2.25355E+01  2.17709E+01  2.09443E+01  2.01938E+01  1.96086E+01  1.90923E+01  1.85587E+01  1.79799E+01
   1.73267E+01  1.66281E+01  1.60714E+01  1.58638E+01  1.59831E+01  1.62325E+01  1.62572E+01  1.56774E+01  1.43267E+01  1.25854E+01
   1.14558E+01  1.15540E+01  1.25515E+01  1.35456E+01  1.36394E+01  1.25971E+01  1.11092E+01  9.91161E+00  9.17696E+00  8.94289E+00
   8.82683E+00  8.29525E+00  7.23563E+00  5.90289E+00  4.75335E+00  4.64576E+00  5.55971E+00  6.49552E+00  6.56473E+00  6.00003E+00
   5.63938E+00  5.86886E+00  6.32514E+00  6.38420E+00  6.17778E+00  6.25213E+00  7.48800E+00  1.01507E+01  1.31728E+01  1.53612E+01
   1.63152E+01  1.57892E+01  1.42894E+01  1.26693E+01  1.12682E+01  1.02152E+01  9.80078E+00  1.00976E+01  1.10300E+01  1.25066E+01
   1.44258E+01  1.66653E+01  1.86095E+01  1.93757E+01  1.83478E+01  1.53898E+01  1.11630E+01  6.41620E+00  2.35994E+00  4.13960E-01
   1.06513E+00  3.98799E+00  9.42188E+00  1.69330E+01  2.34682E+01  2.58665E+01  2.37869E+01  1.84629E+01  1.11374E+01  2.95428E+00
  -3.81852E+00 -6.71161E+00 -4.63264E+00  1.02382E+00  7.58305E+00  1.33329E+01  1.73528E+01  1.89486E+01  1.86250E+01  1.73620E+01
   1.60308E+01  1.54547E+01  1.57890E+01  1.65246E+01  1.75219E+01  1.86920E+01  1.94072E+01  1.91894E+01  1.80641E+01  1.65157E+01
   1.47742E+01  1.37719E+01  1.44179E+01  1.65399E+01  1.88739E+01  2.07836E+01  2.21302E+01  2.25248E+01  2.21887E+01  2.23239E+01
   2.46244E+01  3.01567E+01  3.90758E+01  4.83786E+01  5.32654E+01  5.50211E+01  6.33242E+01  8.48934E+01  1.19403E+02  1.46321E+02
   1.46697E+02  1.24925E+02  9.77634E+01  6.91966E+01  4.58867E+01  3.32221E+01  2.48052E+01  1.81916E+01  1.53380E+01  1.41052E+01
   1.32949E+01  1.29122E+01  1.28352E+01  1.26593E+01  1.22547E+01  1.17312E+01  1.11464E+01  1.05231E+01  9.94977E+00  9.49481E+00
   9.17699E+00  8.95601E+00  8.76518E+00  8.57705E+00  8.38098E+00  8.15053E+00  7.93168E+00  7.77943E+00  7.73741E+00  7.83551E+00
   8.03799E+00  8.28383E+00  8.55670E+00  8.83868E+00  9.11974E+00  9.41440E+00  9.74175E+00  1.01282E+01  1.05880E+01  1.11007E+01
   1.16425E+01  1.21911E+01  1.27109E+01  1.31812E+01  1.35934E+01  1.39353E+01  1.41981E+01  1.43785E+01  1.44723E+01  1.44772E+01
   1.43952E+01  1.42327E+01  1.39986E+01  1.37046E+01  1.33634E+01  1.29900E+01  1.26005E+01  1.22104E+01  1.18334E+01  1.14807E+01
   1.11618E+01  1.08842E+01  1.06535E+01  1.04724E+01  1.03398E+01  1.02523E+01  1.02050E+01  1.01923E+01  1.02075E+01  1.02428E+01
   1.02893E+01  1.03382E+01  1.03824E+01  1.04156E+01  1.04327E+01  1.04290E+01  1.04007E+01  1.03461E+01  1.02656E+01  1.01615E+01
   1.00374E+01  9.89763E+00  9.74807E+00  9.59659E+00  9.45251E+00  9.32527E+00  9.22303E+00  9.15167E+00  9.11411E+00  9.10945E+00
   9.13174E+00  9.16924E+00  9.20510E+00  9.21977E+00  9.19422E+00  9.11293E+00  8.96598E+00  8.75022E+00  8.46981E+00  8.13577E+00
   7.76421E+00  7.37339E+00  6.98039E+00  6.59879E+00  6.23790E+00  5.90302E+00  5.59619E+00  5.31670E+00  5.06185E+00  4.82805E+00
   4.61215E+00  4.41234E+00  4.22816E+00  4.06000E+00  3.90862E+00  3.77532E+00  3.66221E+00  3.57221E+00  3.50861E+00  3.47439E+00
   3.47223E+00  3.50479E+00  3.57510E+00  3.68637E+00  3.84147E+00  4.04245E+00  4.29060E+00  4.58677E+00  4.93136E+00  5.32385E+00
   5.76205E+00  6.24191E+00  6.75762E+00  7.30199E+00  7.86639E+00  8.44038E+00  9.01161E+00  9.56625E+00  1.00898E+01  1.05679E+01
   1.09867E+01  1.13331E+01  1.15952E+01  1.17629E+01  1.18296E+01  1.17915E+01  1.16485E+01  1.14030E+01  1.10605E+01  1.06293E+01
   1.01202E+01  9.54643E+00  8.92177E+00  8.26032E+00  7.57589E+00  6.88187E+00  6.19088E+00  5.51403E+00  4.86041E+00  4.23697E+00
   3.64886E+00  3.09977E+00  2.59209E+00  2.12663E+00  1.70272E+00  1.31858E+00  9.71966E-01  6.60505E-01  3.81651E-01  1.32489E-01
  -9.01938E-02 -2.89510E-01 -4.68106E-01 -6.28169E-01 -7.71731E-01 -9.00905E-01 -1.01777E+00 -1.12402E+00 -1.22087E+00 -1.30918E+00
  -1.38989E+00 -1.46409E+00 -1.53281E+00 -1.59674E+00 -1.65617E+00 -1.71136E+00 -1.76280E+00 -1.81115E+00 -1.85690E+00 -1.90021E+00
  -1.94105E+00 -1.97951E+00 -2.01597E+00 -2.05086E+00 -2.08438E+00 -2.11644E+00 -2.14692E+00 -2.17595E+00 -2.20389E+00 -2.23102E+00
  -2.25734E+00 -2.28264E+00 -2.30683E+00 -2.33012E+00 -2.35282E+00 -2.37509E+00 -2.39677E+00 -2.41767E+00 -2.43779E+00 -2.45740E+00
  -2.47674E+00 -2.49581E+00 -2.51437E+00 -2.53227E+00 -2.54964E+00 -2.56677E+00 -2.58380E+00 -2.60061E+00 -2.61695E+00 -2.63278E+00
  -2.64831E+00 -2.66379E+00 -2.67923E+00 -2.69443E+00 -2.70918E+00 -2.72356E+00 -2.73781E+00 -2.75212E+00 -2.76639E+00 -2.78035E+00
  -2.79390E+00 -2.80722E+00 -2.82056E+00 -2.83396E+00 -2.84722E+00 -2.86012E+00 -2.87265E+00 -2.88504E+00
 NY background values follow
     6.286E+01    6.245E+01    6.205E+01    6.165E+01    6.124E+01    6.084E+01    6.043E+01    6.003E+01    5.962E+01    5.922E+01
     5.882E+01    5.841E+01    5.801E+01    5.760E+01    5.720E+01    5.680E+01    5.639E+01    5.599E+01    5.559E+01    5.519E+01
     5.478E+01    5.438E+01    5.398E+01    5.358E+01    5.318E+01    5.278E+01    5.238E+01    5.199E+01    5.159E+01    5.119E+01
     5.080E+01    5.040E+01    5.001E+01    4.961E+01    4.922E+01    4.883E+01    4.844E+01    4.805E+01    4.766E+01    4.727E+01
     4.688E+01    4.650E+01    4.611E+01    4.573E+01    4.535E+01    4.497E+01    4.459E+01    4.421E+01    4.383E+01    4.346E+01
     4.308E+01    4.271E+01    4.234E+01    4.197E+01    4.160E+01    4.123E+01    4.087E+01    4.050E+01    4.014E+01    3.978E+01
     3.942E+01    3.906E+01    3.871E+01    3.835E+01    3.800E+01    3.765E+01    3.730E+01    3.696E+01    3.661E+01    3.627E+01
     3.593E+01    3.559E+01    3.525E+01    3.492E+01    3.458E+01    3.425E+01    3.392E+01    3.360E+01    3.327E+01    3.295E+01
     3.263E+01    3.231E+01    3.200E+01    3.168E+01    3.137E+01    3.106E+01    3.076E+01    3.045E+01    3.015E+01    2.985E+01
     2.956E+01    2.926E+01    2.897E+01    2.868E+01    2.840E+01    2.811E+01    2.783E+01    2.755E+01    2.727E+01    2.700E+01
     2.673E+01    2.646E+01    2.619E+01    2.592E+01    2.566E+01    2.540E+01    2.514E+01    2.489E+01    2.463E+01    2.438E+01
     2.413E+01    2.388E+01    2.364E+01    2.339E+01    2.315E+01    2.291E+01    2.267E+01    2.244E+01    2.220E+01    2.197E+01
     2.174E+01    2.151E+01    2.129E+01    2.106E+01    2.084E+01    2.062E+01    2.040E+01    2.018E+01    1.997E+01    1.975E+01
     1.954E+01    1.933E+01    1.912E+01    1.891E+01    1.871E+01    1.850E+01    1.830E+01    1.810E+01    1.790E+01    1.770E+01
     1.751E+01    1.731E+01    1.712E+01    1.693E+01    1.674E+01    1.655E+01    1.636E+01    1.618E+01    1.599E+01    1.581E+01
     1.563E+01    1.545E+01    1.527E+01    1.510E+01    1.493E+01    1.475E+01    1.458E+01    1.441E+01    1.425E+01    1.408E+01
     1.392E+01    1.376E+01    1.360E+01    1.344E+01    1.328E+01    1.313E+01    1.297E+01    1.282E+01    1.267E+01    1.252E+01
     1.238E+01    1.223E+01    1.209E+01    1.195E+01    1.181E+01    1.167E+01    1.154E+01    1.141E+01    1.127E+01    1.114E+01
     1.102E+01    1.089E+01    1.077E+01    1.064E+01    1.052E+01    1.040E+01    1.029E+01    1.017E+01    1.006E+01    9.946E+00
     9.836E+00    9.727E+00    9.620E+00    9.514E+00    9.410E+00    9.308E+00    9.207E+00    9.107E+00    9.009E+00    8.912E+00
     8.816E+00    8.722E+00    8.629E+00    8.537E+00    8.447E+00    8.357E+00    8.269E+00    8.182E+00    8.096E+00    8.012E+00
     7.928E+00    7.845E+00    7.764E+00    7.683E+00    7.603E+00    7.525E+00    7.447E+00    7.370E+00    7.294E+00    7.218E+00
     7.144E+00    7.070E+00    6.997E+00    6.924E+00    6.853E+00    6.781E+00    6.711E+00    6.641E+00    6.572E+00    6.503E+00
     6.435E+00    6.367E+00    6.300E+00    6.233E+00    6.167E+00    6.102E+00    6.037E+00    5.972E+00    5.908E+00    5.844E+00
     5.781E+00    5.719E+00    5.656E+00    5.594E+00    5.533E+00    5.472E+00    5.412E+00    5.351E+00    5.292E+00    5.232E+00
     5.173E+00    5.114E+00    5.056E+00    4.998E+00    4.940E+00    4.883E+00    4.826E+00    4.769E+00    4.713E+00    4.656E+00
     4.600E+00    4.545E+00    4.489E+00    4.434E+00    4.379E+00    4.325E+00    4.270E+00    4.216E+00    4.162E+00    4.108E+00
     4.054E+00    4.000E+00    3.947E+00    3.894E+00    3.841E+00    3.788E+00    3.735E+00    3.682E+00    3.630E+00    3.577E+00
     3.525E+00    3.473E+00    3.421E+00    3.369E+00    3.317E+00    3.266E+00    3.214E+00    3.163E+00    3.111E+00    3.060E+00
     3.009E+00    2.958E+00    2.907E+00    2.857E+00    2.806E+00    2.755E+00    2.705E+00    2.655E+00    2.604E+00    2.554E+00
     2.504E+00    2.454E+00    2.404E+00    2.354E+00    2.304E+00    2.255E+00    2.205E+00    2.155E+00    2.106E+00    2.056E+00
     2.007E+00    1.957E+00    1.908E+00    1.859E+00    1.810E+00    1.760E+00    1.711E+00    1.662E+00    1.613E+00    1.564E+00
     1.515E+00    1.466E+00    1.417E+00    1.368E+00    1.320E+00    1.271E+00    1.222E+00    1.174E+00    1.125E+00    1.077E+00
     1.029E+00    9.809E-01    9.329E-01    8.851E-01    8.373E-01    7.897E-01    7.422E-01    6.949E-01    6.477E-01    6.007E-01
     5.538E-01    5.071E-01    4.605E-01    4.141E-01    3.679E-01    3.218E-01    2.760E-01    2.303E-01    1.849E-01    1.396E-01
     9.455E-02    4.971E-02    5.080E-03   -3.933E-02   -8.351E-02   -1.275E-01   -1.712E-01   -2.146E-01   -2.578E-01   -3.008E-01
    -3.435E-01   -3.860E-01   -4.281E-01   -4.700E-01   -5.117E-01   -5.530E-01   -5.940E-01   -6.348E-01   -6.752E-01   -7.154E-01
    -7.552E-01   -7.947E-01   -8.339E-01   -8.727E-01   -9.112E-01   -9.494E-01   -9.872E-01   -1.025E+00   -1.062E+00   -1.099E+00
    -1.135E+00   -1.171E+00   -1.207E+00   -1.242E+00   -1.277E+00   -1.311E+00   -1.345E+00   -1.379E+00   -1.412E+00   -1.445E+00
    -1.477E+00   -1.509E+00   -1.540E+00   -1.571E+00   -1.602E+00   -1.632E+00   -1.662E+00   -1.691E+00   -1.720E+00   -1.748E+00
    -1.776E+00   -1.803E+00   -1.830E+00   -1.856E+00   -1.882E+00   -1.907E+00   -1.932E+00   -1.956E+00   -1.980E+00   -2.003E+00
    -2.026E+00   -2.048E+00   -2.070E+00   -2.091E+00   -2.112E+00   -2.132E+00   -2.152E+00   -2.171E+00   -2.190E+00   -2.209E+00
    -2.227E+00   -2.245E+00   -2.262E+00   -2.279E+00   -2.296E+00   -2.312E+00   -2.328E+00   -2.344E+00   -2.359E+00   -2.374E+00
    -2.389E+00   -2.403E+00   -2.417E+00   -2.431E+00   -2.444E+00   -2.457E+00   -2.470E+00   -2.483E+00   -2.496E+00   -2.508E+00
    -2.520E+00   -2.532E+00   -2.543E+00   -2.555E+00   -2.566E+00   -2.577E+00   -2.588E+00   -2.599E+00   -2.610E+00   -2.620E+00
    -2.631E+00   -2.641E+00   -2.651E+00   -2.661E+00   -2.671E+00   -2.681E+00   -2.691E+00   -2.701E+00   -2.711E+00   -2.720E+00
    -2.730E+00   -2.739E+00   -2.749E+00   -2.758E+00   -2.768E+00   -2.777E+00   -2.786E+00   -2.795E+00   -2.805E+00   -2.814E+00
    -2.823E+00   -2.832E+00   -2.841E+00   -2.850E+00   -2.859E+00   -2.868E+00   -2.877E+00   -2.886E+00   -2.895E+00   -2.904E+00
    -2.913E+00   -2.922E+00   -2.931E+00   -2.940E+00   -2.949E+00   -2.958E+00   -2.967E+00   -2.976E+00   -2.986E+00   -2.995E+00
    -3.004E+00   -3.013E+00   -3.023E+00   -3.032E+00   -3.041E+00   -3.051E+00   -3.060E+00   -3.070E+00
 Cr       Conc. = 1.58E+03
