 LCModel (Version 6.3-1L) Copyright: S.W. Provencher.          Ref.: Magn. Reson. Med. 30:672-679 (1993).                
 Slice#2 Row#5 Col#10  K_02_press_1_raw_act
 36 lines in following concentration table = NCONC+1
    Conc.  %SD /Cr+PCr  Metabolite                                         
   19.972 563% 9.4E-03 Ala                                                 
    0.000 999%   0.000 Asp                                                 
  867.610  26%   0.407 Cr                                                  
 1.27E+03  19%   0.593 PCr                                                 
    0.000 999%   0.000 GABA                                                
    0.000 999%   0.000 Glc                                                 
  432.593  52%   0.203 Gln                                                 
 1.97E+03  13%   0.924 Glu                                                 
  905.595   3%   0.424 GPC                                                 
    0.000 999%   0.000 PCh                                                 
  584.766  14%   0.274 GSH                                                 
 1.28E+03  21%   0.598 Ins                                                 
  210.643  58% 9.9E-02 Lac                                                 
 3.17E+03   4%   1.488 NAA                                                 
  454.310  30%   0.213 NAAG                                                
   48.263  66% 2.3E-02 Scyllo                                              
    0.000 999%   0.000 Tau                                                 
  260.198  50%   0.122 -CrCH2                                              
  905.595   3%   0.424 GPC+PCh                                             
 3.63E+03   3%   1.701 NAA+NAAG                                            
 2.13E+03   3%   1.000 Cr+PCr                                              
 2.41E+03  14%   1.127 Glu+Gln                                             
 2.22E+03  41%   1.041 Lip13a                                              
    0.000 999%   0.000 Lip13b                                              
  443.945  97%   0.208 Lip09                                               
 2.72E+03  19%   1.276 MM09                                                
  464.830  59%   0.218 Lip20                                               
 4.46E+03  13%   2.091 MM20                                                
 1.37E+03  33%   0.640 MM12                                                
 3.38E+03  21%   1.583 MM14                                                
 2.21E+03  25%   1.036 MM17                                                
 2.22E+03  41%   1.041 Lip13a+Lip13b                                       
 6.96E+03  11%   3.264 MM14+Lip13a+Lip13b+MM12                             
 3.17E+03  11%   1.484 MM09+Lip09                                          
 4.93E+03  12%   2.309 MM20+Lip20                                          
   6 lines in following misc. output table
  FWHM = 0.038 ppm    S/N =  17                                            
  Data shift = 0.015 ppm                                                   
  Ph:  -6 deg      -4.4 deg/ppm                                            
  alphaB,S = 1.2E+00,   9.4E+01                                            
   14 spline knots.   Ns = 6(1)                                            
  ( 8) 3 infls.   ( 3) 1 extrs.                                            
  498 points on ppm-axis = NY
      4.000000     3.992357     3.984714     3.977070     3.969427     3.961784     3.954141     3.946497     3.938854     3.931211
      3.923568     3.915925     3.908281     3.900638     3.892995     3.885352     3.877708     3.870065     3.862422     3.854779
      3.847136     3.839492     3.831849     3.824206     3.816563     3.808919     3.801276     3.793633     3.785990     3.778347
      3.770703     3.763060     3.755417     3.747774     3.740130     3.732487     3.724844     3.717201     3.709558     3.701914
      3.694271     3.686628     3.678985     3.671341     3.663698     3.656055     3.648412     3.640769     3.633125     3.625482
      3.617839     3.610196     3.602552     3.594909     3.587266     3.579623     3.571980     3.564336     3.556693     3.549050
      3.541407     3.533763     3.526120     3.518477     3.510834     3.503191     3.495547     3.487904     3.480261     3.472618
      3.464974     3.457331     3.449688     3.442045     3.434402     3.426758     3.419115     3.411472     3.403829     3.396185
      3.388542     3.380899     3.373256     3.365613     3.357969     3.350326     3.342683     3.335040     3.327396     3.319753
      3.312110     3.304467     3.296824     3.289180     3.281537     3.273894     3.266251     3.258607     3.250964     3.243321
      3.235678     3.228034     3.220391     3.212748     3.205105     3.197462     3.189818     3.182175     3.174532     3.166889
      3.159245     3.151602     3.143959     3.136316     3.128673     3.121029     3.113386     3.105743     3.098100     3.090456
      3.082813     3.075170     3.067527     3.059884     3.052240     3.044597     3.036954     3.029311     3.021667     3.014024
      3.006381     2.998738     2.991095     2.983451     2.975808     2.968165     2.960522     2.952878     2.945235     2.937592
      2.929949     2.922306     2.914662     2.907019     2.899376     2.891733     2.884089     2.876446     2.868803     2.861160
      2.853517     2.845873     2.838230     2.830587     2.822944     2.815300     2.807657     2.800014     2.792371     2.784728
      2.777084     2.769441     2.761798     2.754155     2.746511     2.738868     2.731225     2.723582     2.715939     2.708295
      2.700652     2.693009     2.685366     2.677722     2.670079     2.662436     2.654793     2.647150     2.639506     2.631863
      2.624220     2.616577     2.608933     2.601290     2.593647     2.586004     2.578361     2.570717     2.563074     2.555431
      2.547788     2.540144     2.532501     2.524858     2.517215     2.509572     2.501928     2.494285     2.486642     2.478999
      2.471355     2.463712     2.456069     2.448426     2.440783     2.433139     2.425496     2.417853     2.410210     2.402566
      2.394923     2.387280     2.379637     2.371994     2.364350     2.356707     2.349064     2.341421     2.333777     2.326134
      2.318491     2.310848     2.303205     2.295561     2.287918     2.280275     2.272632     2.264988     2.257345     2.249702
      2.242059     2.234416     2.226772     2.219129     2.211486     2.203843     2.196199     2.188556     2.180913     2.173270
      2.165627     2.157983     2.150340     2.142697     2.135054     2.127410     2.119767     2.112124     2.104481     2.096838
      2.089194     2.081551     2.073908     2.066265     2.058621     2.050978     2.043335     2.035692     2.028049     2.020405
      2.012762     2.005119     1.997476     1.989833     1.982190     1.974546     1.966903     1.959260     1.951617     1.943974
      1.936331     1.928688     1.921045     1.913402     1.905759     1.898115     1.890472     1.882829     1.875186     1.867543
      1.859900     1.852257     1.844614     1.836971     1.829327     1.821684     1.814041     1.806398     1.798755     1.791112
      1.783469     1.775826     1.768183     1.760540     1.752896     1.745253     1.737610     1.729967     1.722324     1.714681
      1.707038     1.699395     1.691752     1.684108     1.676465     1.668822     1.661179     1.653536     1.645893     1.638250
      1.630607     1.622964     1.615321     1.607677     1.600034     1.592391     1.584748     1.577105     1.569462     1.561819
      1.554176     1.546533     1.538890     1.531246     1.523603     1.515960     1.508317     1.500674     1.493031     1.485388
      1.477745     1.470102     1.462458     1.454815     1.447172     1.439529     1.431886     1.424243     1.416600     1.408957
      1.401314     1.393671     1.386027     1.378384     1.370741     1.363098     1.355455     1.347812     1.340169     1.332526
      1.324883     1.317240     1.309596     1.301953     1.294310     1.286667     1.279024     1.271381     1.263738     1.256095
      1.248452     1.240808     1.233165     1.225522     1.217879     1.210236     1.202593     1.194950     1.187307     1.179664
      1.172021     1.164377     1.156734     1.149091     1.141448     1.133805     1.126162     1.118519     1.110876     1.103233
      1.095590     1.087946     1.080303     1.072660     1.065017     1.057374     1.049731     1.042088     1.034445     1.026802
      1.019158     1.011515     1.003872     0.996229     0.988586     0.980943     0.973300     0.965657     0.958014     0.950371
      0.942727     0.935084     0.927441     0.919798     0.912155     0.904512     0.896869     0.889226     0.881583     0.873940
      0.866296     0.858653     0.851010     0.843367     0.835724     0.828081     0.820438     0.812795     0.805152     0.797508
      0.789865     0.782222     0.774579     0.766936     0.759293     0.751650     0.744007     0.736364     0.728721     0.721077
      0.713434     0.705791     0.698148     0.690505     0.682862     0.675219     0.667576     0.659933     0.652290     0.644646
      0.637003     0.629360     0.621717     0.614074     0.606431     0.598788     0.591145     0.583502     0.575858     0.568215
      0.560572     0.552929     0.545286     0.537643     0.530000     0.522357     0.514714     0.507071     0.499427     0.491784
      0.484141     0.476498     0.468855     0.461212     0.453569     0.445925     0.438282     0.430639     0.422996     0.415353
      0.407710     0.400067     0.392424     0.384780     0.377137     0.369494     0.361851     0.354208     0.346565     0.338922
      0.331278     0.323635     0.315992     0.308349     0.300706     0.293063     0.285420     0.277777     0.270133     0.262490
      0.254847     0.247204     0.239561     0.231918     0.224275     0.216631     0.208988     0.201345
 NY phased data points follow
   1.96562E+01  1.35794E+01  1.75082E+01  2.07836E+01  2.61894E+01  3.05624E+01  3.03886E+01  3.95936E+01  5.15862E+01  6.05249E+01
   6.08453E+01  6.32222E+01  6.33255E+01  5.28803E+01  3.98497E+01  2.95140E+01  2.54237E+01  2.66156E+01  1.79544E+01  1.95031E+01
   1.79320E+01  1.78030E+01  1.78403E+01  1.94243E+01  2.09408E+01  2.09670E+01  2.44162E+01  2.08622E+01  2.21698E+01  2.74270E+01
   2.46866E+01  2.83774E+01  2.90585E+01  2.53663E+01  2.20894E+01  2.27038E+01  2.14721E+01  1.87879E+01  1.95946E+01  2.45156E+01
   2.00496E+01  2.26030E+01  1.89999E+01  2.30378E+01  2.42541E+01  2.55851E+01  2.97071E+01  3.04704E+01  3.42302E+01  2.89531E+01
   3.11276E+01  2.11649E+01  2.07899E+01  1.99530E+01  2.03362E+01  2.20302E+01  2.10856E+01  1.78443E+01  1.88321E+01  1.70318E+01
   1.29294E+01  1.12956E+01  4.11658E+00  4.71572E+00  3.64989E+00  3.64508E+00  2.67084E+00  4.90678E+00  1.65449E-01  2.88626E+00
   4.03832E+00  5.44965E+00  2.41596E+00  6.78117E+00  9.59054E+00  7.37157E+00  5.80656E+00  4.11542E+00  5.17175E+00  1.89887E+00
   4.50355E+00  8.92606E+00  5.24735E+00  5.10740E+00  5.67399E+00  1.17442E+01  4.10211E+00  1.09780E+01  4.61254E+00  7.68062E+00
   8.71829E+00  1.26594E+01  1.26847E+01  1.97085E+01  1.76235E+01  1.50926E+01  1.79165E+01  2.39722E+01  3.35901E+01  3.45118E+01
   4.90210E+01  7.72383E+01  1.00207E+02  1.00478E+02  9.68081E+01  7.59448E+01  5.72920E+01  3.99986E+01  2.64673E+01  2.05205E+01
   1.59379E+01  1.16845E+01  6.90314E+00  1.12103E+01  1.07631E+01  2.88853E+00  5.31500E+00  1.20467E+01  1.38008E+01  1.44310E+01
   9.45947E+00  1.90176E+01  1.82770E+01  2.99835E+01  3.55658E+01  6.16744E+01  7.35685E+01  9.25287E+01  8.53309E+01  7.69939E+01
   5.81140E+01  4.20484E+01  2.59447E+01  2.30749E+01  1.62169E+01  1.02267E+01  8.76527E+00  2.17416E+00  3.99263E+00  5.40535E+00
   8.06770E+00  1.54464E+01  5.94393E+00  7.89449E+00  1.28593E+01  9.78712E+00  2.65710E+00  1.06229E+01  1.01164E+01  7.08271E+00
   1.90429E+00  6.47816E+00  5.00427E+00  6.51532E+00  6.74940E+00  7.95148E+00  1.04323E+01  5.16386E+00  7.37076E+00  1.05287E+01
   5.96488E+00  2.86092E+00 -7.37124E-01 -3.60690E+00  5.99744E-01  6.08133E+00  1.33038E+00  4.12710E-01 -6.04214E-01 -5.20846E+00
  -9.04744E+00 -9.21663E+00 -1.15003E+01 -1.51716E+01 -1.32062E+01 -1.72321E+01 -1.90104E+01 -1.41418E+01 -1.39434E+01 -9.54483E+00
  -1.05220E+01 -9.85198E+00 -7.17584E+00 -1.11733E+01 -9.86762E+00 -1.34437E+01 -9.81443E+00 -6.41104E+00 -3.23036E+00 -2.73560E-01
   2.73187E+00  8.37568E+00  6.20013E+00  5.55178E+00  7.06189E+00  3.57183E+00  7.50936E+00  1.76357E+00 -6.09744E+00 -6.41710E+00
  -1.11325E+00 -9.32511E-01  1.46961E+00  7.18722E+00  6.46211E+00  1.00206E+01  1.50126E+00  1.74942E+00 -1.76886E+00  1.41817E+00
  -1.82389E+00  6.58086E+00  6.89768E+00  5.46237E+00  1.31722E+01  2.12632E+01  2.08570E+01  1.86604E+01  1.49366E+01  1.59593E+01
   6.38230E+00 -5.49172E+00 -4.75639E+00  1.62262E-01  1.97523E+00  4.96442E+00  8.65939E+00  1.51578E+01  1.21057E+01  1.46098E+01
   2.18586E+01  1.57949E+01  1.68332E+01  1.09221E+01  1.30930E+01  9.33099E+00  1.32230E+01  1.35175E+01  9.55061E+00  1.32605E+01
   7.22304E+00  6.90594E+00  5.08062E+00  4.21676E+00  6.67600E+00  1.47515E+01  1.93956E+01  1.72469E+01  2.02304E+01  2.51900E+01
   2.68516E+01  3.16209E+01  2.97460E+01  3.52417E+01  5.09130E+01  5.85441E+01  6.41107E+01  7.62405E+01  9.65874E+01  1.32833E+02
   1.53225E+02  1.47887E+02  1.25042E+02  9.83348E+01  6.20796E+01  4.25812E+01  2.77424E+01  1.86216E+01  1.30012E+01  1.77009E+01
   1.41287E+01  9.77908E+00  1.46597E+01  1.11303E+01  1.32489E+01  1.35889E+01  1.42705E+01  1.14541E+01  1.60762E+01  9.31924E+00
   1.01283E+01  9.72813E+00  7.87799E+00  9.37033E+00  5.18760E+00  4.12275E+00  6.54722E+00  9.21281E+00  7.54276E+00  8.90021E+00
   1.25990E+01  7.21264E+00  1.14643E+01  9.34336E+00  1.66855E+01  1.21088E+01  1.39963E+01  1.19488E+01  1.04442E+01  1.31000E+01
   1.38988E+01  1.86949E+01  1.94756E+01  1.69426E+01  1.90641E+01  1.95096E+01  2.55502E+01  2.27290E+01  2.26350E+01  2.06191E+01
   2.47533E+01  1.93279E+01  1.86819E+01  2.27175E+01  1.85097E+01  2.17241E+01  2.02342E+01  3.07588E+01  2.52354E+01  2.67792E+01
   2.43401E+01  2.69552E+01  2.39235E+01  2.94016E+01  2.43799E+01  2.33958E+01  2.50662E+01  2.76686E+01  2.20711E+01  2.73292E+01
   2.93532E+01  2.47876E+01  2.81274E+01  2.62772E+01  3.04926E+01  2.95497E+01  2.87798E+01  2.84094E+01  2.79247E+01  2.65403E+01
   2.36138E+01  1.88942E+01  2.59277E+01  2.72089E+01  2.50970E+01  2.50809E+01  2.26616E+01  2.00047E+01  1.89316E+01  1.95110E+01
   1.69193E+01  1.56323E+01  2.03289E+01  2.39428E+01  2.35314E+01  2.05987E+01  2.56450E+01  2.62884E+01  2.54963E+01  2.24132E+01
   2.49477E+01  2.26008E+01  2.31127E+01  2.63843E+01  2.81444E+01  1.94695E+01  2.52216E+01  2.23397E+01  2.26425E+01  1.69939E+01
   1.98561E+01  2.39456E+01  2.03255E+01  2.03292E+01  2.44246E+01  2.30975E+01  1.97902E+01  2.06141E+01  1.96779E+01  2.11936E+01
   2.08471E+01  1.86962E+01  2.15664E+01  2.14335E+01  1.62571E+01  1.94145E+01  2.00442E+01  1.93123E+01  1.39786E+01  2.03183E+01
   2.07608E+01  2.19051E+01  1.98434E+01  1.92534E+01  2.21678E+01  2.33184E+01  2.33336E+01  2.86823E+01  2.69883E+01  2.60173E+01
   2.64519E+01  2.35500E+01  2.70536E+01  2.37337E+01  2.52305E+01  2.74268E+01  3.07853E+01  3.09845E+01  3.02037E+01  3.10137E+01
   2.75616E+01  3.08683E+01  2.72469E+01  2.67236E+01  2.45618E+01  2.35921E+01  2.48410E+01  2.16263E+01  2.01798E+01  1.99974E+01
   1.82888E+01  1.77534E+01  1.76997E+01  2.16325E+01  2.01254E+01  2.02035E+01  2.10798E+01  1.67618E+01  1.25215E+01  1.63262E+01
   1.61253E+01  1.82588E+01  1.45954E+01  1.77850E+01  1.37414E+01  1.83458E+01  1.99612E+01  1.25334E+01  1.24590E+01  1.50209E+01
   1.76465E+01  1.75072E+01  1.18191E+01  1.66156E+01  1.55528E+01  1.38406E+01  1.41686E+01  9.93289E+00  1.15522E+01  9.58468E+00
   1.19331E+01  8.48044E+00  1.53489E+01  1.46206E+01  1.12464E+01  1.60199E+01  1.38431E+01  1.40820E+01  1.07610E+01  1.20995E+01
   8.81373E+00  1.28375E+01  1.26411E+01  7.34257E+00  1.02837E+01  9.58494E+00  9.87322E+00  1.17475E+01  1.07165E+01  1.34518E+01
   1.06796E+01  1.27519E+01  1.02495E+01  1.02159E+01  1.00183E+01  1.61164E+01  1.21072E+01  8.08997E+00  1.13822E+01  7.13823E+00
   1.11249E+01  1.54205E+01  1.13964E+01  1.02376E+01  1.02922E+01  9.34358E+00  1.06018E+01  7.51240E+00  6.80694E+00  8.16724E+00
   1.30118E+01  1.01121E+01  1.14857E+01  1.04219E+01  7.99834E+00  1.40813E+01  8.52299E+00  9.88325E+00
 NY points of the fit to the data follow
   1.79651E+01  1.80044E+01  1.86794E+01  2.07422E+01  2.40887E+01  2.82559E+01  3.37040E+01  4.08515E+01  4.98336E+01  5.87880E+01
   6.45101E+01  6.46235E+01  5.91052E+01  5.02598E+01  4.10698E+01  3.34495E+01  2.78942E+01  2.42324E+01  2.18310E+01  2.02685E+01
   1.93413E+01  1.86625E+01  1.78363E+01  1.72295E+01  1.76181E+01  1.81148E+01  1.85144E+01  1.99513E+01  2.31366E+01  2.72142E+01
   3.04044E+01  3.19162E+01  3.16763E+01  2.97314E+01  2.66360E+01  2.32276E+01  2.00411E+01  1.74634E+01  1.57742E+01  1.50784E+01
   1.55907E+01  1.70516E+01  1.86713E+01  2.00368E+01  2.15195E+01  2.34860E+01  2.55095E+01  2.66031E+01  2.61439E+01  2.41635E+01
   2.12522E+01  1.82304E+01  1.57129E+01  1.40674E+01  1.32392E+01  1.29802E+01  1.31045E+01  1.35031E+01  1.41225E+01  1.47001E+01
   1.48804E+01  1.44471E+01  1.33986E+01  1.20390E+01  1.07721E+01  9.96712E+00  9.76348E+00  9.98636E+00  1.04254E+01  1.09602E+01
   1.14985E+01  1.18681E+01  1.19246E+01  1.16573E+01  1.11733E+01  1.06280E+01  1.01432E+01  9.78492E+00  9.52960E+00  9.35660E+00
   9.29886E+00  9.28259E+00  9.14021E+00  9.00832E+00  9.02955E+00  9.03270E+00  8.70833E+00  7.99929E+00  7.18481E+00  6.59634E+00
   6.48509E+00  6.83757E+00  7.49590E+00  8.31028E+00  9.25569E+00  1.06555E+01  1.44455E+01  2.19918E+01  2.91292E+01  3.78946E+01
   5.38712E+01  7.64854E+01  9.66864E+01  1.04559E+02  9.74033E+01  7.95699E+01  5.79347E+01  3.87273E+01  2.50357E+01  1.61352E+01
   1.07424E+01  8.57835E+00  7.85503E+00  7.54763E+00  7.40136E+00  7.35744E+00  7.39631E+00  7.50307E+00  7.71804E+00  8.23649E+00
   1.00306E+01  1.57828E+01  2.27126E+01  2.91402E+01  3.98167E+01  5.74197E+01  7.68365E+01  8.87808E+01  8.79479E+01  7.59761E+01
   5.85131E+01  4.15163E+01  2.86314E+01  1.98174E+01  1.33073E+01  9.06163E+00  6.65968E+00  5.27658E+00  4.99371E+00  5.71454E+00
   6.93805E+00  8.06923E+00  8.69762E+00  8.67607E+00  8.14497E+00  7.38259E+00  6.62180E+00  5.99279E+00  5.46851E+00  5.00766E+00
   4.62233E+00  4.24695E+00  3.85970E+00  3.51799E+00  3.23616E+00  2.92504E+00  2.82541E+00  2.83770E+00  2.56785E+00  1.85058E+00
   7.02965E-01 -1.48476E-01 -9.08797E-02  6.83318E-01  1.41325E+00  1.45797E+00  6.98261E-01 -4.98324E-01 -1.69612E+00 -2.69192E+00
  -3.43248E+00 -3.84414E+00 -4.04599E+00 -4.52040E+00 -5.45649E+00 -6.43250E+00 -6.57154E+00 -5.80307E+00 -4.90849E+00 -4.61306E+00
  -4.92391E+00 -5.40994E+00 -5.35010E+00 -4.82469E+00 -4.40971E+00 -4.12794E+00 -3.40842E+00 -1.82403E+00  5.95578E-01  3.32687E+00
   5.70059E+00  7.07592E+00  6.99522E+00  6.06741E+00  4.88445E+00  3.56798E+00  2.30243E+00  1.56238E+00  1.73648E+00  2.61941E+00
   4.03051E+00  5.81180E+00  7.61041E+00  8.95766E+00  9.23497E+00  8.43601E+00  6.48351E+00  3.51615E+00  5.41534E-01 -1.60725E+00
  -2.41222E+00 -1.99379E+00 -5.30076E-01  2.54600E+00  7.13467E+00  1.17174E+01  1.41539E+01  1.34111E+01  1.01634E+01  5.61391E+00
   3.79623E-01 -4.46485E+00 -7.20278E+00 -6.78351E+00 -3.40976E+00  1.49156E+00  6.29776E+00  1.01018E+01  1.23640E+01  1.30083E+01
   1.25043E+01  1.17302E+01  1.13887E+01  1.16944E+01  1.26325E+01  1.40459E+01  1.54737E+01  1.62110E+01  1.60292E+01  1.50656E+01
   1.35707E+01  1.19743E+01  1.11324E+01  1.17018E+01  1.35695E+01  1.60935E+01  1.85669E+01  2.05095E+01  2.16776E+01  2.24686E+01
   2.34779E+01  2.44162E+01  2.62126E+01  3.11511E+01  4.41480E+01  5.86418E+01  6.81577E+01  8.08122E+01  1.03923E+02  1.31563E+02
   1.48799E+02  1.46362E+02  1.26344E+02  9.71807E+01  6.82442E+01  4.60651E+01  3.14605E+01  2.16806E+01  1.65300E+01  1.46326E+01
   1.34743E+01  1.26222E+01  1.20942E+01  1.18456E+01  1.16643E+01  1.14016E+01  1.10291E+01  1.05862E+01  1.01058E+01  9.63874E+00
   9.23991E+00  8.95064E+00  8.78330E+00  8.71295E+00  8.69413E+00  8.70221E+00  8.73400E+00  8.79488E+00  8.90648E+00  9.09567E+00
   9.38995E+00  9.79741E+00  1.02954E+01  1.08570E+01  1.14705E+01  1.21216E+01  1.27991E+01  1.35032E+01  1.42411E+01  1.50196E+01
   1.58353E+01  1.66708E+01  1.75027E+01  1.83066E+01  1.90620E+01  1.97559E+01  2.03786E+01  2.09230E+01  2.13894E+01  2.17819E+01
   2.21072E+01  2.23734E+01  2.25900E+01  2.27688E+01  2.29238E+01  2.30709E+01  2.32248E+01  2.33977E+01  2.35987E+01  2.38349E+01
   2.41133E+01  2.44387E+01  2.47898E+01  2.51561E+01  2.55455E+01  2.59388E+01  2.62870E+01  2.65466E+01  2.67117E+01  2.68202E+01
   2.68993E+01  2.69412E+01  2.69529E+01  2.69528E+01  2.69446E+01  2.69065E+01  2.68000E+01  2.66072E+01  2.63456E+01  2.60597E+01
   2.58313E+01  2.57173E+01  2.55133E+01  2.52967E+01  2.52690E+01  2.52829E+01  2.49126E+01  2.38836E+01  2.24204E+01  2.11024E+01
   2.01012E+01  1.95205E+01  1.95994E+01  2.04443E+01  2.18334E+01  2.33204E+01  2.44321E+01  2.49828E+01  2.50431E+01  2.48105E+01
   2.44930E+01  2.41721E+01  2.38490E+01  2.35748E+01  2.33243E+01  2.30625E+01  2.27763E+01  2.24614E+01  2.21176E+01  2.17481E+01
   2.13583E+01  2.09552E+01  2.05466E+01  2.01402E+01  1.97438E+01  1.93658E+01  1.90148E+01  1.86991E+01  1.84257E+01  1.82009E+01
   1.80303E+01  1.79194E+01  1.78731E+01  1.78952E+01  1.79885E+01  1.81544E+01  1.83940E+01  1.87078E+01  1.90954E+01  1.95547E+01
   2.00817E+01  2.06712E+01  2.13167E+01  2.20106E+01  2.27431E+01  2.35025E+01  2.42750E+01  2.50459E+01  2.57997E+01  2.65207E+01
   2.71923E+01  2.77980E+01  2.83223E+01  2.87515E+01  2.90743E+01  2.92823E+01  2.93691E+01  2.93315E+01  2.91696E+01  2.88877E+01
   2.84926E+01  2.79944E+01  2.74042E+01  2.67353E+01  2.60023E+01  2.52207E+01  2.44060E+01  2.35728E+01  2.27342E+01  2.19022E+01
   2.10876E+01  2.02997E+01  1.95459E+01  1.88313E+01  1.81591E+01  1.75316E+01  1.69500E+01  1.64144E+01  1.59237E+01  1.54759E+01
   1.50684E+01  1.46989E+01  1.43648E+01  1.40636E+01  1.37924E+01  1.35480E+01  1.33276E+01  1.31293E+01  1.29511E+01  1.27910E+01
   1.26468E+01  1.25167E+01  1.23990E+01  1.22930E+01  1.21976E+01  1.21117E+01  1.20338E+01  1.19632E+01  1.18992E+01  1.18415E+01
   1.17895E+01  1.17427E+01  1.17001E+01  1.16613E+01  1.16263E+01  1.15951E+01  1.15672E+01  1.15421E+01  1.15193E+01  1.14988E+01
   1.14806E+01  1.14649E+01  1.14512E+01  1.14390E+01  1.14281E+01  1.14188E+01  1.14112E+01  1.14052E+01  1.14003E+01  1.13963E+01
   1.13931E+01  1.13911E+01  1.13904E+01  1.13908E+01  1.13917E+01  1.13932E+01  1.13954E+01  1.13986E+01  1.14027E+01  1.14075E+01
   1.14126E+01  1.14181E+01  1.14242E+01  1.14312E+01  1.14389E+01  1.14469E+01  1.14552E+01  1.14638E+01  1.14731E+01  1.14832E+01
   1.14936E+01  1.15044E+01  1.15152E+01  1.15266E+01  1.15386E+01  1.15513E+01  1.15643E+01  1.15774E+01
 NY background values follow
     1.338E+01    1.329E+01    1.321E+01    1.312E+01    1.303E+01    1.294E+01    1.285E+01    1.276E+01    1.267E+01    1.258E+01
     1.249E+01    1.240E+01    1.231E+01    1.222E+01    1.213E+01    1.204E+01    1.195E+01    1.186E+01    1.177E+01    1.168E+01
     1.159E+01    1.150E+01    1.141E+01    1.132E+01    1.123E+01    1.114E+01    1.105E+01    1.096E+01    1.087E+01    1.078E+01
     1.069E+01    1.060E+01    1.051E+01    1.042E+01    1.033E+01    1.024E+01    1.015E+01    1.006E+01    9.974E+00    9.884E+00
     9.794E+00    9.705E+00    9.615E+00    9.525E+00    9.436E+00    9.346E+00    9.257E+00    9.167E+00    9.078E+00    8.988E+00
     8.899E+00    8.809E+00    8.720E+00    8.631E+00    8.542E+00    8.453E+00    8.364E+00    8.275E+00    8.187E+00    8.098E+00
     8.010E+00    7.922E+00    7.834E+00    7.746E+00    7.658E+00    7.571E+00    7.483E+00    7.396E+00    7.309E+00    7.223E+00
     7.136E+00    7.050E+00    6.964E+00    6.878E+00    6.793E+00    6.708E+00    6.623E+00    6.538E+00    6.454E+00    6.370E+00
     6.286E+00    6.203E+00    6.120E+00    6.037E+00    5.955E+00    5.872E+00    5.791E+00    5.709E+00    5.629E+00    5.548E+00
     5.468E+00    5.388E+00    5.309E+00    5.230E+00    5.151E+00    5.073E+00    4.995E+00    4.918E+00    4.841E+00    4.764E+00
     4.688E+00    4.612E+00    4.537E+00    4.462E+00    4.387E+00    4.313E+00    4.239E+00    4.166E+00    4.093E+00    4.020E+00
     3.947E+00    3.875E+00    3.804E+00    3.732E+00    3.661E+00    3.591E+00    3.521E+00    3.451E+00    3.381E+00    3.312E+00
     3.243E+00    3.175E+00    3.107E+00    3.039E+00    2.972E+00    2.905E+00    2.838E+00    2.771E+00    2.705E+00    2.640E+00
     2.574E+00    2.509E+00    2.445E+00    2.380E+00    2.316E+00    2.252E+00    2.189E+00    2.126E+00    2.063E+00    2.001E+00
     1.939E+00    1.877E+00    1.816E+00    1.755E+00    1.695E+00    1.636E+00    1.576E+00    1.518E+00    1.460E+00    1.402E+00
     1.345E+00    1.289E+00    1.233E+00    1.178E+00    1.124E+00    1.071E+00    1.018E+00    9.656E-01    9.143E-01    8.638E-01
     8.140E-01    7.651E-01    7.170E-01    6.699E-01    6.236E-01    5.782E-01    5.337E-01    4.902E-01    4.477E-01    4.062E-01
     3.657E-01    3.262E-01    2.878E-01    2.505E-01    2.143E-01    1.792E-01    1.452E-01    1.124E-01    8.081E-02    5.040E-02
     2.121E-02   -6.729E-03   -3.341E-02   -5.886E-02   -8.308E-02   -1.061E-01   -1.279E-01   -1.485E-01   -1.680E-01   -1.863E-01
    -2.035E-01   -2.196E-01   -2.346E-01   -2.485E-01   -2.614E-01   -2.732E-01   -2.839E-01   -2.937E-01   -3.024E-01   -3.101E-01
    -3.169E-01   -3.228E-01   -3.276E-01   -3.316E-01   -3.347E-01   -3.368E-01   -3.381E-01   -3.385E-01   -3.381E-01   -3.369E-01
    -3.348E-01   -3.320E-01   -3.284E-01   -3.240E-01   -3.189E-01   -3.130E-01   -3.064E-01   -2.991E-01   -2.912E-01   -2.825E-01
    -2.732E-01   -2.633E-01   -2.528E-01   -2.416E-01   -2.299E-01   -2.176E-01   -2.047E-01   -1.913E-01   -1.774E-01   -1.629E-01
    -1.478E-01   -1.323E-01   -1.162E-01   -9.953E-02   -8.235E-02   -6.464E-02   -4.640E-02   -2.762E-02   -8.315E-03    1.152E-02
     3.189E-02    5.279E-02    7.422E-02    9.617E-02    1.187E-01    1.417E-01    1.652E-01    1.892E-01    2.138E-01    2.389E-01
     2.645E-01    2.907E-01    3.173E-01    3.445E-01    3.722E-01    4.004E-01    4.291E-01    4.583E-01    4.881E-01    5.184E-01
     5.491E-01    5.804E-01    6.122E-01    6.445E-01    6.773E-01    7.106E-01    7.445E-01    7.788E-01    8.136E-01    8.490E-01
     8.848E-01    9.211E-01    9.580E-01    9.953E-01    1.033E+00    1.071E+00    1.110E+00    1.149E+00    1.189E+00    1.229E+00
     1.270E+00    1.311E+00    1.352E+00    1.394E+00    1.437E+00    1.479E+00    1.522E+00    1.566E+00    1.610E+00    1.654E+00
     1.699E+00    1.744E+00    1.789E+00    1.835E+00    1.881E+00    1.927E+00    1.974E+00    2.021E+00    2.069E+00    2.116E+00
     2.164E+00    2.213E+00    2.261E+00    2.310E+00    2.360E+00    2.409E+00    2.459E+00    2.509E+00    2.559E+00    2.609E+00
     2.660E+00    2.711E+00    2.762E+00    2.814E+00    2.865E+00    2.917E+00    2.969E+00    3.021E+00    3.073E+00    3.126E+00
     3.179E+00    3.231E+00    3.284E+00    3.338E+00    3.391E+00    3.444E+00    3.498E+00    3.552E+00    3.605E+00    3.659E+00
     3.713E+00    3.768E+00    3.822E+00    3.876E+00    3.931E+00    3.985E+00    4.040E+00    4.094E+00    4.149E+00    4.204E+00
     4.259E+00    4.314E+00    4.369E+00    4.424E+00    4.479E+00    4.534E+00    4.589E+00    4.644E+00    4.699E+00    4.754E+00
     4.809E+00    4.864E+00    4.919E+00    4.974E+00    5.029E+00    5.084E+00    5.138E+00    5.193E+00    5.248E+00    5.303E+00
     5.357E+00    5.412E+00    5.466E+00    5.521E+00    5.575E+00    5.629E+00    5.684E+00    5.738E+00    5.792E+00    5.845E+00
     5.899E+00    5.953E+00    6.006E+00    6.059E+00    6.113E+00    6.166E+00    6.219E+00    6.271E+00    6.324E+00    6.376E+00
     6.429E+00    6.481E+00    6.533E+00    6.584E+00    6.636E+00    6.688E+00    6.739E+00    6.790E+00    6.841E+00    6.891E+00
     6.942E+00    6.992E+00    7.042E+00    7.092E+00    7.141E+00    7.190E+00    7.240E+00    7.288E+00    7.337E+00    7.385E+00
     7.433E+00    7.481E+00    7.529E+00    7.576E+00    7.623E+00    7.670E+00    7.716E+00    7.762E+00    7.808E+00    7.854E+00
     7.899E+00    7.944E+00    7.989E+00    8.033E+00    8.077E+00    8.121E+00    8.165E+00    8.208E+00    8.251E+00    8.293E+00
     8.336E+00    8.378E+00    8.419E+00    8.461E+00    8.502E+00    8.543E+00    8.583E+00    8.623E+00    8.663E+00    8.702E+00
     8.742E+00    8.780E+00    8.819E+00    8.857E+00    8.895E+00    8.933E+00    8.970E+00    9.007E+00    9.043E+00    9.079E+00
     9.115E+00    9.151E+00    9.186E+00    9.221E+00    9.256E+00    9.290E+00    9.324E+00    9.357E+00    9.390E+00    9.423E+00
     9.456E+00    9.488E+00    9.520E+00    9.551E+00    9.582E+00    9.613E+00    9.643E+00    9.674E+00    9.703E+00    9.733E+00
     9.762E+00    9.791E+00    9.820E+00    9.848E+00    9.877E+00    9.905E+00    9.932E+00    9.960E+00    9.987E+00    1.001E+01
     1.004E+01    1.007E+01    1.009E+01    1.012E+01    1.015E+01    1.017E+01    1.020E+01    1.023E+01    1.025E+01    1.028E+01
     1.030E+01    1.033E+01    1.035E+01    1.038E+01    1.040E+01    1.043E+01    1.045E+01    1.048E+01    1.050E+01    1.053E+01
     1.055E+01    1.058E+01    1.060E+01    1.063E+01    1.066E+01    1.068E+01    1.071E+01    1.073E+01
 Ala      Conc. = 2.00E+01
