 LCModel (Version 6.3-1L) Copyright: S.W. Provencher.          Ref.: Magn. Reson. Med. 30:672-679 (1993).                
 Slice#2 Row#13 Col#12  K_02_press_1_raw_act
 36 lines in following concentration table = NCONC+1
    Conc.  %SD /Cr+PCr  Metabolite                                         
    0.000 999%   0.000 Ala                                                 
    3.517  46% 9.9E-02 Asp                                                 
   35.653  41%   1.000 Cr                                                  
    0.000 999%   0.000 PCr                                                 
    2.106  46% 5.9E-02 GABA                                                
    2.112  46% 5.9E-02 Glc                                                 
    7.308 523%   0.205 Gln                                                 
   18.512 226%   0.519 Glu                                                 
    0.000 999%   0.000 GPC                                                 
   11.556  48%   0.324 PCh                                                 
   16.577  96%   0.465 GSH                                                 
   57.521  90%   1.613 Ins                                                 
    9.184 231%   0.258 Lac                                                 
    0.000 999%   0.000 NAA                                                 
    0.000 999%   0.000 NAAG                                                
    0.700  46% 2.0E-02 Scyllo                                              
    3.522  45% 9.9E-02 Tau                                                 
    3.519  51% 9.9E-02 -CrCH2                                              
   11.556  48%   0.324 GPC+PCh                                             
    0.000 999%   0.000 NAA+NAAG                                            
   35.653  41%   1.000 Cr+PCr                                              
   25.820 199%   0.724 Glu+Gln                                             
    0.000 999%   0.000 Lip13a                                              
    0.000 999%   0.000 Lip13b                                              
 5.38E-04 999% 1.5E-05 Lip09                                               
  271.635  18%   7.619 MM09                                                
    0.000 999%   0.000 Lip20                                               
    0.000 999%   0.000 MM20                                                
   22.264 176%   0.624 MM12                                                
 1.17E+03   7%  32.797+MM14                                                
  475.241  19%  13.330 MM17                                                
    0.000 999%   0.000 Lip13a+Lip13b                                       
 1.19E+03   8%  33.422 MM14+Lip13a+Lip13b+MM12                             
  271.635  18%   7.619 MM09+Lip09                                          
    0.000 999%   0.000 MM20+Lip20                                          
   6 lines in following misc. output table
  FWHM = 0.031 ppm    S/N =   3                                            
  Data shift = 0.015 ppm                                                   
  Ph: 157 deg      -8.0 deg/ppm                                            
  alphaB,S = 8.5E+01,   1.3E+01                                            
   14 spline knots.   Ns = 5(1)                                            
   2 inflections.     2 extrema                                            
  498 points on ppm-axis = NY
      4.000000     3.992357     3.984714     3.977070     3.969427     3.961784     3.954141     3.946497     3.938854     3.931211
      3.923568     3.915925     3.908281     3.900638     3.892995     3.885352     3.877708     3.870065     3.862422     3.854779
      3.847136     3.839492     3.831849     3.824206     3.816563     3.808919     3.801276     3.793633     3.785990     3.778347
      3.770703     3.763060     3.755417     3.747774     3.740130     3.732487     3.724844     3.717201     3.709558     3.701914
      3.694271     3.686628     3.678985     3.671341     3.663698     3.656055     3.648412     3.640769     3.633125     3.625482
      3.617839     3.610196     3.602552     3.594909     3.587266     3.579623     3.571980     3.564336     3.556693     3.549050
      3.541407     3.533763     3.526120     3.518477     3.510834     3.503191     3.495547     3.487904     3.480261     3.472618
      3.464974     3.457331     3.449688     3.442045     3.434402     3.426758     3.419115     3.411472     3.403829     3.396185
      3.388542     3.380899     3.373256     3.365613     3.357969     3.350326     3.342683     3.335040     3.327396     3.319753
      3.312110     3.304467     3.296824     3.289180     3.281537     3.273894     3.266251     3.258607     3.250964     3.243321
      3.235678     3.228034     3.220391     3.212748     3.205105     3.197462     3.189818     3.182175     3.174532     3.166889
      3.159245     3.151602     3.143959     3.136316     3.128673     3.121029     3.113386     3.105743     3.098100     3.090456
      3.082813     3.075170     3.067527     3.059884     3.052240     3.044597     3.036954     3.029311     3.021667     3.014024
      3.006381     2.998738     2.991095     2.983451     2.975808     2.968165     2.960522     2.952878     2.945235     2.937592
      2.929949     2.922306     2.914662     2.907019     2.899376     2.891733     2.884089     2.876446     2.868803     2.861160
      2.853517     2.845873     2.838230     2.830587     2.822944     2.815300     2.807657     2.800014     2.792371     2.784728
      2.777084     2.769441     2.761798     2.754155     2.746511     2.738868     2.731225     2.723582     2.715939     2.708295
      2.700652     2.693009     2.685366     2.677722     2.670079     2.662436     2.654793     2.647150     2.639506     2.631863
      2.624220     2.616577     2.608933     2.601290     2.593647     2.586004     2.578361     2.570717     2.563074     2.555431
      2.547788     2.540144     2.532501     2.524858     2.517215     2.509572     2.501928     2.494285     2.486642     2.478999
      2.471355     2.463712     2.456069     2.448426     2.440783     2.433139     2.425496     2.417853     2.410210     2.402566
      2.394923     2.387280     2.379637     2.371994     2.364350     2.356707     2.349064     2.341421     2.333777     2.326134
      2.318491     2.310848     2.303205     2.295561     2.287918     2.280275     2.272632     2.264988     2.257345     2.249702
      2.242059     2.234416     2.226772     2.219129     2.211486     2.203843     2.196199     2.188556     2.180913     2.173270
      2.165627     2.157983     2.150340     2.142697     2.135054     2.127410     2.119767     2.112124     2.104481     2.096838
      2.089194     2.081551     2.073908     2.066265     2.058621     2.050978     2.043335     2.035692     2.028049     2.020405
      2.012762     2.005119     1.997476     1.989833     1.982190     1.974546     1.966903     1.959260     1.951617     1.943974
      1.936331     1.928688     1.921045     1.913402     1.905759     1.898115     1.890472     1.882829     1.875186     1.867543
      1.859900     1.852257     1.844614     1.836971     1.829327     1.821684     1.814041     1.806398     1.798755     1.791112
      1.783469     1.775826     1.768183     1.760540     1.752896     1.745253     1.737610     1.729967     1.722324     1.714681
      1.707038     1.699395     1.691752     1.684108     1.676465     1.668822     1.661179     1.653536     1.645893     1.638250
      1.630607     1.622964     1.615321     1.607677     1.600034     1.592391     1.584748     1.577105     1.569462     1.561819
      1.554176     1.546533     1.538890     1.531246     1.523603     1.515960     1.508317     1.500674     1.493031     1.485388
      1.477745     1.470102     1.462458     1.454815     1.447172     1.439529     1.431886     1.424243     1.416600     1.408957
      1.401314     1.393671     1.386027     1.378384     1.370741     1.363098     1.355455     1.347812     1.340169     1.332526
      1.324883     1.317240     1.309596     1.301953     1.294310     1.286667     1.279024     1.271381     1.263738     1.256095
      1.248452     1.240808     1.233165     1.225522     1.217879     1.210236     1.202593     1.194950     1.187307     1.179664
      1.172021     1.164377     1.156734     1.149091     1.141448     1.133805     1.126162     1.118519     1.110876     1.103233
      1.095590     1.087946     1.080303     1.072660     1.065017     1.057374     1.049731     1.042088     1.034445     1.026802
      1.019158     1.011515     1.003872     0.996229     0.988586     0.980943     0.973300     0.965657     0.958014     0.950371
      0.942727     0.935084     0.927441     0.919798     0.912155     0.904512     0.896869     0.889226     0.881583     0.873940
      0.866296     0.858653     0.851010     0.843367     0.835724     0.828081     0.820438     0.812795     0.805152     0.797508
      0.789865     0.782222     0.774579     0.766936     0.759293     0.751650     0.744007     0.736364     0.728721     0.721077
      0.713434     0.705791     0.698148     0.690505     0.682862     0.675219     0.667576     0.659933     0.652290     0.644646
      0.637003     0.629360     0.621717     0.614074     0.606431     0.598788     0.591145     0.583502     0.575858     0.568215
      0.560572     0.552929     0.545286     0.537643     0.530000     0.522357     0.514714     0.507071     0.499427     0.491784
      0.484141     0.476498     0.468855     0.461212     0.453569     0.445925     0.438282     0.430639     0.422996     0.415353
      0.407710     0.400067     0.392424     0.384780     0.377137     0.369494     0.361851     0.354208     0.346565     0.338922
      0.331278     0.323635     0.315992     0.308349     0.300706     0.293063     0.285420     0.277777     0.270133     0.262490
      0.254847     0.247204     0.239561     0.231918     0.224275     0.216631     0.208988     0.201345
 NY phased data points follow
  -1.49603E+00 -2.44314E+00 -2.96550E-01 -2.39005E+00  1.67132E-01 -1.92116E+00 -2.80534E+00 -2.42653E+00 -3.38430E+00 -1.99942E+00
  -4.92210E-01 -7.12179E-01 -5.27133E-01  2.98136E-01  2.88631E+00 -3.98657E-02 -8.60740E-01 -1.41995E+00 -1.83195E+00 -1.55207E+00
  -8.74682E-01 -2.29910E+00 -3.49550E-01 -7.42472E-01 -5.92236E-01 -6.54690E-01 -2.00485E+00 -1.88853E+00  2.07303E-01 -1.13032E-01
  -1.36782E+00  1.41090E-01 -1.42661E+00 -4.25645E-03 -2.92396E+00 -1.50204E+00 -5.76238E-01 -1.12310E+00  4.25978E-01 -1.89741E+00
  -1.97252E+00 -2.19886E+00 -1.48708E+00 -1.87249E+00 -1.61212E+00 -1.08438E+00 -1.78839E+00 -1.31732E+00 -1.50615E+00 -2.19995E+00
  -1.57404E+00 -7.09579E-01 -8.02387E-01 -5.14501E-01 -1.09690E-01  2.09389E-02 -2.30738E+00 -9.81790E-01 -9.20350E-01 -1.84468E+00
  -1.60054E+00 -8.97018E-01 -6.52022E-01 -1.16771E+00  1.73017E-01 -9.38378E-01  1.16345E-01 -1.70421E+00 -2.64517E+00 -9.71665E-01
  -1.01039E+00  7.30751E-01 -1.19292E+00 -2.80329E+00 -2.43074E+00  1.23290E+00  1.77686E+00  5.56040E-01 -1.64519E+00 -1.08400E+00
   4.45538E-01 -9.76261E-01 -1.47978E+00 -5.71192E-01 -5.24286E-01 -1.04714E+00 -1.42753E+00 -6.03077E-01 -2.10468E+00 -2.88185E+00
  -3.04420E+00 -1.58043E+00 -1.07441E+00 -4.15597E-02 -1.60066E+00  3.02448E-01 -6.36590E-01  5.11350E-01 -1.10682E+00  4.38166E-02
  -1.62887E-01 -3.39337E+00 -7.85334E-01 -1.01807E+00 -2.67341E-01 -8.11594E-01  1.63266E+00  1.25553E+00 -3.62979E-01  2.57062E-01
  -1.61438E+00  6.97191E-01 -8.39607E-01  2.02710E-01 -1.36486E+00 -5.69039E-01 -1.95579E+00 -3.55571E-01 -9.20103E-01 -2.44099E+00
  -8.96708E-01 -5.28745E-01 -1.08079E+00 -2.74331E-01 -2.71027E+00 -2.68451E+00 -1.56038E+00 -3.01866E-02 -9.50367E-02 -4.51808E-01
   1.55762E+00 -3.69579E-01 -1.74953E+00 -3.07953E-02  7.91433E-01 -6.79909E-01  1.01002E+00 -1.77573E+00 -1.31634E+00 -2.51347E+00
  -1.95854E+00 -3.44613E+00 -1.64425E+00 -9.39803E-01 -1.04239E+00 -4.84149E-01  4.42576E-01 -1.06206E+00 -9.86550E-01 -2.80206E+00
   5.65002E-01 -2.18554E+00 -2.83900E+00  8.26321E-01 -6.71828E-01 -3.25832E-01  4.75494E-01 -1.38339E-01 -2.26831E+00 -1.31194E+00
  -4.45718E-01 -8.22237E-01 -2.62588E-01 -3.09605E+00 -1.00797E-02 -9.29830E-01 -3.59640E+00 -3.30941E+00 -8.66925E-01 -1.22494E+00
  -1.35477E+00 -1.26601E+00 -2.47332E+00 -1.39663E+00 -8.78144E-01 -6.23342E-01 -1.93587E-01  1.10951E-01 -1.52883E+00 -1.28383E+00
  -5.94428E-01 -3.93434E-01  8.05799E-01  9.51017E-01 -6.67473E-01 -1.42412E+00  2.25763E-01 -2.59953E+00 -1.36484E-01 -1.00791E+00
  -1.41359E+00 -7.47952E-01 -1.29311E-01 -1.62511E+00 -1.99867E+00 -1.32908E+00 -2.11970E+00 -3.17789E-01 -2.47268E+00  4.44281E-01
  -2.63085E+00 -1.42475E+00 -4.52440E-01 -5.13215E-01 -3.30513E-01  5.39455E-02 -1.12250E+00  1.12647E-01  5.56788E-01 -2.29210E-01
   5.02084E-01  5.79259E-01 -1.81792E+00 -1.53756E+00 -6.88161E-01 -9.63399E-01 -9.07911E-02 -3.00371E-01 -1.62162E+00 -4.35232E-02
  -1.83479E-01 -1.39696E-01  1.45451E+00 -2.15326E+00 -1.20708E-01 -1.48088E+00  9.59614E-02 -1.08156E+00  6.90063E-01  3.38749E-01
  -2.04741E+00  1.62607E+00 -8.87165E-01  1.17915E+00  6.36922E-02 -1.34799E+00 -1.87429E-01  3.70659E-01  1.03136E+00 -5.98352E-01
  -2.97225E-01 -1.30696E+00  1.66594E+00  7.66749E-01  1.13950E+00 -1.78587E+00 -2.14345E+00 -2.17929E-01 -5.41225E-01 -1.17970E+00
   1.21019E+00 -1.10660E+00 -1.69215E+00 -8.06567E-01 -4.13223E+00 -3.72007E+00 -3.29805E+00 -3.80671E+00 -4.84419E+00 -7.04602E+00
  -4.07386E+00 -1.19944E+00 -1.50313E-01 -3.45031E-01 -1.93608E-03 -6.53006E-01 -2.20129E+00 -1.34603E+00 -3.23947E+00 -5.57952E-01
  -8.03649E-01 -2.53774E+00 -1.65601E+00 -9.82513E-01  7.77380E-01 -4.60480E-01 -5.72001E-01 -2.00349E+00 -2.54988E+00 -1.90037E+00
  -1.29996E+00 -2.46603E+00  6.74128E-01 -3.16610E-03 -3.50040E-01 -1.84682E+00 -9.19527E-01 -1.76816E+00  1.46940E+00 -2.44698E-01
   8.17848E-02 -5.54591E-01 -2.92168E+00  5.74354E-03 -4.90760E-01  1.75964E-01  1.82362E+00  1.27496E-01 -1.79609E+00  1.21731E+00
   1.23352E+00 -3.37217E-01  2.21479E+00  8.96800E-01  2.32018E+00  2.23200E+00  2.91684E+00  3.11955E+00  3.65800E+00  4.61952E+00
   3.81007E+00  5.03472E+00  3.56602E+00  4.08597E+00  3.78718E+00  6.23252E+00  7.53358E+00  7.18451E+00  6.70480E+00  9.38331E+00
   6.85891E+00  1.07794E+01  8.50673E+00  9.30678E+00  1.00694E+01  1.02128E+01  9.21566E+00  1.12984E+01  6.59466E+00  9.40531E+00
   8.06332E+00  1.06092E+01  9.02831E+00  9.52139E+00  7.75065E+00  9.75462E+00  7.14110E+00  5.41780E+00  6.62791E+00  5.81704E+00
   5.21976E+00  6.34645E+00  5.00361E+00  2.74959E+00  3.71848E+00  2.17138E+00  2.09547E+00  2.90320E+00  7.44393E-01  2.53564E+00
   2.25413E+00  1.43834E+00 -9.99474E-01  2.00784E-01 -1.57022E+00 -2.20973E+00 -6.93910E-01 -9.87212E-02 -2.54731E+00 -2.08852E+00
  -1.80341E+00 -2.93610E+00 -1.62523E+00 -1.93124E+00  4.32119E-01 -1.73638E+00 -2.99753E+00 -2.57943E-01 -1.17064E+00 -2.34127E+00
  -6.40525E-01 -8.63714E-01 -4.59776E-01  1.36061E+00 -1.41237E+00  6.51398E-01  5.82508E-01 -5.08849E-01  4.94912E-01  1.48397E+00
   2.67067E+00  4.68174E-01  1.34416E+00  4.33670E-01  8.40228E-01  2.22281E+00  1.65332E+00  2.12248E+00  2.06143E+00  5.84706E-01
   2.40215E+00 -2.46718E+00  2.93645E+00 -5.51851E-03  8.43225E-01  1.08071E+00  2.01631E+00  3.32296E+00  1.20360E+00  1.26088E+00
   1.47451E+00  1.50047E+00  1.25270E+00  2.92404E+00  1.31035E+00  1.06217E+00  1.23542E+00  1.32181E+00  3.29365E+00  4.38765E-01
   1.54008E+00  9.87276E-01  1.68154E+00 -3.60116E-01  5.87373E-01  1.58206E+00  9.19691E-01  2.86486E+00  8.11828E-01  1.18526E+00
   2.76899E+00  2.48984E+00  1.42052E+00 -2.22346E-01 -2.51302E-01  2.23011E+00  2.74899E-01  2.52343E-01  6.34182E-01  2.13351E+00
   1.30548E+00 -4.18410E-02 -4.52433E-01  1.34007E+00  5.49727E-01 -2.93850E-01  1.69069E+00  1.18133E+00  1.73477E+00 -4.80416E-01
   1.15178E+00  2.03214E-01 -1.40387E-01 -3.83275E-01  1.13100E-01 -5.58172E-01  1.87671E+00 -2.24273E-01  3.20116E-01  1.47715E-01
   2.04609E-01  1.29510E+00  1.05844E+00  1.80023E+00  6.78352E-01 -1.81107E+00 -2.68908E-01 -8.43330E-01 -1.71455E-01 -6.04240E-02
  -4.57594E-01  1.69992E+00  2.53957E+00  1.98715E+00 -1.37662E+00  1.72146E+00  1.85798E+00 -1.40203E+00 -1.14692E+00  1.61388E-01
   7.69997E-01 -6.27177E-01  1.92574E+00  6.36596E-01 -7.08625E-01  6.62641E-02  1.73055E+00  9.80188E-01  7.64228E-02  2.28284E-01
   4.84760E-01 -1.23464E+00 -6.64725E-01 -1.43243E+00 -1.36964E-01  5.52949E-01  1.65908E+00  4.95691E-02  5.28391E-01 -4.13912E-01
  -9.58091E-01 -1.89256E+00  5.14017E-01 -6.12989E-01  3.76996E-01 -1.25963E-01 -1.05895E+00 -1.80797E-01
 NY points of the fit to the data follow
  -1.24238E+00 -1.31712E+00 -1.37958E+00 -1.40780E+00 -1.41139E+00 -1.41220E+00 -1.44830E+00 -1.55097E+00 -1.65637E+00 -1.62631E+00
  -1.39578E+00 -1.01619E+00 -5.86122E-01 -2.29058E-01 -9.64251E-02 -2.74837E-01 -6.76804E-01 -1.08513E+00 -1.29948E+00 -1.35142E+00
  -1.36085E+00 -1.35576E+00 -1.34525E+00 -1.33324E+00 -1.32802E+00 -1.35386E+00 -1.42221E+00 -1.48219E+00 -1.45306E+00 -1.31026E+00
  -1.08811E+00 -8.41357E-01 -6.34455E-01 -5.55302E-01 -6.48153E-01 -8.55397E-01 -1.05865E+00 -1.16419E+00 -1.21056E+00 -1.23561E+00
  -1.24673E+00 -1.26319E+00 -1.30281E+00 -1.37235E+00 -1.44089E+00 -1.44572E+00 -1.33865E+00 -1.12294E+00 -8.55761E-01 -6.23808E-01
  -5.17265E-01 -5.93520E-01 -8.34817E-01 -1.13304E+00 -1.34611E+00 -1.41705E+00 -1.40349E+00 -1.36578E+00 -1.31357E+00 -1.23635E+00
  -1.13399E+00 -1.02635E+00 -9.43958E-01 -9.18001E-01 -9.63839E-01 -1.06690E+00 -1.17660E+00 -1.24703E+00 -1.26834E+00 -1.24370E+00
  -1.19078E+00 -1.12870E+00 -1.07409E+00 -1.03349E+00 -1.00395E+00 -9.89292E-01 -9.94358E-01 -1.01710E+00 -1.04874E+00 -1.07352E+00
  -1.09306E+00 -1.11008E+00 -1.11822E+00 -1.10870E+00 -1.08228E+00 -1.05501E+00 -1.04985E+00 -1.08164E+00 -1.14840E+00 -1.23500E+00
  -1.31613E+00 -1.36060E+00 -1.34843E+00 -1.28322E+00 -1.19830E+00 -1.12336E+00 -1.07427E+00 -1.05590E+00 -1.08751E+00 -1.20778E+00
  -1.38691E+00 -1.45207E+00 -1.23617E+00 -7.48492E-01 -1.28098E-01  4.44030E-01  7.72659E-01  6.87886E-01  2.12393E-01 -4.09624E-01
  -8.71298E-01 -1.02708E+00 -1.06387E+00 -1.07469E+00 -1.07726E+00 -1.07504E+00 -1.07101E+00 -1.06778E+00 -1.06779E+00 -1.07190E+00
  -1.08144E+00 -1.10614E+00 -1.18277E+00 -1.32460E+00 -1.41178E+00 -1.25349E+00 -7.98722E-01 -1.64887E-01  4.73828E-01  9.25918E-01
   9.98817E-01  6.40789E-01  4.13253E-02 -4.98545E-01 -7.39478E-01 -8.05536E-01 -8.79712E-01 -9.89086E-01 -1.10429E+00 -1.17648E+00
  -1.17105E+00 -1.09597E+00 -9.97515E-01 -9.13733E-01 -8.66179E-01 -8.62539E-01 -8.87130E-01 -9.17070E-01 -9.39251E-01 -9.48509E-01
  -9.53806E-01 -9.58565E-01 -9.64683E-01 -9.72570E-01 -9.80689E-01 -9.85849E-01 -9.85244E-01 -9.80321E-01 -9.73128E-01 -9.65524E-01
  -9.59780E-01 -9.57343E-01 -9.57935E-01 -9.58785E-01 -9.58354E-01 -9.56641E-01 -9.53674E-01 -9.49330E-01 -9.42496E-01 -9.33428E-01
  -9.23847E-01 -9.15509E-01 -9.08922E-01 -9.03751E-01 -8.99013E-01 -8.95505E-01 -8.94540E-01 -8.96436E-01 -9.00178E-01 -9.03985E-01
  -9.05910E-01 -9.04694E-01 -9.01262E-01 -8.98842E-01 -9.00098E-01 -9.06592E-01 -9.18919E-01 -9.33496E-01 -9.39082E-01 -9.21586E-01
  -8.76340E-01 -8.11743E-01 -7.47413E-01 -7.01467E-01 -6.92426E-01 -7.35811E-01 -8.23346E-01 -9.20084E-01 -9.91046E-01 -1.01689E+00
  -9.92679E-01 -9.24067E-01 -8.30992E-01 -7.45095E-01 -6.91978E-01 -6.74741E-01 -6.73021E-01 -6.82917E-01 -7.12113E-01 -7.60329E-01
  -8.17010E-01 -8.68959E-01 -9.00394E-01 -8.91948E-01 -8.33431E-01 -7.38761E-01 -6.39092E-01 -5.66504E-01 -5.30596E-01 -5.41861E-01
  -6.11966E-01 -7.23860E-01 -8.36766E-01 -9.09148E-01 -9.33248E-01 -9.09297E-01 -8.36800E-01 -7.34958E-01 -6.43667E-01 -6.02986E-01
  -6.19996E-01 -6.68538E-01 -7.23104E-01 -7.71683E-01 -7.93482E-01 -7.64991E-01 -6.86953E-01 -5.93274E-01 -5.25388E-01 -5.00992E-01
  -5.20631E-01 -5.89448E-01 -6.93101E-01 -7.91193E-01 -8.41044E-01 -8.31804E-01 -7.82851E-01 -7.11148E-01 -6.36716E-01 -5.85520E-01
  -5.76905E-01 -5.99902E-01 -6.30387E-01 -6.50002E-01 -6.54903E-01 -6.45676E-01 -6.31374E-01 -6.23203E-01 -6.24761E-01 -6.33253E-01
  -6.40367E-01 -6.38129E-01 -6.21903E-01 -5.96515E-01 -5.71802E-01 -5.56221E-01 -5.50705E-01 -5.51886E-01 -5.57038E-01 -5.64201E-01
  -5.71582E-01 -5.77137E-01 -5.80449E-01 -5.80475E-01 -5.73617E-01 -5.60352E-01 -5.43949E-01 -5.28785E-01 -5.18020E-01 -5.13228E-01
  -5.12950E-01 -5.14557E-01 -5.16386E-01 -5.16743E-01 -5.14071E-01 -5.07969E-01 -4.98590E-01 -4.86127E-01 -4.70870E-01 -4.52423E-01
  -4.30056E-01 -4.02456E-01 -3.67521E-01 -3.22923E-01 -2.66401E-01 -1.95422E-01 -1.07018E-01  1.87705E-03  1.34111E-01  2.92348E-01
   4.78983E-01  6.95736E-01  9.43692E-01  1.22305E+00  1.53300E+00  1.87164E+00  2.23602E+00  2.62226E+00  3.02577E+00  3.44153E+00
   3.86435E+00  4.28924E+00  4.71162E+00  5.12769E+00  5.53453E+00  5.93019E+00  6.31352E+00  6.68401E+00  7.04139E+00  7.38529E+00
   7.71482E+00  8.02813E+00  8.32222E+00  8.59269E+00  8.83386E+00  9.03889E+00  9.20015E+00  9.30976E+00  9.36014E+00  9.34464E+00
   9.25817E+00  9.09770E+00  8.86259E+00  8.55486E+00  8.17918E+00  7.74266E+00  7.25457E+00  6.72581E+00  6.16837E+00  5.59465E+00
   5.01679E+00  4.44576E+00  3.89023E+00  3.36119E+00  2.88020E+00  2.46809E+00  2.12073E+00  1.81256E+00  1.51959E+00  1.22598E+00
   9.18613E-01  5.97080E-01  2.96248E-01  7.32504E-02 -3.71440E-02 -5.70525E-02 -2.71775E-02  3.49311E-02  9.95501E-02  1.30210E-01
   1.11809E-01  6.03295E-02  1.67963E-02 -3.20487E-03 -1.13406E-02 -1.33548E-02 -1.16463E-02 -7.44846E-03 -1.43496E-03  6.02974E-03
   1.47761E-02  2.47562E-02  3.60246E-02  4.87157E-02  6.30400E-02  7.92592E-02  9.76797E-02  1.18637E-01  1.42507E-01  1.69702E-01
   2.00665E-01  2.35853E-01  2.75727E-01  3.20729E-01  3.71280E-01  4.27751E-01  4.90438E-01  5.59515E-01  6.35006E-01  7.16745E-01
   8.04357E-01  8.97216E-01  9.94431E-01  1.09482E+00  1.19693E+00  1.29904E+00  1.39924E+00  1.49542E+00  1.58541E+00  1.66704E+00
   1.73822E+00  1.79704E+00  1.84190E+00  1.87156E+00  1.88522E+00  1.88253E+00  1.86366E+00  1.82926E+00  1.78042E+00  1.71865E+00
   1.64574E+00  1.56371E+00  1.47472E+00  1.38092E+00  1.28446E+00  1.18729E+00  1.09118E+00  9.97667E-01  9.07995E-01  8.23138E-01
   7.43797E-01  6.70408E-01  6.03182E-01  5.42134E-01  4.87130E-01  4.37910E-01  3.94131E-01  3.55384E-01  3.21238E-01  2.91250E-01
   2.64992E-01  2.42052E-01  2.22048E-01  2.04622E-01  1.89458E-01  1.76272E-01  1.64820E-01  1.54883E-01  1.46272E-01  1.38816E-01
   1.32375E-01  1.26829E-01  1.22074E-01  1.18018E-01  1.14580E-01  1.11690E-01  1.09290E-01  1.07332E-01  1.05772E-01  1.04568E-01
   1.03686E-01  1.03091E-01  1.02762E-01  1.02676E-01  1.02812E-01  1.03147E-01  1.03666E-01  1.04353E-01  1.05197E-01  1.06187E-01
   1.07312E-01  1.08557E-01  1.09915E-01  1.11377E-01  1.12940E-01  1.14596E-01  1.16337E-01  1.18156E-01  1.20048E-01  1.22009E-01
   1.24039E-01  1.26130E-01  1.28278E-01  1.30477E-01  1.32727E-01  1.35025E-01  1.37371E-01  1.39760E-01  1.42187E-01  1.44650E-01
   1.47151E-01  1.49686E-01  1.52256E-01  1.54854E-01  1.57481E-01  1.60133E-01  1.62814E-01  1.65520E-01  1.68252E-01  1.71004E-01
   1.73777E-01  1.76570E-01  1.79385E-01  1.82220E-01  1.85073E-01  1.87940E-01  1.90825E-01  1.93725E-01
 NY background values follow
    -1.500E+00   -1.497E+00   -1.494E+00   -1.490E+00   -1.487E+00   -1.483E+00   -1.480E+00   -1.477E+00   -1.473E+00   -1.470E+00
    -1.467E+00   -1.463E+00   -1.460E+00   -1.457E+00   -1.453E+00   -1.450E+00   -1.446E+00   -1.443E+00   -1.440E+00   -1.436E+00
    -1.433E+00   -1.430E+00   -1.426E+00   -1.423E+00   -1.420E+00   -1.416E+00   -1.413E+00   -1.409E+00   -1.406E+00   -1.403E+00
    -1.399E+00   -1.396E+00   -1.393E+00   -1.389E+00   -1.386E+00   -1.383E+00   -1.379E+00   -1.376E+00   -1.372E+00   -1.369E+00
    -1.366E+00   -1.362E+00   -1.359E+00   -1.356E+00   -1.352E+00   -1.349E+00   -1.346E+00   -1.342E+00   -1.339E+00   -1.335E+00
    -1.332E+00   -1.329E+00   -1.325E+00   -1.322E+00   -1.319E+00   -1.315E+00   -1.312E+00   -1.309E+00   -1.305E+00   -1.302E+00
    -1.298E+00   -1.295E+00   -1.292E+00   -1.288E+00   -1.285E+00   -1.282E+00   -1.278E+00   -1.275E+00   -1.272E+00   -1.268E+00
    -1.265E+00   -1.261E+00   -1.258E+00   -1.255E+00   -1.251E+00   -1.248E+00   -1.245E+00   -1.241E+00   -1.238E+00   -1.235E+00
    -1.231E+00   -1.228E+00   -1.224E+00   -1.221E+00   -1.218E+00   -1.214E+00   -1.211E+00   -1.208E+00   -1.204E+00   -1.201E+00
    -1.198E+00   -1.194E+00   -1.191E+00   -1.188E+00   -1.184E+00   -1.181E+00   -1.177E+00   -1.174E+00   -1.171E+00   -1.167E+00
    -1.164E+00   -1.161E+00   -1.157E+00   -1.154E+00   -1.151E+00   -1.147E+00   -1.144E+00   -1.140E+00   -1.137E+00   -1.134E+00
    -1.130E+00   -1.127E+00   -1.124E+00   -1.120E+00   -1.117E+00   -1.114E+00   -1.110E+00   -1.107E+00   -1.103E+00   -1.100E+00
    -1.097E+00   -1.093E+00   -1.090E+00   -1.087E+00   -1.083E+00   -1.080E+00   -1.077E+00   -1.073E+00   -1.070E+00   -1.066E+00
    -1.063E+00   -1.060E+00   -1.056E+00   -1.053E+00   -1.050E+00   -1.046E+00   -1.043E+00   -1.040E+00   -1.036E+00   -1.033E+00
    -1.029E+00   -1.026E+00   -1.023E+00   -1.019E+00   -1.016E+00   -1.013E+00   -1.009E+00   -1.006E+00   -1.003E+00   -9.992E-01
    -9.958E-01   -9.925E-01   -9.891E-01   -9.857E-01   -9.824E-01   -9.790E-01   -9.756E-01   -9.723E-01   -9.689E-01   -9.656E-01
    -9.622E-01   -9.588E-01   -9.555E-01   -9.521E-01   -9.487E-01   -9.454E-01   -9.420E-01   -9.386E-01   -9.353E-01   -9.319E-01
    -9.286E-01   -9.252E-01   -9.218E-01   -9.185E-01   -9.151E-01   -9.117E-01   -9.084E-01   -9.050E-01   -9.017E-01   -8.983E-01
    -8.949E-01   -8.916E-01   -8.882E-01   -8.848E-01   -8.815E-01   -8.781E-01   -8.747E-01   -8.714E-01   -8.680E-01   -8.647E-01
    -8.613E-01   -8.579E-01   -8.546E-01   -8.512E-01   -8.478E-01   -8.445E-01   -8.411E-01   -8.378E-01   -8.344E-01   -8.310E-01
    -8.277E-01   -8.243E-01   -8.209E-01   -8.176E-01   -8.142E-01   -8.108E-01   -8.075E-01   -8.041E-01   -8.008E-01   -7.974E-01
    -7.940E-01   -7.907E-01   -7.873E-01   -7.839E-01   -7.806E-01   -7.772E-01   -7.739E-01   -7.705E-01   -7.671E-01   -7.638E-01
    -7.604E-01   -7.570E-01   -7.537E-01   -7.503E-01   -7.469E-01   -7.436E-01   -7.402E-01   -7.369E-01   -7.335E-01   -7.301E-01
    -7.268E-01   -7.234E-01   -7.200E-01   -7.167E-01   -7.133E-01   -7.099E-01   -7.066E-01   -7.032E-01   -6.999E-01   -6.965E-01
    -6.931E-01   -6.898E-01   -6.864E-01   -6.830E-01   -6.797E-01   -6.763E-01   -6.729E-01   -6.696E-01   -6.662E-01   -6.629E-01
    -6.595E-01   -6.561E-01   -6.528E-01   -6.494E-01   -6.460E-01   -6.427E-01   -6.393E-01   -6.360E-01   -6.326E-01   -6.292E-01
    -6.259E-01   -6.225E-01   -6.191E-01   -6.158E-01   -6.124E-01   -6.090E-01   -6.057E-01   -6.023E-01   -5.990E-01   -5.956E-01
    -5.922E-01   -5.889E-01   -5.855E-01   -5.821E-01   -5.788E-01   -5.754E-01   -5.720E-01   -5.687E-01   -5.653E-01   -5.619E-01
    -5.586E-01   -5.552E-01   -5.519E-01   -5.485E-01   -5.451E-01   -5.418E-01   -5.384E-01   -5.350E-01   -5.317E-01   -5.283E-01
    -5.249E-01   -5.216E-01   -5.182E-01   -5.149E-01   -5.115E-01   -5.081E-01   -5.048E-01   -5.014E-01   -4.980E-01   -4.947E-01
    -4.913E-01   -4.879E-01   -4.846E-01   -4.812E-01   -4.779E-01   -4.745E-01   -4.711E-01   -4.678E-01   -4.644E-01   -4.610E-01
    -4.577E-01   -4.543E-01   -4.509E-01   -4.476E-01   -4.442E-01   -4.409E-01   -4.375E-01   -4.341E-01   -4.308E-01   -4.274E-01
    -4.240E-01   -4.207E-01   -4.173E-01   -4.139E-01   -4.106E-01   -4.072E-01   -4.038E-01   -4.005E-01   -3.971E-01   -3.938E-01
    -3.904E-01   -3.870E-01   -3.837E-01   -3.803E-01   -3.769E-01   -3.736E-01   -3.702E-01   -3.668E-01   -3.635E-01   -3.601E-01
    -3.568E-01   -3.534E-01   -3.500E-01   -3.467E-01   -3.433E-01   -3.399E-01   -3.366E-01   -3.332E-01   -3.298E-01   -3.265E-01
    -3.231E-01   -3.197E-01   -3.164E-01   -3.130E-01   -3.097E-01   -3.063E-01   -3.029E-01   -2.996E-01   -2.962E-01   -2.928E-01
    -2.895E-01   -2.861E-01   -2.827E-01   -2.794E-01   -2.760E-01   -2.726E-01   -2.693E-01   -2.659E-01   -2.626E-01   -2.592E-01
    -2.558E-01   -2.525E-01   -2.491E-01   -2.457E-01   -2.424E-01   -2.390E-01   -2.356E-01   -2.323E-01   -2.289E-01   -2.255E-01
    -2.222E-01   -2.188E-01   -2.155E-01   -2.121E-01   -2.087E-01   -2.054E-01   -2.020E-01   -1.986E-01   -1.953E-01   -1.919E-01
    -1.885E-01   -1.852E-01   -1.818E-01   -1.785E-01   -1.751E-01   -1.717E-01   -1.684E-01   -1.650E-01   -1.616E-01   -1.583E-01
    -1.549E-01   -1.515E-01   -1.482E-01   -1.448E-01   -1.414E-01   -1.381E-01   -1.347E-01   -1.314E-01   -1.280E-01   -1.246E-01
    -1.213E-01   -1.179E-01   -1.145E-01   -1.112E-01   -1.078E-01   -1.044E-01   -1.011E-01   -9.771E-02   -9.435E-02   -9.098E-02
    -8.762E-02   -8.425E-02   -8.089E-02   -7.752E-02   -7.416E-02   -7.080E-02   -6.743E-02   -6.407E-02   -6.070E-02   -5.734E-02
    -5.397E-02   -5.061E-02   -4.725E-02   -4.388E-02   -4.052E-02   -3.715E-02   -3.379E-02   -3.042E-02   -2.706E-02   -2.370E-02
    -2.033E-02   -1.697E-02   -1.360E-02   -1.024E-02   -6.875E-03   -3.511E-03   -1.463E-04    3.218E-03    6.582E-03    9.946E-03
     1.331E-02    1.667E-02    2.004E-02    2.340E-02    2.677E-02    3.013E-02    3.350E-02    3.686E-02    4.022E-02    4.359E-02
     4.695E-02    5.032E-02    5.368E-02    5.705E-02    6.041E-02    6.377E-02    6.714E-02    7.050E-02    7.387E-02    7.723E-02
     8.060E-02    8.396E-02    8.732E-02    9.069E-02    9.405E-02    9.742E-02    1.008E-01    1.041E-01    1.075E-01    1.109E-01
     1.142E-01    1.176E-01    1.210E-01    1.243E-01    1.277E-01    1.311E-01    1.344E-01    1.378E-01    1.412E-01    1.445E-01
     1.479E-01    1.512E-01    1.546E-01    1.580E-01    1.613E-01    1.647E-01    1.681E-01    1.714E-01
 Asp      Conc. = 3.52E+00
