 LCModel (Version 6.3-1L) Copyright: S.W. Provencher.          Ref.: Magn. Reson. Med. 30:672-679 (1993).                
 Slice#1 Row#8 Col#9  K_02_press_1_raw_act
 36 lines in following concentration table = NCONC+1
    Conc.  %SD /Cr+PCr  Metabolite                                         
    0.000 999%   0.000 Ala                                                 
   26.117 727% 3.1E-02 Asp                                                 
  535.141  45%   0.628 Cr                                                  
  316.637  78%   0.372 PCr                                                 
   37.145 323% 4.4E-02 GABA                                                
   26.087 460% 3.1E-02 Glc                                                 
  263.858  95%   0.310 Gln                                                 
 1.10E+03  27%   1.286 Glu                                                 
  357.063   7%   0.419 GPC                                                 
    0.000 999%   0.000 PCh                                                 
  165.358  51%   0.194 GSH                                                 
  885.617  34%   1.040 Ins                                                 
    0.000 999%   0.000 Lac                                                 
 1.64E+03   8%   1.931 NAA                                                 
  360.138  38%   0.423 NAAG                                                
   52.584  54% 6.2E-02 Scyllo                                              
    0.000 999%   0.000 Tau                                                 
  367.964  33%   0.432 -CrCH2                                              
  357.063   7%   0.419 GPC+PCh                                             
 2.01E+03   5%   2.354 NAA+NAAG                                            
  851.778   8%   1.000 Cr+PCr                                              
 1.36E+03  29%   1.596 Glu+Gln                                             
    0.000 999%   0.000 Lip13a                                              
    0.000 999%   0.000 Lip13b                                              
    0.000 999%   0.000 Lip09                                               
 1.32E+03  17%   1.555 MM09                                                
 3.49E-03 999% 4.1E-06 Lip20                                               
 2.89E+03  15%   3.396 MM20                                                
  127.491 119%   0.150 MM12                                                
    0.000 999%   0.000 MM14                                                
 2.02E+03  15%   2.375+MM17                                                
    0.000 999%   0.000 Lip13a+Lip13b                                       
  127.491 119%   0.150 MM14+Lip13a+Lip13b+MM12                             
 1.32E+03  17%   1.555 MM09+Lip09                                          
 2.89E+03  15%   3.396 MM20+Lip20                                          
   6 lines in following misc. output table
  FWHM = 0.046 ppm    S/N =   8                                            
  Data shift = 0.000 ppm                                                   
  Ph: -55 deg      -7.5 deg/ppm                                            
  alphaB,S = 5.5E-01,   8.5E+01                                            
   14 spline knots.   Ns = 7(1)                                            
  ( 8) 2 infls.   ( 7) 1 extrs.                                            
  498 points on ppm-axis = NY
      4.000000     3.992357     3.984714     3.977070     3.969427     3.961784     3.954141     3.946497     3.938854     3.931211
      3.923568     3.915925     3.908281     3.900638     3.892995     3.885352     3.877708     3.870065     3.862422     3.854779
      3.847136     3.839492     3.831849     3.824206     3.816563     3.808919     3.801276     3.793633     3.785990     3.778347
      3.770703     3.763060     3.755417     3.747774     3.740130     3.732487     3.724844     3.717201     3.709558     3.701914
      3.694271     3.686628     3.678985     3.671341     3.663698     3.656055     3.648412     3.640769     3.633125     3.625482
      3.617839     3.610196     3.602552     3.594909     3.587266     3.579623     3.571980     3.564336     3.556693     3.549050
      3.541407     3.533763     3.526120     3.518477     3.510834     3.503191     3.495547     3.487904     3.480261     3.472618
      3.464974     3.457331     3.449688     3.442045     3.434402     3.426758     3.419115     3.411472     3.403829     3.396185
      3.388542     3.380899     3.373256     3.365613     3.357969     3.350326     3.342683     3.335040     3.327396     3.319753
      3.312110     3.304467     3.296824     3.289180     3.281537     3.273894     3.266251     3.258607     3.250964     3.243321
      3.235678     3.228034     3.220391     3.212748     3.205105     3.197462     3.189818     3.182175     3.174532     3.166889
      3.159245     3.151602     3.143959     3.136316     3.128673     3.121029     3.113386     3.105743     3.098100     3.090456
      3.082813     3.075170     3.067527     3.059884     3.052240     3.044597     3.036954     3.029311     3.021667     3.014024
      3.006381     2.998738     2.991095     2.983451     2.975808     2.968165     2.960522     2.952878     2.945235     2.937592
      2.929949     2.922306     2.914662     2.907019     2.899376     2.891733     2.884089     2.876446     2.868803     2.861160
      2.853517     2.845873     2.838230     2.830587     2.822944     2.815300     2.807657     2.800014     2.792371     2.784728
      2.777084     2.769441     2.761798     2.754155     2.746511     2.738868     2.731225     2.723582     2.715939     2.708295
      2.700652     2.693009     2.685366     2.677722     2.670079     2.662436     2.654793     2.647150     2.639506     2.631863
      2.624220     2.616577     2.608933     2.601290     2.593647     2.586004     2.578361     2.570717     2.563074     2.555431
      2.547788     2.540144     2.532501     2.524858     2.517215     2.509572     2.501928     2.494285     2.486642     2.478999
      2.471355     2.463712     2.456069     2.448426     2.440783     2.433139     2.425496     2.417853     2.410210     2.402566
      2.394923     2.387280     2.379637     2.371994     2.364350     2.356707     2.349064     2.341421     2.333777     2.326134
      2.318491     2.310848     2.303205     2.295561     2.287918     2.280275     2.272632     2.264988     2.257345     2.249702
      2.242059     2.234416     2.226772     2.219129     2.211486     2.203843     2.196199     2.188556     2.180913     2.173270
      2.165627     2.157983     2.150340     2.142697     2.135054     2.127410     2.119767     2.112124     2.104481     2.096838
      2.089194     2.081551     2.073908     2.066265     2.058621     2.050978     2.043335     2.035692     2.028049     2.020405
      2.012762     2.005119     1.997476     1.989833     1.982190     1.974546     1.966903     1.959260     1.951617     1.943974
      1.936331     1.928688     1.921045     1.913402     1.905759     1.898115     1.890472     1.882829     1.875186     1.867543
      1.859900     1.852257     1.844614     1.836971     1.829327     1.821684     1.814041     1.806398     1.798755     1.791112
      1.783469     1.775826     1.768183     1.760540     1.752896     1.745253     1.737610     1.729967     1.722324     1.714681
      1.707038     1.699395     1.691752     1.684108     1.676465     1.668822     1.661179     1.653536     1.645893     1.638250
      1.630607     1.622964     1.615321     1.607677     1.600034     1.592391     1.584748     1.577105     1.569462     1.561819
      1.554176     1.546533     1.538890     1.531246     1.523603     1.515960     1.508317     1.500674     1.493031     1.485388
      1.477745     1.470102     1.462458     1.454815     1.447172     1.439529     1.431886     1.424243     1.416600     1.408957
      1.401314     1.393671     1.386027     1.378384     1.370741     1.363098     1.355455     1.347812     1.340169     1.332526
      1.324883     1.317240     1.309596     1.301953     1.294310     1.286667     1.279024     1.271381     1.263738     1.256095
      1.248452     1.240808     1.233165     1.225522     1.217879     1.210236     1.202593     1.194950     1.187307     1.179664
      1.172021     1.164377     1.156734     1.149091     1.141448     1.133805     1.126162     1.118519     1.110876     1.103233
      1.095590     1.087946     1.080303     1.072660     1.065017     1.057374     1.049731     1.042088     1.034445     1.026802
      1.019158     1.011515     1.003872     0.996229     0.988586     0.980943     0.973300     0.965657     0.958014     0.950371
      0.942727     0.935084     0.927441     0.919798     0.912155     0.904512     0.896869     0.889226     0.881583     0.873940
      0.866296     0.858653     0.851010     0.843367     0.835724     0.828081     0.820438     0.812795     0.805152     0.797508
      0.789865     0.782222     0.774579     0.766936     0.759293     0.751650     0.744007     0.736364     0.728721     0.721077
      0.713434     0.705791     0.698148     0.690505     0.682862     0.675219     0.667576     0.659933     0.652290     0.644646
      0.637003     0.629360     0.621717     0.614074     0.606431     0.598788     0.591145     0.583502     0.575858     0.568215
      0.560572     0.552929     0.545286     0.537643     0.530000     0.522357     0.514714     0.507071     0.499427     0.491784
      0.484141     0.476498     0.468855     0.461212     0.453569     0.445925     0.438282     0.430639     0.422996     0.415353
      0.407710     0.400067     0.392424     0.384780     0.377137     0.369494     0.361851     0.354208     0.346565     0.338922
      0.331278     0.323635     0.315992     0.308349     0.300706     0.293063     0.285420     0.277777     0.270133     0.262490
      0.254847     0.247204     0.239561     0.231918     0.224275     0.216631     0.208988     0.201345
 NY phased data points follow
  -2.75044E+01 -2.27866E+01 -2.57285E+01 -2.35653E+01 -2.30023E+01 -1.95761E+01 -1.95628E+01 -1.31372E+01 -1.73761E+01 -9.75475E+00
  -1.02239E+01 -6.32900E+00 -7.82034E+00 -9.84967E+00 -1.37723E+01 -1.46089E+01 -1.91123E+01 -1.82692E+01 -1.39433E+01 -1.58480E+01
  -1.07757E+01 -1.63468E+01 -1.79957E+01 -2.05244E+01 -1.53846E+01 -1.76082E+01 -1.22688E+01 -2.29006E+01 -1.62561E+01 -1.69091E+01
  -1.48776E+01 -1.00087E+01 -9.07453E+00 -1.42087E+01 -1.32066E+01 -1.53267E+01 -1.06972E+01 -1.40756E+01 -1.04056E+01 -1.27275E+01
  -1.28890E+01 -1.15314E+01 -8.35220E+00 -9.23709E+00 -1.14294E+01 -6.81273E+00 -1.56074E+00 -2.76906E+00 -3.82054E+00 -9.71450E+00
  -7.09866E+00 -4.53973E+00 -7.00841E+00 -1.55567E+01 -1.01402E+01 -7.52793E+00 -1.05281E+01 -1.29339E+00 -6.34578E+00 -1.30609E+01
  -1.48917E+01 -2.00499E+01 -1.32338E+01 -1.54855E+01 -1.70489E+01 -1.41336E+01 -1.61215E+01 -1.33972E+01 -1.31592E+01 -1.16138E+01
  -7.86964E+00 -6.18676E+00 -1.68284E+01 -5.69225E+00 -9.40899E+00 -1.28595E+01 -1.27700E+01 -7.56731E+00 -1.45871E+01 -6.08110E+00
  -9.54860E+00 -1.04697E+01 -6.92028E+00 -4.85467E+00 -1.00328E+01 -9.60882E+00 -1.05474E+01 -6.87793E+00 -1.33696E-01 -1.21537E+01
  -7.03187E+00 -3.95121E+00 -2.08135E+00 -6.44025E+00 -1.18265E+00 -7.26091E-01 -1.91111E+00 -2.70996E+00 -2.79757E+00  5.79808E+00
   1.63769E+01  2.28470E+01  3.09430E+01  3.57465E+01  2.28681E+01  1.03324E+01  1.21394E+01  3.42339E+00 -1.17817E+00 -2.61160E+00
  -1.45347E+00 -6.79889E+00  8.93444E-02 -5.01880E+00  1.97865E+00 -7.76495E+00 -3.08834E+00  8.95824E-01 -1.03651E+00 -3.02795E+00
   2.95254E+00  4.47750E+00  6.82121E+00  4.76105E+00  1.46191E+01  2.03429E+01  2.70645E+01  2.90209E+01  2.29993E+01  2.29051E+01
   1.31084E+01  8.74731E+00  8.13746E+00  3.59244E+00  4.66187E+00 -2.66362E+00 -3.83606E-01 -3.78907E-01 -1.97598E+00 -1.84551E+00
   6.55420E-01  1.88380E+00 -2.38510E+00 -5.41229E+00 -2.96271E+00 -3.54154E+00  2.37887E+00 -4.67421E+00 -5.73651E-01 -7.24702E+00
  -2.25329E+00  1.33424E+00 -1.02929E+00 -8.77965E+00 -1.70762E+00 -2.53024E-02 -4.49798E+00  1.29462E+00  4.22676E+00  2.76712E+00
  -5.69937E+00 -3.36712E+00 -7.64015E+00 -5.47415E+00 -3.00573E+00 -6.12755E+00  1.26316E+00  1.47294E+00 -5.01320E+00 -1.30343E+00
  -1.21049E+01 -8.63468E+00 -7.80180E+00 -5.53590E+00 -7.67747E+00 -1.01988E+01 -1.07391E+01 -1.75321E+01 -4.68068E+00 -5.82314E+00
  -8.55689E+00 -1.09734E+01 -7.90638E+00 -7.58727E+00 -7.36787E+00 -2.80158E+00 -1.67807E+00 -1.14556E+00  1.22156E-01  3.17772E+00
  -1.47081E+00  4.38289E+00  3.46726E+00 -1.90141E+00  1.09631E+00  4.98158E+00 -6.56115E-02 -5.24197E+00 -2.25671E+00 -4.68734E+00
  -5.58114E+00 -7.45073E+00  2.14784E+00  5.97375E+00  6.03155E+00  6.66155E+00  1.33894E+00  4.88785E+00  2.30491E+00 -2.75837E+00
   9.75681E+00  3.62809E+00  7.19760E+00  4.71417E+00  1.19205E+01  9.16154E+00  1.19503E+01  1.28298E+01  7.41251E+00  2.95532E+00
   3.60620E+00  3.38681E+00 -6.28392E-01  1.52191E+00  5.23333E+00  2.93045E+00  6.22025E+00  7.04033E+00  7.65832E+00  1.13132E+01
   9.11723E+00  1.01195E+01  1.58241E+01  1.19567E+01  8.16373E+00  1.33751E+01  6.56377E+00  1.41845E+01  1.31184E+01  1.14946E+01
   8.16145E+00  1.08792E+01  8.79185E+00  9.55506E+00  6.90992E+00  1.24784E+01  1.00164E+01  1.15868E+01  1.11425E+01  1.35006E+01
   2.08986E+01  1.73348E+01  2.66981E+01  2.62026E+01  3.09741E+01  3.47711E+01  4.57808E+01  4.52606E+01  5.26511E+01  6.36093E+01
   7.90318E+01  8.27183E+01  6.90963E+01  5.25068E+01  4.56864E+01  3.24049E+01  1.87752E+01  1.36159E+01  1.10270E+01  1.89851E+01
   9.19382E+00  1.62206E+01  9.94827E+00  1.21618E+01  1.33803E+01  8.17091E+00  7.18830E+00  1.09375E+01  8.72855E+00  9.16447E+00
   7.62439E+00  9.86006E+00  6.42493E+00  5.03224E+00  5.09916E+00  6.10543E+00  4.72156E+00  5.98057E+00  5.70694E+00  1.04525E+01
   1.13753E+01  9.12496E+00  1.00985E+01  1.47722E+01  1.47376E+01  1.18458E+01  1.05285E+01  1.12581E+01  9.28745E+00  6.06916E+00
   1.18687E+01  8.01636E+00  1.32108E+01  9.66479E+00  1.09804E+01  1.18644E+01  1.56269E+01  1.41436E+01  1.33849E+01  1.39689E+01
   1.45118E+01  9.56547E+00  6.51714E+00  8.08316E+00  1.11117E+01  1.07149E+01  1.07867E+01  5.82722E+00  1.71821E+01  1.90680E+01
   1.91596E+01  1.69580E+01  1.69262E+01  1.77717E+01  1.18509E+01  1.23619E+01  1.56887E+01  8.13349E+00  4.75607E+00  1.03704E+01
   4.34467E+00  8.20432E+00  7.99328E+00  8.38576E-01  2.87905E+00 -3.63686E+00 -1.34211E+00 -3.15239E+00 -9.88408E+00 -1.05249E+01
  -1.06342E+01 -6.64303E+00 -3.30391E+00 -8.95468E+00 -1.49303E+00 -5.12699E+00 -5.09456E+00 -1.09252E+01 -1.04986E+01 -3.14809E+00
  -1.06626E+01 -1.10937E+01  7.09574E-01  1.44927E+00 -3.49692E-01 -5.20374E+00 -9.00801E+00 -7.72214E+00 -1.36348E+00 -9.87384E+00
  -5.16675E+00 -4.12848E+00 -1.15994E+01 -4.28810E+00 -5.37640E+00 -4.29999E+00 -4.89077E-01 -4.89478E+00 -3.34123E+00 -2.77478E+00
  -2.58765E+00  7.00279E-01 -5.45431E+00 -2.67381E+00 -3.74536E+00 -1.15350E+01  4.96734E+00 -2.37126E+00 -7.57493E+00  3.44792E+00
  -1.28253E+00  1.27171E+00  1.07630E+00  3.99462E-01  2.36376E+00 -9.42360E+00  5.22065E-01  2.51976E+00  8.29517E-01  5.31389E+00
   1.79975E+00 -2.95971E+00  6.05119E-01  7.67195E-01  1.87513E+00  2.72866E+00  3.24854E+00  1.01166E+00  3.23861E+00  8.39822E+00
   6.95745E+00  4.09430E+00  5.90234E+00  6.15828E+00  1.05212E+00  7.61155E+00  1.20494E+01  9.02423E+00  9.19561E+00  1.04828E+01
   1.21989E+01  1.03490E+01  1.34824E+01  2.91348E+00  1.00804E+01  3.98801E+00  7.05460E+00  7.31342E+00  6.65028E+00  4.88783E+00
   1.51213E+00  4.87845E+00  4.80911E+00  5.30778E+00  6.59508E+00  8.67925E+00  1.38158E+00 -1.84696E+00  2.86430E+00 -7.81980E-01
  -2.89226E+00  5.00248E+00  2.24531E+00  3.04203E+00  6.69894E+00  1.09441E+01  5.39582E+00  6.61145E+00  6.49640E+00  9.96347E+00
   6.43320E+00  3.40240E+00 -5.00585E-02  3.38863E+00  7.30239E+00  1.13101E+01  8.23287E+00  3.10020E+00  5.19225E+00  3.33536E+00
  -6.05473E-01  1.78352E+00  3.68067E+00  6.88063E+00  8.79682E+00  1.43237E+01  4.28110E+00  2.55870E+00  9.49710E+00  7.74956E+00
   2.51733E+00  2.27653E+00  6.53999E+00  3.53372E+00  9.23639E+00  7.31202E+00  4.42740E+00  6.34478E+00  1.02767E+01  7.68957E+00
   5.80117E+00  7.01703E+00  7.77209E+00  5.39248E+00 -1.68975E-02  6.56652E+00  4.49428E-01  7.20198E+00  2.39868E+00  3.85625E+00
   1.24934E+00  7.29451E+00  2.32085E+00  4.21091E+00  9.67089E+00  1.08575E+01 -2.72016E+00  7.77640E+00  5.00774E+00  5.58450E+00
   7.27454E+00  6.45965E+00  1.00446E+00  3.35096E+00  5.08176E+00  8.11944E+00  5.05682E+00  1.12507E+01
 NY points of the fit to the data follow
  -2.22268E+01 -2.21791E+01 -2.19514E+01 -2.14407E+01 -2.04076E+01 -1.90875E+01 -1.77592E+01 -1.62174E+01 -1.40706E+01 -1.12941E+01
  -8.61380E+00 -7.18625E+00 -7.63977E+00 -9.49669E+00 -1.17490E+01 -1.37643E+01 -1.53632E+01 -1.65034E+01 -1.72097E+01 -1.75798E+01
  -1.76808E+01 -1.76865E+01 -1.76598E+01 -1.75030E+01 -1.72735E+01 -1.70799E+01 -1.68633E+01 -1.64105E+01 -1.54625E+01 -1.39977E+01
  -1.23194E+01 -1.09367E+01 -1.02165E+01 -1.02473E+01 -1.09926E+01 -1.22144E+01 -1.35100E+01 -1.45799E+01 -1.51991E+01 -1.51615E+01
  -1.44545E+01 -1.33512E+01 -1.21493E+01 -1.09049E+01 -9.50503E+00 -7.97462E+00 -6.68756E+00 -6.19881E+00 -6.77552E+00 -8.15183E+00
  -9.81464E+00 -1.13052E+01 -1.23191E+01 -1.27896E+01 -1.27947E+01 -1.24768E+01 -1.19512E+01 -1.12892E+01 -1.05996E+01 -1.00631E+01
  -9.86422E+00 -1.00692E+01 -1.05596E+01 -1.11265E+01 -1.15287E+01 -1.16152E+01 -1.13992E+01 -1.09751E+01 -1.04433E+01 -9.88988E+00
  -9.38755E+00 -9.01505E+00 -8.83475E+00 -8.83508E+00 -8.93034E+00 -9.03137E+00 -9.09274E+00 -9.10340E+00 -9.04987E+00 -8.90166E+00
  -8.67676E+00 -8.46628E+00 -8.24065E+00 -7.92551E+00 -7.53629E+00 -7.22667E+00 -7.19666E+00 -7.51313E+00 -8.00103E+00 -8.34879E+00
  -8.41286E+00 -8.23096E+00 -7.87843E+00 -7.41777E+00 -6.84281E+00 -5.57344E+00 -3.15475E+00 -3.92862E-01  2.99962E+00  8.08346E+00
   1.53217E+01  2.33506E+01  2.91194E+01  2.98066E+01  2.52090E+01  1.78693E+01  1.05120E+01  4.39079E+00 -8.91485E-02 -2.85072E+00
  -4.32247E+00 -4.99430E+00 -5.08816E+00 -4.99555E+00 -4.85414E+00 -4.68652E+00 -4.49751E+00 -4.27394E+00 -3.95150E+00 -3.19011E+00
  -1.31008E+00  1.20825E+00  4.11560E+00  8.02934E+00  1.35615E+01  2.01974E+01  2.59036E+01  2.81558E+01  2.58979E+01  2.05395E+01
   1.44695E+01  9.11720E+00  4.92812E+00  2.00142E+00  8.35741E-02 -1.21949E+00 -1.96818E+00 -2.30099E+00 -2.33149E+00 -2.12319E+00
  -1.79012E+00 -1.47544E+00 -1.28215E+00 -1.23773E+00 -1.31448E+00 -1.45601E+00 -1.61438E+00 -1.77263E+00 -1.91866E+00 -2.03961E+00
  -2.14554E+00 -2.24362E+00 -2.33409E+00 -2.41429E+00 -2.48904E+00 -2.52764E+00 -2.49904E+00 -2.47235E+00 -2.53967E+00 -2.78610E+00
  -3.17624E+00 -3.47645E+00 -3.47110E+00 -3.17899E+00 -2.83112E+00 -2.68659E+00 -2.85606E+00 -3.24996E+00 -3.68968E+00 -4.05541E+00
  -4.31255E+00 -4.42411E+00 -4.48505E+00 -4.64224E+00 -4.93046E+00 -5.20495E+00 -5.22458E+00 -4.90384E+00 -4.44197E+00 -4.13583E+00
  -4.08566E+00 -4.09597E+00 -3.90697E+00 -3.51968E+00 -3.08337E+00 -2.66796E+00 -2.18095E+00 -1.45223E+00 -4.31470E-01  7.17441E-01
   1.72602E+00  2.34958E+00  2.54209E+00  2.42045E+00  2.14940E+00  1.88419E+00  1.70076E+00  1.67125E+00  1.85388E+00  2.27351E+00
   2.89015E+00  3.62047E+00  4.36115E+00  4.88900E+00  5.02135E+00  4.61467E+00  3.62011E+00  2.23832E+00  8.68774E-01 -1.32595E-02
  -1.98606E-01  3.46463E-01  1.62800E+00  3.54590E+00  5.74831E+00  7.50640E+00  8.06483E+00  7.23024E+00  5.39383E+00  3.04876E+00
   7.06690E-01 -1.04990E+00 -1.60615E+00 -6.62099E-01  1.42478E+00  3.90350E+00  6.11344E+00  7.72829E+00  8.66604E+00  8.95383E+00
   8.82925E+00  8.63275E+00  8.61656E+00  8.86730E+00  9.33105E+00  9.88284E+00  1.03767E+01  1.07524E+01  1.09249E+01  1.08419E+01
   1.05567E+01  1.02788E+01  1.02473E+01  1.06093E+01  1.13578E+01  1.22963E+01  1.31809E+01  1.38647E+01  1.44407E+01  1.52292E+01
   1.61781E+01  1.74088E+01  1.94147E+01  2.33619E+01  2.99533E+01  3.68469E+01  4.29363E+01  4.93773E+01  5.79273E+01  6.80443E+01
   7.57834E+01  7.64286E+01  6.88682E+01  5.65527E+01  4.37813E+01  3.27675E+01  2.42299E+01  1.84163E+01  1.47783E+01  1.25106E+01
   1.13334E+01  1.06631E+01  1.02297E+01  9.93078E+00  9.66285E+00  9.33936E+00  8.94309E+00  8.50058E+00  8.04855E+00  7.61757E+00
   7.23333E+00  6.91342E+00  6.65882E+00  6.44935E+00  6.25974E+00  6.08005E+00  5.90734E+00  5.74191E+00  5.59332E+00  5.48047E+00
   5.42004E+00  5.41727E+00  5.46347E+00  5.54721E+00  5.66184E+00  5.80914E+00  5.99414E+00  6.22356E+00  6.50860E+00  6.86132E+00
   7.28742E+00  7.78332E+00  8.33757E+00  8.93605E+00  9.56377E+00  1.02048E+01  1.08436E+01  1.14645E+01  1.20498E+01  1.25813E+01
   1.30411E+01  1.34119E+01  1.36788E+01  1.38298E+01  1.38566E+01  1.37548E+01  1.35247E+01  1.31712E+01  1.27031E+01  1.21328E+01
   1.14754E+01  1.07476E+01  9.96761E+00  9.15406E+00  8.32497E+00  7.49676E+00  6.68389E+00  5.89841E+00  5.15023E+00  4.44671E+00
   3.79281E+00  3.19092E+00  2.64153E+00  2.14354E+00  1.69491E+00  1.29263E+00  9.33128E-01  6.12234E-01  3.25884E-01  7.01713E-02
  -1.58311E-01 -3.62828E-01 -5.46323E-01 -7.11574E-01 -8.60776E-01 -9.95744E-01 -1.11781E+00 -1.22829E+00 -1.32832E+00 -1.41896E+00
  -1.50091E+00 -1.57477E+00 -1.64094E+00 -1.70009E+00 -1.75279E+00 -1.79968E+00 -1.84108E+00 -1.87741E+00 -1.90899E+00 -1.93644E+00
  -1.96020E+00 -1.98068E+00 -1.99800E+00 -2.01241E+00 -2.02413E+00 -2.03350E+00 -2.04058E+00 -2.04528E+00 -2.04721E+00 -2.04605E+00
  -2.04132E+00 -2.03260E+00 -2.01909E+00 -1.99992E+00 -1.97391E+00 -1.94004E+00 -1.89708E+00 -1.84379E+00 -1.77854E+00 -1.69957E+00
  -1.60491E+00 -1.49264E+00 -1.36059E+00 -1.20645E+00 -1.02756E+00 -8.21248E-01 -5.84789E-01 -3.15749E-01 -1.17420E-02  3.29228E-01
   7.08828E-01  1.12780E+00  1.58594E+00  2.08168E+00  2.61228E+00  3.17343E+00  3.75934E+00  4.36240E+00  4.97349E+00  5.58199E+00
   6.17649E+00  6.74484E+00  7.27484E+00  7.75444E+00  8.17261E+00  8.51973E+00  8.78837E+00  8.97337E+00  9.07230E+00  9.08526E+00
   9.01519E+00  8.86752E+00  8.65009E+00  8.37239E+00  8.04520E+00  7.67983E+00  7.28796E+00  6.88086E+00  6.46927E+00  6.06260E+00
   5.66899E+00  5.29495E+00  4.94565E+00  4.62474E+00  4.33462E+00  4.07628E+00  3.84973E+00  3.65406E+00  3.48795E+00  3.34954E+00
   3.23681E+00  3.14737E+00  3.07891E+00  3.02909E+00  2.99591E+00  2.97737E+00  2.97174E+00  2.97726E+00  2.99248E+00  3.01608E+00
   3.04709E+00  3.08449E+00  3.12747E+00  3.17515E+00  3.22693E+00  3.28222E+00  3.34067E+00  3.40179E+00  3.46520E+00  3.53045E+00
   3.59732E+00  3.66553E+00  3.73497E+00  3.80533E+00  3.87649E+00  3.94824E+00  4.02058E+00  4.09342E+00  4.16677E+00  4.24044E+00
   4.31439E+00  4.38850E+00  4.46285E+00  4.53738E+00  4.61213E+00  4.68692E+00  4.76178E+00  4.83663E+00  4.91159E+00  4.98660E+00
   5.06168E+00  5.13670E+00  5.21171E+00  5.28668E+00  5.36174E+00  5.43680E+00  5.51189E+00  5.58688E+00  5.66188E+00  5.73687E+00
   5.81195E+00  5.88704E+00  5.96214E+00  6.03718E+00  6.11227E+00  6.18742E+00  6.26269E+00  6.33798E+00  6.41332E+00  6.48866E+00
   6.56414E+00  6.63971E+00  6.71545E+00  6.79124E+00  6.86712E+00  6.94308E+00  7.01924E+00  7.09555E+00
 NY background values follow
    -2.491E+01   -2.472E+01   -2.452E+01   -2.433E+01   -2.414E+01   -2.394E+01   -2.375E+01   -2.356E+01   -2.337E+01   -2.317E+01
    -2.298E+01   -2.279E+01   -2.260E+01   -2.240E+01   -2.221E+01   -2.202E+01   -2.183E+01   -2.164E+01   -2.145E+01   -2.126E+01
    -2.107E+01   -2.088E+01   -2.069E+01   -2.050E+01   -2.031E+01   -2.012E+01   -1.994E+01   -1.975E+01   -1.956E+01   -1.938E+01
    -1.919E+01   -1.901E+01   -1.882E+01   -1.864E+01   -1.845E+01   -1.827E+01   -1.809E+01   -1.791E+01   -1.773E+01   -1.755E+01
    -1.737E+01   -1.719E+01   -1.701E+01   -1.683E+01   -1.665E+01   -1.648E+01   -1.630E+01   -1.613E+01   -1.596E+01   -1.578E+01
    -1.561E+01   -1.544E+01   -1.527E+01   -1.510E+01   -1.493E+01   -1.477E+01   -1.460E+01   -1.443E+01   -1.427E+01   -1.410E+01
    -1.394E+01   -1.378E+01   -1.362E+01   -1.346E+01   -1.330E+01   -1.314E+01   -1.298E+01   -1.282E+01   -1.267E+01   -1.251E+01
    -1.236E+01   -1.220E+01   -1.205E+01   -1.190E+01   -1.175E+01   -1.160E+01   -1.145E+01   -1.131E+01   -1.116E+01   -1.101E+01
    -1.087E+01   -1.073E+01   -1.058E+01   -1.044E+01   -1.030E+01   -1.016E+01   -1.003E+01   -9.889E+00   -9.753E+00   -9.618E+00
    -9.484E+00   -9.351E+00   -9.219E+00   -9.089E+00   -8.959E+00   -8.831E+00   -8.704E+00   -8.577E+00   -8.452E+00   -8.328E+00
    -8.205E+00   -8.083E+00   -7.962E+00   -7.842E+00   -7.724E+00   -7.606E+00   -7.490E+00   -7.374E+00   -7.260E+00   -7.146E+00
    -7.034E+00   -6.923E+00   -6.812E+00   -6.703E+00   -6.595E+00   -6.488E+00   -6.382E+00   -6.277E+00   -6.174E+00   -6.071E+00
    -5.969E+00   -5.868E+00   -5.769E+00   -5.670E+00   -5.573E+00   -5.476E+00   -5.381E+00   -5.287E+00   -5.193E+00   -5.101E+00
    -5.010E+00   -4.920E+00   -4.831E+00   -4.743E+00   -4.656E+00   -4.570E+00   -4.485E+00   -4.401E+00   -4.318E+00   -4.236E+00
    -4.155E+00   -4.075E+00   -3.995E+00   -3.917E+00   -3.839E+00   -3.762E+00   -3.685E+00   -3.610E+00   -3.534E+00   -3.460E+00
    -3.386E+00   -3.312E+00   -3.239E+00   -3.166E+00   -3.093E+00   -3.021E+00   -2.949E+00   -2.877E+00   -2.806E+00   -2.734E+00
    -2.663E+00   -2.592E+00   -2.521E+00   -2.450E+00   -2.379E+00   -2.307E+00   -2.236E+00   -2.165E+00   -2.093E+00   -2.021E+00
    -1.949E+00   -1.876E+00   -1.803E+00   -1.730E+00   -1.656E+00   -1.582E+00   -1.507E+00   -1.432E+00   -1.356E+00   -1.279E+00
    -1.202E+00   -1.124E+00   -1.046E+00   -9.662E-01   -8.863E-01   -8.058E-01   -7.248E-01   -6.433E-01   -5.614E-01   -4.791E-01
    -3.966E-01   -3.138E-01   -2.307E-01   -1.476E-01   -6.432E-02    1.898E-02    1.023E-01    1.855E-01    2.686E-01    3.515E-01
     4.343E-01    5.167E-01    5.988E-01    6.805E-01    7.618E-01    8.427E-01    9.229E-01    1.003E+00    1.082E+00    1.160E+00
     1.238E+00    1.314E+00    1.390E+00    1.465E+00    1.539E+00    1.612E+00    1.684E+00    1.755E+00    1.825E+00    1.894E+00
     1.961E+00    2.027E+00    2.091E+00    2.154E+00    2.216E+00    2.276E+00    2.334E+00    2.391E+00    2.446E+00    2.500E+00
     2.551E+00    2.602E+00    2.650E+00    2.697E+00    2.741E+00    2.785E+00    2.826E+00    2.865E+00    2.903E+00    2.939E+00
     2.973E+00    3.005E+00    3.036E+00    3.064E+00    3.091E+00    3.115E+00    3.138E+00    3.159E+00    3.177E+00    3.194E+00
     3.209E+00    3.222E+00    3.232E+00    3.241E+00    3.248E+00    3.252E+00    3.255E+00    3.255E+00    3.253E+00    3.250E+00
     3.244E+00    3.235E+00    3.225E+00    3.212E+00    3.198E+00    3.181E+00    3.161E+00    3.140E+00    3.116E+00    3.090E+00
     3.062E+00    3.031E+00    2.998E+00    2.962E+00    2.925E+00    2.885E+00    2.843E+00    2.799E+00    2.753E+00    2.704E+00
     2.654E+00    2.602E+00    2.547E+00    2.491E+00    2.433E+00    2.373E+00    2.312E+00    2.248E+00    2.183E+00    2.116E+00
     2.048E+00    1.978E+00    1.906E+00    1.833E+00    1.758E+00    1.682E+00    1.605E+00    1.526E+00    1.446E+00    1.364E+00
     1.282E+00    1.198E+00    1.113E+00    1.027E+00    9.395E-01    8.512E-01    7.619E-01    6.717E-01    5.805E-01    4.884E-01
     3.955E-01    3.017E-01    2.072E-01    1.120E-01    1.602E-02   -8.058E-02   -1.778E-01   -2.756E-01   -3.739E-01   -4.726E-01
    -5.716E-01   -6.708E-01   -7.701E-01   -8.695E-01   -9.688E-01   -1.068E+00   -1.167E+00   -1.265E+00   -1.363E+00   -1.461E+00
    -1.558E+00   -1.654E+00   -1.749E+00   -1.843E+00   -1.937E+00   -2.029E+00   -2.120E+00   -2.210E+00   -2.298E+00   -2.385E+00
    -2.470E+00   -2.554E+00   -2.636E+00   -2.716E+00   -2.794E+00   -2.870E+00   -2.943E+00   -3.015E+00   -3.084E+00   -3.151E+00
    -3.215E+00   -3.276E+00   -3.335E+00   -3.391E+00   -3.444E+00   -3.495E+00   -3.542E+00   -3.585E+00   -3.626E+00   -3.663E+00
    -3.697E+00   -3.727E+00   -3.753E+00   -3.776E+00   -3.795E+00   -3.811E+00   -3.823E+00   -3.831E+00   -3.837E+00   -3.838E+00
    -3.837E+00   -3.832E+00   -3.824E+00   -3.813E+00   -3.799E+00   -3.782E+00   -3.762E+00   -3.739E+00   -3.713E+00   -3.684E+00
    -3.652E+00   -3.618E+00   -3.581E+00   -3.541E+00   -3.499E+00   -3.455E+00   -3.408E+00   -3.358E+00   -3.306E+00   -3.252E+00
    -3.196E+00   -3.137E+00   -3.077E+00   -3.014E+00   -2.949E+00   -2.883E+00   -2.814E+00   -2.744E+00   -2.671E+00   -2.597E+00
    -2.522E+00   -2.444E+00   -2.365E+00   -2.285E+00   -2.203E+00   -2.120E+00   -2.035E+00   -1.949E+00   -1.861E+00   -1.773E+00
    -1.683E+00   -1.592E+00   -1.500E+00   -1.407E+00   -1.313E+00   -1.218E+00   -1.122E+00   -1.026E+00   -9.280E-01   -8.296E-01
    -7.306E-01   -6.308E-01   -5.304E-01   -4.295E-01   -3.280E-01   -2.260E-01   -1.235E-01   -2.070E-02    8.251E-02    1.860E-01
     2.898E-01    3.938E-01    4.980E-01    6.023E-01    7.067E-01    8.111E-01    9.156E-01    1.020E+00    1.124E+00    1.228E+00
     1.332E+00    1.436E+00    1.539E+00    1.643E+00    1.745E+00    1.848E+00    1.949E+00    2.051E+00    2.151E+00    2.252E+00
     2.351E+00    2.450E+00    2.548E+00    2.646E+00    2.742E+00    2.838E+00    2.933E+00    3.028E+00    3.121E+00    3.214E+00
     3.307E+00    3.399E+00    3.490E+00    3.581E+00    3.671E+00    3.761E+00    3.850E+00    3.939E+00    4.027E+00    4.114E+00
     4.202E+00    4.289E+00    4.375E+00    4.461E+00    4.547E+00    4.632E+00    4.718E+00    4.802E+00    4.887E+00    4.971E+00
     5.055E+00    5.139E+00    5.223E+00    5.306E+00    5.390E+00    5.473E+00    5.556E+00    5.639E+00    5.722E+00    5.804E+00
     5.887E+00    5.970E+00    6.053E+00    6.136E+00    6.219E+00    6.301E+00    6.384E+00    6.468E+00
 Asp      Conc. = 2.61E+01
