 LCModel (Version 6.3-1L) Copyright: S.W. Provencher.          Ref.: Magn. Reson. Med. 30:672-679 (1993).                
 Slice#3 Row#7 Col#7  K_02_press_1_raw_act
 36 lines in following concentration table = NCONC+1
    Conc.  %SD /Cr+PCr  Metabolite                                         
   42.718 290% 1.9E-02 Ala                                                 
   59.550 481% 2.6E-02 Asp                                                 
 1.29E+03  19%   0.565 Cr                                                  
  993.590  25%   0.435 PCr                                                 
    0.000 999%   0.000 GABA                                                
    0.000 999%   0.000 Glc                                                 
  939.465  27%   0.411 Gln                                                 
 2.20E+03  13%   0.964 Glu                                                 
  665.655   4%   0.291 GPC                                                 
    0.000 999%   0.000 PCh                                                 
  741.608  12%   0.324 GSH                                                 
 1.48E+03  19%   0.649 Ins                                                 
  368.928  36%   0.161 Lac                                                 
 2.46E+03   5%   1.077 NAA                                                 
  221.662  51% 9.7E-02 NAAG                                                
    0.000 999%   0.000 Scyllo                                              
    0.000 999%   0.000 Tau                                                 
    0.000 999%   0.000 -CrCH2                                              
  665.655   4%   0.291 GPC+PCh                                             
 2.68E+03   4%   1.174 NAA+NAAG                                            
 2.29E+03   3%   1.000 Cr+PCr                                              
 3.14E+03  12%   1.375 Glu+Gln                                             
    0.000 999%   0.000 Lip13a                                              
    0.000 999%   0.000 Lip13b                                              
    0.000 999%   0.000 Lip09                                               
 1.88E+03  16%   0.821 MM09                                                
    0.843 999% 3.7E-04 Lip20                                               
 4.76E+03  10%   2.085 MM20                                                
  541.272  32%   0.237 MM12                                                
 1.48E+03  26%   0.646 MM14                                                
 1.17E+03  28%   0.514 MM17                                                
    0.000 999%   0.000 Lip13a+Lip13b                                       
 2.02E+03  23%   0.883 MM14+Lip13a+Lip13b+MM12                             
 1.88E+03  16%   0.821 MM09+Lip09                                          
 4.77E+03  10%   2.085 MM20+Lip20                                          
   6 lines in following misc. output table
  FWHM = 0.046 ppm    S/N =  11                                            
  Data shift = 0.008 ppm                                                   
  Ph: -14 deg       0.0 deg/ppm                                            
  alphaB,S = 1.4E+00,   7.0E+01                                            
   14 spline knots.   Ns = 5(1)                                            
  ( 9) 2 infls.   ( 7) 1 extrs.                                            
  498 points on ppm-axis = NY
      4.000000     3.992357     3.984714     3.977070     3.969427     3.961784     3.954141     3.946497     3.938854     3.931211
      3.923568     3.915925     3.908281     3.900638     3.892995     3.885352     3.877708     3.870065     3.862422     3.854779
      3.847136     3.839492     3.831849     3.824206     3.816563     3.808919     3.801276     3.793633     3.785990     3.778347
      3.770703     3.763060     3.755417     3.747774     3.740130     3.732487     3.724844     3.717201     3.709558     3.701914
      3.694271     3.686628     3.678985     3.671341     3.663698     3.656055     3.648412     3.640769     3.633125     3.625482
      3.617839     3.610196     3.602552     3.594909     3.587266     3.579623     3.571980     3.564336     3.556693     3.549050
      3.541407     3.533763     3.526120     3.518477     3.510834     3.503191     3.495547     3.487904     3.480261     3.472618
      3.464974     3.457331     3.449688     3.442045     3.434402     3.426758     3.419115     3.411472     3.403829     3.396185
      3.388542     3.380899     3.373256     3.365613     3.357969     3.350326     3.342683     3.335040     3.327396     3.319753
      3.312110     3.304467     3.296824     3.289180     3.281537     3.273894     3.266251     3.258607     3.250964     3.243321
      3.235678     3.228034     3.220391     3.212748     3.205105     3.197462     3.189818     3.182175     3.174532     3.166889
      3.159245     3.151602     3.143959     3.136316     3.128673     3.121029     3.113386     3.105743     3.098100     3.090456
      3.082813     3.075170     3.067527     3.059884     3.052240     3.044597     3.036954     3.029311     3.021667     3.014024
      3.006381     2.998738     2.991095     2.983451     2.975808     2.968165     2.960522     2.952878     2.945235     2.937592
      2.929949     2.922306     2.914662     2.907019     2.899376     2.891733     2.884089     2.876446     2.868803     2.861160
      2.853517     2.845873     2.838230     2.830587     2.822944     2.815300     2.807657     2.800014     2.792371     2.784728
      2.777084     2.769441     2.761798     2.754155     2.746511     2.738868     2.731225     2.723582     2.715939     2.708295
      2.700652     2.693009     2.685366     2.677722     2.670079     2.662436     2.654793     2.647150     2.639506     2.631863
      2.624220     2.616577     2.608933     2.601290     2.593647     2.586004     2.578361     2.570717     2.563074     2.555431
      2.547788     2.540144     2.532501     2.524858     2.517215     2.509572     2.501928     2.494285     2.486642     2.478999
      2.471355     2.463712     2.456069     2.448426     2.440783     2.433139     2.425496     2.417853     2.410210     2.402566
      2.394923     2.387280     2.379637     2.371994     2.364350     2.356707     2.349064     2.341421     2.333777     2.326134
      2.318491     2.310848     2.303205     2.295561     2.287918     2.280275     2.272632     2.264988     2.257345     2.249702
      2.242059     2.234416     2.226772     2.219129     2.211486     2.203843     2.196199     2.188556     2.180913     2.173270
      2.165627     2.157983     2.150340     2.142697     2.135054     2.127410     2.119767     2.112124     2.104481     2.096838
      2.089194     2.081551     2.073908     2.066265     2.058621     2.050978     2.043335     2.035692     2.028049     2.020405
      2.012762     2.005119     1.997476     1.989833     1.982190     1.974546     1.966903     1.959260     1.951617     1.943974
      1.936331     1.928688     1.921045     1.913402     1.905759     1.898115     1.890472     1.882829     1.875186     1.867543
      1.859900     1.852257     1.844614     1.836971     1.829327     1.821684     1.814041     1.806398     1.798755     1.791112
      1.783469     1.775826     1.768183     1.760540     1.752896     1.745253     1.737610     1.729967     1.722324     1.714681
      1.707038     1.699395     1.691752     1.684108     1.676465     1.668822     1.661179     1.653536     1.645893     1.638250
      1.630607     1.622964     1.615321     1.607677     1.600034     1.592391     1.584748     1.577105     1.569462     1.561819
      1.554176     1.546533     1.538890     1.531246     1.523603     1.515960     1.508317     1.500674     1.493031     1.485388
      1.477745     1.470102     1.462458     1.454815     1.447172     1.439529     1.431886     1.424243     1.416600     1.408957
      1.401314     1.393671     1.386027     1.378384     1.370741     1.363098     1.355455     1.347812     1.340169     1.332526
      1.324883     1.317240     1.309596     1.301953     1.294310     1.286667     1.279024     1.271381     1.263738     1.256095
      1.248452     1.240808     1.233165     1.225522     1.217879     1.210236     1.202593     1.194950     1.187307     1.179664
      1.172021     1.164377     1.156734     1.149091     1.141448     1.133805     1.126162     1.118519     1.110876     1.103233
      1.095590     1.087946     1.080303     1.072660     1.065017     1.057374     1.049731     1.042088     1.034445     1.026802
      1.019158     1.011515     1.003872     0.996229     0.988586     0.980943     0.973300     0.965657     0.958014     0.950371
      0.942727     0.935084     0.927441     0.919798     0.912155     0.904512     0.896869     0.889226     0.881583     0.873940
      0.866296     0.858653     0.851010     0.843367     0.835724     0.828081     0.820438     0.812795     0.805152     0.797508
      0.789865     0.782222     0.774579     0.766936     0.759293     0.751650     0.744007     0.736364     0.728721     0.721077
      0.713434     0.705791     0.698148     0.690505     0.682862     0.675219     0.667576     0.659933     0.652290     0.644646
      0.637003     0.629360     0.621717     0.614074     0.606431     0.598788     0.591145     0.583502     0.575858     0.568215
      0.560572     0.552929     0.545286     0.537643     0.530000     0.522357     0.514714     0.507071     0.499427     0.491784
      0.484141     0.476498     0.468855     0.461212     0.453569     0.445925     0.438282     0.430639     0.422996     0.415353
      0.407710     0.400067     0.392424     0.384780     0.377137     0.369494     0.361851     0.354208     0.346565     0.338922
      0.331278     0.323635     0.315992     0.308349     0.300706     0.293063     0.285420     0.277777     0.270133     0.262490
      0.254847     0.247204     0.239561     0.231918     0.224275     0.216631     0.208988     0.201345
 NY phased data points follow
   2.43625E+01  2.42995E+01  2.04826E+01  2.47549E+01  3.09497E+01  3.12022E+01  3.83849E+01  4.96689E+01  6.06572E+01  7.01367E+01
   8.87815E+01  9.29132E+01  7.95779E+01  7.41076E+01  6.14009E+01  5.06601E+01  5.35281E+01  2.71731E+01  2.76092E+01  3.06511E+01
   2.95037E+01  1.87746E+01  2.85215E+01  2.65964E+01  2.63572E+01  3.19287E+01  3.83295E+01  3.02788E+01  3.50507E+01  3.18926E+01
   4.30550E+01  4.96936E+01  4.41418E+01  4.19501E+01  4.04757E+01  3.47718E+01  2.59055E+01  2.90701E+01  2.85336E+01  2.99892E+01
   2.66502E+01  2.84814E+01  2.48697E+01  2.25259E+01  2.58393E+01  3.63445E+01  3.64006E+01  4.48957E+01  4.13644E+01  3.05816E+01
   3.31437E+01  2.60875E+01  2.05576E+01  1.65709E+01  2.53283E+01  2.58039E+01  2.09765E+01  2.13843E+01  2.34956E+01  2.62241E+01
   2.80591E+01  2.03882E+01  1.17517E+01  1.27705E+01  6.94753E+00  6.70657E+00  4.89708E+00  1.01732E+01  5.48218E+00  4.59825E+00
   1.17811E+01  3.40548E+00  7.80737E+00  1.27400E+01  1.05215E+01  9.57577E+00  7.52246E+00  9.78348E+00  1.08101E+01  8.25964E+00
   1.57395E+00  5.64077E+00  4.85361E+00  7.76407E+00  2.69212E+00  3.56021E+00  4.61694E+00  5.62932E+00  6.65045E+00  6.05989E+00
   6.07486E+00  6.54172E+00  4.27582E+00  1.34118E+01  7.15718E+00  1.32859E+01  1.09776E+01  1.30701E+01  1.47227E+01  2.59129E+01
   3.02639E+01  5.50489E+01  7.29772E+01  8.58351E+01  7.63313E+01  6.73649E+01  5.20537E+01  4.27375E+01  3.03072E+01  2.21131E+01
   2.00870E+01  1.28795E+01  1.46184E+01  1.72933E+01  1.37809E+01  1.45239E+01  1.06977E+01  1.48150E+01  1.18371E+01  1.27991E+01
   1.68665E+01  1.43175E+01  8.40228E+00  1.75374E+01  3.43326E+01  6.68910E+01  8.34495E+01  9.64695E+01  9.61767E+01  8.13589E+01
   6.76389E+01  5.31933E+01  3.55470E+01  3.22768E+01  2.65086E+01  1.48522E+01  1.28383E+01  1.32365E+01  4.80428E+00  1.36477E+01
   1.06114E+01  1.11702E+01  4.25010E+00  1.26117E+01  9.15831E+00  5.48830E+00  1.00962E+01  4.72859E+00  6.62371E+00  9.95333E+00
   7.31660E+00  4.60280E+00  2.55953E+00  5.23849E+00  2.00321E+00 -5.07613E+00  5.95880E+00  4.15860E-01  5.13898E+00  5.19751E+00
   9.33061E-01 -8.57958E-01 -4.80782E+00 -2.88859E+00  4.94014E+00 -4.78787E-01  3.13816E+00  9.36528E+00  8.20877E-01 -1.06934E+00
  -2.76400E+00 -3.87414E+00 -3.77665E+00 -1.16629E+01 -1.45964E+01 -1.34826E+01 -6.99452E+00 -1.10768E+01 -1.36251E+01 -8.16779E+00
  -3.64793E+00 -7.32462E+00 -1.30356E+01 -1.01972E+01 -1.45482E+01 -1.03134E+01 -1.12824E+01 -1.09890E+01 -4.53439E+00 -3.51270E+00
   4.23300E+00  3.94959E+00  8.55325E+00  6.52353E+00  1.45492E+01  9.85009E+00  2.23437E+00 -4.20201E+00  1.90866E+00  1.41662E+00
  -2.15291E+00 -2.72436E+00  5.08359E+00  5.81393E+00  1.42213E+01  3.83942E+00  2.75307E+00 -8.60854E+00 -3.72886E+00 -9.57835E+00
  -6.26451E+00 -1.01210E+01 -2.33063E+00  7.16348E+00  1.96037E+01  2.18841E+01  1.99881E+01  1.58620E+01  1.35425E+01  5.20250E+00
   2.90145E+00 -5.94324E+00 -8.37814E+00 -7.11935E+00  3.46451E+00  6.77990E+00  1.56383E+01  1.60353E+01  1.75598E+01  8.42673E+00
   2.01962E+01  1.22993E+01  1.03324E+01  1.30354E+01  9.33045E+00  1.42284E+01  1.06637E+01  1.37904E+01  1.28948E+01  8.29417E+00
   8.25659E+00  8.66593E+00  8.49314E+00  8.14321E+00  4.53282E+00  1.75185E+01  1.20421E+01  1.79196E+01  1.61974E+01  1.56513E+01
   2.24476E+01  2.47560E+01  2.31426E+01  3.17598E+01  3.84232E+01  2.79029E+01  3.00436E+01  4.85786E+01  8.05145E+01  1.10393E+02
   1.23649E+02  1.13039E+02  8.73217E+01  6.90513E+01  5.32101E+01  3.00030E+01  3.11479E+01  2.34192E+01  1.59088E+01  1.58324E+01
   1.45310E+01  9.26015E+00  1.37186E+01  9.16955E+00  1.13542E+01  5.25060E+00  1.81315E+00 -1.65025E-01  8.45043E+00  3.15631E+00
   4.23666E+00  1.07117E+01  4.85258E+00 -1.08447E+00 -3.13770E+00  1.43341E-01  1.73768E-01 -3.89757E+00 -3.64593E-01  3.28314E-01
   1.53500E+00  1.04505E+00  2.72982E-02  8.23967E+00 -6.42177E+00  2.69159E+00 -2.70157E-02  1.44171E-01  6.79344E+00  3.49002E+00
   1.60851E+00  6.62498E-01  1.70670E+00  7.46325E+00  2.43248E-01  1.95650E+00  8.62865E+00  2.14680E+00  6.18382E+00  1.07787E+01
   8.59790E+00  4.10554E+00  5.53425E+00  1.33315E+01  1.54592E+01  1.39347E+01  8.57203E+00  6.05668E+00  9.05781E+00  1.36227E+01
   1.00645E+01  6.53867E+00  1.27403E+01  1.08644E+01  3.51149E+00  1.52805E+01  1.49128E+01  1.25412E+01  1.47831E+01  9.00785E+00
   5.96676E-01  7.30209E+00  5.65241E+00  6.42782E+00  4.53426E+00  2.80401E+00  4.06807E+00  3.31856E+00  5.27789E+00  3.16297E-01
  -1.24216E-01  2.73607E+00 -1.52762E+00 -7.94308E-01 -2.37209E-01 -3.41614E+00 -4.93300E+00 -1.13585E+00 -7.09908E+00 -8.70973E+00
  -1.18794E+01 -1.49025E+01 -1.38685E+01 -9.10719E+00 -4.67043E+00  5.89093E+00 -4.11139E-01 -1.08420E-01  2.65946E+00  3.00688E-01
  -4.15166E+00  1.41494E+00  4.41472E+00  2.63570E+00 -3.38401E+00 -3.94988E+00 -1.42873E-01  7.59116E+00  4.85409E+00  7.56581E+00
   4.30425E+00  1.91313E+00 -1.99693E+00  4.64712E+00  4.49051E+00  5.84296E+00  3.25686E-01  3.36735E+00  2.06092E+00  1.83675E+00
   4.37583E+00  4.92048E+00  3.74992E+00  2.63415E+00  8.27125E-01 -2.01166E+00  1.93282E+00  7.04690E+00  2.67234E-01 -8.54867E-01
  -1.12976E+00  4.18343E+00  3.63087E+00 -9.94672E-01  2.10554E+00  2.49654E+00 -1.27074E+00  6.72329E+00  5.41674E+00  8.89853E-01
   1.23224E+00  2.21753E+00  5.10552E+00  2.72379E+00  3.66771E+00  6.99490E+00  1.07975E+01  4.47443E+00  6.33417E+00  1.25803E+01
   6.01280E+00  5.09918E+00  6.70196E+00  6.06786E+00  9.59138E+00  8.42617E+00  6.19755E+00 -3.33150E+00  6.94142E+00  7.19247E+00
  -8.31750E-01 -2.46375E+00  1.48472E+00 -8.53992E-01  6.45317E+00  3.38170E+00  1.90856E+00 -1.94421E+00  3.70034E+00  4.90707E+00
   2.21296E+00  1.15557E+01  5.39629E+00 -1.87393E+00  9.99566E+00  2.44486E+00  6.46831E+00 -3.13915E-01  3.90339E+00  4.65000E+00
   3.75918E-01 -8.53448E-01  1.53168E+00  5.44031E+00  5.07053E+00 -1.00977E+00  1.90780E+00 -6.57465E+00 -7.00960E+00 -1.24250E-01
   4.63692E+00  3.70718E+00  2.76409E+00 -1.60347E+00  3.74203E+00  4.74703E-01 -5.46476E+00  2.02189E+00  4.38523E+00  2.87053E+00
   1.07326E+00 -1.06625E+00 -2.24173E+00  7.84880E+00 -2.06970E+00  2.34197E+00  3.31139E+00  4.79479E+00 -4.23917E+00  4.48539E+00
  -1.08427E+00  5.14544E-01 -2.30170E+00 -1.21153E+00  5.14343E+00  1.87156E+00  7.23020E-01 -1.80032E+00 -2.33153E+00  5.52035E-01
   2.96561E+00  4.14937E+00 -4.04865E-01  2.55071E-01 -1.04562E+00 -7.50845E+00  1.95616E+00  1.93705E-01  5.24569E+00 -4.05754E+00
  -4.06675E-01  4.17684E+00 -6.28036E-01 -5.10093E-01  4.59344E+00  8.12886E+00 -6.18844E+00 -2.46124E+00
 NY points of the fit to the data follow
   2.62164E+01  2.56314E+01  2.53617E+01  2.56280E+01  2.66031E+01  2.90463E+01  3.45076E+01  4.44907E+01  5.84628E+01  7.29562E+01
   8.28212E+01  8.46624E+01  7.89732E+01  6.92096E+01  5.89647E+01  4.98638E+01  4.19872E+01  3.58618E+01  3.16206E+01  2.97424E+01
   2.89231E+01  2.83436E+01  2.76915E+01  2.67438E+01  2.53518E+01  2.38697E+01  2.35681E+01  2.60252E+01  3.15981E+01  3.86262E+01
   4.45055E+01  4.72396E+01  4.65128E+01  4.30946E+01  3.79944E+01  3.20626E+01  2.63766E+01  2.25502E+01  2.10292E+01  2.08457E+01
   2.14638E+01  2.23878E+01  2.36083E+01  2.53571E+01  2.80877E+01  3.15235E+01  3.42745E+01  3.51209E+01  3.36250E+01  3.04664E+01
   2.69540E+01  2.39218E+01  2.13754E+01  1.92816E+01  1.80305E+01  1.78073E+01  1.83220E+01  1.92923E+01  2.04720E+01  2.13506E+01
   2.14228E+01  2.05211E+01  1.89444E+01  1.72470E+01  1.58741E+01  1.49838E+01  1.46394E+01  1.47942E+01  1.52735E+01  1.59706E+01
   1.66301E+01  1.70063E+01  1.69435E+01  1.64634E+01  1.57950E+01  1.51366E+01  1.45796E+01  1.40976E+01  1.36440E+01  1.33011E+01
   1.30202E+01  1.27347E+01  1.23401E+01  1.16678E+01  1.05596E+01  9.04290E+00  7.42897E+00  6.17237E+00  5.59919E+00  5.74916E+00
   6.43531E+00  7.42492E+00  8.53557E+00  9.58565E+00  1.02793E+01  1.04531E+01  1.01984E+01  1.01326E+01  1.21485E+01  1.96644E+01
   3.51357E+01  5.62738E+01  7.52602E+01  8.41132E+01  8.03548E+01  6.81503E+01  5.38563E+01  4.10782E+01  3.01978E+01  2.04697E+01
   1.35471E+01  1.10626E+01  1.01938E+01  9.77248E+00  9.53201E+00  9.38603E+00  9.28033E+00  9.18069E+00  9.09398E+00  9.09630E+00
   9.34749E+00  1.02213E+01  1.32024E+01  2.17893E+01  3.91978E+01  6.38997E+01  8.75493E+01  1.00287E+02  9.79843E+01  8.48486E+01
   6.86597E+01  5.41450E+01  4.15424E+01  2.92499E+01  1.83221E+01  1.21725E+01  8.79215E+00  7.13656E+00  7.00120E+00  7.90794E+00
   9.20201E+00  1.03890E+01  1.10143E+01  1.09079E+01  1.03182E+01  9.48665E+00  8.54893E+00  7.68528E+00  6.86603E+00  6.18030E+00
   5.55083E+00  4.92238E+00  4.33318E+00  3.87325E+00  3.61761E+00  3.55492E+00  3.53888E+00  3.28725E+00  2.58419E+00  1.55048E+00
   6.57338E-01  3.80547E-01  7.93200E-01  1.46097E+00  1.79620E+00  1.51646E+00  8.02317E-01  4.68686E-02 -5.97267E-01 -1.13079E+00
  -1.56037E+00 -2.03301E+00 -2.63041E+00 -3.43266E+00 -4.31178E+00 -4.78964E+00 -4.64243E+00 -4.17142E+00 -3.90999E+00 -4.08570E+00
  -4.41131E+00 -4.49686E+00 -4.36197E+00 -4.42382E+00 -4.89953E+00 -5.18000E+00 -4.54895E+00 -2.67321E+00  5.61286E-02  2.80344E+00
   4.84689E+00  5.74299E+00  5.42944E+00  4.12054E+00  2.11565E+00 -1.57085E-01 -1.98728E+00 -2.75349E+00 -2.06104E+00  1.61257E-02
   2.94451E+00  6.01823E+00  8.69067E+00  1.03990E+01  1.06448E+01  8.89838E+00  5.23344E+00  4.32331E-01 -4.27389E+00 -7.51600E+00
  -8.41048E+00 -6.52697E+00 -2.01098E+00  4.37328E+00  1.09043E+01  1.53839E+01  1.64662E+01  1.36854E+01  8.08380E+00  1.23976E+00
  -5.54496E+00 -1.04550E+01 -1.18576E+01 -9.16472E+00 -3.84956E+00  1.73678E+00  6.33381E+00  9.50686E+00  1.11235E+01  1.10640E+01
   9.72672E+00  8.28584E+00  7.74136E+00  8.12557E+00  9.32393E+00  1.11542E+01  1.31383E+01  1.46025E+01  1.48408E+01  1.35947E+01
   1.14355E+01  9.39420E+00  8.36422E+00  8.66464E+00  1.02186E+01  1.25255E+01  1.47020E+01  1.61256E+01  1.68031E+01  1.72190E+01
   1.76169E+01  1.87083E+01  2.09579E+01  2.41700E+01  2.74459E+01  3.13439E+01  3.97150E+01  5.69399E+01  8.21388E+01  1.06008E+02
   1.17357E+02  1.11630E+02  9.39698E+01  7.35984E+01  5.55927E+01  4.03015E+01  2.64151E+01  1.55890E+01  1.12058E+01  9.20675E+00
   7.87437E+00  7.06742E+00  6.68739E+00  6.43554E+00  6.17706E+00  5.80303E+00  5.30210E+00  4.71856E+00  4.09947E+00  3.46130E+00
   2.86442E+00  2.38848E+00  2.04020E+00  1.76431E+00  1.51459E+00  1.28126E+00  1.07086E+00  8.87503E-01  7.28445E-01  6.19045E-01
   5.78872E-01  6.04825E-01  6.81438E-01  7.98867E-01  9.53019E-01  1.14181E+00  1.36480E+00  1.62641E+00  1.93323E+00  2.29311E+00
   2.70490E+00  3.16007E+00  3.64686E+00  4.15272E+00  4.66663E+00  5.17895E+00  5.67950E+00  6.16320E+00  6.62406E+00  7.05507E+00
   7.45145E+00  7.81057E+00  8.13040E+00  8.41058E+00  8.65145E+00  8.85423E+00  9.02120E+00  9.15549E+00  9.26033E+00  9.33866E+00
   9.39352E+00  9.43074E+00  9.46374E+00  9.49830E+00  9.50244E+00  9.39882E+00  9.11374E+00  8.64259E+00  8.05608E+00  7.44321E+00
   6.85715E+00  6.32836E+00  5.89801E+00  5.59929E+00  5.41937E+00  5.25210E+00  4.98676E+00  4.62199E+00  4.21804E+00  3.84294E+00
   3.55268E+00  3.41712E+00  3.60498E+00  4.20460E+00  4.89063E+00  4.94785E+00  3.77489E+00  1.41861E+00 -1.44495E+00 -4.03270E+00
  -5.83352E+00 -6.53379E+00 -5.88411E+00 -3.96992E+00 -1.26986E+00  1.09242E+00  2.38277E+00  2.78234E+00  2.71923E+00  2.46321E+00
   2.04692E+00  1.42408E+00  9.69658E-01  7.48056E-01  6.26799E-01  5.51784E-01  5.00019E-01  4.60047E-01  4.25679E-01  3.93381E-01
   3.61349E-01  3.29317E-01  2.98383E-01  2.70489E-01  2.47796E-01  2.32398E-01  2.26515E-01  2.32770E-01  2.54148E-01  2.93570E-01
   3.53503E-01  4.35979E-01  5.42936E-01  6.76479E-01  8.38702E-01  1.03127E+00  1.25516E+00  1.51084E+00  1.79858E+00  2.11846E+00
   2.47006E+00  2.85195E+00  3.26164E+00  3.69576E+00  4.15035E+00  4.62074E+00  5.10122E+00  5.58484E+00  6.06367E+00  6.52933E+00
   6.97332E+00  7.38711E+00  7.76209E+00  8.08980E+00  8.36251E+00  8.57385E+00  8.71909E+00  8.79503E+00  8.79995E+00  8.73374E+00
   8.59815E+00  8.39701E+00  8.13582E+00  7.82123E+00  7.46064E+00  7.06203E+00  6.63398E+00  6.18538E+00  5.72488E+00  5.26039E+00
   4.79883E+00  4.34632E+00  3.90828E+00  3.48931E+00  3.09287E+00  2.72120E+00  2.37552E+00  2.05645E+00  1.76422E+00  1.49859E+00
   1.25867E+00  1.04304E+00  8.50033E-01  6.78116E-01  5.25882E-01  3.91862E-01  2.74372E-01  1.71645E-01  8.21254E-02  4.62014E-03
  -6.18569E-02 -1.18348E-01 -1.66034E-01 -2.06040E-01 -2.39187E-01 -2.65993E-01 -2.86917E-01 -3.02579E-01 -3.13714E-01 -3.20924E-01
  -3.24512E-01 -3.24609E-01 -3.21436E-01 -3.15414E-01 -3.07000E-01 -2.96458E-01 -2.83810E-01 -2.69042E-01 -2.52329E-01 -2.34017E-01
  -2.14398E-01 -1.93522E-01 -1.71277E-01 -1.47632E-01 -1.22778E-01 -9.70130E-02 -7.04889E-02 -4.31270E-02 -1.47837E-02  1.45162E-02
   4.45452E-02  7.50810E-02  1.06110E-01  1.37798E-01  1.70258E-01  2.03383E-01  2.36933E-01  2.70770E-01  3.04985E-01  3.39763E-01
   3.75146E-01  4.10961E-01  4.47000E-01  4.83238E-01  5.19843E-01  5.56973E-01  5.94581E-01  6.32457E-01  6.70460E-01  7.08667E-01
   7.47280E-01  7.86394E-01  8.25885E-01  8.65551E-01  9.05348E-01  9.45443E-01  9.86036E-01  1.02714E+00
 NY background values follow
     2.383E+01    2.365E+01    2.348E+01    2.331E+01    2.314E+01    2.296E+01    2.279E+01    2.262E+01    2.245E+01    2.227E+01
     2.210E+01    2.193E+01    2.176E+01    2.158E+01    2.141E+01    2.124E+01    2.106E+01    2.089E+01    2.072E+01    2.055E+01
     2.037E+01    2.020E+01    2.003E+01    1.986E+01    1.968E+01    1.951E+01    1.934E+01    1.917E+01    1.900E+01    1.883E+01
     1.865E+01    1.848E+01    1.831E+01    1.814E+01    1.797E+01    1.780E+01    1.763E+01    1.746E+01    1.729E+01    1.712E+01
     1.695E+01    1.678E+01    1.662E+01    1.645E+01    1.628E+01    1.611E+01    1.595E+01    1.578E+01    1.561E+01    1.545E+01
     1.528E+01    1.512E+01    1.495E+01    1.479E+01    1.462E+01    1.446E+01    1.430E+01    1.413E+01    1.397E+01    1.381E+01
     1.365E+01    1.349E+01    1.333E+01    1.317E+01    1.301E+01    1.286E+01    1.270E+01    1.254E+01    1.239E+01    1.223E+01
     1.208E+01    1.192E+01    1.177E+01    1.162E+01    1.146E+01    1.131E+01    1.116E+01    1.101E+01    1.087E+01    1.072E+01
     1.057E+01    1.042E+01    1.028E+01    1.013E+01    9.990E+00    9.848E+00    9.706E+00    9.565E+00    9.425E+00    9.286E+00
     9.148E+00    9.011E+00    8.875E+00    8.739E+00    8.605E+00    8.472E+00    8.340E+00    8.208E+00    8.078E+00    7.949E+00
     7.820E+00    7.693E+00    7.566E+00    7.440E+00    7.316E+00    7.192E+00    7.069E+00    6.947E+00    6.826E+00    6.705E+00
     6.586E+00    6.468E+00    6.350E+00    6.233E+00    6.118E+00    6.003E+00    5.889E+00    5.776E+00    5.663E+00    5.552E+00
     5.441E+00    5.331E+00    5.222E+00    5.114E+00    5.007E+00    4.900E+00    4.795E+00    4.690E+00    4.586E+00    4.483E+00
     4.380E+00    4.279E+00    4.178E+00    4.078E+00    3.979E+00    3.880E+00    3.783E+00    3.686E+00    3.590E+00    3.494E+00
     3.400E+00    3.306E+00    3.213E+00    3.121E+00    3.029E+00    2.939E+00    2.849E+00    2.760E+00    2.672E+00    2.584E+00
     2.498E+00    2.412E+00    2.327E+00    2.243E+00    2.160E+00    2.078E+00    1.996E+00    1.915E+00    1.836E+00    1.757E+00
     1.678E+00    1.601E+00    1.525E+00    1.449E+00    1.374E+00    1.300E+00    1.228E+00    1.155E+00    1.084E+00    1.014E+00
     9.445E-01    8.759E-01    8.083E-01    7.416E-01    6.757E-01    6.108E-01    5.467E-01    4.836E-01    4.214E-01    3.601E-01
     2.998E-01    2.403E-01    1.818E-01    1.242E-01    6.751E-02    1.167E-02   -4.331E-02   -9.746E-02   -1.508E-01   -2.033E-01
    -2.550E-01   -3.060E-01   -3.562E-01   -4.057E-01   -4.544E-01   -5.025E-01   -5.498E-01   -5.965E-01   -6.426E-01   -6.880E-01
    -7.328E-01   -7.770E-01   -8.206E-01   -8.636E-01   -9.061E-01   -9.481E-01   -9.895E-01   -1.030E+00   -1.071E+00   -1.111E+00
    -1.150E+00   -1.190E+00   -1.228E+00   -1.267E+00   -1.305E+00   -1.342E+00   -1.379E+00   -1.416E+00   -1.453E+00   -1.489E+00
    -1.525E+00   -1.561E+00   -1.596E+00   -1.632E+00   -1.667E+00   -1.702E+00   -1.736E+00   -1.771E+00   -1.805E+00   -1.840E+00
    -1.874E+00   -1.908E+00   -1.941E+00   -1.975E+00   -2.009E+00   -2.042E+00   -2.075E+00   -2.108E+00   -2.141E+00   -2.173E+00
    -2.206E+00   -2.238E+00   -2.270E+00   -2.302E+00   -2.334E+00   -2.366E+00   -2.397E+00   -2.429E+00   -2.460E+00   -2.491E+00
    -2.522E+00   -2.553E+00   -2.583E+00   -2.613E+00   -2.644E+00   -2.674E+00   -2.704E+00   -2.733E+00   -2.763E+00   -2.792E+00
    -2.822E+00   -2.851E+00   -2.880E+00   -2.908E+00   -2.937E+00   -2.965E+00   -2.993E+00   -3.022E+00   -3.049E+00   -3.077E+00
    -3.105E+00   -3.132E+00   -3.159E+00   -3.187E+00   -3.213E+00   -3.240E+00   -3.267E+00   -3.293E+00   -3.319E+00   -3.345E+00
    -3.371E+00   -3.396E+00   -3.421E+00   -3.446E+00   -3.471E+00   -3.495E+00   -3.520E+00   -3.544E+00   -3.567E+00   -3.591E+00
    -3.614E+00   -3.637E+00   -3.659E+00   -3.681E+00   -3.703E+00   -3.725E+00   -3.746E+00   -3.767E+00   -3.787E+00   -3.807E+00
    -3.827E+00   -3.847E+00   -3.866E+00   -3.885E+00   -3.903E+00   -3.921E+00   -3.938E+00   -3.955E+00   -3.972E+00   -3.989E+00
    -4.004E+00   -4.020E+00   -4.035E+00   -4.049E+00   -4.063E+00   -4.077E+00   -4.090E+00   -4.103E+00   -4.115E+00   -4.127E+00
    -4.138E+00   -4.149E+00   -4.159E+00   -4.169E+00   -4.178E+00   -4.187E+00   -4.195E+00   -4.203E+00   -4.210E+00   -4.217E+00
    -4.223E+00   -4.229E+00   -4.234E+00   -4.239E+00   -4.243E+00   -4.246E+00   -4.249E+00   -4.252E+00   -4.254E+00   -4.255E+00
    -4.256E+00   -4.256E+00   -4.256E+00   -4.255E+00   -4.253E+00   -4.251E+00   -4.248E+00   -4.245E+00   -4.241E+00   -4.237E+00
    -4.232E+00   -4.226E+00   -4.220E+00   -4.213E+00   -4.206E+00   -4.198E+00   -4.189E+00   -4.180E+00   -4.170E+00   -4.160E+00
    -4.149E+00   -4.137E+00   -4.124E+00   -4.111E+00   -4.098E+00   -4.083E+00   -4.069E+00   -4.053E+00   -4.037E+00   -4.020E+00
    -4.003E+00   -3.985E+00   -3.966E+00   -3.947E+00   -3.927E+00   -3.907E+00   -3.886E+00   -3.865E+00   -3.843E+00   -3.820E+00
    -3.797E+00   -3.773E+00   -3.749E+00   -3.724E+00   -3.699E+00   -3.673E+00   -3.647E+00   -3.620E+00   -3.593E+00   -3.565E+00
    -3.536E+00   -3.507E+00   -3.478E+00   -3.448E+00   -3.418E+00   -3.387E+00   -3.355E+00   -3.324E+00   -3.291E+00   -3.258E+00
    -3.225E+00   -3.192E+00   -3.157E+00   -3.123E+00   -3.088E+00   -3.052E+00   -3.017E+00   -2.980E+00   -2.943E+00   -2.906E+00
    -2.869E+00   -2.831E+00   -2.793E+00   -2.754E+00   -2.715E+00   -2.675E+00   -2.636E+00   -2.596E+00   -2.555E+00   -2.515E+00
    -2.474E+00   -2.432E+00   -2.391E+00   -2.349E+00   -2.307E+00   -2.265E+00   -2.222E+00   -2.179E+00   -2.136E+00   -2.093E+00
    -2.050E+00   -2.006E+00   -1.962E+00   -1.918E+00   -1.874E+00   -1.830E+00   -1.786E+00   -1.741E+00   -1.696E+00   -1.652E+00
    -1.607E+00   -1.562E+00   -1.517E+00   -1.472E+00   -1.427E+00   -1.381E+00   -1.336E+00   -1.291E+00   -1.246E+00   -1.200E+00
    -1.155E+00   -1.110E+00   -1.065E+00   -1.019E+00   -9.743E-01   -9.291E-01   -8.840E-01   -8.389E-01   -7.938E-01   -7.487E-01
    -7.037E-01   -6.587E-01   -6.138E-01   -5.688E-01   -5.239E-01   -4.790E-01   -4.341E-01   -3.893E-01   -3.444E-01   -2.996E-01
    -2.548E-01   -2.100E-01   -1.653E-01   -1.205E-01   -7.583E-02   -3.113E-02    1.356E-02    5.823E-02    1.029E-01    1.475E-01
     1.921E-01    2.368E-01    2.813E-01    3.259E-01    3.705E-01    4.151E-01    4.596E-01    5.042E-01    5.487E-01    5.932E-01
     6.377E-01    6.822E-01    7.267E-01    7.712E-01    8.157E-01    8.602E-01    9.046E-01    9.491E-01
 Ala      Conc. = 4.27E+01
