 LCModel (Version 6.3-1L) Copyright: S.W. Provencher.          Ref.: Magn. Reson. Med. 30:672-679 (1993).                
 Slice#1 Row#5 Col#8  K_02_press_1_raw_act
 36 lines in following concentration table = NCONC+1
    Conc.  %SD /Cr+PCr  Metabolite                                         
    0.000 999%   0.000 Ala                                                 
   68.650 327% 4.9E-02 Asp                                                 
 1.36E+03  14%   0.983 Cr                                                  
   24.048 789% 1.7E-02 PCr                                                 
    0.000 999%   0.000 GABA                                                
    1.628 999% 1.2E-03 Glc                                                 
  314.173  75%   0.226 Gln                                                 
 1.63E+03  17%   1.173 Glu                                                 
  461.889   5%   0.333 GPC                                                 
    0.000 999%   0.000 PCh                                                 
  367.042  22%   0.264 GSH                                                 
 1.24E+03  22%   0.893 Ins                                                 
  229.639  55%   0.165 Lac                                                 
 1.53E+03   9%   1.106 NAA                                                 
  502.778  29%   0.362 NAAG                                                
    0.000 999%   0.000 Scyllo                                              
    0.000 999%   0.000 Tau                                                 
  162.499  73%   0.117 -CrCH2                                              
  461.889   5%   0.333 GPC+PCh                                             
 2.04E+03   5%   1.468 NAA+NAAG                                            
 1.39E+03   5%   1.000 Cr+PCr                                              
 1.94E+03  19%   1.400 Glu+Gln                                             
 1.00E+04  16%   7.208 Lip13a                                              
    0.000 999%   0.000 Lip13b                                              
 2.95E+03  20%   2.126 Lip09                                               
 2.07E+03  28%   1.494 MM09                                                
 2.25E+03  13%   1.621 Lip20                                               
    0.000 999%   0.000 MM20                                                
  600.905 113%   0.433 MM12                                                
 2.61E+03  25%   1.881 MM14                                                
 1.10E+03  36%   0.790 MM17                                                
 1.00E+04  16%   7.208 Lip13a+Lip13b                                       
 1.32E+04   9%   9.522 MM14+Lip13a+Lip13b+MM12                             
 5.03E+03   9%   3.620 MM09+Lip09                                          
 2.25E+03  13%   1.621 MM20+Lip20                                          
   6 lines in following misc. output table
  FWHM = 0.054 ppm    S/N =   8                                            
  Data shift =-0.008 ppm                                                   
  Ph:  45 deg      20.8 deg/ppm                                            
  alphaB,S = 1.3E+00,   2.3E+01                                            
   14 spline knots.   Ns = 6(1)                                            
  (11) 5 infls.   ( 5) 1 extrs.                                            
  498 points on ppm-axis = NY
      4.000000     3.992357     3.984714     3.977070     3.969427     3.961784     3.954141     3.946497     3.938854     3.931211
      3.923568     3.915925     3.908281     3.900638     3.892995     3.885352     3.877708     3.870065     3.862422     3.854779
      3.847136     3.839492     3.831849     3.824206     3.816563     3.808919     3.801276     3.793633     3.785990     3.778347
      3.770703     3.763060     3.755417     3.747774     3.740130     3.732487     3.724844     3.717201     3.709558     3.701914
      3.694271     3.686628     3.678985     3.671341     3.663698     3.656055     3.648412     3.640769     3.633125     3.625482
      3.617839     3.610196     3.602552     3.594909     3.587266     3.579623     3.571980     3.564336     3.556693     3.549050
      3.541407     3.533763     3.526120     3.518477     3.510834     3.503191     3.495547     3.487904     3.480261     3.472618
      3.464974     3.457331     3.449688     3.442045     3.434402     3.426758     3.419115     3.411472     3.403829     3.396185
      3.388542     3.380899     3.373256     3.365613     3.357969     3.350326     3.342683     3.335040     3.327396     3.319753
      3.312110     3.304467     3.296824     3.289180     3.281537     3.273894     3.266251     3.258607     3.250964     3.243321
      3.235678     3.228034     3.220391     3.212748     3.205105     3.197462     3.189818     3.182175     3.174532     3.166889
      3.159245     3.151602     3.143959     3.136316     3.128673     3.121029     3.113386     3.105743     3.098100     3.090456
      3.082813     3.075170     3.067527     3.059884     3.052240     3.044597     3.036954     3.029311     3.021667     3.014024
      3.006381     2.998738     2.991095     2.983451     2.975808     2.968165     2.960522     2.952878     2.945235     2.937592
      2.929949     2.922306     2.914662     2.907019     2.899376     2.891733     2.884089     2.876446     2.868803     2.861160
      2.853517     2.845873     2.838230     2.830587     2.822944     2.815300     2.807657     2.800014     2.792371     2.784728
      2.777084     2.769441     2.761798     2.754155     2.746511     2.738868     2.731225     2.723582     2.715939     2.708295
      2.700652     2.693009     2.685366     2.677722     2.670079     2.662436     2.654793     2.647150     2.639506     2.631863
      2.624220     2.616577     2.608933     2.601290     2.593647     2.586004     2.578361     2.570717     2.563074     2.555431
      2.547788     2.540144     2.532501     2.524858     2.517215     2.509572     2.501928     2.494285     2.486642     2.478999
      2.471355     2.463712     2.456069     2.448426     2.440783     2.433139     2.425496     2.417853     2.410210     2.402566
      2.394923     2.387280     2.379637     2.371994     2.364350     2.356707     2.349064     2.341421     2.333777     2.326134
      2.318491     2.310848     2.303205     2.295561     2.287918     2.280275     2.272632     2.264988     2.257345     2.249702
      2.242059     2.234416     2.226772     2.219129     2.211486     2.203843     2.196199     2.188556     2.180913     2.173270
      2.165627     2.157983     2.150340     2.142697     2.135054     2.127410     2.119767     2.112124     2.104481     2.096838
      2.089194     2.081551     2.073908     2.066265     2.058621     2.050978     2.043335     2.035692     2.028049     2.020405
      2.012762     2.005119     1.997476     1.989833     1.982190     1.974546     1.966903     1.959260     1.951617     1.943974
      1.936331     1.928688     1.921045     1.913402     1.905759     1.898115     1.890472     1.882829     1.875186     1.867543
      1.859900     1.852257     1.844614     1.836971     1.829327     1.821684     1.814041     1.806398     1.798755     1.791112
      1.783469     1.775826     1.768183     1.760540     1.752896     1.745253     1.737610     1.729967     1.722324     1.714681
      1.707038     1.699395     1.691752     1.684108     1.676465     1.668822     1.661179     1.653536     1.645893     1.638250
      1.630607     1.622964     1.615321     1.607677     1.600034     1.592391     1.584748     1.577105     1.569462     1.561819
      1.554176     1.546533     1.538890     1.531246     1.523603     1.515960     1.508317     1.500674     1.493031     1.485388
      1.477745     1.470102     1.462458     1.454815     1.447172     1.439529     1.431886     1.424243     1.416600     1.408957
      1.401314     1.393671     1.386027     1.378384     1.370741     1.363098     1.355455     1.347812     1.340169     1.332526
      1.324883     1.317240     1.309596     1.301953     1.294310     1.286667     1.279024     1.271381     1.263738     1.256095
      1.248452     1.240808     1.233165     1.225522     1.217879     1.210236     1.202593     1.194950     1.187307     1.179664
      1.172021     1.164377     1.156734     1.149091     1.141448     1.133805     1.126162     1.118519     1.110876     1.103233
      1.095590     1.087946     1.080303     1.072660     1.065017     1.057374     1.049731     1.042088     1.034445     1.026802
      1.019158     1.011515     1.003872     0.996229     0.988586     0.980943     0.973300     0.965657     0.958014     0.950371
      0.942727     0.935084     0.927441     0.919798     0.912155     0.904512     0.896869     0.889226     0.881583     0.873940
      0.866296     0.858653     0.851010     0.843367     0.835724     0.828081     0.820438     0.812795     0.805152     0.797508
      0.789865     0.782222     0.774579     0.766936     0.759293     0.751650     0.744007     0.736364     0.728721     0.721077
      0.713434     0.705791     0.698148     0.690505     0.682862     0.675219     0.667576     0.659933     0.652290     0.644646
      0.637003     0.629360     0.621717     0.614074     0.606431     0.598788     0.591145     0.583502     0.575858     0.568215
      0.560572     0.552929     0.545286     0.537643     0.530000     0.522357     0.514714     0.507071     0.499427     0.491784
      0.484141     0.476498     0.468855     0.461212     0.453569     0.445925     0.438282     0.430639     0.422996     0.415353
      0.407710     0.400067     0.392424     0.384780     0.377137     0.369494     0.361851     0.354208     0.346565     0.338922
      0.331278     0.323635     0.315992     0.308349     0.300706     0.293063     0.285420     0.277777     0.270133     0.262490
      0.254847     0.247204     0.239561     0.231918     0.224275     0.216631     0.208988     0.201345
 NY phased data points follow
   2.86114E+01  2.47860E+01  2.16689E+01  2.32397E+01  2.12668E+01  2.91554E+01  2.48308E+01  2.74361E+01  3.57493E+01  4.03416E+01
   4.55778E+01  5.07347E+01  4.77182E+01  5.51658E+01  4.39486E+01  5.10639E+01  3.49412E+01  2.94536E+01  2.40666E+01  2.97537E+01
   1.57231E+01  1.67465E+01  1.57389E+01  1.92805E+01  1.36940E+01  2.39883E+01  1.55119E+01  2.02701E+01  2.51664E+01  2.19249E+01
   2.82552E+01  3.06489E+01  2.57465E+01  2.67259E+01  2.24395E+01  2.19263E+01  2.44815E+01  1.76279E+01  2.05967E+01  2.21550E+01
   2.76713E+01  1.98464E+01  2.74881E+01  2.35933E+01  1.56878E+01  2.03814E+01  1.90787E+01  2.81531E+01  2.60165E+01  2.61934E+01
   2.66564E+01  2.10594E+01  2.02465E+01  1.71536E+01  2.03708E+01  2.08866E+01  1.60104E+01  1.97006E+01  2.06568E+01  2.18598E+01
   1.73801E+01  2.77365E+01  1.11604E+01  1.45368E+01  1.26555E+01  6.07100E+00  1.25671E+01  1.29469E+01  9.46908E+00  3.48572E+00
   7.13697E+00  1.26013E+01  9.03222E+00  5.94921E+00  1.14913E+01  9.43819E+00  1.39726E+01  9.38125E+00  5.37540E+00  9.13138E+00
   8.99703E+00  6.58959E+00  8.47174E+00  3.70228E+00  3.92058E+00  4.53487E+00  9.53679E+00  4.43727E+00  4.70222E+00  5.01704E+00
   2.26191E+00  6.73917E+00  4.33239E+00  8.92690E+00  6.39125E+00  7.12805E+00  1.20202E+01  1.16256E+01  6.83841E+00  1.49975E+01
   2.68722E+01  3.22127E+01  4.10593E+01  5.74939E+01  5.04759E+01  5.42864E+01  4.52126E+01  2.96645E+01  2.12255E+01  1.48310E+01
   4.76645E+00  8.14832E+00  4.23737E+00  5.35527E+00  6.02057E+00  1.41660E+01 -3.62956E-01  4.26007E+00  5.07805E+00  5.73401E+00
  -1.19948E+00  1.01904E+01  1.46879E+01  2.00866E+01  2.34498E+01  3.59241E+01  4.13927E+01  5.55555E+01  4.21013E+01  4.86950E+01
   4.39258E+01  3.90630E+01  2.25372E+01  1.21290E+01  9.45814E+00  1.52664E+00  5.95141E+00  5.81919E+00  4.11604E+00  2.29608E+00
   5.97633E+00  1.37933E+01  6.98462E+00  1.02312E+01  6.46916E+00  3.42232E+00  4.61554E+00  8.53840E+00  4.55426E+00  5.98948E+00
   4.74809E+00  8.80228E+00  1.03945E+01  2.69628E+00  7.63213E-01 -3.62255E-01  5.31116E+00  8.84421E+00  1.61841E+00  5.49414E+00
   1.10411E+01  4.98430E+00  6.26892E+00  3.50802E-01 -6.63876E+00  3.94971E+00 -3.68670E+00  8.45282E+00 -2.82380E+00 -3.34146E-01
  -3.74478E+00  2.35825E+00 -4.37527E+00 -2.03757E+00 -7.73096E+00 -1.23250E+01 -1.17065E+01 -1.12978E+01 -1.27863E+01 -1.28823E+01
  -8.09475E+00 -6.71152E+00 -2.24609E+00 -4.93223E+00 -1.51617E+01 -6.35550E+00 -7.37663E+00 -7.95731E+00 -8.12545E+00 -9.67756E+00
  -1.42863E+00 -3.60989E+00 -2.04252E+00 -2.88059E+00 -1.12897E+01 -1.33577E+01 -1.28933E+01 -6.21922E+00 -1.70633E+01 -7.62991E+00
  -6.62666E+00 -1.03870E+01 -2.55670E+00  1.19109E+00  2.27481E+00  6.32026E-01  2.67394E+00 -7.73177E+00 -1.06684E+01 -4.78100E+00
  -1.21557E+01 -3.03176E+00  2.86616E+00  3.17636E+00  1.81842E+00  9.25377E+00  7.20859E+00 -1.14081E+00 -9.08238E-01 -7.52042E+00
  -2.22739E+00 -1.13345E+01 -1.06350E+01 -1.63727E+01 -6.80333E+00 -2.36636E+00  3.90530E+00  7.11499E+00  7.13281E+00  6.42880E+00
   5.27681E+00  3.04267E+00  3.90532E+00  7.00558E+00 -2.44782E+00  1.18633E+00  1.23328E+00 -1.79515E+00 -1.25040E+00  3.54517E+00
  -9.86653E+00 -2.41003E+00 -3.86400E+00 -3.39276E+00 -3.39966E+00  1.60970E+00  2.98858E+00  3.73997E+00  2.93557E+00  1.04568E+00
   1.21463E+01  1.07928E+01  1.91361E+01  1.50810E+01  2.92970E+01  2.88617E+01  3.99831E+01  5.69509E+01  7.80919E+01  6.91215E+01
   6.74309E+01  6.03463E+01  5.17904E+01  3.76220E+01  2.30995E+01  2.24177E-01 -8.17250E+00 -1.22969E+01 -1.40522E+01 -1.19356E+01
  -8.63833E+00 -9.31684E+00 -1.10455E+01 -3.33390E+00 -3.13173E+00 -3.46399E+00 -1.47905E+01 -8.18135E-01 -5.13736E+00 -3.98073E+00
  -5.22505E+00 -6.86103E+00 -9.76296E+00 -2.98490E+00 -4.54382E+00 -8.18563E+00 -8.52620E+00 -1.32195E+01 -2.02629E+00 -1.25310E+00
  -5.47854E+00 -5.64641E+00 -1.99216E+00 -5.18075E+00 -9.31072E+00  2.08488E+00 -4.79941E+00 -1.65995E+00 -1.41951E+00 -1.91411E+00
   4.49070E-01 -6.06753E+00 -7.70073E-01  9.40615E-01 -4.94683E-01  6.05807E+00  6.50266E+00  3.42275E+00  5.13002E+00  2.09089E+00
   9.88364E+00  7.67983E+00  6.58266E+00  3.37642E-01  4.74778E+00  4.15576E+00 -2.67918E+00 -1.93150E-01  9.79712E+00  3.68829E+00
   9.86253E+00  8.87853E+00  8.76435E+00  1.44697E+01  1.22843E+01  9.40472E+00  1.51930E+01  1.05637E+01  1.50596E+01  1.76132E+01
   1.83144E+01  2.12046E+01  1.71624E+01  1.64293E+01  1.81452E+01  2.29814E+01  1.92178E+01  2.00581E+01  1.97804E+01  1.57482E+01
   2.03350E+01  1.86713E+01  1.66227E+01  2.48313E+01  2.54717E+01  2.33959E+01  2.95886E+01  2.04219E+01  1.73866E+01  2.16289E+01
   1.27170E+01  1.79720E+01  1.40483E+01  2.06169E+01  1.47292E+01  1.87134E+01  2.15708E+01  1.90725E+01  1.93340E+01  2.12383E+01
   2.12902E+01  1.95917E+01  2.75099E+01  1.49783E+01  2.18214E+01  2.00368E+01  2.01263E+01  2.50780E+01  2.05315E+01  2.42508E+01
   2.06943E+01  2.60278E+01  2.20324E+01  2.24508E+01  2.36517E+01  2.08740E+01  2.16221E+01  1.88544E+01  1.58867E+01  1.73980E+01
   1.84312E+01  1.78628E+01  2.02534E+01  2.02807E+01  2.73615E+01  1.67132E+01  1.93480E+01  2.01508E+01  1.91054E+01  2.58118E+01
   1.85104E+01  2.72186E+01  2.50631E+01  2.47039E+01  2.34642E+01  2.54140E+01  1.94041E+01  2.80473E+01  2.25761E+01  2.32336E+01
   2.06390E+01  2.47629E+01  2.32032E+01  2.18522E+01  2.06948E+01  2.51457E+01  2.58759E+01  2.83725E+01  2.76041E+01  2.54205E+01
   1.89092E+01  1.42736E+01  1.53836E+01  1.44584E+01  1.66550E+01  1.57158E+01  1.79554E+01  1.59061E+01  1.03412E+01  1.57847E+01
   8.48920E+00  1.23629E+01  1.23531E+01  1.29289E+01  3.93177E+00  8.31493E+00  1.16914E+01  1.13314E+01  7.41145E+00  8.36853E+00
   5.80349E+00  7.16248E+00  4.47433E+00  4.59113E+00  1.25017E+01  3.86540E+00  5.18978E+00  5.58376E+00  3.17830E+00  4.93287E+00
   4.98582E+00  9.65244E+00  6.53219E+00  2.68763E+00  1.30954E+00  1.07870E+00 -1.04096E+00  1.58155E+00  1.15714E+00  4.67398E+00
   4.68052E+00  1.10314E+00 -2.96113E+00  2.67621E-01  5.55699E+00  4.75363E+00  3.59233E+00  1.20743E+00 -7.58659E-01  4.55419E+00
  -8.39420E-01  3.65617E+00  2.32405E+00  8.37564E-02  2.72488E-01  3.15978E-01  2.63309E+00 -5.31386E-01 -7.63436E-01 -2.80308E+00
   2.03113E+00 -2.66032E+00  2.81065E+00 -2.15940E+00 -1.49950E+00 -3.71696E+00  3.01985E-01 -1.33231E-01  1.14983E+00 -2.55329E+00
   7.07674E+00 -2.52146E+00 -2.32128E-01 -6.13528E-01 -5.79503E+00  1.65818E+00  5.67236E+00 -1.74797E+00 -3.37866E+00 -5.93967E+00
   1.40184E+00  2.50181E-01 -4.79164E+00 -6.61693E+00 -1.24513E+00 -6.12777E+00 -6.05285E+00 -4.59456E+00
 NY points of the fit to the data follow
   2.32625E+01  2.27702E+01  2.24946E+01  2.25709E+01  2.29774E+01  2.37369E+01  2.56774E+01  2.86065E+01  3.31991E+01  4.01474E+01
   4.73081E+01  5.10725E+01  5.15071E+01  5.09246E+01  4.84180E+01  4.24781E+01  3.42318E+01  2.63753E+01  2.16493E+01  2.08981E+01
   2.13113E+01  2.10189E+01  2.04496E+01  2.00565E+01  1.98942E+01  1.96326E+01  2.00939E+01  2.20252E+01  2.46389E+01  2.65716E+01
   2.80382E+01  2.93167E+01  2.94590E+01  2.78296E+01  2.47321E+01  2.11142E+01  1.82488E+01  1.68511E+01  1.63254E+01  1.62875E+01
   1.68969E+01  1.81824E+01  1.94946E+01  2.03697E+01  2.14034E+01  2.32050E+01  2.50499E+01  2.57500E+01  2.52518E+01  2.41566E+01
   2.24676E+01  1.99308E+01  1.68277E+01  1.41592E+01  1.29533E+01  1.31062E+01  1.38127E+01  1.46804E+01  1.56177E+01  1.62524E+01
   1.63821E+01  1.60535E+01  1.53597E+01  1.44154E+01  1.33184E+01  1.22175E+01  1.15249E+01  1.14186E+01  1.17566E+01  1.24055E+01
   1.31183E+01  1.35674E+01  1.35843E+01  1.33208E+01  1.29406E+01  1.24653E+01  1.19057E+01  1.13379E+01  1.08499E+01  1.05585E+01
   1.03837E+01  1.01355E+01  9.76270E+00  9.23426E+00  8.49630E+00  7.52958E+00  6.50609E+00  5.68219E+00  5.18407E+00  5.02802E+00
   5.23812E+00  5.90360E+00  6.90907E+00  7.99787E+00  8.85169E+00  9.32523E+00  9.50733E+00  1.02630E+01  1.33197E+01  1.77111E+01
   2.47166E+01  3.55690E+01  4.65551E+01  5.15921E+01  5.17151E+01  5.03703E+01  4.54110E+01  3.52668E+01  2.23245E+01  1.05306E+01
   4.07031E+00  3.64409E+00  4.41049E+00  4.47643E+00  4.43471E+00  4.38865E+00  4.34211E+00  4.29824E+00  4.30760E+00  4.46929E+00
   4.93256E+00  6.31031E+00  9.93515E+00  1.51092E+01  2.27109E+01  3.37172E+01  4.47158E+01  5.01659E+01  5.06312E+01  4.93580E+01
   4.48057E+01  3.53399E+01  2.27690E+01  1.07415E+01  3.49953E+00  2.03959E+00  2.17162E+00  1.92001E+00  1.97868E+00  2.52109E+00
   3.51288E+00  4.59111E+00  5.39220E+00  5.85733E+00  5.94539E+00  5.73329E+00  5.46595E+00  5.29826E+00  5.21955E+00  5.21059E+00
   5.17340E+00  5.07111E+00  4.93321E+00  4.85898E+00  4.80804E+00  4.71146E+00  4.56996E+00  4.23240E+00  3.70189E+00  3.22185E+00
   2.88289E+00  2.54678E+00  2.12237E+00  1.64087E+00  1.12674E+00  7.72774E-01  3.46890E-01 -5.24789E-01 -1.59486E+00 -2.47780E+00
  -3.16128E+00 -3.60776E+00 -4.09063E+00 -4.74112E+00 -5.23033E+00 -5.41903E+00 -5.61859E+00 -6.06397E+00 -6.37695E+00 -6.39839E+00
  -6.23557E+00 -6.21803E+00 -6.45660E+00 -6.81697E+00 -6.75439E+00 -6.03002E+00 -4.86650E+00 -3.81063E+00 -2.88550E+00 -1.82060E+00
  -8.90278E-01 -4.62373E-01 -7.42160E-01 -1.52241E+00 -2.70451E+00 -4.07059E+00 -5.15476E+00 -5.35371E+00 -4.89599E+00 -4.09381E+00
  -2.91198E+00 -1.55476E+00 -3.68313E-01  1.76825E-01 -2.85587E-01 -1.66658E+00 -3.59451E+00 -5.95171E+00 -8.12992E+00 -9.26086E+00
  -8.96385E+00 -7.55643E+00 -4.59633E+00 -7.33100E-01  2.54873E+00  4.08231E+00  3.81146E+00  2.07878E+00 -1.28018E+00 -6.05358E+00
  -1.05949E+01 -1.26818E+01 -1.18739E+01 -9.33134E+00 -6.17068E+00 -2.35764E+00  1.45966E+00  4.19756E+00  4.98806E+00  3.91175E+00
   2.30791E+00  1.23079E+00  5.31012E-01  3.89328E-02 -3.54802E-02  2.99592E-01  5.22637E-01  3.44550E-02 -1.04839E+00 -2.36459E+00
  -3.71587E+00 -4.69738E+00 -4.73525E+00 -4.01355E+00 -2.75129E+00 -1.01503E+00  7.86410E-01  2.17421E+00  3.08219E+00  3.93434E+00
   5.52375E+00  7.75552E+00  1.12684E+01  1.73682E+01  2.64859E+01  3.43151E+01  4.37200E+01  5.73493E+01  6.91122E+01  7.06279E+01
   6.58482E+01  6.05802E+01  5.24101E+01  3.95767E+01  2.33947E+01  8.20880E+00 -2.94610E-01 -1.45789E+00 -1.86995E+00 -2.82698E+00
  -3.50303E+00 -3.88067E+00 -4.15471E+00 -4.36109E+00 -4.51976E+00 -4.68353E+00 -4.87396E+00 -5.15051E+00 -5.51896E+00 -5.85184E+00
  -6.00750E+00 -5.99474E+00 -5.90303E+00 -5.79386E+00 -5.67906E+00 -5.55928E+00 -5.45228E+00 -5.37173E+00 -5.28318E+00 -5.12777E+00
  -4.87558E+00 -4.55561E+00 -4.19017E+00 -3.77125E+00 -3.31439E+00 -2.85116E+00 -2.40076E+00 -1.95824E+00 -1.49271E+00 -9.89245E-01
  -4.67564E-01  6.58788E-02  6.04191E-01  1.13371E+00  1.63781E+00  2.09554E+00  2.49654E+00  2.85131E+00  3.16678E+00  3.44990E+00
   3.71039E+00  3.95680E+00  4.20025E+00  4.45490E+00  4.73519E+00  5.05472E+00  5.42553E+00  5.85796E+00  6.36015E+00  6.93749E+00
   7.59123E+00  8.31837E+00  9.11223E+00  9.96300E+00  1.08583E+01  1.17835E+01  1.27222E+01  1.36565E+01  1.45686E+01  1.54420E+01
   1.62619E+01  1.70163E+01  1.76955E+01  1.82934E+01  1.88075E+01  1.92403E+01  1.95981E+01  1.98921E+01  2.01384E+01  2.03616E+01
   2.06065E+01  2.09597E+01  2.13735E+01  2.17869E+01  2.22855E+01  2.25775E+01  2.22441E+01  2.13645E+01  2.04138E+01  1.94853E+01
   1.84361E+01  1.75497E+01  1.74638E+01  1.85043E+01  2.01762E+01  2.16507E+01  2.28293E+01  2.38700E+01  2.44994E+01  2.45527E+01
   2.40858E+01  2.34136E+01  2.29709E+01  2.27487E+01  2.25165E+01  2.22528E+01  2.19577E+01  2.16316E+01  2.12776E+01  2.09011E+01
   2.05093E+01  2.01103E+01  1.97129E+01  1.93269E+01  1.89627E+01  1.86312E+01  1.83425E+01  1.81062E+01  1.79308E+01  1.78242E+01
   1.77931E+01  1.78428E+01  1.79759E+01  1.81931E+01  1.84924E+01  1.88700E+01  1.93195E+01  1.98317E+01  2.03951E+01  2.09957E+01
   2.16179E+01  2.22454E+01  2.28611E+01  2.34475E+01  2.39875E+01  2.44654E+01  2.48674E+01  2.51821E+01  2.54009E+01  2.55178E+01
   2.55293E+01  2.54353E+01  2.52384E+01  2.49438E+01  2.45581E+01  2.40894E+01  2.35466E+01  2.29393E+01  2.22775E+01  2.15710E+01
   2.08287E+01  2.00587E+01  1.92685E+01  1.84651E+01  1.76546E+01  1.68424E+01  1.60330E+01  1.52302E+01  1.44375E+01  1.36582E+01
   1.28952E+01  1.21509E+01  1.14271E+01  1.07256E+01  1.00479E+01  9.39553E+00  8.76952E+00  8.17048E+00  7.59859E+00  7.05402E+00
   6.53684E+00  6.04701E+00  5.58396E+00  5.14691E+00  4.73488E+00  4.34704E+00  3.98256E+00  3.64054E+00  3.31973E+00  3.01885E+00
   2.73669E+00  2.47234E+00  2.22486E+00  1.99325E+00  1.77632E+00  1.57300E+00  1.38236E+00  1.20380E+00  1.03658E+00  8.79937E-01
   7.32929E-01  5.94876E-01  4.65238E-01  3.43688E-01  2.29700E-01  1.22705E-01  2.20403E-02 -7.26464E-02 -1.61618E-01 -2.45047E-01
  -3.23363E-01 -3.96995E-01 -4.66372E-01 -5.31611E-01 -5.92829E-01 -6.50142E-01 -7.03934E-01 -7.54519E-01 -8.02143E-01 -8.46776E-01
  -8.88486E-01 -9.27398E-01 -9.63859E-01 -9.98056E-01 -1.03010E+00 -1.05989E+00 -1.08750E+00 -1.11309E+00 -1.13696E+00 -1.15921E+00
  -1.17983E+00 -1.19870E+00 -1.21596E+00 -1.23177E+00 -1.24638E+00 -1.25977E+00 -1.27187E+00 -1.28261E+00 -1.29219E+00 -1.30076E+00
  -1.30849E+00 -1.31526E+00 -1.32104E+00 -1.32579E+00 -1.32976E+00 -1.33308E+00 -1.33583E+00 -1.33786E+00
 NY background values follow
     1.803E+01    1.790E+01    1.776E+01    1.763E+01    1.749E+01    1.736E+01    1.723E+01    1.709E+01    1.696E+01    1.683E+01
     1.669E+01    1.656E+01    1.643E+01    1.629E+01    1.616E+01    1.602E+01    1.589E+01    1.576E+01    1.562E+01    1.549E+01
     1.536E+01    1.522E+01    1.509E+01    1.495E+01    1.482E+01    1.469E+01    1.455E+01    1.442E+01    1.429E+01    1.415E+01
     1.402E+01    1.388E+01    1.375E+01    1.362E+01    1.348E+01    1.335E+01    1.322E+01    1.308E+01    1.295E+01    1.281E+01
     1.268E+01    1.255E+01    1.241E+01    1.228E+01    1.215E+01    1.201E+01    1.188E+01    1.175E+01    1.161E+01    1.148E+01
     1.135E+01    1.121E+01    1.108E+01    1.095E+01    1.081E+01    1.068E+01    1.055E+01    1.041E+01    1.028E+01    1.015E+01
     1.002E+01    9.885E+00    9.752E+00    9.620E+00    9.488E+00    9.356E+00    9.225E+00    9.093E+00    8.962E+00    8.830E+00
     8.699E+00    8.568E+00    8.438E+00    8.307E+00    8.177E+00    8.046E+00    7.916E+00    7.786E+00    7.657E+00    7.527E+00
     7.398E+00    7.269E+00    7.141E+00    7.012E+00    6.884E+00    6.756E+00    6.628E+00    6.501E+00    6.373E+00    6.246E+00
     6.120E+00    5.993E+00    5.867E+00    5.741E+00    5.616E+00    5.490E+00    5.365E+00    5.241E+00    5.116E+00    4.992E+00
     4.868E+00    4.745E+00    4.621E+00    4.498E+00    4.376E+00    4.253E+00    4.131E+00    4.009E+00    3.888E+00    3.766E+00
     3.645E+00    3.525E+00    3.404E+00    3.284E+00    3.165E+00    3.045E+00    2.926E+00    2.807E+00    2.689E+00    2.570E+00
     2.452E+00    2.335E+00    2.217E+00    2.100E+00    1.984E+00    1.867E+00    1.751E+00    1.635E+00    1.520E+00    1.405E+00
     1.290E+00    1.175E+00    1.061E+00    9.469E-01    8.333E-01    7.200E-01    6.070E-01    4.943E-01    3.819E-01    2.699E-01
     1.582E-01    4.686E-02   -6.411E-02   -1.747E-01   -2.850E-01   -3.948E-01   -5.043E-01   -6.133E-01   -7.220E-01   -8.302E-01
    -9.381E-01   -1.045E+00   -1.152E+00   -1.259E+00   -1.365E+00   -1.471E+00   -1.576E+00   -1.680E+00   -1.784E+00   -1.888E+00
    -1.991E+00   -2.094E+00   -2.196E+00   -2.298E+00   -2.399E+00   -2.499E+00   -2.599E+00   -2.699E+00   -2.798E+00   -2.896E+00
    -2.994E+00   -3.091E+00   -3.187E+00   -3.283E+00   -3.379E+00   -3.473E+00   -3.567E+00   -3.661E+00   -3.754E+00   -3.846E+00
    -3.937E+00   -4.028E+00   -4.118E+00   -4.208E+00   -4.296E+00   -4.385E+00   -4.472E+00   -4.559E+00   -4.645E+00   -4.730E+00
    -4.815E+00   -4.899E+00   -4.983E+00   -5.065E+00   -5.148E+00   -5.229E+00   -5.310E+00   -5.390E+00   -5.469E+00   -5.548E+00
    -5.626E+00   -5.704E+00   -5.780E+00   -5.856E+00   -5.932E+00   -6.007E+00   -6.081E+00   -6.154E+00   -6.227E+00   -6.299E+00
    -6.371E+00   -6.441E+00   -6.512E+00   -6.581E+00   -6.650E+00   -6.718E+00   -6.786E+00   -6.852E+00   -6.919E+00   -6.984E+00
    -7.049E+00   -7.113E+00   -7.177E+00   -7.240E+00   -7.302E+00   -7.364E+00   -7.424E+00   -7.485E+00   -7.544E+00   -7.603E+00
    -7.662E+00   -7.719E+00   -7.776E+00   -7.833E+00   -7.888E+00   -7.943E+00   -7.998E+00   -8.051E+00   -8.104E+00   -8.156E+00
    -8.208E+00   -8.259E+00   -8.309E+00   -8.359E+00   -8.407E+00   -8.456E+00   -8.503E+00   -8.550E+00   -8.596E+00   -8.641E+00
    -8.686E+00   -8.730E+00   -8.773E+00   -8.815E+00   -8.857E+00   -8.898E+00   -8.938E+00   -8.978E+00   -9.017E+00   -9.055E+00
    -9.092E+00   -9.129E+00   -9.165E+00   -9.200E+00   -9.235E+00   -9.269E+00   -9.301E+00   -9.334E+00   -9.365E+00   -9.396E+00
    -9.426E+00   -9.455E+00   -9.484E+00   -9.511E+00   -9.538E+00   -9.565E+00   -9.590E+00   -9.615E+00   -9.639E+00   -9.662E+00
    -9.685E+00   -9.706E+00   -9.727E+00   -9.748E+00   -9.767E+00   -9.786E+00   -9.805E+00   -9.822E+00   -9.839E+00   -9.855E+00
    -9.871E+00   -9.885E+00   -9.899E+00   -9.913E+00   -9.925E+00   -9.937E+00   -9.949E+00   -9.960E+00   -9.970E+00   -9.979E+00
    -9.988E+00   -9.996E+00   -1.000E+01   -1.001E+01   -1.002E+01   -1.002E+01   -1.003E+01   -1.003E+01   -1.003E+01   -1.004E+01
    -1.004E+01   -1.004E+01   -1.004E+01   -1.004E+01   -1.004E+01   -1.004E+01   -1.004E+01   -1.004E+01   -1.004E+01   -1.003E+01
    -1.003E+01   -1.003E+01   -1.002E+01   -1.002E+01   -1.001E+01   -1.000E+01   -9.996E+00   -9.988E+00   -9.980E+00   -9.971E+00
    -9.962E+00   -9.952E+00   -9.942E+00   -9.931E+00   -9.920E+00   -9.908E+00   -9.896E+00   -9.883E+00   -9.870E+00   -9.856E+00
    -9.842E+00   -9.827E+00   -9.812E+00   -9.796E+00   -9.780E+00   -9.763E+00   -9.746E+00   -9.728E+00   -9.710E+00   -9.692E+00
    -9.673E+00   -9.653E+00   -9.634E+00   -9.613E+00   -9.593E+00   -9.572E+00   -9.550E+00   -9.528E+00   -9.506E+00   -9.483E+00
    -9.460E+00   -9.437E+00   -9.413E+00   -9.388E+00   -9.364E+00   -9.339E+00   -9.313E+00   -9.288E+00   -9.261E+00   -9.235E+00
    -9.208E+00   -9.181E+00   -9.154E+00   -9.126E+00   -9.098E+00   -9.069E+00   -9.040E+00   -9.011E+00   -8.982E+00   -8.952E+00
    -8.922E+00   -8.892E+00   -8.861E+00   -8.831E+00   -8.800E+00   -8.768E+00   -8.736E+00   -8.705E+00   -8.672E+00   -8.640E+00
    -8.607E+00   -8.575E+00   -8.541E+00   -8.508E+00   -8.474E+00   -8.441E+00   -8.407E+00   -8.372E+00   -8.338E+00   -8.303E+00
    -8.269E+00   -8.234E+00   -8.198E+00   -8.163E+00   -8.128E+00   -8.092E+00   -8.056E+00   -8.020E+00   -7.984E+00   -7.948E+00
    -7.911E+00   -7.875E+00   -7.838E+00   -7.801E+00   -7.764E+00   -7.727E+00   -7.690E+00   -7.653E+00   -7.615E+00   -7.578E+00
    -7.540E+00   -7.502E+00   -7.464E+00   -7.427E+00   -7.389E+00   -7.351E+00   -7.313E+00   -7.274E+00   -7.236E+00   -7.198E+00
    -7.160E+00   -7.121E+00   -7.083E+00   -7.044E+00   -7.006E+00   -6.967E+00   -6.929E+00   -6.890E+00   -6.852E+00   -6.813E+00
    -6.775E+00   -6.736E+00   -6.697E+00   -6.659E+00   -6.620E+00   -6.582E+00   -6.543E+00   -6.505E+00   -6.466E+00   -6.428E+00
    -6.390E+00   -6.351E+00   -6.313E+00   -6.275E+00   -6.237E+00   -6.198E+00   -6.160E+00   -6.122E+00   -6.084E+00   -6.047E+00
    -6.009E+00   -5.971E+00   -5.933E+00   -5.895E+00   -5.858E+00   -5.820E+00   -5.782E+00   -5.745E+00   -5.707E+00   -5.670E+00
    -5.632E+00   -5.595E+00   -5.558E+00   -5.520E+00   -5.483E+00   -5.446E+00   -5.409E+00   -5.371E+00   -5.334E+00   -5.297E+00
    -5.260E+00   -5.223E+00   -5.186E+00   -5.149E+00   -5.112E+00   -5.075E+00   -5.038E+00   -5.001E+00   -4.964E+00   -4.927E+00
    -4.891E+00   -4.854E+00   -4.817E+00   -4.780E+00   -4.743E+00   -4.707E+00   -4.670E+00   -4.633E+00
 Asp      Conc. = 6.87E+01
