 LCModel (Version 6.3-1L) Copyright: S.W. Provencher.          Ref.: Magn. Reson. Med. 30:672-679 (1993).                
 Slice#3 Row#5 Col#7  K_02_press_1_raw_act
 36 lines in following concentration table = NCONC+1
    Conc.  %SD /Cr+PCr  Metabolite                                         
    9.323 999% 3.9E-03 Ala                                                 
    0.000 999%   0.000 Asp                                                 
 1.24E+03  24%   0.525 Cr                                                  
 1.12E+03  26%   0.475 PCr                                                 
    0.000 999%   0.000 GABA                                                
    0.000 999%   0.000 Glc                                                 
 1.23E+03  24%   0.521 Gln                                                 
 2.15E+03  16%   0.910 Glu                                                 
  681.605   4%   0.288 GPC                                                 
    0.000 999%   0.000 PCh                                                 
  803.972  12%   0.340 GSH                                                 
  984.166  31%   0.416 Ins                                                 
    0.000 999%   0.000 Lac                                                 
 2.75E+03   3%   1.162 NAA                                                 
    0.000 999%   0.000 NAAG                                                
    0.000 999%   0.000 Scyllo                                              
    0.000 999%   0.000 Tau                                                 
    0.000 999%   0.000 -CrCH2                                              
  681.605   4%   0.288 GPC+PCh                                             
 2.75E+03   3%   1.162 NAA+NAAG                                            
 2.37E+03   3%   1.000 Cr+PCr                                              
 3.39E+03  14%   1.431 Glu+Gln                                             
 8.55E+03  14%   3.615 Lip13a                                              
    0.000 999%   0.000 Lip13b                                              
    0.000 999%   0.000 Lip09                                               
 2.26E+03  14%   0.956 MM09                                                
  835.673  55%   0.353 Lip20                                               
 3.97E+03  14%   1.678 MM20                                                
  657.758  31%   0.278 MM12                                                
 4.50E+03  15%   1.900 MM14                                                
 2.17E+03  20%   0.916 MM17                                                
 8.55E+03  14%   3.615 Lip13a+Lip13b                                       
 1.37E+04   7%   5.793 MM14+Lip13a+Lip13b+MM12                             
 2.26E+03  14%   0.956 MM09+Lip09                                          
 4.80E+03  12%   2.031 MM20+Lip20                                          
   6 lines in following misc. output table
  FWHM = 0.061 ppm    S/N =  12                                            
  Data shift = 0.023 ppm                                                   
  Ph:   5 deg      -4.9 deg/ppm                                            
  alphaB,S = 8.9E-01,   9.6E+01                                            
   14 spline knots.   Ns = 7(1)                                            
  (12) 2 infls.   ( 9) 1 extrs.                                            
  498 points on ppm-axis = NY
      4.000000     3.992357     3.984714     3.977070     3.969427     3.961784     3.954141     3.946497     3.938854     3.931211
      3.923568     3.915925     3.908281     3.900638     3.892995     3.885352     3.877708     3.870065     3.862422     3.854779
      3.847136     3.839492     3.831849     3.824206     3.816563     3.808919     3.801276     3.793633     3.785990     3.778347
      3.770703     3.763060     3.755417     3.747774     3.740130     3.732487     3.724844     3.717201     3.709558     3.701914
      3.694271     3.686628     3.678985     3.671341     3.663698     3.656055     3.648412     3.640769     3.633125     3.625482
      3.617839     3.610196     3.602552     3.594909     3.587266     3.579623     3.571980     3.564336     3.556693     3.549050
      3.541407     3.533763     3.526120     3.518477     3.510834     3.503191     3.495547     3.487904     3.480261     3.472618
      3.464974     3.457331     3.449688     3.442045     3.434402     3.426758     3.419115     3.411472     3.403829     3.396185
      3.388542     3.380899     3.373256     3.365613     3.357969     3.350326     3.342683     3.335040     3.327396     3.319753
      3.312110     3.304467     3.296824     3.289180     3.281537     3.273894     3.266251     3.258607     3.250964     3.243321
      3.235678     3.228034     3.220391     3.212748     3.205105     3.197462     3.189818     3.182175     3.174532     3.166889
      3.159245     3.151602     3.143959     3.136316     3.128673     3.121029     3.113386     3.105743     3.098100     3.090456
      3.082813     3.075170     3.067527     3.059884     3.052240     3.044597     3.036954     3.029311     3.021667     3.014024
      3.006381     2.998738     2.991095     2.983451     2.975808     2.968165     2.960522     2.952878     2.945235     2.937592
      2.929949     2.922306     2.914662     2.907019     2.899376     2.891733     2.884089     2.876446     2.868803     2.861160
      2.853517     2.845873     2.838230     2.830587     2.822944     2.815300     2.807657     2.800014     2.792371     2.784728
      2.777084     2.769441     2.761798     2.754155     2.746511     2.738868     2.731225     2.723582     2.715939     2.708295
      2.700652     2.693009     2.685366     2.677722     2.670079     2.662436     2.654793     2.647150     2.639506     2.631863
      2.624220     2.616577     2.608933     2.601290     2.593647     2.586004     2.578361     2.570717     2.563074     2.555431
      2.547788     2.540144     2.532501     2.524858     2.517215     2.509572     2.501928     2.494285     2.486642     2.478999
      2.471355     2.463712     2.456069     2.448426     2.440783     2.433139     2.425496     2.417853     2.410210     2.402566
      2.394923     2.387280     2.379637     2.371994     2.364350     2.356707     2.349064     2.341421     2.333777     2.326134
      2.318491     2.310848     2.303205     2.295561     2.287918     2.280275     2.272632     2.264988     2.257345     2.249702
      2.242059     2.234416     2.226772     2.219129     2.211486     2.203843     2.196199     2.188556     2.180913     2.173270
      2.165627     2.157983     2.150340     2.142697     2.135054     2.127410     2.119767     2.112124     2.104481     2.096838
      2.089194     2.081551     2.073908     2.066265     2.058621     2.050978     2.043335     2.035692     2.028049     2.020405
      2.012762     2.005119     1.997476     1.989833     1.982190     1.974546     1.966903     1.959260     1.951617     1.943974
      1.936331     1.928688     1.921045     1.913402     1.905759     1.898115     1.890472     1.882829     1.875186     1.867543
      1.859900     1.852257     1.844614     1.836971     1.829327     1.821684     1.814041     1.806398     1.798755     1.791112
      1.783469     1.775826     1.768183     1.760540     1.752896     1.745253     1.737610     1.729967     1.722324     1.714681
      1.707038     1.699395     1.691752     1.684108     1.676465     1.668822     1.661179     1.653536     1.645893     1.638250
      1.630607     1.622964     1.615321     1.607677     1.600034     1.592391     1.584748     1.577105     1.569462     1.561819
      1.554176     1.546533     1.538890     1.531246     1.523603     1.515960     1.508317     1.500674     1.493031     1.485388
      1.477745     1.470102     1.462458     1.454815     1.447172     1.439529     1.431886     1.424243     1.416600     1.408957
      1.401314     1.393671     1.386027     1.378384     1.370741     1.363098     1.355455     1.347812     1.340169     1.332526
      1.324883     1.317240     1.309596     1.301953     1.294310     1.286667     1.279024     1.271381     1.263738     1.256095
      1.248452     1.240808     1.233165     1.225522     1.217879     1.210236     1.202593     1.194950     1.187307     1.179664
      1.172021     1.164377     1.156734     1.149091     1.141448     1.133805     1.126162     1.118519     1.110876     1.103233
      1.095590     1.087946     1.080303     1.072660     1.065017     1.057374     1.049731     1.042088     1.034445     1.026802
      1.019158     1.011515     1.003872     0.996229     0.988586     0.980943     0.973300     0.965657     0.958014     0.950371
      0.942727     0.935084     0.927441     0.919798     0.912155     0.904512     0.896869     0.889226     0.881583     0.873940
      0.866296     0.858653     0.851010     0.843367     0.835724     0.828081     0.820438     0.812795     0.805152     0.797508
      0.789865     0.782222     0.774579     0.766936     0.759293     0.751650     0.744007     0.736364     0.728721     0.721077
      0.713434     0.705791     0.698148     0.690505     0.682862     0.675219     0.667576     0.659933     0.652290     0.644646
      0.637003     0.629360     0.621717     0.614074     0.606431     0.598788     0.591145     0.583502     0.575858     0.568215
      0.560572     0.552929     0.545286     0.537643     0.530000     0.522357     0.514714     0.507071     0.499427     0.491784
      0.484141     0.476498     0.468855     0.461212     0.453569     0.445925     0.438282     0.430639     0.422996     0.415353
      0.407710     0.400067     0.392424     0.384780     0.377137     0.369494     0.361851     0.354208     0.346565     0.338922
      0.331278     0.323635     0.315992     0.308349     0.300706     0.293063     0.285420     0.277777     0.270133     0.262490
      0.254847     0.247204     0.239561     0.231918     0.224275     0.216631     0.208988     0.201345
 NY phased data points follow
   4.64424E+01  4.49681E+01  4.70644E+01  5.01283E+01  5.49872E+01  5.95877E+01  7.01947E+01  7.86056E+01  8.39453E+01  9.49501E+01
   9.05574E+01  1.00816E+02  9.43179E+01  9.02533E+01  8.23011E+01  6.96871E+01  6.12761E+01  5.46508E+01  5.08661E+01  4.45001E+01
   4.28599E+01  4.21829E+01  4.40750E+01  4.76974E+01  4.25177E+01  4.55211E+01  4.35338E+01  5.59137E+01  5.35998E+01  5.17264E+01
   5.60803E+01  5.86891E+01  5.78521E+01  5.32523E+01  5.20401E+01  4.76112E+01  4.66354E+01  4.27899E+01  4.40110E+01  5.08002E+01
   4.72359E+01  4.25525E+01  4.00466E+01  4.50942E+01  4.49419E+01  4.65588E+01  4.76203E+01  5.01056E+01  4.80425E+01  3.76683E+01
   3.96363E+01  3.34322E+01  3.42738E+01  3.59674E+01  3.29842E+01  3.41021E+01  3.13652E+01  3.52511E+01  3.25566E+01  3.17204E+01
   3.09229E+01  2.70545E+01  2.73725E+01  2.34439E+01  2.18359E+01  1.92531E+01  2.17595E+01  2.18665E+01  1.48610E+01  2.10026E+01
   1.85673E+01  2.24624E+01  2.10753E+01  2.50616E+01  2.13362E+01  2.62174E+01  1.78783E+01  2.07465E+01  1.51037E+01  1.80813E+01
   1.70589E+01  1.24388E+01  1.73369E+01  2.02715E+01  1.98314E+01  1.79418E+01  1.66233E+01  1.80300E+01  1.84610E+01  1.80491E+01
   2.01862E+01  2.41870E+01  2.04203E+01  2.42103E+01  2.00875E+01  2.35454E+01  1.73629E+01  2.24862E+01  3.13619E+01  4.51623E+01
   5.58020E+01  7.11831E+01  7.81745E+01  7.51386E+01  7.43976E+01  6.51138E+01  5.85601E+01  5.40620E+01  4.16884E+01  3.44867E+01
   2.41538E+01  2.29105E+01  2.26968E+01  2.66820E+01  2.21606E+01  2.14610E+01  2.11803E+01  2.29032E+01  1.96579E+01  2.62071E+01
   2.11826E+01  2.53839E+01  3.43789E+01  4.77095E+01  5.65019E+01  6.77343E+01  8.39057E+01  9.10240E+01  8.64469E+01  8.14848E+01
   6.63007E+01  5.38712E+01  4.16275E+01  3.85592E+01  2.65649E+01  2.14903E+01  2.40016E+01  1.94964E+01  1.11513E+01  1.77483E+01
   1.40564E+01  1.44348E+01  1.83248E+01  1.35618E+01  7.63668E+00  1.33361E+01  1.31052E+01  1.13248E+01  1.26923E+01  1.65599E+01
   1.30124E+01  9.74659E+00  1.11554E+01  8.00408E+00  1.32610E+01  1.67253E+01  1.28589E+01  9.25938E+00  7.14384E+00  8.49172E+00
   6.28342E+00  6.96634E+00  8.02376E+00  4.88486E+00  8.02573E+00  1.00965E+01  1.14794E+01  6.67777E+00  3.53395E+00  7.26397E+00
   2.92102E+00  8.30455E-01 -2.83224E+00  3.23267E-01 -4.13045E+00 -7.32697E+00 -4.19385E+00 -3.64039E-01 -2.32616E+00 -2.79847E+00
  -4.47151E-01 -7.72066E+00 -3.95560E+00 -1.08211E+01 -5.93536E+00 -4.44546E+00 -1.31294E+00  2.19913E+00  3.40255E+00  5.10300E+00
   9.51452E+00  1.18463E+01  1.51048E+01  1.64965E+01  1.33168E+01  1.25701E+01  8.70501E+00  1.22824E+01  7.44241E+00  5.50512E+00
   6.93357E+00  1.12545E+01  1.04255E+01  1.27032E+01  1.80341E+01  1.31529E+01  5.61014E+00  6.15724E+00 -1.72156E+00  6.25472E+00
   2.47704E+00  1.10009E+01  1.15877E+01  1.93275E+01  2.68016E+01  1.96577E+01  2.69101E+01  2.02994E+01  2.03699E+01  1.15120E+01
   8.19669E+00  6.16140E+00  9.36601E+00  1.24350E+01  1.31385E+01  1.54577E+01  1.73743E+01  1.96612E+01  2.24991E+01  2.56292E+01
   1.83257E+01  1.46601E+01  1.49235E+01  1.91427E+01  1.41962E+01  1.69495E+01  2.58617E+01  2.14585E+01  2.08493E+01  1.32954E+01
   1.99080E+01  1.68173E+01  1.54459E+01  1.47647E+01  2.45097E+01  2.34702E+01  2.81058E+01  2.21898E+01  2.79972E+01  2.62516E+01
   2.69170E+01  4.10872E+01  3.67586E+01  3.41562E+01  3.84121E+01  5.22763E+01  6.46177E+01  8.44266E+01  9.66969E+01  1.13428E+02
   1.14455E+02  1.11904E+02  9.54247E+01  7.76200E+01  5.76368E+01  4.04778E+01  3.41782E+01  3.03079E+01  2.21170E+01  2.45367E+01
   2.06884E+01  2.55825E+01  2.03294E+01  2.18723E+01  2.45988E+01  1.89668E+01  2.51028E+01  2.02098E+01  2.04040E+01  1.50450E+01
   1.97666E+01  1.65977E+01  2.22082E+01  1.64720E+01  1.85021E+01  2.03968E+01  1.34872E+01  1.94681E+01  1.65470E+01  2.01914E+01
   1.07020E+01  1.58815E+01  1.76998E+01  1.94896E+01  2.01386E+01  2.08640E+01  1.71213E+01  2.30125E+01  1.98217E+01  2.06580E+01
   1.92126E+01  1.97580E+01  1.94588E+01  2.54038E+01  3.04922E+01  2.67087E+01  2.94564E+01  3.14823E+01  3.67005E+01  2.95646E+01
   3.08657E+01  3.40783E+01  2.71334E+01  3.20060E+01  3.33871E+01  3.90923E+01  3.49492E+01  3.50890E+01  3.93520E+01  3.67419E+01
   4.01333E+01  3.86806E+01  4.59363E+01  4.99319E+01  4.38302E+01  4.02976E+01  4.29961E+01  4.87728E+01  4.65574E+01  4.92824E+01
   4.86844E+01  5.05944E+01  4.89129E+01  5.28638E+01  5.31828E+01  5.15496E+01  5.03079E+01  4.80427E+01  4.87419E+01  5.18572E+01
   5.03380E+01  5.69843E+01  5.20319E+01  5.73074E+01  5.69471E+01  5.79494E+01  5.94511E+01  5.90540E+01  5.33608E+01  5.75358E+01
   5.54123E+01  5.42383E+01  5.17827E+01  4.98875E+01  4.45676E+01  4.29948E+01  4.02106E+01  4.24146E+01  4.08792E+01  3.97698E+01
   3.70218E+01  3.79942E+01  3.15261E+01  3.28405E+01  2.92354E+01  3.06805E+01  3.07756E+01  2.16682E+01  3.18379E+01  3.01155E+01
   3.11131E+01  2.87182E+01  2.89354E+01  3.00237E+01  2.47999E+01  2.46993E+01  2.44318E+01  2.03535E+01  2.37846E+01  2.45878E+01
   1.93710E+01  2.12678E+01  2.81296E+01  2.40834E+01  2.33228E+01  2.40432E+01  1.75257E+01  2.12884E+01  1.73440E+01  1.84503E+01
   2.15998E+01  2.13237E+01  1.97628E+01  1.84749E+01  2.17652E+01  2.38977E+01  2.00779E+01  2.22136E+01  2.28429E+01  2.06185E+01
   2.42009E+01  2.46336E+01  1.61108E+01  1.82375E+01  1.96405E+01  1.88608E+01  1.96501E+01  2.13276E+01  2.38219E+01  2.24211E+01
   2.32063E+01  1.77764E+01  1.75837E+01  1.66052E+01  2.22845E+01  1.92457E+01  1.54561E+01  1.34064E+01  1.39518E+01  1.05399E+01
   1.84132E+01  1.29530E+01  1.46833E+01  1.27745E+01  1.01487E+01  8.27546E+00  1.29727E+01  9.41597E+00  6.85902E+00  1.28470E+01
   9.55505E+00  1.10092E+01  1.24773E+01  1.03595E+01  1.19648E+01  1.35479E+01  1.13018E+01  1.50185E+01  8.37311E+00  1.25073E+01
   9.57974E+00  1.28228E+01  1.24096E+01  8.62661E+00  8.51024E+00  8.64198E+00  1.19277E+01  5.95424E+00  7.83440E+00  1.04290E+01
   7.61379E+00  1.53690E+01  5.83167E+00  8.20206E+00  5.77160E+00  7.35121E+00  8.79255E+00  1.18862E+01  6.72185E+00  9.39525E+00
   5.64673E+00  5.33089E+00  1.35198E+01  1.24101E+01  4.93799E+00  9.06605E+00  4.57428E+00  5.92760E+00  7.27682E+00  6.87327E+00
   6.33789E+00  1.22877E+01  9.92982E+00  5.79107E+00  7.35127E+00  6.13032E+00  4.92035E+00  8.61409E+00  2.68486E+00  5.74901E+00
   5.85281E+00  1.07773E+01  7.36472E+00  9.35747E+00  4.41986E+00  8.60201E+00  9.85872E+00  6.75622E+00  3.00429E+00  6.92413E+00
   7.47260E+00  5.54148E+00  3.66610E+00  8.53763E+00  5.64790E+00  9.12218E+00  4.32731E+00  2.33095E+00
 NY points of the fit to the data follow
   4.66110E+01  4.63949E+01  4.68237E+01  4.83990E+01  5.17389E+01  5.73608E+01  6.50106E+01  7.39333E+01  8.28438E+01  9.01270E+01
   9.42384E+01  9.42182E+01  9.01454E+01  8.31542E+01  7.49428E+01  6.71600E+01  6.07414E+01  5.57187E+01  5.17328E+01  4.87538E+01
   4.66376E+01  4.52176E+01  4.38593E+01  4.25852E+01  4.19145E+01  4.23384E+01  4.42035E+01  4.75064E+01  5.18428E+01  5.62999E+01
   5.96175E+01  6.07537E+01  5.93425E+01  5.57656E+01  5.09371E+01  4.60910E+01  4.22570E+01  3.96077E+01  3.79243E+01  3.72595E+01
   3.76921E+01  3.87006E+01  3.98960E+01  4.11161E+01  4.22250E+01  4.29982E+01  4.31981E+01  4.26481E+01  4.13556E+01  3.96385E+01
   3.77226E+01  3.58515E+01  3.43468E+01  3.33078E+01  3.25546E+01  3.20290E+01  3.18351E+01  3.18505E+01  3.17917E+01  3.15071E+01
   3.09806E+01  3.02232E+01  2.93191E+01  2.83915E+01  2.76095E+01  2.70957E+01  2.68330E+01  2.67438E+01  2.67601E+01  2.67961E+01
   2.67824E+01  2.66626E+01  2.64052E+01  2.60269E+01  2.55646E+01  2.50653E+01  2.45868E+01  2.41550E+01  2.37686E+01  2.33757E+01
   2.29438E+01  2.24468E+01  2.18403E+01  2.11200E+01  2.03212E+01  1.95200E+01  1.88221E+01  1.83363E+01  1.81348E+01  1.82342E+01
   1.85700E+01  1.90252E+01  1.94746E+01  1.98473E+01  2.01774E+01  2.07160E+01  2.25329E+01  2.69336E+01  3.43354E+01  4.44754E+01
   5.61137E+01  6.74775E+01  7.62613E+01  8.01116E+01  7.79541E+01  7.05431E+01  5.98861E+01  4.85346E+01  3.87610E+01  3.15287E+01
   2.61081E+01  2.15252E+01  1.85090E+01  1.75409E+01  1.72450E+01  1.71346E+01  1.71225E+01  1.72132E+01  1.74844E+01  1.82214E+01
   2.05523E+01  2.59966E+01  3.50014E+01  4.72271E+01  6.12288E+01  7.49542E+01  8.58240E+01  9.11797E+01  8.96652E+01  8.19111E+01
   7.00461E+01  5.68666E+01  4.49184E+01  3.54214E+01  2.77295E+01  2.09245E+01  1.59728E+01  1.39890E+01  1.36040E+01  1.40506E+01
   1.48845E+01  1.56586E+01  1.60996E+01  1.61966E+01  1.59658E+01  1.54554E+01  1.48153E+01  1.41474E+01  1.34775E+01  1.28496E+01
   1.22531E+01  1.17603E+01  1.13782E+01  1.10728E+01  1.07791E+01  1.04480E+01  1.00379E+01  9.55878E+00  9.09566E+00  8.70454E+00
   8.44353E+00  8.35057E+00  8.39478E+00  8.46929E+00  8.40878E+00  8.09220E+00  7.52055E+00  6.80187E+00  6.09093E+00  5.44247E+00
   4.78044E+00  4.11267E+00  3.46509E+00  2.91834E+00  2.55970E+00  2.36537E+00  2.32333E+00  2.41154E+00  2.54082E+00  2.59171E+00
   2.48293E+00  2.25497E+00  2.04136E+00  2.02795E+00  2.34752E+00  3.02645E+00  4.13218E+00  5.71937E+00  7.60339E+00  9.42316E+00
   1.07394E+01  1.12270E+01  1.08381E+01  9.80944E+00  8.55879E+00  7.48615E+00  6.90425E+00  7.16041E+00  8.37936E+00  1.03662E+01
   1.26974E+01  1.48314E+01  1.61640E+01  1.61487E+01  1.47171E+01  1.21605E+01  9.05244E+00  5.95302E+00  3.60702E+00  2.90517E+00
   4.18181E+00  7.12882E+00  1.10577E+01  1.51554E+01  1.84855E+01  2.01484E+01  1.96692E+01  1.72502E+01  1.34912E+01  9.26881E+00
   5.88551E+00  4.19486E+00  4.39986E+00  6.31002E+00  9.34951E+00  1.29132E+01  1.61010E+01  1.82351E+01  1.91916E+01  1.92753E+01
   1.89695E+01  1.86072E+01  1.85106E+01  1.90228E+01  2.02246E+01  2.17555E+01  2.31289E+01  2.38702E+01  2.37267E+01  2.28075E+01
   2.13874E+01  1.99132E+01  1.90207E+01  1.91234E+01  2.01062E+01  2.16045E+01  2.33549E+01  2.51004E+01  2.66267E+01  2.78797E+01
   2.90288E+01  3.01669E+01  3.16686E+01  3.52981E+01  4.26164E+01  5.39348E+01  6.85505E+01  8.45952E+01  9.95822E+01  1.10222E+02
   1.13369E+02  1.07958E+02  9.55002E+01  7.91063E+01  6.24559E+01  4.86161E+01  3.85163E+01  3.06837E+01  2.38915E+01  1.97800E+01
   1.84848E+01  1.79301E+01  1.76284E+01  1.74897E+01  1.73956E+01  1.72433E+01  1.70304E+01  1.67571E+01  1.64513E+01  1.61577E+01
   1.59065E+01  1.57002E+01  1.55536E+01  1.54838E+01  1.54829E+01  1.55338E+01  1.56266E+01  1.57634E+01  1.59512E+01  1.61903E+01
   1.64784E+01  1.68226E+01  1.72271E+01  1.76931E+01  1.82202E+01  1.88074E+01  1.94534E+01  2.01546E+01  2.09071E+01  2.17073E+01
   2.25486E+01  2.34228E+01  2.43207E+01  2.52323E+01  2.61478E+01  2.70571E+01  2.79513E+01  2.88230E+01  2.96670E+01  3.04801E+01
   3.12614E+01  3.20120E+01  3.27363E+01  3.34408E+01  3.41338E+01  3.48254E+01  3.55263E+01  3.62471E+01  3.69978E+01  3.77874E+01
   3.86234E+01  3.95082E+01  4.04387E+01  4.14076E+01  4.24044E+01  4.34167E+01  4.44309E+01  4.54345E+01  4.64203E+01  4.73843E+01
   4.83216E+01  4.92253E+01  5.00849E+01  5.08867E+01  5.16157E+01  5.22599E+01  5.28128E+01  5.32677E+01  5.36228E+01  5.38838E+01
   5.40587E+01  5.41544E+01  5.41734E+01  5.41147E+01  5.39802E+01  5.37710E+01  5.34832E+01  5.31124E+01  5.26550E+01  5.21073E+01
   5.14662E+01  5.07298E+01  4.98974E+01  4.89702E+01  4.79516E+01  4.68466E+01  4.56625E+01  4.44083E+01  4.30946E+01  4.17335E+01
   4.03379E+01  3.89213E+01  3.74968E+01  3.60778E+01  3.46766E+01  3.33051E+01  3.19739E+01  3.06921E+01  2.94677E+01  2.83075E+01
   2.72169E+01  2.62003E+01  2.52608E+01  2.44005E+01  2.36208E+01  2.29224E+01  2.23054E+01  2.17694E+01  2.13134E+01  2.09363E+01
   2.06364E+01  2.04117E+01  2.02601E+01  2.01788E+01  2.01646E+01  2.02135E+01  2.03213E+01  2.04827E+01  2.06918E+01  2.09416E+01
   2.12242E+01  2.15310E+01  2.18523E+01  2.21781E+01  2.24975E+01  2.27994E+01  2.30727E+01  2.33066E+01  2.34912E+01  2.36174E+01
   2.36775E+01  2.36656E+01  2.35776E+01  2.34114E+01  2.31672E+01  2.28475E+01  2.24563E+01  2.19999E+01  2.14856E+01  2.09223E+01
   2.03197E+01  1.96878E+01  1.90364E+01  1.83753E+01  1.77137E+01  1.70597E+01  1.64208E+01  1.58029E+01  1.52108E+01  1.46484E+01
   1.41181E+01  1.36215E+01  1.31594E+01  1.27314E+01  1.23368E+01  1.19742E+01  1.16421E+01  1.13387E+01  1.10618E+01  1.08092E+01
   1.05790E+01  1.03691E+01  1.01775E+01  1.00025E+01  9.84241E+00  9.69556E+00  9.56058E+00  9.43625E+00  9.32147E+00  9.21521E+00
   9.11654E+00  9.02464E+00  8.93881E+00  8.85846E+00  8.78304E+00  8.71205E+00  8.64498E+00  8.58146E+00  8.52117E+00  8.46381E+00
   8.40913E+00  8.35682E+00  8.30667E+00  8.25848E+00  8.21211E+00  8.16742E+00  8.12427E+00  8.08249E+00  8.04196E+00  8.00260E+00
   7.96435E+00  7.92713E+00  7.89085E+00  7.85540E+00  7.82074E+00  7.78683E+00  7.75364E+00  7.72113E+00  7.68920E+00  7.65782E+00
   7.62698E+00  7.59667E+00  7.56687E+00  7.53754E+00  7.50864E+00  7.48013E+00  7.45203E+00  7.42436E+00  7.39708E+00  7.37015E+00
   7.34356E+00  7.31730E+00  7.29141E+00  7.26589E+00  7.24073E+00  7.21589E+00  7.19137E+00  7.16721E+00  7.14343E+00  7.12003E+00
   7.09702E+00  7.07437E+00  7.05211E+00  7.03031E+00  7.00899E+00  6.98818E+00  6.96787E+00  6.94811E+00
 NY background values follow
     4.362E+01    4.332E+01    4.302E+01    4.272E+01    4.242E+01    4.212E+01    4.182E+01    4.152E+01    4.122E+01    4.092E+01
     4.062E+01    4.032E+01    4.002E+01    3.972E+01    3.942E+01    3.912E+01    3.882E+01    3.852E+01    3.822E+01    3.792E+01
     3.762E+01    3.732E+01    3.702E+01    3.673E+01    3.643E+01    3.613E+01    3.583E+01    3.554E+01    3.524E+01    3.494E+01
     3.465E+01    3.435E+01    3.406E+01    3.376E+01    3.347E+01    3.317E+01    3.288E+01    3.259E+01    3.230E+01    3.200E+01
     3.171E+01    3.142E+01    3.113E+01    3.084E+01    3.056E+01    3.027E+01    2.998E+01    2.970E+01    2.941E+01    2.913E+01
     2.884E+01    2.856E+01    2.828E+01    2.800E+01    2.772E+01    2.744E+01    2.716E+01    2.689E+01    2.661E+01    2.634E+01
     2.606E+01    2.579E+01    2.552E+01    2.525E+01    2.498E+01    2.471E+01    2.445E+01    2.418E+01    2.392E+01    2.366E+01
     2.340E+01    2.314E+01    2.288E+01    2.262E+01    2.237E+01    2.211E+01    2.186E+01    2.161E+01    2.136E+01    2.111E+01
     2.087E+01    2.062E+01    2.038E+01    2.014E+01    1.990E+01    1.966E+01    1.943E+01    1.919E+01    1.896E+01    1.873E+01
     1.850E+01    1.828E+01    1.805E+01    1.783E+01    1.761E+01    1.739E+01    1.717E+01    1.696E+01    1.675E+01    1.653E+01
     1.632E+01    1.612E+01    1.591E+01    1.571E+01    1.551E+01    1.531E+01    1.511E+01    1.492E+01    1.472E+01    1.453E+01
     1.434E+01    1.415E+01    1.397E+01    1.378E+01    1.360E+01    1.342E+01    1.324E+01    1.307E+01    1.289E+01    1.272E+01
     1.255E+01    1.238E+01    1.221E+01    1.205E+01    1.189E+01    1.172E+01    1.157E+01    1.141E+01    1.125E+01    1.110E+01
     1.095E+01    1.080E+01    1.065E+01    1.051E+01    1.037E+01    1.022E+01    1.008E+01    9.947E+00    9.812E+00    9.678E+00
     9.547E+00    9.417E+00    9.290E+00    9.164E+00    9.041E+00    8.919E+00    8.800E+00    8.682E+00    8.567E+00    8.454E+00
     8.342E+00    8.233E+00    8.126E+00    8.020E+00    7.917E+00    7.816E+00    7.717E+00    7.620E+00    7.526E+00    7.433E+00
     7.342E+00    7.254E+00    7.167E+00    7.083E+00    7.001E+00    6.921E+00    6.843E+00    6.768E+00    6.694E+00    6.623E+00
     6.554E+00    6.487E+00    6.422E+00    6.359E+00    6.299E+00    6.241E+00    6.185E+00    6.131E+00    6.079E+00    6.030E+00
     5.983E+00    5.938E+00    5.895E+00    5.855E+00    5.817E+00    5.781E+00    5.747E+00    5.715E+00    5.685E+00    5.657E+00
     5.631E+00    5.608E+00    5.586E+00    5.566E+00    5.547E+00    5.531E+00    5.516E+00    5.504E+00    5.493E+00    5.483E+00
     5.475E+00    5.469E+00    5.465E+00    5.462E+00    5.461E+00    5.461E+00    5.462E+00    5.465E+00    5.470E+00    5.476E+00
     5.483E+00    5.491E+00    5.501E+00    5.512E+00    5.525E+00    5.538E+00    5.553E+00    5.568E+00    5.585E+00    5.603E+00
     5.622E+00    5.642E+00    5.663E+00    5.685E+00    5.707E+00    5.731E+00    5.755E+00    5.781E+00    5.807E+00    5.834E+00
     5.861E+00    5.889E+00    5.918E+00    5.948E+00    5.978E+00    6.009E+00    6.041E+00    6.073E+00    6.106E+00    6.139E+00
     6.173E+00    6.207E+00    6.242E+00    6.277E+00    6.313E+00    6.349E+00    6.385E+00    6.422E+00    6.460E+00    6.497E+00
     6.535E+00    6.573E+00    6.612E+00    6.650E+00    6.689E+00    6.728E+00    6.768E+00    6.807E+00    6.847E+00    6.887E+00
     6.926E+00    6.966E+00    7.006E+00    7.046E+00    7.086E+00    7.126E+00    7.166E+00    7.206E+00    7.246E+00    7.286E+00
     7.325E+00    7.365E+00    7.404E+00    7.443E+00    7.482E+00    7.521E+00    7.560E+00    7.598E+00    7.636E+00    7.674E+00
     7.712E+00    7.750E+00    7.787E+00    7.824E+00    7.861E+00    7.897E+00    7.933E+00    7.969E+00    8.005E+00    8.040E+00
     8.075E+00    8.110E+00    8.144E+00    8.178E+00    8.212E+00    8.245E+00    8.278E+00    8.311E+00    8.343E+00    8.375E+00
     8.406E+00    8.437E+00    8.468E+00    8.498E+00    8.528E+00    8.558E+00    8.587E+00    8.615E+00    8.643E+00    8.671E+00
     8.698E+00    8.724E+00    8.750E+00    8.776E+00    8.801E+00    8.826E+00    8.850E+00    8.874E+00    8.897E+00    8.919E+00
     8.941E+00    8.962E+00    8.983E+00    9.004E+00    9.024E+00    9.043E+00    9.062E+00    9.081E+00    9.099E+00    9.116E+00
     9.133E+00    9.150E+00    9.166E+00    9.181E+00    9.196E+00    9.211E+00    9.225E+00    9.239E+00    9.252E+00    9.265E+00
     9.277E+00    9.289E+00    9.301E+00    9.312E+00    9.322E+00    9.333E+00    9.343E+00    9.352E+00    9.361E+00    9.370E+00
     9.378E+00    9.385E+00    9.393E+00    9.400E+00    9.407E+00    9.413E+00    9.419E+00    9.424E+00    9.429E+00    9.434E+00
     9.438E+00    9.442E+00    9.446E+00    9.449E+00    9.452E+00    9.455E+00    9.457E+00    9.459E+00    9.461E+00    9.462E+00
     9.463E+00    9.464E+00    9.464E+00    9.464E+00    9.464E+00    9.464E+00    9.463E+00    9.462E+00    9.460E+00    9.458E+00
     9.456E+00    9.454E+00    9.452E+00    9.449E+00    9.446E+00    9.442E+00    9.439E+00    9.435E+00    9.431E+00    9.426E+00
     9.422E+00    9.417E+00    9.412E+00    9.407E+00    9.401E+00    9.395E+00    9.389E+00    9.383E+00    9.377E+00    9.370E+00
     9.363E+00    9.356E+00    9.349E+00    9.342E+00    9.334E+00    9.327E+00    9.319E+00    9.311E+00    9.302E+00    9.294E+00
     9.285E+00    9.277E+00    9.268E+00    9.258E+00    9.249E+00    9.240E+00    9.230E+00    9.220E+00    9.210E+00    9.200E+00
     9.189E+00    9.179E+00    9.168E+00    9.157E+00    9.145E+00    9.134E+00    9.122E+00    9.111E+00    9.099E+00    9.086E+00
     9.074E+00    9.061E+00    9.048E+00    9.035E+00    9.022E+00    9.008E+00    8.995E+00    8.981E+00    8.966E+00    8.952E+00
     8.937E+00    8.922E+00    8.907E+00    8.892E+00    8.876E+00    8.861E+00    8.845E+00    8.828E+00    8.812E+00    8.795E+00
     8.778E+00    8.761E+00    8.743E+00    8.725E+00    8.707E+00    8.689E+00    8.671E+00    8.652E+00    8.633E+00    8.614E+00
     8.595E+00    8.575E+00    8.556E+00    8.536E+00    8.516E+00    8.496E+00    8.475E+00    8.455E+00    8.434E+00    8.413E+00
     8.392E+00    8.371E+00    8.350E+00    8.329E+00    8.307E+00    8.286E+00    8.264E+00    8.242E+00    8.220E+00    8.198E+00
     8.176E+00    8.154E+00    8.132E+00    8.110E+00    8.088E+00    8.065E+00    8.043E+00    8.021E+00    7.998E+00    7.976E+00
     7.954E+00    7.931E+00    7.909E+00    7.886E+00    7.864E+00    7.842E+00    7.819E+00    7.797E+00
 Ala      Conc. = 9.32E+00
