 LCModel (Version 6.3-1L) Copyright: S.W. Provencher.          Ref.: Magn. Reson. Med. 30:672-679 (1993).                
 Slice#2 Row#12 Col#14  K_02_press_1_raw_act
 36 lines in following concentration table = NCONC+1
    Conc.  %SD /Cr+PCr  Metabolite                                         
   54.398  68%   0.000 Ala                                                 
 3.15E-03 999%   0.000 Asp                                                 
    0.000 999%   0.000 Cr                                                  
    0.000 999%   0.000 PCr                                                 
    0.000 999%   0.000 GABA                                                
 2.71E-02 999%   0.000 Glc                                                 
   22.921 286%   0.000 Gln                                                 
   48.240 152%   0.000 Glu                                                 
    0.000 999%   0.000 GPC                                                 
    0.000 999%   0.000 PCh                                                 
    6.330 352%   0.000 GSH                                                 
   68.493 100%   0.000 Ins                                                 
    0.000 999%   0.000 Lac                                                 
    0.000 999%   0.000 NAA                                                 
    0.000 999%   0.000 NAAG                                                
 1.40E-02 999%   0.000 Scyllo                                              
 4.55E-02 999%   0.000 Tau                                                 
    5.340 195%   0.000 -CrCH2                                              
    0.000 999%   0.000 GPC+PCh                                             
    0.000 999%   0.000 NAA+NAAG                                            
    0.000 999%   0.000 Cr+PCr                                              
   71.161 140%   0.000 Glu+Gln                                             
 2.74E+04  11%   0.000 Lip13a                                              
    0.000 999%   0.000 Lip13b                                              
 4.34E+03  16%   0.000 Lip09                                               
 2.58E+03  22%   0.000 MM09                                                
    0.000 999%   0.000 Lip20                                               
    0.000 999%   0.000 MM20                                                
 1.76E+03  40%   0.000 MM12                                                
 1.51E+03  50%   0.000 MM14                                                
 4.26E+03  10%   0.000 MM17                                                
 2.74E+04  11%   0.000 Lip13a+Lip13b                                       
 3.06E+04   7%   0.000 MM14+Lip13a+Lip13b+MM12                             
 6.93E+03  14%   0.000 MM09+Lip09                                          
    0.000 999%   0.000 MM20+Lip20                                          
   6 lines in following misc. output table
  FWHM = 0.054 ppm    S/N =  33                                            
  Data shift = 0.092 ppm                                                   
  Ph: 116 deg      25.2 deg/ppm                                            
  alphaB,S = 3.4E+00,   1.9E+01                                            
   14 spline knots.   Ns = 5(1)                                            
   2 inflections.     1 extrema                                            
  498 points on ppm-axis = NY
      4.000000     3.992357     3.984714     3.977070     3.969427     3.961784     3.954141     3.946497     3.938854     3.931211
      3.923568     3.915925     3.908281     3.900638     3.892995     3.885352     3.877708     3.870065     3.862422     3.854779
      3.847136     3.839492     3.831849     3.824206     3.816563     3.808919     3.801276     3.793633     3.785990     3.778347
      3.770703     3.763060     3.755417     3.747774     3.740130     3.732487     3.724844     3.717201     3.709558     3.701914
      3.694271     3.686628     3.678985     3.671341     3.663698     3.656055     3.648412     3.640769     3.633125     3.625482
      3.617839     3.610196     3.602552     3.594909     3.587266     3.579623     3.571980     3.564336     3.556693     3.549050
      3.541407     3.533763     3.526120     3.518477     3.510834     3.503191     3.495547     3.487904     3.480261     3.472618
      3.464974     3.457331     3.449688     3.442045     3.434402     3.426758     3.419115     3.411472     3.403829     3.396185
      3.388542     3.380899     3.373256     3.365613     3.357969     3.350326     3.342683     3.335040     3.327396     3.319753
      3.312110     3.304467     3.296824     3.289180     3.281537     3.273894     3.266251     3.258607     3.250964     3.243321
      3.235678     3.228034     3.220391     3.212748     3.205105     3.197462     3.189818     3.182175     3.174532     3.166889
      3.159245     3.151602     3.143959     3.136316     3.128673     3.121029     3.113386     3.105743     3.098100     3.090456
      3.082813     3.075170     3.067527     3.059884     3.052240     3.044597     3.036954     3.029311     3.021667     3.014024
      3.006381     2.998738     2.991095     2.983451     2.975808     2.968165     2.960522     2.952878     2.945235     2.937592
      2.929949     2.922306     2.914662     2.907019     2.899376     2.891733     2.884089     2.876446     2.868803     2.861160
      2.853517     2.845873     2.838230     2.830587     2.822944     2.815300     2.807657     2.800014     2.792371     2.784728
      2.777084     2.769441     2.761798     2.754155     2.746511     2.738868     2.731225     2.723582     2.715939     2.708295
      2.700652     2.693009     2.685366     2.677722     2.670079     2.662436     2.654793     2.647150     2.639506     2.631863
      2.624220     2.616577     2.608933     2.601290     2.593647     2.586004     2.578361     2.570717     2.563074     2.555431
      2.547788     2.540144     2.532501     2.524858     2.517215     2.509572     2.501928     2.494285     2.486642     2.478999
      2.471355     2.463712     2.456069     2.448426     2.440783     2.433139     2.425496     2.417853     2.410210     2.402566
      2.394923     2.387280     2.379637     2.371994     2.364350     2.356707     2.349064     2.341421     2.333777     2.326134
      2.318491     2.310848     2.303205     2.295561     2.287918     2.280275     2.272632     2.264988     2.257345     2.249702
      2.242059     2.234416     2.226772     2.219129     2.211486     2.203843     2.196199     2.188556     2.180913     2.173270
      2.165627     2.157983     2.150340     2.142697     2.135054     2.127410     2.119767     2.112124     2.104481     2.096838
      2.089194     2.081551     2.073908     2.066265     2.058621     2.050978     2.043335     2.035692     2.028049     2.020405
      2.012762     2.005119     1.997476     1.989833     1.982190     1.974546     1.966903     1.959260     1.951617     1.943974
      1.936331     1.928688     1.921045     1.913402     1.905759     1.898115     1.890472     1.882829     1.875186     1.867543
      1.859900     1.852257     1.844614     1.836971     1.829327     1.821684     1.814041     1.806398     1.798755     1.791112
      1.783469     1.775826     1.768183     1.760540     1.752896     1.745253     1.737610     1.729967     1.722324     1.714681
      1.707038     1.699395     1.691752     1.684108     1.676465     1.668822     1.661179     1.653536     1.645893     1.638250
      1.630607     1.622964     1.615321     1.607677     1.600034     1.592391     1.584748     1.577105     1.569462     1.561819
      1.554176     1.546533     1.538890     1.531246     1.523603     1.515960     1.508317     1.500674     1.493031     1.485388
      1.477745     1.470102     1.462458     1.454815     1.447172     1.439529     1.431886     1.424243     1.416600     1.408957
      1.401314     1.393671     1.386027     1.378384     1.370741     1.363098     1.355455     1.347812     1.340169     1.332526
      1.324883     1.317240     1.309596     1.301953     1.294310     1.286667     1.279024     1.271381     1.263738     1.256095
      1.248452     1.240808     1.233165     1.225522     1.217879     1.210236     1.202593     1.194950     1.187307     1.179664
      1.172021     1.164377     1.156734     1.149091     1.141448     1.133805     1.126162     1.118519     1.110876     1.103233
      1.095590     1.087946     1.080303     1.072660     1.065017     1.057374     1.049731     1.042088     1.034445     1.026802
      1.019158     1.011515     1.003872     0.996229     0.988586     0.980943     0.973300     0.965657     0.958014     0.950371
      0.942727     0.935084     0.927441     0.919798     0.912155     0.904512     0.896869     0.889226     0.881583     0.873940
      0.866296     0.858653     0.851010     0.843367     0.835724     0.828081     0.820438     0.812795     0.805152     0.797508
      0.789865     0.782222     0.774579     0.766936     0.759293     0.751650     0.744007     0.736364     0.728721     0.721077
      0.713434     0.705791     0.698148     0.690505     0.682862     0.675219     0.667576     0.659933     0.652290     0.644646
      0.637003     0.629360     0.621717     0.614074     0.606431     0.598788     0.591145     0.583502     0.575858     0.568215
      0.560572     0.552929     0.545286     0.537643     0.530000     0.522357     0.514714     0.507071     0.499427     0.491784
      0.484141     0.476498     0.468855     0.461212     0.453569     0.445925     0.438282     0.430639     0.422996     0.415353
      0.407710     0.400067     0.392424     0.384780     0.377137     0.369494     0.361851     0.354208     0.346565     0.338922
      0.331278     0.323635     0.315992     0.308349     0.300706     0.293063     0.285420     0.277777     0.270133     0.262490
      0.254847     0.247204     0.239561     0.231918     0.224275     0.216631     0.208988     0.201345
 NY phased data points follow
  -8.60722E+00 -8.66017E+00 -7.90235E+00 -9.17173E+00 -7.59283E+00 -7.33441E+00 -8.30424E+00 -8.50341E+00 -8.29752E+00 -7.68188E+00
  -7.34683E+00 -8.40833E+00 -9.09212E+00 -6.89961E+00 -8.94804E+00 -9.03627E+00 -7.66220E+00 -8.28594E+00 -8.00089E+00 -6.35669E+00
  -8.00552E+00 -8.34092E+00 -6.15924E+00 -6.51474E+00 -7.35918E+00 -7.73568E+00 -5.74840E+00 -9.95723E+00 -7.93763E+00 -6.85764E+00
  -7.79324E+00 -6.88262E+00 -4.87433E+00 -5.97780E+00 -8.81049E+00 -6.46907E+00 -5.73786E+00 -6.41217E+00 -5.64712E+00 -5.93031E+00
  -4.92515E+00 -7.19815E+00 -6.49037E+00 -6.57659E+00 -7.06577E+00 -6.18953E+00 -6.48625E+00 -6.78598E+00 -6.01561E+00 -7.01070E+00
  -7.48239E+00 -7.02612E+00 -6.52317E+00 -6.06427E+00 -5.14153E+00 -7.13396E+00 -5.96000E+00 -4.11263E+00 -5.40717E+00 -5.66271E+00
  -6.62866E+00 -5.69582E+00 -5.01447E+00 -3.08332E+00 -4.72024E+00 -5.12447E+00 -5.32591E+00 -5.33555E+00 -6.71172E+00 -5.83330E+00
  -4.52281E+00 -4.55366E+00 -4.10277E+00 -6.10015E+00 -4.82299E+00 -6.66464E+00 -4.27983E+00 -5.66968E+00 -4.86454E+00 -3.92383E+00
  -6.03205E+00 -5.25281E+00 -5.80765E+00 -4.79084E+00 -4.99893E+00 -5.00132E+00 -5.42146E+00 -4.67223E+00 -5.08784E+00 -4.71435E+00
  -7.34698E+00 -6.38479E+00 -6.31638E+00 -5.38161E+00 -5.60856E+00 -4.40991E+00 -4.64413E+00 -5.59902E+00 -5.31181E+00 -6.00296E+00
  -6.63800E+00 -4.24373E+00 -6.78597E+00 -5.45881E+00 -4.45424E+00 -4.80961E+00 -5.51558E+00 -5.43594E+00 -5.26333E+00 -5.17173E+00
  -4.33048E+00 -4.73837E+00 -6.92866E+00 -6.17488E+00 -4.90329E+00 -5.86161E+00 -6.07482E+00 -4.65830E+00 -2.56969E+00 -2.97695E+00
  -6.17345E+00 -6.55297E+00 -3.82368E+00 -4.87207E+00 -5.54038E+00 -7.42102E+00 -7.06004E+00 -3.52320E+00 -4.06609E+00 -5.75618E+00
  -2.95779E+00 -4.85797E+00 -5.11771E+00 -3.44528E+00 -4.72575E+00 -5.79641E+00 -4.79824E+00 -4.20745E+00 -3.98137E+00 -3.59760E+00
  -4.05534E+00 -5.66362E+00 -3.69985E+00 -5.16627E+00 -3.28880E+00 -4.58270E+00 -4.05533E+00 -4.03765E+00 -4.07649E+00 -3.98209E+00
  -5.05382E+00 -4.59083E+00 -5.88273E+00 -5.74307E+00 -3.18402E+00 -2.72169E+00 -3.95407E+00 -3.52942E+00 -2.91681E+00 -4.06900E+00
  -4.21550E+00 -6.34914E+00 -4.43523E+00 -4.36957E+00 -3.24894E+00 -3.57880E+00 -2.58105E+00 -5.00772E+00 -3.02825E+00 -3.63134E+00
  -4.75929E+00 -5.73946E+00 -3.60709E+00 -3.02830E+00 -3.85641E+00 -1.75995E+00 -2.72617E+00 -4.38188E+00 -3.10426E+00 -4.55490E+00
  -3.24072E+00 -3.77199E+00 -3.96298E+00 -3.47540E+00 -3.06357E+00 -2.63750E+00 -4.15028E+00 -2.60026E+00 -2.08201E+00 -2.44318E+00
  -4.27166E+00 -2.56667E+00 -3.29383E+00 -5.19322E+00 -1.97948E+00 -3.87827E+00 -2.87492E+00 -2.64211E+00 -3.16439E+00 -4.22716E+00
  -4.43285E+00 -3.69291E+00 -4.05358E+00 -3.06251E+00 -3.09822E+00 -1.69310E+00 -3.04717E+00 -2.72223E+00 -1.80284E+00 -5.29088E+00
  -3.65854E+00 -3.81043E+00 -3.15065E+00 -5.32950E+00 -2.73803E+00 -4.32130E+00 -1.04268E+00 -4.56269E+00 -2.94401E+00 -3.42817E+00
  -5.47279E+00 -4.62647E+00 -4.27937E+00 -3.85982E+00 -3.74988E+00 -2.91944E+00 -2.66032E+00 -3.75167E+00 -3.70208E+00 -4.17644E+00
  -1.88734E+00 -3.59275E+00 -5.15061E+00 -3.67690E+00 -4.92292E+00 -2.53241E+00 -2.06802E+00 -2.91639E+00 -2.33139E+00 -5.47055E+00
  -6.35802E+00 -1.72901E+00 -4.66731E+00 -3.52264E+00 -5.61491E+00 -5.37673E+00 -3.70760E+00 -4.71103E+00 -5.40578E+00 -3.29257E+00
  -7.56086E-01 -2.29049E-01  2.43904E-01 -3.18613E+00 -4.06778E+00 -6.42394E+00 -3.26787E+00 -5.01056E+00 -4.98029E+00 -5.53006E+00
  -4.44078E+00 -3.65395E+00 -3.12479E+00 -3.58976E+00 -3.08622E+00 -2.74302E+00 -3.92099E+00 -1.46761E+00 -2.29563E+00 -2.74207E+00
  -1.09721E+00 -1.35524E+00 -1.29882E+00 -7.71897E-01 -2.10545E+00 -1.18510E+00 -1.87520E+00 -1.12815E+00  1.75273E+00 -1.19379E+00
  -1.73906E+00 -1.34073E+00 -1.07008E-01  1.19440E+00  1.46452E+00  2.10896E+00  2.47245E+00  2.11301E+00  2.22464E+00  2.05507E+00
   2.91968E+00  2.84276E+00  4.96845E+00  4.86034E+00  4.98765E+00  4.47482E+00  6.34454E+00  6.88822E+00  7.42195E+00  1.13516E+01
   1.08763E+01  1.20456E+01  1.39175E+01  1.52567E+01  1.66591E+01  1.72100E+01  2.10937E+01  2.24875E+01  2.23058E+01  2.39053E+01
   2.56803E+01  2.77116E+01  2.94290E+01  3.13188E+01  3.27630E+01  3.15714E+01  3.29977E+01  3.35436E+01  3.46177E+01  3.53942E+01
   3.60100E+01  3.42495E+01  3.36505E+01  3.42842E+01  3.39227E+01  3.51111E+01  3.58260E+01  3.69048E+01  3.41343E+01  3.57715E+01
   3.45148E+01  3.78839E+01  3.87085E+01  3.71462E+01  3.98628E+01  4.25466E+01  4.29338E+01  4.44990E+01  4.59767E+01  4.80298E+01
   4.98612E+01  5.29393E+01  5.36924E+01  5.56626E+01  5.78681E+01  6.01071E+01  6.09248E+01  6.22177E+01  6.50128E+01  6.59505E+01
   6.83318E+01  6.74617E+01  7.15915E+01  7.46417E+01  7.46943E+01  7.59625E+01  7.50260E+01  7.49497E+01  7.72665E+01  7.70315E+01
   7.59297E+01  7.54930E+01  7.58996E+01  7.74130E+01  7.62294E+01  7.57394E+01  7.37295E+01  7.47725E+01  7.36976E+01  7.25347E+01
   7.09027E+01  6.99644E+01  6.97191E+01  6.71065E+01  6.75861E+01  6.65962E+01  6.26970E+01  6.20247E+01  6.19090E+01  5.99145E+01
   5.90279E+01  5.84146E+01  5.55846E+01  5.64216E+01  5.42514E+01  5.22740E+01  5.01214E+01  5.04722E+01  4.86524E+01  4.63013E+01
   4.58763E+01  4.39939E+01  4.30039E+01  4.27732E+01  4.02733E+01  3.87336E+01  3.75991E+01  3.71912E+01  3.60751E+01  3.51963E+01
   3.46193E+01  3.10197E+01  3.24342E+01  3.14176E+01  2.93583E+01  2.92937E+01  2.75202E+01  2.84880E+01  2.50874E+01  2.47119E+01
   2.42576E+01  2.37693E+01  2.12876E+01  2.22210E+01  2.14768E+01  1.80553E+01  1.73222E+01  1.69189E+01  2.03041E+01  1.50468E+01
   1.65764E+01  1.63301E+01  1.38133E+01  1.28283E+01  1.39785E+01  1.30261E+01  1.21567E+01  1.11049E+01  1.07821E+01  1.08534E+01
   8.65751E+00  7.95518E+00  7.48140E+00  7.59786E+00  4.64920E+00  6.34260E+00  6.36792E+00  6.24507E+00  5.58445E+00  4.69036E+00
   3.43797E+00  2.92125E+00  3.42624E+00  1.47844E+00  1.88081E+00  2.09800E+00  2.33122E+00  1.92047E+00 -3.56941E-01  1.88243E+00
  -2.33099E-01 -6.24949E-01 -1.14276E+00 -4.82797E-01  6.78716E-01 -1.55983E+00 -8.48902E-01 -1.60250E+00 -1.74139E+00 -3.01274E+00
  -3.48189E+00 -2.38329E+00 -4.83312E+00 -4.05965E+00 -4.49375E+00 -3.92621E+00 -4.96856E+00 -3.74416E+00 -5.79640E+00 -5.11685E+00
  -6.04471E+00 -5.75584E+00 -5.48095E+00 -5.44578E+00 -5.64622E+00 -5.03096E+00 -6.51935E+00 -5.77779E+00 -7.06260E+00 -5.02285E+00
  -6.46571E+00 -6.68040E+00 -7.03491E+00 -7.93295E+00 -7.02852E+00 -7.82167E+00 -7.51206E+00 -6.29298E+00 -6.09822E+00 -6.77469E+00
  -7.78426E+00 -1.03389E+01 -7.82088E+00 -8.26123E+00 -7.07017E+00 -8.99505E+00 -8.36713E+00 -7.97366E+00
 NY points of the fit to the data follow
  -7.74852E+00 -7.76016E+00 -7.76693E+00 -7.76134E+00 -7.75328E+00 -7.74986E+00 -7.75041E+00 -7.75098E+00 -7.74365E+00 -7.72129E+00
  -7.68456E+00 -7.63979E+00 -7.59246E+00 -7.54609E+00 -7.50090E+00 -7.45948E+00 -7.42681E+00 -7.39208E+00 -7.34380E+00 -7.27951E+00
  -7.19888E+00 -7.11036E+00 -7.03069E+00 -6.97793E+00 -6.96807E+00 -7.00248E+00 -7.05639E+00 -7.09368E+00 -7.08764E+00 -7.03181E+00
  -6.93908E+00 -6.81956E+00 -6.68015E+00 -6.55689E+00 -6.48848E+00 -6.48061E+00 -6.51268E+00 -6.55925E+00 -6.61490E+00 -6.67107E+00
  -6.70300E+00 -6.69177E+00 -6.63635E+00 -6.53305E+00 -6.38431E+00 -6.21041E+00 -6.04839E+00 -5.94195E+00 -5.91878E+00 -5.96348E+00
  -6.04106E+00 -6.12694E+00 -6.21477E+00 -6.29554E+00 -6.33389E+00 -6.30390E+00 -6.22496E+00 -6.12717E+00 -6.02890E+00 -5.94503E+00
  -5.88933E+00 -5.86720E+00 -5.87141E+00 -5.88724E+00 -5.90412E+00 -5.91642E+00 -5.91323E+00 -5.88563E+00 -5.83737E+00 -5.77530E+00
  -5.71163E+00 -5.65647E+00 -5.61758E+00 -5.59624E+00 -5.58525E+00 -5.57765E+00 -5.57056E+00 -5.56457E+00 -5.55812E+00 -5.54446E+00
  -5.52596E+00 -5.50754E+00 -5.49575E+00 -5.49572E+00 -5.51020E+00 -5.53717E+00 -5.56797E+00 -5.59014E+00 -5.59312E+00 -5.57270E+00
  -5.53182E+00 -5.47424E+00 -5.40376E+00 -5.33087E+00 -5.27163E+00 -5.23520E+00 -5.22356E+00 -5.22926E+00 -5.24266E+00 -5.25624E+00
  -5.26502E+00 -5.26511E+00 -5.25510E+00 -5.23187E+00 -5.19729E+00 -5.15990E+00 -5.12432E+00 -5.09105E+00 -5.05922E+00 -5.02898E+00
  -5.00136E+00 -4.97694E+00 -4.95458E+00 -4.93274E+00 -4.91228E+00 -4.89341E+00 -4.87619E+00 -4.86022E+00 -4.84495E+00 -4.82954E+00
  -4.81310E+00 -4.79525E+00 -4.77623E+00 -4.75648E+00 -4.73632E+00 -4.71620E+00 -4.69627E+00 -4.67642E+00 -4.65553E+00 -4.63238E+00
  -4.60811E+00 -4.58513E+00 -4.56602E+00 -4.55386E+00 -4.54893E+00 -4.54700E+00 -4.54297E+00 -4.53318E+00 -4.51726E+00 -4.49641E+00
  -4.47116E+00 -4.44330E+00 -4.41799E+00 -4.39783E+00 -4.38227E+00 -4.37085E+00 -4.36219E+00 -4.35420E+00 -4.34587E+00 -4.33577E+00
  -4.32503E+00 -4.31418E+00 -4.30312E+00 -4.29178E+00 -4.28004E+00 -4.26774E+00 -4.25488E+00 -4.24193E+00 -4.22923E+00 -4.21683E+00
  -4.20473E+00 -4.19313E+00 -4.18219E+00 -4.17162E+00 -4.16107E+00 -4.15050E+00 -4.13988E+00 -4.12922E+00 -4.11851E+00 -4.10778E+00
  -4.09710E+00 -4.08662E+00 -4.07658E+00 -4.06726E+00 -4.05868E+00 -4.05063E+00 -4.04286E+00 -4.03525E+00 -4.02779E+00 -4.02026E+00
  -4.01273E+00 -4.00552E+00 -3.99884E+00 -3.99270E+00 -3.98654E+00 -3.97892E+00 -3.96829E+00 -3.95406E+00 -3.93710E+00 -3.92018E+00
  -3.90636E+00 -3.89917E+00 -3.90190E+00 -3.91406E+00 -3.93079E+00 -3.94640E+00 -3.95391E+00 -3.94558E+00 -3.91810E+00 -3.87475E+00
  -3.82188E+00 -3.76820E+00 -3.72242E+00 -3.69269E+00 -3.68670E+00 -3.71507E+00 -3.77476E+00 -3.85009E+00 -3.92072E+00 -3.96276E+00
  -3.95858E+00 -3.90064E+00 -3.79848E+00 -3.67428E+00 -3.55375E+00 -3.46216E+00 -3.42755E+00 -3.47037E+00 -3.57093E+00 -3.69615E+00
  -3.82160E+00 -3.92106E+00 -3.96208E+00 -3.92461E+00 -3.83843E+00 -3.73729E+00 -3.63656E+00 -3.54504E+00 -3.47491E+00 -3.44262E+00
  -3.44580E+00 -3.46229E+00 -3.47451E+00 -3.47929E+00 -3.47375E+00 -3.45568E+00 -3.42352E+00 -3.38367E+00 -3.35386E+00 -3.34081E+00
  -3.33810E+00 -3.33916E+00 -3.34051E+00 -3.33839E+00 -3.32532E+00 -3.30133E+00 -3.27209E+00 -3.23992E+00 -3.20137E+00 -3.15763E+00
  -3.11574E+00 -3.06931E+00 -3.01728E+00 -2.96699E+00 -2.92396E+00 -2.88453E+00 -2.84574E+00 -2.80586E+00 -2.76020E+00 -2.70477E+00
  -2.64001E+00 -2.57028E+00 -2.49744E+00 -2.42334E+00 -2.35066E+00 -2.28305E+00 -2.21901E+00 -2.15401E+00 -2.08465E+00 -2.00909E+00
  -1.92448E+00 -1.82777E+00 -1.72103E+00 -1.60712E+00 -1.48571E+00 -1.35790E+00 -1.22381E+00 -1.08269E+00 -9.34105E-01 -7.77243E-01
  -6.08643E-01 -4.24378E-01 -2.22285E-01 -7.13634E-04  2.42656E-01  5.10912E-01  8.07513E-01  1.13602E+00  1.50082E+00  1.90753E+00
   2.36219E+00  2.87120E+00  3.44142E+00  4.07994E+00  4.79384E+00  5.58985E+00  6.47415E+00  7.45197E+00  8.52699E+00  9.70084E+00
   1.09727E+01  1.23389E+01  1.37922E+01  1.53219E+01  1.69138E+01  1.85500E+01  2.02095E+01  2.18688E+01  2.35026E+01  2.50849E+01
   2.65904E+01  2.79952E+01  2.92786E+01  3.04239E+01  3.14196E+01  3.22602E+01  3.29466E+01  3.34862E+01  3.38929E+01  3.41872E+01
   3.43958E+01  3.45546E+01  3.47126E+01  3.48892E+01  3.50657E+01  3.52255E+01  3.53493E+01  3.54372E+01  3.55433E+01  3.57428E+01
   3.61022E+01  3.66796E+01  3.75064E+01  3.86270E+01  4.00633E+01  4.16971E+01  4.33768E+01  4.50669E+01  4.67770E+01  4.85098E+01
   5.02390E+01  5.19371E+01  5.36491E+01  5.54359E+01  5.72669E+01  5.91120E+01  6.09511E+01  6.27668E+01  6.45431E+01  6.62641E+01
   6.79142E+01  6.94779E+01  7.09400E+01  7.22860E+01  7.35018E+01  7.45744E+01  7.54923E+01  7.62456E+01  7.68263E+01  7.72289E+01
   7.74502E+01  7.74900E+01  7.73509E+01  7.70384E+01  7.65609E+01  7.59297E+01  7.51582E+01  7.42621E+01  7.32586E+01  7.21660E+01
   7.10030E+01  6.97877E+01  6.85375E+01  6.72683E+01  6.59934E+01  6.47239E+01  6.34676E+01  6.22294E+01  6.10111E+01  5.98114E+01
   5.86270E+01  5.74523E+01  5.62805E+01  5.51042E+01  5.39163E+01  5.27103E+01  5.14812E+01  5.02260E+01  4.89437E+01  4.76357E+01
   4.63054E+01  4.49585E+01  4.36020E+01  4.22442E+01  4.08941E+01  3.95606E+01  3.82522E+01  3.69766E+01  3.57401E+01  3.45475E+01
   3.34019E+01  3.23046E+01  3.12556E+01  3.02529E+01  2.92936E+01  2.83737E+01  2.74884E+01  2.66326E+01  2.58011E+01  2.49886E+01
   2.41904E+01  2.34021E+01  2.26201E+01  2.18413E+01  2.10635E+01  2.02852E+01  1.95057E+01  1.87247E+01  1.79427E+01  1.71607E+01
   1.63799E+01  1.56021E+01  1.48291E+01  1.40627E+01  1.33050E+01  1.25580E+01  1.18234E+01  1.11029E+01  1.03982E+01  9.71043E+00
   9.04083E+00  8.39025E+00  7.75938E+00  7.14868E+00  6.55843E+00  5.98871E+00  5.43949E+00  4.91053E+00  4.40152E+00  3.91203E+00
   3.44157E+00  2.98955E+00  2.55536E+00  2.13834E+00  1.73781E+00  1.35308E+00  9.83466E-01  6.28275E-01  2.86829E-01 -4.15333E-02
  -3.57454E-01 -6.61553E-01 -9.54427E-01 -1.23665E+00 -1.50877E+00 -1.77130E+00 -2.02473E+00 -2.26954E+00 -2.50616E+00 -2.73502E+00
  -2.95650E+00 -3.17100E+00 -3.37885E+00 -3.58038E+00 -3.77592E+00 -3.96576E+00 -4.15017E+00 -4.32943E+00 -4.50376E+00 -4.67342E+00
  -4.83860E+00 -4.99954E+00 -5.15641E+00 -5.30941E+00 -5.45870E+00 -5.60446E+00 -5.74683E+00 -5.88596E+00 -6.02200E+00 -6.15507E+00
  -6.28529E+00 -6.41279E+00 -6.53766E+00 -6.66003E+00 -6.77999E+00 -6.89763E+00 -7.01305E+00 -7.12632E+00 -7.23754E+00 -7.34677E+00
  -7.45409E+00 -7.55957E+00 -7.66327E+00 -7.76526E+00 -7.86560E+00 -7.96434E+00 -8.06155E+00 -8.15726E+00
 NY background values follow
    -8.010E+00   -7.980E+00   -7.950E+00   -7.920E+00   -7.891E+00   -7.861E+00   -7.831E+00   -7.801E+00   -7.771E+00   -7.741E+00
    -7.711E+00   -7.681E+00   -7.651E+00   -7.622E+00   -7.592E+00   -7.562E+00   -7.532E+00   -7.502E+00   -7.472E+00   -7.443E+00
    -7.413E+00   -7.383E+00   -7.354E+00   -7.324E+00   -7.295E+00   -7.265E+00   -7.236E+00   -7.206E+00   -7.177E+00   -7.148E+00
    -7.118E+00   -7.089E+00   -7.060E+00   -7.031E+00   -7.002E+00   -6.973E+00   -6.945E+00   -6.916E+00   -6.887E+00   -6.859E+00
    -6.830E+00   -6.802E+00   -6.774E+00   -6.745E+00   -6.717E+00   -6.689E+00   -6.662E+00   -6.634E+00   -6.606E+00   -6.579E+00
    -6.551E+00   -6.524E+00   -6.497E+00   -6.470E+00   -6.443E+00   -6.416E+00   -6.390E+00   -6.363E+00   -6.337E+00   -6.310E+00
    -6.284E+00   -6.258E+00   -6.232E+00   -6.207E+00   -6.181E+00   -6.156E+00   -6.130E+00   -6.105E+00   -6.080E+00   -6.055E+00
    -6.031E+00   -6.006E+00   -5.982E+00   -5.957E+00   -5.933E+00   -5.909E+00   -5.885E+00   -5.862E+00   -5.838E+00   -5.815E+00
    -5.792E+00   -5.769E+00   -5.746E+00   -5.723E+00   -5.701E+00   -5.679E+00   -5.657E+00   -5.635E+00   -5.613E+00   -5.591E+00
    -5.570E+00   -5.549E+00   -5.528E+00   -5.507E+00   -5.486E+00   -5.466E+00   -5.446E+00   -5.425E+00   -5.406E+00   -5.386E+00
    -5.366E+00   -5.347E+00   -5.328E+00   -5.309E+00   -5.290E+00   -5.272E+00   -5.253E+00   -5.235E+00   -5.217E+00   -5.200E+00
    -5.182E+00   -5.165E+00   -5.147E+00   -5.131E+00   -5.114E+00   -5.097E+00   -5.081E+00   -5.065E+00   -5.049E+00   -5.033E+00
    -5.017E+00   -5.002E+00   -4.987E+00   -4.972E+00   -4.957E+00   -4.943E+00   -4.929E+00   -4.915E+00   -4.901E+00   -4.887E+00
    -4.874E+00   -4.860E+00   -4.847E+00   -4.835E+00   -4.822E+00   -4.810E+00   -4.797E+00   -4.786E+00   -4.774E+00   -4.762E+00
    -4.751E+00   -4.740E+00   -4.729E+00   -4.719E+00   -4.708E+00   -4.698E+00   -4.688E+00   -4.679E+00   -4.669E+00   -4.660E+00
    -4.651E+00   -4.643E+00   -4.634E+00   -4.626E+00   -4.618E+00   -4.611E+00   -4.604E+00   -4.597E+00   -4.590E+00   -4.583E+00
    -4.577E+00   -4.571E+00   -4.566E+00   -4.560E+00   -4.555E+00   -4.550E+00   -4.546E+00   -4.542E+00   -4.538E+00   -4.534E+00
    -4.531E+00   -4.528E+00   -4.525E+00   -4.523E+00   -4.521E+00   -4.519E+00   -4.517E+00   -4.516E+00   -4.516E+00   -4.515E+00
    -4.515E+00   -4.515E+00   -4.516E+00   -4.517E+00   -4.518E+00   -4.519E+00   -4.521E+00   -4.523E+00   -4.526E+00   -4.528E+00
    -4.531E+00   -4.535E+00   -4.538E+00   -4.542E+00   -4.547E+00   -4.551E+00   -4.556E+00   -4.561E+00   -4.566E+00   -4.572E+00
    -4.578E+00   -4.584E+00   -4.591E+00   -4.597E+00   -4.604E+00   -4.611E+00   -4.619E+00   -4.627E+00   -4.635E+00   -4.643E+00
    -4.651E+00   -4.660E+00   -4.669E+00   -4.678E+00   -4.687E+00   -4.697E+00   -4.707E+00   -4.717E+00   -4.727E+00   -4.738E+00
    -4.748E+00   -4.759E+00   -4.770E+00   -4.781E+00   -4.793E+00   -4.804E+00   -4.816E+00   -4.828E+00   -4.840E+00   -4.853E+00
    -4.865E+00   -4.878E+00   -4.891E+00   -4.904E+00   -4.917E+00   -4.931E+00   -4.944E+00   -4.958E+00   -4.972E+00   -4.986E+00
    -5.000E+00   -5.015E+00   -5.029E+00   -5.044E+00   -5.059E+00   -5.074E+00   -5.089E+00   -5.104E+00   -5.119E+00   -5.135E+00
    -5.151E+00   -5.166E+00   -5.182E+00   -5.199E+00   -5.215E+00   -5.231E+00   -5.248E+00   -5.264E+00   -5.281E+00   -5.298E+00
    -5.315E+00   -5.332E+00   -5.349E+00   -5.367E+00   -5.384E+00   -5.402E+00   -5.419E+00   -5.437E+00   -5.455E+00   -5.473E+00
    -5.491E+00   -5.510E+00   -5.528E+00   -5.546E+00   -5.565E+00   -5.584E+00   -5.602E+00   -5.621E+00   -5.640E+00   -5.659E+00
    -5.678E+00   -5.698E+00   -5.717E+00   -5.736E+00   -5.756E+00   -5.776E+00   -5.795E+00   -5.815E+00   -5.835E+00   -5.855E+00
    -5.876E+00   -5.896E+00   -5.916E+00   -5.937E+00   -5.958E+00   -5.979E+00   -5.999E+00   -6.020E+00   -6.042E+00   -6.063E+00
    -6.084E+00   -6.106E+00   -6.127E+00   -6.149E+00   -6.171E+00   -6.193E+00   -6.215E+00   -6.237E+00   -6.259E+00   -6.282E+00
    -6.304E+00   -6.327E+00   -6.350E+00   -6.373E+00   -6.396E+00   -6.419E+00   -6.442E+00   -6.466E+00   -6.489E+00   -6.513E+00
    -6.537E+00   -6.561E+00   -6.585E+00   -6.609E+00   -6.633E+00   -6.658E+00   -6.682E+00   -6.707E+00   -6.731E+00   -6.756E+00
    -6.781E+00   -6.806E+00   -6.832E+00   -6.857E+00   -6.883E+00   -6.908E+00   -6.934E+00   -6.960E+00   -6.986E+00   -7.012E+00
    -7.038E+00   -7.064E+00   -7.090E+00   -7.117E+00   -7.143E+00   -7.170E+00   -7.197E+00   -7.224E+00   -7.251E+00   -7.278E+00
    -7.305E+00   -7.333E+00   -7.360E+00   -7.388E+00   -7.415E+00   -7.443E+00   -7.471E+00   -7.499E+00   -7.527E+00   -7.555E+00
    -7.583E+00   -7.612E+00   -7.640E+00   -7.669E+00   -7.698E+00   -7.726E+00   -7.755E+00   -7.784E+00   -7.813E+00   -7.842E+00
    -7.872E+00   -7.901E+00   -7.930E+00   -7.960E+00   -7.989E+00   -8.019E+00   -8.049E+00   -8.079E+00   -8.109E+00   -8.139E+00
    -8.169E+00   -8.199E+00   -8.230E+00   -8.260E+00   -8.291E+00   -8.321E+00   -8.352E+00   -8.383E+00   -8.414E+00   -8.445E+00
    -8.476E+00   -8.507E+00   -8.538E+00   -8.570E+00   -8.601E+00   -8.633E+00   -8.664E+00   -8.696E+00   -8.728E+00   -8.760E+00
    -8.792E+00   -8.824E+00   -8.856E+00   -8.888E+00   -8.920E+00   -8.953E+00   -8.985E+00   -9.018E+00   -9.050E+00   -9.083E+00
    -9.116E+00   -9.149E+00   -9.182E+00   -9.215E+00   -9.248E+00   -9.281E+00   -9.314E+00   -9.347E+00   -9.381E+00   -9.414E+00
    -9.448E+00   -9.482E+00   -9.515E+00   -9.549E+00   -9.583E+00   -9.617E+00   -9.651E+00   -9.685E+00   -9.719E+00   -9.753E+00
    -9.788E+00   -9.822E+00   -9.857E+00   -9.891E+00   -9.926E+00   -9.961E+00   -9.995E+00   -1.003E+01   -1.007E+01   -1.010E+01
    -1.014E+01   -1.017E+01   -1.021E+01   -1.024E+01   -1.028E+01   -1.031E+01   -1.035E+01   -1.038E+01   -1.042E+01   -1.045E+01
    -1.049E+01   -1.053E+01   -1.056E+01   -1.060E+01   -1.063E+01   -1.067E+01   -1.071E+01   -1.074E+01   -1.078E+01   -1.081E+01
    -1.085E+01   -1.089E+01   -1.092E+01   -1.096E+01   -1.100E+01   -1.103E+01   -1.107E+01   -1.111E+01   -1.114E+01   -1.118E+01
    -1.122E+01   -1.125E+01   -1.129E+01   -1.133E+01   -1.136E+01   -1.140E+01   -1.144E+01   -1.147E+01   -1.151E+01   -1.155E+01
    -1.159E+01   -1.162E+01   -1.166E+01   -1.170E+01   -1.173E+01   -1.177E+01   -1.181E+01   -1.184E+01   -1.188E+01   -1.192E+01
    -1.196E+01   -1.199E+01   -1.203E+01   -1.207E+01   -1.210E+01   -1.214E+01   -1.218E+01   -1.221E+01
 Ala      Conc. = 5.44E+01
