 LCModel (Version 6.3-1L) Copyright: S.W. Provencher.          Ref.: Magn. Reson. Med. 30:672-679 (1993).                
 Slice#2 Row#3 Col#5  K_02_press_1_raw_act
 36 lines in following concentration table = NCONC+1
    Conc.  %SD /Cr+PCr  Metabolite                                         
  610.620  23%   0.325 Ala                                                 
    0.000 999%   0.000 Asp                                                 
  424.859  59%   0.226 Cr                                                  
 1.46E+03  18%   0.774 PCr                                                 
    0.000 999%   0.000 GABA                                                
    0.000 999%   0.000 Glc                                                 
  605.109  45%   0.322 Gln                                                 
 1.75E+03  17%   0.931 Glu                                                 
  704.444   3%   0.375 GPC                                                 
    0.000 999%   0.000 PCh                                                 
  733.912  11%   0.390 GSH                                                 
 1.95E+03  13%   1.034 Ins                                                 
    0.000 999%   0.000 Lac                                                 
 2.62E+03   6%   1.391 NAA                                                 
   49.383 340% 2.6E-02 NAAG                                                
  138.619  21% 7.4E-02 Scyllo                                              
    0.000 999%   0.000 Tau                                                 
  161.235  67% 8.6E-02 -CrCH2                                              
  704.444   3%   0.375 GPC+PCh                                             
 2.66E+03   4%   1.417 NAA+NAAG                                            
 1.88E+03   3%   1.000 Cr+PCr                                              
 2.36E+03  19%   1.252 Glu+Gln                                             
 2.82E+03  25%   1.501 Lip13a                                              
    0.000 999%   0.000 Lip13b                                              
  203.161 151%   0.108 Lip09                                               
 1.40E+03  23%   0.745 MM09                                                
  378.806  56%   0.201 Lip20                                               
 2.85E+03  13%   1.517 MM20                                                
  432.180  43%   0.230 MM12                                                
 3.23E+03  16%   1.716 MM14                                                
  812.411  29%   0.432 MM17                                                
 2.82E+03  25%   1.501 Lip13a+Lip13b                                       
 6.48E+03   6%   3.447 MM14+Lip13a+Lip13b+MM12                             
 1.60E+03  11%   0.853 MM09+Lip09                                          
 3.23E+03  11%   1.719 MM20+Lip20                                          
   6 lines in following misc. output table
  FWHM = 0.061 ppm    S/N =  13                                            
  Data shift = 0.038 ppm                                                   
  Ph: -12 deg     -11.7 deg/ppm                                            
  alphaB,S = 8.5E+01,   2.0E+02                                            
   14 spline knots.   Ns = 8(1)                                            
   2 inflections.     1 extrema                                            
  498 points on ppm-axis = NY
      4.000000     3.992357     3.984714     3.977070     3.969427     3.961784     3.954141     3.946497     3.938854     3.931211
      3.923568     3.915925     3.908281     3.900638     3.892995     3.885352     3.877708     3.870065     3.862422     3.854779
      3.847136     3.839492     3.831849     3.824206     3.816563     3.808919     3.801276     3.793633     3.785990     3.778347
      3.770703     3.763060     3.755417     3.747774     3.740130     3.732487     3.724844     3.717201     3.709558     3.701914
      3.694271     3.686628     3.678985     3.671341     3.663698     3.656055     3.648412     3.640769     3.633125     3.625482
      3.617839     3.610196     3.602552     3.594909     3.587266     3.579623     3.571980     3.564336     3.556693     3.549050
      3.541407     3.533763     3.526120     3.518477     3.510834     3.503191     3.495547     3.487904     3.480261     3.472618
      3.464974     3.457331     3.449688     3.442045     3.434402     3.426758     3.419115     3.411472     3.403829     3.396185
      3.388542     3.380899     3.373256     3.365613     3.357969     3.350326     3.342683     3.335040     3.327396     3.319753
      3.312110     3.304467     3.296824     3.289180     3.281537     3.273894     3.266251     3.258607     3.250964     3.243321
      3.235678     3.228034     3.220391     3.212748     3.205105     3.197462     3.189818     3.182175     3.174532     3.166889
      3.159245     3.151602     3.143959     3.136316     3.128673     3.121029     3.113386     3.105743     3.098100     3.090456
      3.082813     3.075170     3.067527     3.059884     3.052240     3.044597     3.036954     3.029311     3.021667     3.014024
      3.006381     2.998738     2.991095     2.983451     2.975808     2.968165     2.960522     2.952878     2.945235     2.937592
      2.929949     2.922306     2.914662     2.907019     2.899376     2.891733     2.884089     2.876446     2.868803     2.861160
      2.853517     2.845873     2.838230     2.830587     2.822944     2.815300     2.807657     2.800014     2.792371     2.784728
      2.777084     2.769441     2.761798     2.754155     2.746511     2.738868     2.731225     2.723582     2.715939     2.708295
      2.700652     2.693009     2.685366     2.677722     2.670079     2.662436     2.654793     2.647150     2.639506     2.631863
      2.624220     2.616577     2.608933     2.601290     2.593647     2.586004     2.578361     2.570717     2.563074     2.555431
      2.547788     2.540144     2.532501     2.524858     2.517215     2.509572     2.501928     2.494285     2.486642     2.478999
      2.471355     2.463712     2.456069     2.448426     2.440783     2.433139     2.425496     2.417853     2.410210     2.402566
      2.394923     2.387280     2.379637     2.371994     2.364350     2.356707     2.349064     2.341421     2.333777     2.326134
      2.318491     2.310848     2.303205     2.295561     2.287918     2.280275     2.272632     2.264988     2.257345     2.249702
      2.242059     2.234416     2.226772     2.219129     2.211486     2.203843     2.196199     2.188556     2.180913     2.173270
      2.165627     2.157983     2.150340     2.142697     2.135054     2.127410     2.119767     2.112124     2.104481     2.096838
      2.089194     2.081551     2.073908     2.066265     2.058621     2.050978     2.043335     2.035692     2.028049     2.020405
      2.012762     2.005119     1.997476     1.989833     1.982190     1.974546     1.966903     1.959260     1.951617     1.943974
      1.936331     1.928688     1.921045     1.913402     1.905759     1.898115     1.890472     1.882829     1.875186     1.867543
      1.859900     1.852257     1.844614     1.836971     1.829327     1.821684     1.814041     1.806398     1.798755     1.791112
      1.783469     1.775826     1.768183     1.760540     1.752896     1.745253     1.737610     1.729967     1.722324     1.714681
      1.707038     1.699395     1.691752     1.684108     1.676465     1.668822     1.661179     1.653536     1.645893     1.638250
      1.630607     1.622964     1.615321     1.607677     1.600034     1.592391     1.584748     1.577105     1.569462     1.561819
      1.554176     1.546533     1.538890     1.531246     1.523603     1.515960     1.508317     1.500674     1.493031     1.485388
      1.477745     1.470102     1.462458     1.454815     1.447172     1.439529     1.431886     1.424243     1.416600     1.408957
      1.401314     1.393671     1.386027     1.378384     1.370741     1.363098     1.355455     1.347812     1.340169     1.332526
      1.324883     1.317240     1.309596     1.301953     1.294310     1.286667     1.279024     1.271381     1.263738     1.256095
      1.248452     1.240808     1.233165     1.225522     1.217879     1.210236     1.202593     1.194950     1.187307     1.179664
      1.172021     1.164377     1.156734     1.149091     1.141448     1.133805     1.126162     1.118519     1.110876     1.103233
      1.095590     1.087946     1.080303     1.072660     1.065017     1.057374     1.049731     1.042088     1.034445     1.026802
      1.019158     1.011515     1.003872     0.996229     0.988586     0.980943     0.973300     0.965657     0.958014     0.950371
      0.942727     0.935084     0.927441     0.919798     0.912155     0.904512     0.896869     0.889226     0.881583     0.873940
      0.866296     0.858653     0.851010     0.843367     0.835724     0.828081     0.820438     0.812795     0.805152     0.797508
      0.789865     0.782222     0.774579     0.766936     0.759293     0.751650     0.744007     0.736364     0.728721     0.721077
      0.713434     0.705791     0.698148     0.690505     0.682862     0.675219     0.667576     0.659933     0.652290     0.644646
      0.637003     0.629360     0.621717     0.614074     0.606431     0.598788     0.591145     0.583502     0.575858     0.568215
      0.560572     0.552929     0.545286     0.537643     0.530000     0.522357     0.514714     0.507071     0.499427     0.491784
      0.484141     0.476498     0.468855     0.461212     0.453569     0.445925     0.438282     0.430639     0.422996     0.415353
      0.407710     0.400067     0.392424     0.384780     0.377137     0.369494     0.361851     0.354208     0.346565     0.338922
      0.331278     0.323635     0.315992     0.308349     0.300706     0.293063     0.285420     0.277777     0.270133     0.262490
      0.254847     0.247204     0.239561     0.231918     0.224275     0.216631     0.208988     0.201345
 NY phased data points follow
  -3.28195E+00  1.45631E+00 -1.18881E+00  1.92073E+00  6.26671E+00  1.20779E+01  1.90966E+01  2.69337E+01  3.05114E+01  3.14879E+01
   3.07453E+01  2.97759E+01  2.20612E+01  1.53736E+01  1.41276E+01  6.36343E+00  5.94140E+00  2.85895E+00  2.08808E-01 -7.48228E-01
  -1.48062E+00 -6.94194E-01 -1.19061E+00  2.85402E+00  5.60542E+00  1.37576E+00  5.32673E+00  1.21612E+01  1.23176E+01  8.69530E+00
   1.00427E+01  1.07255E+01  7.52695E+00  7.70782E+00  7.33024E+00  7.38952E+00  6.52119E+00  7.13369E+00  7.02047E+00  8.37089E+00
   6.76063E+00  7.00445E+00  9.17931E+00  4.47629E+00  1.36393E+01  1.46528E+01  1.10330E+01  1.41658E+01  7.77932E+00  8.81419E+00
   8.36616E+00  4.91267E+00  3.43285E+00 -1.01174E+00  9.83416E-01  4.44450E+00  2.96865E+00  2.37256E+00  8.76959E+00 -6.61780E-01
  -1.40563E+00 -1.75592E+00 -2.66842E+00 -8.45356E+00 -5.05753E+00 -8.53765E+00 -5.73691E+00 -2.93144E+00 -9.02793E+00 -1.15040E+00
  -4.90768E+00  6.16533E-01 -2.12393E+00  9.10752E-01 -8.09725E-01 -3.62962E+00 -6.44115E-01 -1.83682E+00 -3.85216E+00 -1.05035E+00
  -6.77014E-01 -1.19636E+00  9.41310E-03  1.48563E+00  7.99913E-01 -4.45433E+00 -3.44692E+00 -1.82837E+00 -1.15323E+00  3.75756E-01
   3.48955E+00  3.77570E+00  6.00226E+00  8.19733E+00  6.74743E+00  6.47294E+00  9.72480E+00  1.45880E+01  2.63972E+01  2.56916E+01
   4.10400E+01  5.18533E+01  5.34970E+01  5.05805E+01  4.43139E+01  3.56334E+01  2.99237E+01  2.38259E+01  1.46035E+01  9.33083E+00
   9.85884E+00  5.54440E+00  4.73799E+00  2.06269E+00  4.70196E+00  4.46214E+00  5.65196E+00  3.52494E+00  6.42330E+00  8.73828E+00
   8.82948E+00  1.15112E+01  1.97170E+01  3.02185E+01  4.87500E+01  5.16281E+01  5.33092E+01  5.18343E+01  4.57460E+01  4.39693E+01
   3.54008E+01  2.70250E+01  1.97972E+01  1.01205E+01  1.38413E+01  6.28103E+00  3.12484E+00  2.16668E+00  2.95347E+00  4.77630E+00
   7.37090E+00 -9.22251E-01  1.14465E-01  1.47802E+00  6.76893E+00  1.48699E+00  1.44857E+00  6.53782E-01 -5.96940E-01  3.90746E+00
   5.84623E+00  3.47886E+00 -1.29701E+00 -3.35005E+00 -1.27301E+00 -7.33587E-02  7.17006E+00  1.15880E+00 -6.27350E+00 -2.36339E+00
  -4.79796E+00 -6.57059E+00 -2.04130E+00  1.44911E+00 -7.56616E-02 -1.10837E+00  1.81396E+00 -2.23399E+00 -5.56486E+00 -6.49237E+00
  -4.86217E+00 -1.00023E+01 -1.11821E+01 -1.16347E+01 -1.33819E+01 -9.48926E+00 -9.12098E+00 -1.18323E+01 -1.39635E+01 -9.02532E+00
  -1.10283E+01 -1.22302E+01 -1.22764E+01 -1.54349E+01 -8.36444E+00 -1.11108E+01 -8.67038E+00 -9.40709E+00 -3.13389E+00 -4.15186E+00
   3.12303E+00  3.02606E+00  2.45333E+00  1.13662E+00  2.97799E+00  3.83687E+00 -5.69172E+00 -1.37780E+00 -2.77569E+00  1.87885E+00
  -5.23750E+00  3.26655E+00  3.88797E-01  3.13050E+00  4.27184E+00  3.63900E+00  1.47261E+00 -1.44744E+00 -4.26858E+00 -4.10024E+00
  -2.05987E+00  4.02577E+00  5.05111E+00  6.99989E+00  5.56735E+00  1.14725E+01  5.24020E+00  1.01386E+01  3.76226E+00  4.04881E+00
  -2.05177E+00 -2.36532E+00 -3.80033E+00 -7.28898E+00  5.36717E-01  2.78125E+00  9.51958E+00  5.66945E+00  7.89698E+00  7.82336E+00
   7.21406E+00  6.39370E+00  4.44532E+00  3.86758E+00  6.16375E+00  2.95096E+00  9.82674E+00  6.97669E+00  1.10038E+01  5.87234E+00
   4.45798E+00  4.96726E+00  4.61269E+00  1.00638E+01  7.35892E+00  9.11039E+00  1.03973E+01  1.16600E+01  1.63708E+01  1.86311E+01
   1.84159E+01  2.32209E+01  2.97486E+01  2.70614E+01  3.12919E+01  3.52977E+01  5.04888E+01  6.81721E+01  8.39016E+01  9.09683E+01
   8.87731E+01  8.60183E+01  7.01229E+01  5.53085E+01  5.26065E+01  3.71898E+01  3.02349E+01  2.32253E+01  1.77605E+01  1.34504E+01
   1.21817E+01  1.17641E+01  1.17331E+01  7.74405E+00  6.24838E+00  7.98768E+00  5.96818E+00  5.67673E+00  3.10326E+00  8.64170E+00
   7.25789E+00  4.25094E+00  2.33546E+00  3.36911E+00  1.92747E+00  7.16606E+00  4.93788E+00  6.69814E+00  8.88906E+00  8.03740E+00
   3.76288E+00  5.83948E+00  5.19553E+00  3.32168E+00  6.41139E+00  5.97725E+00  7.67160E+00  4.73895E+00  2.10419E+00  5.71658E+00
   8.13818E+00  7.00335E+00  7.12897E+00  1.01145E+01  1.13749E+01  8.41695E+00  3.11365E+00  9.36846E+00  4.99413E+00  8.94262E+00
   1.09121E+01  6.87502E+00  8.17507E+00  1.15473E+01  1.20471E+01  7.00817E+00  1.32114E+01  1.44803E+01  1.52949E+01  1.60100E+01
   1.57075E+01  1.85046E+01  1.58602E+01  1.63436E+01  1.55480E+01  1.63570E+01  1.62851E+01  1.95119E+01  1.76894E+01  1.94815E+01
   1.72828E+01  1.49071E+01  1.73672E+01  2.25656E+01  2.62942E+01  2.73022E+01  2.88810E+01  3.11964E+01  3.03381E+01  3.58803E+01
   3.41857E+01  2.97104E+01  3.29405E+01  3.66824E+01  3.91958E+01  3.13234E+01  2.85517E+01  3.02245E+01  3.18910E+01  2.80120E+01
   2.66073E+01  3.06621E+01  3.12702E+01  2.84104E+01  2.54454E+01  2.67187E+01  2.60223E+01  2.10717E+01  2.03606E+01  1.71114E+01
   2.31742E+01  1.86921E+01  1.54589E+01  2.02083E+01  1.34615E+01  2.05373E+01  1.49341E+01  1.67892E+01  1.58423E+01  1.04275E+01
   1.14475E+01  1.68358E+01  9.47868E+00  1.52440E+01  9.02309E+00  7.88686E+00  1.36833E+01  1.07240E+01  8.83454E+00  1.01046E+01
   9.85481E+00  8.83155E+00  8.01652E+00  8.52838E+00  1.22671E+01  9.76211E+00  9.86921E+00  1.34826E+01  1.18345E+01  1.31628E+01
   9.47709E+00  1.06327E+01  1.17880E+01  1.12570E+01  1.06123E+01  1.48381E+01  1.04343E+01  1.74385E+01  1.14677E+01  1.03799E+01
   1.29278E+01  1.66317E+01  1.21131E+01  1.41682E+01  1.09808E+01  1.18795E+01  1.69858E+01  1.81693E+01  1.34448E+01  1.43162E+01
   1.81933E+01  1.64779E+01  9.34668E+00  1.34402E+01  1.42431E+01  1.45282E+01  8.97575E+00  1.21750E+01  1.04989E+01  7.72441E+00
   6.41936E+00  1.08298E+01  1.16648E+01  4.54736E+00  1.32364E+01  6.59300E+00  7.16513E+00  1.00919E+01  9.15950E+00  5.35823E+00
   6.13942E+00  8.93042E+00  5.61614E+00  5.03793E+00  7.44434E+00  1.34490E+00  8.97785E+00  3.24395E+00  6.23547E+00  7.34779E+00
   6.37729E+00  8.63441E+00  7.09947E+00  1.04193E+01  3.02528E+00  7.18726E+00  7.81235E+00  7.33761E+00  8.56393E+00  6.97951E+00
   6.82745E+00  5.54550E+00  4.28482E+00  9.43600E+00  5.90398E+00  1.30163E+01  8.11337E+00  6.22450E+00  5.89703E+00  4.34284E+00
   8.67506E+00  3.25035E+00  4.59678E+00  6.05298E+00  6.13835E+00  7.95900E+00  6.18762E+00  5.71024E+00  9.92241E+00  6.79381E+00
   8.25631E+00  8.34603E+00  6.46688E+00  7.20744E+00  6.32522E+00  4.31346E+00  8.71408E+00  7.86930E+00  7.64739E+00  7.90113E+00
   8.16253E+00  8.02961E+00  7.50910E+00  3.80766E+00  6.41847E+00  4.43715E+00  5.84352E+00  4.69069E+00  7.70602E+00  6.89766E+00
   8.27633E+00  5.82753E+00  1.02448E+01  2.01835E+00  4.57146E+00  6.07740E+00  5.24027E+00  6.09355E+00
 NY points of the fit to the data follow
  -1.82330E+00 -5.91720E-01  1.48778E+00  4.43963E+00  8.57788E+00  1.40563E+01  2.02615E+01  2.58780E+01  2.96145E+01  3.07762E+01
   2.94059E+01  2.62003E+01  2.20883E+01  1.77761E+01  1.37304E+01  1.02114E+01  7.19900E+00  4.61475E+00  2.58037E+00  1.36039E+00
   5.41156E-01  2.28022E-01  6.17431E-01  1.06333E+00  1.50489E+00  2.48761E+00  4.45595E+00  7.16281E+00  9.84493E+00  1.19652E+01
   1.31800E+01  1.33492E+01  1.26119E+01  1.11417E+01  9.15772E+00  6.96884E+00  4.81160E+00  2.95170E+00  1.67928E+00  1.29236E+00
   1.83182E+00  2.93226E+00  4.62871E+00  6.90405E+00  9.31254E+00  1.10686E+01  1.15932E+01  1.08766E+01  9.18789E+00  6.94775E+00
   4.69964E+00  2.82525E+00  1.47979E+00  7.16415E-01  3.58015E-01  3.03719E-01  6.17952E-01  1.20645E+00  1.70339E+00  1.78232E+00
   1.37601E+00  6.23760E-01 -2.40952E-01 -9.29170E-01 -1.32011E+00 -1.40142E+00 -1.22017E+00 -8.78639E-01 -4.48487E-01 -2.09916E-02
   2.79973E-01  4.08729E-01  3.48327E-01  1.43282E-01 -1.42662E-01 -4.61106E-01 -7.66669E-01 -1.03254E+00 -1.24837E+00 -1.23934E+00
  -1.17116E+00 -1.10812E+00 -9.15976E-01 -5.19769E-01 -9.05634E-03  4.07168E-01  5.42041E-01  3.92614E-01  8.33031E-02 -2.88264E-01
  -5.94926E-01 -7.69682E-01 -8.06902E-01 -5.23023E-01  1.11757E+00  4.57059E+00  8.53244E+00  1.37929E+01  2.16885E+01  3.20231E+01
   4.25764E+01  5.02948E+01  5.32196E+01  5.12378E+01  4.55433E+01  3.79031E+01  2.98800E+01  2.23842E+01  1.59533E+01  1.07857E+01
   6.50472E+00  2.71976E+00  8.01827E-02 -9.15246E-01 -1.22953E+00 -1.31678E+00 -1.24642E+00 -8.68157E-01  7.54857E-01  4.56110E+00
   9.01233E+00  1.43369E+01  2.19540E+01  3.20301E+01  4.26563E+01  5.09023E+01  5.46418E+01  5.34964E+01  4.86150E+01  4.17344E+01
   3.42844E+01  2.70467E+01  2.03819E+01  1.45680E+01  9.50537E+00  4.96057E+00  1.72099E+00  6.95752E-01  8.32499E-01  1.35924E+00
   1.91060E+00  2.25727E+00  2.32662E+00  2.22131E+00  2.03192E+00  1.75328E+00  1.40580E+00  1.00630E+00  5.73525E-01  1.48290E-01
  -2.50662E-01 -5.72098E-01 -8.08613E-01 -1.04435E+00 -1.23204E+00 -1.37330E+00 -1.53603E+00 -1.76526E+00 -2.12102E+00 -2.46491E+00
  -2.61515E+00 -2.54182E+00 -2.37185E+00 -2.28480E+00 -2.39492E+00 -2.69933E+00 -3.12851E+00 -3.62984E+00 -4.17440E+00 -4.64828E+00
  -5.01355E+00 -5.43108E+00 -5.95409E+00 -6.52596E+00 -6.89266E+00 -6.91480E+00 -6.77022E+00 -6.67741E+00 -6.70240E+00 -6.82073E+00
  -6.86865E+00 -6.80011E+00 -6.66582E+00 -6.42454E+00 -5.92739E+00 -5.06525E+00 -3.84480E+00 -2.33061E+00 -7.22626E-01  6.43466E-01
   1.44344E+00  1.65985E+00  1.39751E+00  8.08535E-01  9.97651E-02 -4.42405E-01 -5.67782E-01 -2.51620E-01  5.03524E-01  1.58664E+00
   2.79710E+00  3.90612E+00  4.57880E+00  4.71974E+00  4.20675E+00  2.98659E+00  1.39038E+00 -1.78293E-01 -1.28273E+00 -1.70649E+00
  -1.45015E+00 -3.33869E-01  1.59356E+00  3.87106E+00  5.72668E+00  6.52763E+00  6.19622E+00  4.89927E+00  2.78521E+00  2.85711E-01
  -1.95597E+00 -3.20411E+00 -3.15978E+00 -2.11055E+00 -4.70000E-01  1.42032E+00  3.28266E+00  4.75575E+00  5.64759E+00  6.22151E+00
   6.72238E+00  7.24701E+00  7.82608E+00  8.45346E+00  9.10928E+00  9.61315E+00  9.78380E+00  9.59381E+00  9.06330E+00  8.29347E+00
   7.61437E+00  7.31795E+00  7.55089E+00  8.32632E+00  9.46583E+00  1.07063E+01  1.18147E+01  1.27473E+01  1.35335E+01  1.42120E+01
   1.49604E+01  1.65340E+01  2.10282E+01  2.73642E+01  3.38929E+01  4.23168E+01  5.42172E+01  6.83802E+01  8.10351E+01  8.83956E+01
   8.88396E+01  8.30742E+01  7.31755E+01  6.15898E+01  5.01090E+01  3.97369E+01  3.11171E+01  2.42144E+01  1.81775E+01  1.28583E+01
   9.78276E+00  8.67041E+00  8.10834E+00  7.72304E+00  7.42829E+00  7.16373E+00  6.87023E+00  6.55959E+00  6.24405E+00  5.94023E+00
   5.66779E+00  5.43553E+00  5.23546E+00  5.06712E+00  4.93879E+00  4.85058E+00  4.79600E+00  4.77112E+00  4.77731E+00  4.81789E+00
   4.89119E+00  4.99104E+00  5.11810E+00  5.27251E+00  5.45188E+00  5.65331E+00  5.87461E+00  6.11346E+00  6.36667E+00  6.63045E+00
   6.90117E+00  7.17417E+00  7.44438E+00  7.70731E+00  7.95925E+00  8.19736E+00  8.42018E+00  8.62799E+00  8.82256E+00  9.00731E+00
   9.18781E+00  9.37152E+00  9.56786E+00  9.78897E+00  1.00496E+01  1.03677E+01  1.07657E+01  1.12762E+01  1.19576E+01  1.29223E+01
   1.40711E+01  1.51484E+01  1.63101E+01  1.76044E+01  1.87426E+01  1.92866E+01  1.89702E+01  1.80417E+01  1.71330E+01  1.64414E+01
   1.61785E+01  1.67028E+01  1.82660E+01  2.08005E+01  2.38595E+01  2.68368E+01  2.93329E+01  3.12877E+01  3.26817E+01  3.34432E+01
   3.37143E+01  3.36564E+01  3.34125E+01  3.30276E+01  3.24355E+01  3.17020E+01  3.10521E+01  3.04563E+01  2.98593E+01  2.92433E+01
   2.86025E+01  2.79354E+01  2.72418E+01  2.65223E+01  2.57775E+01  2.50082E+01  2.42158E+01  2.34020E+01  2.25696E+01  2.17221E+01
   2.08639E+01  2.00004E+01  1.91372E+01  1.82810E+01  1.74382E+01  1.66157E+01  1.58198E+01  1.50565E+01  1.43310E+01  1.36479E+01
   1.30110E+01  1.24232E+01  1.18867E+01  1.14028E+01  1.09723E+01  1.05955E+01  1.02722E+01  1.00021E+01  9.78434E+00  9.61836E+00
   9.50333E+00  9.43856E+00  9.42330E+00  9.45681E+00  9.53825E+00  9.66669E+00  9.84097E+00  1.00596E+01  1.03206E+01  1.06214E+01
   1.09584E+01  1.13275E+01  1.17234E+01  1.21399E+01  1.25697E+01  1.30047E+01  1.34358E+01  1.38535E+01  1.42479E+01  1.46091E+01
   1.49275E+01  1.51944E+01  1.54020E+01  1.55441E+01  1.56161E+01  1.56156E+01  1.55419E+01  1.53965E+01  1.51830E+01  1.49066E+01
   1.45743E+01  1.41941E+01  1.37747E+01  1.33255E+01  1.28559E+01  1.23749E+01  1.18911E+01  1.14122E+01  1.09447E+01  1.04943E+01
   1.00653E+01  9.66106E+00  9.28379E+00  8.93475E+00  8.61430E+00  8.32220E+00  8.05762E+00  7.81933E+00  7.60572E+00  7.41507E+00
   7.24551E+00  7.09525E+00  6.96244E+00  6.84539E+00  6.74240E+00  6.65199E+00  6.57277E+00  6.50355E+00  6.44320E+00  6.39075E+00
   6.34528E+00  6.30605E+00  6.27236E+00  6.24367E+00  6.21942E+00  6.19917E+00  6.18246E+00  6.16898E+00  6.15840E+00  6.15050E+00
   6.14499E+00  6.14165E+00  6.14027E+00  6.14073E+00  6.14286E+00  6.14655E+00  6.15164E+00  6.15802E+00  6.16558E+00  6.17426E+00
   6.18398E+00  6.19468E+00  6.20624E+00  6.21863E+00  6.23178E+00  6.24568E+00  6.26025E+00  6.27548E+00  6.29127E+00  6.30762E+00
   6.32450E+00  6.34190E+00  6.35978E+00  6.37812E+00  6.39685E+00  6.41600E+00  6.43553E+00  6.45545E+00  6.47572E+00  6.49633E+00
   6.51722E+00  6.53845E+00  6.55997E+00  6.58182E+00  6.60392E+00  6.62630E+00  6.64892E+00  6.67183E+00  6.69501E+00  6.71846E+00
   6.74214E+00  6.76608E+00  6.79027E+00  6.81476E+00  6.83952E+00  6.86457E+00  6.88990E+00  6.91555E+00
 NY background values follow
    -7.348E+00   -7.319E+00   -7.291E+00   -7.262E+00   -7.234E+00   -7.205E+00   -7.177E+00   -7.149E+00   -7.120E+00   -7.092E+00
    -7.063E+00   -7.035E+00   -7.006E+00   -6.978E+00   -6.949E+00   -6.921E+00   -6.893E+00   -6.864E+00   -6.836E+00   -6.807E+00
    -6.779E+00   -6.750E+00   -6.722E+00   -6.693E+00   -6.665E+00   -6.636E+00   -6.608E+00   -6.580E+00   -6.551E+00   -6.523E+00
    -6.494E+00   -6.466E+00   -6.437E+00   -6.409E+00   -6.380E+00   -6.352E+00   -6.323E+00   -6.295E+00   -6.267E+00   -6.238E+00
    -6.210E+00   -6.181E+00   -6.153E+00   -6.124E+00   -6.096E+00   -6.067E+00   -6.039E+00   -6.010E+00   -5.982E+00   -5.953E+00
    -5.925E+00   -5.896E+00   -5.868E+00   -5.839E+00   -5.811E+00   -5.782E+00   -5.754E+00   -5.726E+00   -5.697E+00   -5.669E+00
    -5.640E+00   -5.612E+00   -5.583E+00   -5.555E+00   -5.526E+00   -5.498E+00   -5.469E+00   -5.441E+00   -5.412E+00   -5.384E+00
    -5.355E+00   -5.327E+00   -5.298E+00   -5.270E+00   -5.241E+00   -5.213E+00   -5.184E+00   -5.156E+00   -5.127E+00   -5.099E+00
    -5.070E+00   -5.042E+00   -5.013E+00   -4.985E+00   -4.956E+00   -4.928E+00   -4.899E+00   -4.871E+00   -4.842E+00   -4.814E+00
    -4.785E+00   -4.757E+00   -4.728E+00   -4.700E+00   -4.671E+00   -4.643E+00   -4.614E+00   -4.586E+00   -4.557E+00   -4.529E+00
    -4.500E+00   -4.472E+00   -4.443E+00   -4.415E+00   -4.386E+00   -4.358E+00   -4.329E+00   -4.301E+00   -4.272E+00   -4.244E+00
    -4.215E+00   -4.187E+00   -4.158E+00   -4.129E+00   -4.101E+00   -4.072E+00   -4.044E+00   -4.015E+00   -3.987E+00   -3.958E+00
    -3.930E+00   -3.901E+00   -3.873E+00   -3.844E+00   -3.816E+00   -3.787E+00   -3.759E+00   -3.730E+00   -3.702E+00   -3.673E+00
    -3.645E+00   -3.616E+00   -3.587E+00   -3.559E+00   -3.530E+00   -3.502E+00   -3.473E+00   -3.445E+00   -3.416E+00   -3.388E+00
    -3.359E+00   -3.331E+00   -3.302E+00   -3.274E+00   -3.245E+00   -3.217E+00   -3.188E+00   -3.159E+00   -3.131E+00   -3.102E+00
    -3.074E+00   -3.045E+00   -3.017E+00   -2.988E+00   -2.960E+00   -2.931E+00   -2.903E+00   -2.874E+00   -2.846E+00   -2.817E+00
    -2.788E+00   -2.760E+00   -2.731E+00   -2.703E+00   -2.674E+00   -2.646E+00   -2.617E+00   -2.589E+00   -2.560E+00   -2.532E+00
    -2.503E+00   -2.474E+00   -2.446E+00   -2.417E+00   -2.389E+00   -2.360E+00   -2.332E+00   -2.303E+00   -2.275E+00   -2.246E+00
    -2.218E+00   -2.189E+00   -2.160E+00   -2.132E+00   -2.103E+00   -2.075E+00   -2.046E+00   -2.018E+00   -1.989E+00   -1.961E+00
    -1.932E+00   -1.903E+00   -1.875E+00   -1.846E+00   -1.818E+00   -1.789E+00   -1.761E+00   -1.732E+00   -1.703E+00   -1.675E+00
    -1.646E+00   -1.618E+00   -1.589E+00   -1.561E+00   -1.532E+00   -1.504E+00   -1.475E+00   -1.446E+00   -1.418E+00   -1.389E+00
    -1.361E+00   -1.332E+00   -1.304E+00   -1.275E+00   -1.246E+00   -1.218E+00   -1.189E+00   -1.161E+00   -1.132E+00   -1.104E+00
    -1.075E+00   -1.047E+00   -1.018E+00   -9.894E-01   -9.608E-01   -9.322E-01   -9.037E-01   -8.751E-01   -8.465E-01   -8.180E-01
    -7.894E-01   -7.608E-01   -7.322E-01   -7.037E-01   -6.751E-01   -6.465E-01   -6.180E-01   -5.894E-01   -5.608E-01   -5.322E-01
    -5.037E-01   -4.751E-01   -4.465E-01   -4.180E-01   -3.894E-01   -3.608E-01   -3.322E-01   -3.037E-01   -2.751E-01   -2.465E-01
    -2.179E-01   -1.894E-01   -1.608E-01   -1.322E-01   -1.036E-01   -7.507E-02   -4.649E-02   -1.792E-02    1.066E-02    3.923E-02
     6.781E-02    9.638E-02    1.250E-01    1.535E-01    1.821E-01    2.107E-01    2.393E-01    2.678E-01    2.964E-01    3.250E-01
     3.536E-01    3.821E-01    4.107E-01    4.393E-01    4.679E-01    4.964E-01    5.250E-01    5.536E-01    5.822E-01    6.107E-01
     6.393E-01    6.679E-01    6.965E-01    7.251E-01    7.536E-01    7.822E-01    8.108E-01    8.394E-01    8.679E-01    8.965E-01
     9.251E-01    9.537E-01    9.822E-01    1.011E+00    1.039E+00    1.068E+00    1.097E+00    1.125E+00    1.154E+00    1.182E+00
     1.211E+00    1.239E+00    1.268E+00    1.297E+00    1.325E+00    1.354E+00    1.382E+00    1.411E+00    1.439E+00    1.468E+00
     1.497E+00    1.525E+00    1.554E+00    1.582E+00    1.611E+00    1.639E+00    1.668E+00    1.697E+00    1.725E+00    1.754E+00
     1.782E+00    1.811E+00    1.839E+00    1.868E+00    1.897E+00    1.925E+00    1.954E+00    1.982E+00    2.011E+00    2.039E+00
     2.068E+00    2.097E+00    2.125E+00    2.154E+00    2.182E+00    2.211E+00    2.239E+00    2.268E+00    2.297E+00    2.325E+00
     2.354E+00    2.382E+00    2.411E+00    2.439E+00    2.468E+00    2.497E+00    2.525E+00    2.554E+00    2.582E+00    2.611E+00
     2.639E+00    2.668E+00    2.697E+00    2.725E+00    2.754E+00    2.782E+00    2.811E+00    2.839E+00    2.868E+00    2.896E+00
     2.925E+00    2.954E+00    2.982E+00    3.011E+00    3.039E+00    3.068E+00    3.096E+00    3.125E+00    3.154E+00    3.182E+00
     3.211E+00    3.239E+00    3.268E+00    3.296E+00    3.325E+00    3.353E+00    3.382E+00    3.411E+00    3.439E+00    3.468E+00
     3.496E+00    3.525E+00    3.553E+00    3.582E+00    3.610E+00    3.639E+00    3.668E+00    3.696E+00    3.725E+00    3.753E+00
     3.782E+00    3.810E+00    3.839E+00    3.867E+00    3.896E+00    3.925E+00    3.953E+00    3.982E+00    4.010E+00    4.039E+00
     4.067E+00    4.096E+00    4.124E+00    4.153E+00    4.181E+00    4.210E+00    4.239E+00    4.267E+00    4.296E+00    4.324E+00
     4.353E+00    4.381E+00    4.410E+00    4.438E+00    4.467E+00    4.495E+00    4.524E+00    4.552E+00    4.581E+00    4.610E+00
     4.638E+00    4.667E+00    4.695E+00    4.724E+00    4.752E+00    4.781E+00    4.809E+00    4.838E+00    4.866E+00    4.895E+00
     4.923E+00    4.952E+00    4.980E+00    5.009E+00    5.037E+00    5.066E+00    5.095E+00    5.123E+00    5.152E+00    5.180E+00
     5.209E+00    5.237E+00    5.266E+00    5.294E+00    5.323E+00    5.351E+00    5.380E+00    5.408E+00    5.437E+00    5.465E+00
     5.494E+00    5.522E+00    5.551E+00    5.579E+00    5.608E+00    5.636E+00    5.665E+00    5.693E+00    5.722E+00    5.750E+00
     5.779E+00    5.807E+00    5.836E+00    5.864E+00    5.893E+00    5.921E+00    5.950E+00    5.978E+00    6.007E+00    6.035E+00
     6.064E+00    6.092E+00    6.121E+00    6.149E+00    6.178E+00    6.206E+00    6.235E+00    6.263E+00    6.292E+00    6.320E+00
     6.349E+00    6.377E+00    6.406E+00    6.434E+00    6.463E+00    6.491E+00    6.520E+00    6.548E+00    6.577E+00    6.605E+00
     6.634E+00    6.662E+00    6.691E+00    6.719E+00    6.748E+00    6.776E+00    6.805E+00    6.833E+00
 Ala      Conc. = 6.11E+02
