 LCModel (Version 6.3-1L) Copyright: S.W. Provencher.          Ref.: Magn. Reson. Med. 30:672-679 (1993).                
 Slice#1 Row#6 Col#1  K_02_press_1_raw_act
 36 lines in following concentration table = NCONC+1
    Conc.  %SD /Cr+PCr  Metabolite                                         
    0.000 999%   0.000 Ala                                                 
   22.079  84%   0.206 Asp                                                 
    0.000 999%   0.000 Cr                                                  
  107.084  19%   1.000 PCr                                                 
    8.272 134% 7.7E-02 GABA                                                
    9.472 118% 8.8E-02 Glc                                                 
    0.000 999%   0.000 Gln                                                 
   21.156 350%   0.198 Glu                                                 
   27.221  28%   0.254 GPC                                                 
    0.000 999%   0.000 PCh                                                 
    0.175 999% 1.6E-03 GSH                                                 
    0.000 999%   0.000 Ins                                                 
   50.522  78%   0.472 Lac                                                 
  110.809  23%   1.035 NAA                                                 
   53.399  47%   0.499 NAAG                                                
    2.346 151% 2.2E-02 Scyllo                                              
    3.463 526% 3.2E-02 Tau                                                 
    0.000 999%   0.000 -CrCH2                                              
   27.221  28%   0.254 GPC+PCh                                             
  164.208  18%   1.533 NAA+NAAG                                            
  107.084  19%   1.000 Cr+PCr                                              
   21.156 350%   0.198 Glu+Gln                                             
   47.532 646%   0.444 Lip13a                                              
  259.432  55%   2.423 Lip13b                                              
   88.878  77%   0.830 Lip09                                               
   72.703 112%   0.679 MM09                                                
   43.062 102%   0.402 Lip20                                               
   35.426 374%   0.331 MM20                                                
   20.777 200%   0.194 MM12                                                
  111.055 103%   1.037 MM14                                                
  124.262  59%   1.160 MM17                                                
  306.964  62%   2.867 Lip13a+Lip13b                                       
  438.796  40%   4.098 MM14+Lip13a+Lip13b+MM12                             
  161.581  46%   1.509 MM09+Lip09                                          
   78.489 167%   0.733 MM20+Lip20                                          
   6 lines in following misc. output table
  FWHM = 0.038 ppm    S/N =   2                                            
  Data shift = 0.008 ppm                                                   
  Ph: 129 deg       2.2 deg/ppm                                            
  alphaB,S = 8.3E-01,   6.4E+00                                            
   14 spline knots.   Ns = 5(1)                                            
  ( 7) 2 infls.   ( 7) 1 extrs.                                            
  498 points on ppm-axis = NY
      4.000000     3.992357     3.984714     3.977070     3.969427     3.961784     3.954141     3.946497     3.938854     3.931211
      3.923568     3.915925     3.908281     3.900638     3.892995     3.885352     3.877708     3.870065     3.862422     3.854779
      3.847136     3.839492     3.831849     3.824206     3.816563     3.808919     3.801276     3.793633     3.785990     3.778347
      3.770703     3.763060     3.755417     3.747774     3.740130     3.732487     3.724844     3.717201     3.709558     3.701914
      3.694271     3.686628     3.678985     3.671341     3.663698     3.656055     3.648412     3.640769     3.633125     3.625482
      3.617839     3.610196     3.602552     3.594909     3.587266     3.579623     3.571980     3.564336     3.556693     3.549050
      3.541407     3.533763     3.526120     3.518477     3.510834     3.503191     3.495547     3.487904     3.480261     3.472618
      3.464974     3.457331     3.449688     3.442045     3.434402     3.426758     3.419115     3.411472     3.403829     3.396185
      3.388542     3.380899     3.373256     3.365613     3.357969     3.350326     3.342683     3.335040     3.327396     3.319753
      3.312110     3.304467     3.296824     3.289180     3.281537     3.273894     3.266251     3.258607     3.250964     3.243321
      3.235678     3.228034     3.220391     3.212748     3.205105     3.197462     3.189818     3.182175     3.174532     3.166889
      3.159245     3.151602     3.143959     3.136316     3.128673     3.121029     3.113386     3.105743     3.098100     3.090456
      3.082813     3.075170     3.067527     3.059884     3.052240     3.044597     3.036954     3.029311     3.021667     3.014024
      3.006381     2.998738     2.991095     2.983451     2.975808     2.968165     2.960522     2.952878     2.945235     2.937592
      2.929949     2.922306     2.914662     2.907019     2.899376     2.891733     2.884089     2.876446     2.868803     2.861160
      2.853517     2.845873     2.838230     2.830587     2.822944     2.815300     2.807657     2.800014     2.792371     2.784728
      2.777084     2.769441     2.761798     2.754155     2.746511     2.738868     2.731225     2.723582     2.715939     2.708295
      2.700652     2.693009     2.685366     2.677722     2.670079     2.662436     2.654793     2.647150     2.639506     2.631863
      2.624220     2.616577     2.608933     2.601290     2.593647     2.586004     2.578361     2.570717     2.563074     2.555431
      2.547788     2.540144     2.532501     2.524858     2.517215     2.509572     2.501928     2.494285     2.486642     2.478999
      2.471355     2.463712     2.456069     2.448426     2.440783     2.433139     2.425496     2.417853     2.410210     2.402566
      2.394923     2.387280     2.379637     2.371994     2.364350     2.356707     2.349064     2.341421     2.333777     2.326134
      2.318491     2.310848     2.303205     2.295561     2.287918     2.280275     2.272632     2.264988     2.257345     2.249702
      2.242059     2.234416     2.226772     2.219129     2.211486     2.203843     2.196199     2.188556     2.180913     2.173270
      2.165627     2.157983     2.150340     2.142697     2.135054     2.127410     2.119767     2.112124     2.104481     2.096838
      2.089194     2.081551     2.073908     2.066265     2.058621     2.050978     2.043335     2.035692     2.028049     2.020405
      2.012762     2.005119     1.997476     1.989833     1.982190     1.974546     1.966903     1.959260     1.951617     1.943974
      1.936331     1.928688     1.921045     1.913402     1.905759     1.898115     1.890472     1.882829     1.875186     1.867543
      1.859900     1.852257     1.844614     1.836971     1.829327     1.821684     1.814041     1.806398     1.798755     1.791112
      1.783469     1.775826     1.768183     1.760540     1.752896     1.745253     1.737610     1.729967     1.722324     1.714681
      1.707038     1.699395     1.691752     1.684108     1.676465     1.668822     1.661179     1.653536     1.645893     1.638250
      1.630607     1.622964     1.615321     1.607677     1.600034     1.592391     1.584748     1.577105     1.569462     1.561819
      1.554176     1.546533     1.538890     1.531246     1.523603     1.515960     1.508317     1.500674     1.493031     1.485388
      1.477745     1.470102     1.462458     1.454815     1.447172     1.439529     1.431886     1.424243     1.416600     1.408957
      1.401314     1.393671     1.386027     1.378384     1.370741     1.363098     1.355455     1.347812     1.340169     1.332526
      1.324883     1.317240     1.309596     1.301953     1.294310     1.286667     1.279024     1.271381     1.263738     1.256095
      1.248452     1.240808     1.233165     1.225522     1.217879     1.210236     1.202593     1.194950     1.187307     1.179664
      1.172021     1.164377     1.156734     1.149091     1.141448     1.133805     1.126162     1.118519     1.110876     1.103233
      1.095590     1.087946     1.080303     1.072660     1.065017     1.057374     1.049731     1.042088     1.034445     1.026802
      1.019158     1.011515     1.003872     0.996229     0.988586     0.980943     0.973300     0.965657     0.958014     0.950371
      0.942727     0.935084     0.927441     0.919798     0.912155     0.904512     0.896869     0.889226     0.881583     0.873940
      0.866296     0.858653     0.851010     0.843367     0.835724     0.828081     0.820438     0.812795     0.805152     0.797508
      0.789865     0.782222     0.774579     0.766936     0.759293     0.751650     0.744007     0.736364     0.728721     0.721077
      0.713434     0.705791     0.698148     0.690505     0.682862     0.675219     0.667576     0.659933     0.652290     0.644646
      0.637003     0.629360     0.621717     0.614074     0.606431     0.598788     0.591145     0.583502     0.575858     0.568215
      0.560572     0.552929     0.545286     0.537643     0.530000     0.522357     0.514714     0.507071     0.499427     0.491784
      0.484141     0.476498     0.468855     0.461212     0.453569     0.445925     0.438282     0.430639     0.422996     0.415353
      0.407710     0.400067     0.392424     0.384780     0.377137     0.369494     0.361851     0.354208     0.346565     0.338922
      0.331278     0.323635     0.315992     0.308349     0.300706     0.293063     0.285420     0.277777     0.270133     0.262490
      0.254847     0.247204     0.239561     0.231918     0.224275     0.216631     0.208988     0.201345
 NY phased data points follow
   3.69186E+01  3.55926E+01  3.28007E+01  3.25563E+01  3.42956E+01  3.56078E+01  3.39904E+01  3.29105E+01  3.24853E+01  3.36348E+01
   3.35879E+01  3.43917E+01  3.33557E+01  3.02666E+01  3.06117E+01  2.91105E+01  2.98560E+01  2.80713E+01  2.78398E+01  2.74603E+01
   2.79260E+01  2.84984E+01  2.90869E+01  2.75093E+01  2.68143E+01  2.72326E+01  2.81087E+01  2.67517E+01  2.60424E+01  2.75327E+01
   2.39547E+01  2.69120E+01  2.67281E+01  2.34415E+01  2.32082E+01  2.58613E+01  2.42867E+01  2.26412E+01  2.23996E+01  2.44332E+01
   2.34623E+01  2.23315E+01  2.43609E+01  2.28713E+01  2.08287E+01  2.10264E+01  2.29636E+01  2.30928E+01  2.40208E+01  2.15499E+01
   2.00830E+01  2.14350E+01  2.10967E+01  2.26243E+01  2.33117E+01  2.38638E+01  2.23660E+01  1.81193E+01  2.44309E+01  1.78237E+01
   2.29558E+01  2.02606E+01  1.74651E+01  2.05546E+01  1.99028E+01  1.65673E+01  1.96455E+01  1.86359E+01  1.80993E+01  2.02428E+01
   1.96317E+01  1.55085E+01  1.60335E+01  1.85137E+01  1.84342E+01  1.82723E+01  1.69309E+01  1.80884E+01  1.69459E+01  1.81836E+01
   2.03781E+01  1.82671E+01  1.66614E+01  1.80743E+01  1.84458E+01  1.79365E+01  1.60260E+01  1.78300E+01  1.88579E+01  1.62358E+01
   1.64728E+01  1.39987E+01  1.67579E+01  1.82310E+01  1.66112E+01  1.86597E+01  1.61513E+01  1.69680E+01  1.69642E+01  1.79240E+01
   1.56150E+01  1.90505E+01  2.11571E+01  1.75225E+01  1.92032E+01  1.80683E+01  1.89819E+01  1.52912E+01  1.43715E+01  1.52181E+01
   1.74325E+01  1.50397E+01  1.58560E+01  1.39603E+01  1.54191E+01  1.31981E+01  1.41983E+01  1.32714E+01  1.51885E+01  1.21882E+01
   1.42617E+01  1.24948E+01  1.48075E+01  1.09003E+01  1.20530E+01  1.43255E+01  1.58662E+01  1.81889E+01  1.66845E+01  1.80677E+01
   1.33383E+01  1.49283E+01  1.36948E+01  1.47241E+01  1.17371E+01  1.40558E+01  1.33190E+01  9.55813E+00  1.55290E+01  1.13030E+01
   1.49322E+01  1.01653E+01  1.16654E+01  1.21224E+01  1.21570E+01  1.17029E+01  1.27276E+01  1.34943E+01  1.36599E+01  1.08392E+01
   1.04205E+01  1.39285E+01  9.85185E+00  1.16878E+01  1.09354E+01  1.19172E+01  1.22572E+01  1.04773E+01  1.34491E+01  1.19925E+01
   8.34691E+00  1.02520E+01  9.45665E+00  8.90408E+00  1.14067E+01  9.80818E+00  1.25150E+01  1.19673E+01  1.29454E+01  1.19656E+01
   6.82491E+00  1.04596E+01  1.13455E+01  1.11110E+01  1.03169E+01  7.59680E+00  9.86441E+00  1.02691E+01  1.10868E+01  7.64026E+00
   1.12099E+01  9.61170E+00  7.21037E+00  1.05085E+01  1.15444E+01  9.37461E+00  1.19224E+01  8.77072E+00  9.36002E+00  1.13327E+01
   1.11162E+01  9.26164E+00  8.01305E+00  1.09189E+01  1.00668E+01  1.27933E+01  1.22644E+01  1.28674E+01  1.10777E+01  7.81946E+00
   8.67649E+00  1.06076E+01  5.70792E+00  1.15031E+01  9.21318E+00  8.61975E+00  1.20144E+01  1.08682E+01  1.03141E+01  8.72218E+00
   9.33168E+00  1.19640E+01  7.54562E+00  7.12721E+00  5.27871E+00  9.96236E+00  9.51160E+00  9.78889E+00  1.09121E+01  9.28077E+00
   1.01466E+01  8.16097E+00  8.32064E+00  1.05316E+01  6.14233E+00  9.65249E+00  1.11898E+01  6.27259E+00  1.00984E+01  1.08503E+01
   9.29016E+00  7.27049E+00  9.60448E+00  8.65111E+00  6.85493E+00  7.08677E+00  9.93718E+00  9.17646E+00  8.32967E+00  7.99614E+00
   7.96501E+00  7.58449E+00  8.32086E+00  8.89196E+00  6.90231E+00  8.13649E+00  1.15627E+01  9.62555E+00  6.68699E+00  6.69236E+00
   7.21599E+00  8.37233E+00  9.52587E+00  1.01256E+01  1.41465E+01  8.91445E+00  1.03520E+01  1.06633E+01  1.27662E+01  1.13071E+01
   1.61664E+01  1.20528E+01  1.21529E+01  1.07282E+01  8.04032E+00  6.56690E+00  8.93680E+00  7.27326E+00  6.44525E+00  8.65016E+00
   9.33757E+00  3.87164E+00  1.03384E+01  7.90068E+00  7.72475E+00  5.88865E+00  6.00216E+00  5.43596E+00  7.81402E+00  8.49838E+00
   8.36859E+00  7.86087E+00  7.16811E+00  8.11107E+00  7.05503E+00  9.53267E+00  6.78284E+00  6.68998E+00  7.68682E+00  6.26504E+00
   7.74880E+00  8.76880E+00  6.69683E+00  3.71780E+00  5.02754E+00  7.14976E+00  8.56855E+00  8.33968E+00  6.47306E+00  5.74953E+00
   7.93242E+00  6.04747E+00  7.23105E+00  7.19041E+00  9.78742E+00  1.00622E+01  1.10781E+01  6.66697E+00  9.37545E+00  5.58378E+00
   8.50425E+00  9.32717E+00  1.00471E+01  6.85974E+00  7.52175E+00  9.04104E+00  7.29578E+00  1.02543E+01  7.91027E+00  9.37842E+00
   1.02049E+01  6.81471E+00  9.81336E+00  5.11195E+00  2.96552E+00  5.36616E+00  7.16875E+00  7.60967E+00  6.21051E+00  5.35598E+00
   9.65393E+00  7.12029E+00  1.01278E+01  9.38304E+00  7.46976E+00  1.01554E+01  7.90509E+00  7.82996E+00  8.09008E+00  5.75863E+00
   6.05845E+00  5.67852E+00  4.43575E+00  8.96389E+00  8.30600E+00  7.02389E+00  1.07103E+01  1.07858E+01  7.69893E+00  8.75235E+00
   7.97582E+00  8.90731E+00  8.62782E+00  8.40786E+00  6.78438E+00  1.05004E+01  8.93608E+00  1.02786E+01  8.46427E+00  9.73037E+00
   9.89693E+00  9.63251E+00  7.38687E+00  9.08898E+00  8.61909E+00  8.80468E+00  5.81721E+00  7.67056E+00  5.64228E+00  5.15258E+00
   6.37440E+00  5.25228E+00  5.52767E+00  5.38217E+00  6.88515E+00  7.20184E+00  6.78091E+00  5.60469E+00  4.50423E+00  7.66801E+00
   6.84825E+00  5.11561E+00  1.10994E+01  4.72045E+00  6.54683E+00  6.80397E+00  6.89224E+00  5.74782E+00  7.82285E+00  6.25420E+00
   5.56480E+00  7.55300E+00  7.32102E+00  8.61320E+00  6.52402E+00  8.38848E+00  9.27743E+00  6.74450E+00  7.62404E+00  5.10841E+00
   6.34447E+00  5.52217E+00  7.18818E+00  5.16314E+00  5.60413E+00  8.21100E+00  6.00713E+00  6.45779E+00  6.44354E+00  6.62220E+00
   4.93179E+00  3.90028E+00  8.83175E+00  5.94145E+00  4.18117E+00  5.46470E+00  7.08227E+00  5.04969E+00  7.11761E+00  5.88842E+00
   6.89085E+00  6.36463E+00  6.37570E+00  4.40924E+00  8.61989E+00  8.13010E+00  5.85182E+00  8.67980E+00  4.21683E+00  4.64091E+00
   5.80548E+00  2.54190E+00  3.60042E+00  6.00881E+00  6.21111E+00  8.03457E+00  6.65255E+00  3.84231E+00  4.40359E+00  7.83095E+00
   7.18639E+00  4.53911E+00  7.59206E+00  7.29778E+00  6.61658E+00  3.30756E+00  5.42664E+00  4.15701E+00  8.74714E+00  4.78561E+00
   5.65233E+00  4.65738E+00  6.10778E+00  3.85752E+00  3.94940E+00  7.97188E+00  5.51290E+00  3.13701E+00  3.60112E+00  1.94830E+00
   8.24570E+00  5.59380E+00  1.84123E+00  3.68497E+00  6.03604E+00  3.99530E+00  3.51404E+00  1.86757E+00  3.26434E+00  3.99256E+00
   1.39112E+00  5.31940E+00  1.30150E+00  2.71568E+00  4.58772E+00  4.27596E+00  5.18731E+00  3.52897E+00  5.73303E+00  1.92923E+00
   4.14989E+00  2.51818E+00  5.02483E+00  4.87068E+00  5.09436E+00  4.77041E+00  2.16813E+00  3.62568E+00  2.39104E+00  4.09439E+00
   3.46529E+00  4.38027E+00  2.18060E+00  3.23977E+00  2.84332E+00  3.58471E+00  4.36215E+00  3.47314E+00
 NY points of the fit to the data follow
   3.04553E+01  3.03459E+01  3.02512E+01  3.01772E+01  3.01931E+01  3.02095E+01  3.02669E+01  3.08257E+01  3.17855E+01  3.23825E+01
   3.22588E+01  3.16436E+01  3.06394E+01  2.95793E+01  2.88811E+01  2.84551E+01  2.81331E+01  2.78960E+01  2.76646E+01  2.74438E+01
   2.72581E+01  2.71044E+01  2.69634E+01  2.68224E+01  2.66794E+01  2.65274E+01  2.63596E+01  2.61794E+01  2.60019E+01  2.58322E+01
   2.56780E+01  2.55492E+01  2.54338E+01  2.53102E+01  2.51681E+01  2.50040E+01  2.48290E+01  2.46725E+01  2.45328E+01  2.43776E+01
   2.42216E+01  2.40956E+01  2.39598E+01  2.37979E+01  2.36540E+01  2.35128E+01  2.33294E+01  2.31504E+01  2.30126E+01  2.28920E+01
   2.27719E+01  2.26480E+01  2.25021E+01  2.23372E+01  2.21711E+01  2.20051E+01  2.18357E+01  2.16685E+01  2.15073E+01  2.13546E+01
   2.12086E+01  2.10662E+01  2.09258E+01  2.07857E+01  2.06487E+01  2.05141E+01  2.03794E+01  2.02434E+01  2.01069E+01  1.99696E+01
   1.98359E+01  1.97075E+01  1.95830E+01  1.94683E+01  1.93633E+01  1.92543E+01  1.91330E+01  1.90012E+01  1.88609E+01  1.87182E+01
   1.85843E+01  1.84659E+01  1.83498E+01  1.82468E+01  1.81829E+01  1.81360E+01  1.80537E+01  1.79272E+01  1.77722E+01  1.75988E+01
   1.74348E+01  1.72966E+01  1.71695E+01  1.70509E+01  1.69441E+01  1.68493E+01  1.67812E+01  1.67863E+01  1.68760E+01  1.69035E+01
   1.73222E+01  1.84099E+01  1.94935E+01  1.97617E+01  1.93259E+01  1.84025E+01  1.72093E+01  1.62828E+01  1.57688E+01  1.54276E+01
   1.52370E+01  1.51224E+01  1.50248E+01  1.49336E+01  1.48451E+01  1.47590E+01  1.46770E+01  1.45971E+01  1.45172E+01  1.44443E+01
   1.43894E+01  1.43808E+01  1.45064E+01  1.45995E+01  1.48978E+01  1.60622E+01  1.77140E+01  1.86266E+01  1.84442E+01  1.75388E+01
   1.61060E+01  1.47201E+01  1.38869E+01  1.34022E+01  1.31031E+01  1.29664E+01  1.28719E+01  1.27932E+01  1.27277E+01  1.26627E+01
   1.25879E+01  1.25063E+01  1.24271E+01  1.23620E+01  1.23149E+01  1.22725E+01  1.22149E+01  1.21397E+01  1.20574E+01  1.19723E+01
   1.18953E+01  1.18260E+01  1.17476E+01  1.16624E+01  1.15875E+01  1.15261E+01  1.14817E+01  1.14509E+01  1.13915E+01  1.12732E+01
   1.11350E+01  1.10181E+01  1.09505E+01  1.09402E+01  1.09495E+01  1.09249E+01  1.08674E+01  1.07803E+01  1.06686E+01  1.05752E+01
   1.05216E+01  1.04832E+01  1.04483E+01  1.03936E+01  1.02851E+01  1.01638E+01  1.00973E+01  1.00907E+01  1.00973E+01  1.00779E+01
   1.00082E+01  9.92303E+00  9.88613E+00  9.91213E+00  9.94668E+00  9.94247E+00  9.91549E+00  9.90694E+00  9.91588E+00  9.93649E+00
   9.95585E+00  9.93631E+00  9.87138E+00  9.79672E+00  9.74360E+00  9.71612E+00  9.69154E+00  9.64825E+00  9.59905E+00  9.54679E+00
   9.47885E+00  9.43694E+00  9.43871E+00  9.44823E+00  9.43524E+00  9.39472E+00  9.31430E+00  9.19782E+00  9.08025E+00  8.99659E+00
   8.93175E+00  8.86913E+00  8.82028E+00  8.82621E+00  8.88325E+00  8.94637E+00  8.97284E+00  8.94732E+00  8.88021E+00  8.79112E+00
   8.69584E+00  8.62028E+00  8.59813E+00  8.63272E+00  8.69290E+00  8.74542E+00  8.76784E+00  8.75306E+00  8.70706E+00  8.63928E+00
   8.57374E+00  8.53513E+00  8.52636E+00  8.54902E+00  8.59266E+00  8.61219E+00  8.59175E+00  8.55026E+00  8.49995E+00  8.44375E+00
   8.38282E+00  8.33198E+00  8.31665E+00  8.34135E+00  8.38408E+00  8.42739E+00  8.45553E+00  8.45792E+00  8.44220E+00  8.42873E+00
   8.46498E+00  8.57964E+00  8.68044E+00  9.04708E+00  9.87978E+00  1.08348E+01  1.12606E+01  1.13016E+01  1.18495E+01  1.29006E+01
   1.35566E+01  1.32923E+01  1.23452E+01  1.09058E+01  9.43088E+00  8.52254E+00  8.05240E+00  7.76033E+00  7.64868E+00  7.59721E+00
   7.57010E+00  7.55908E+00  7.55917E+00  7.56551E+00  7.56391E+00  7.54364E+00  7.50968E+00  7.47244E+00  7.43910E+00  7.41270E+00
   7.39614E+00  7.39138E+00  7.39336E+00  7.39654E+00  7.40055E+00  7.40365E+00  7.40294E+00  7.40214E+00  7.40179E+00  7.40310E+00
   7.41441E+00  7.43776E+00  7.46565E+00  7.49482E+00  7.52324E+00  7.54920E+00  7.57255E+00  7.59398E+00  7.61554E+00  7.64082E+00
   7.66910E+00  7.69894E+00  7.72863E+00  7.75431E+00  7.77397E+00  7.78760E+00  7.79446E+00  7.79468E+00  7.78861E+00  7.77652E+00
   7.75886E+00  7.73618E+00  7.70909E+00  7.67850E+00  7.64553E+00  7.61130E+00  7.57686E+00  7.54325E+00  7.51138E+00  7.48206E+00
   7.45594E+00  7.43345E+00  7.41481E+00  7.40009E+00  7.38930E+00  7.38231E+00  7.37882E+00  7.37843E+00  7.38068E+00  7.38513E+00
   7.39148E+00  7.39945E+00  7.40882E+00  7.41947E+00  7.43153E+00  7.44547E+00  7.46216E+00  7.48294E+00  7.50978E+00  7.54562E+00
   7.59520E+00  7.66690E+00  7.77492E+00  7.90102E+00  8.06544E+00  8.37455E+00  8.68660E+00  8.74096E+00  8.54369E+00  8.30694E+00
   8.13667E+00  8.08002E+00  8.17290E+00  8.48213E+00  9.01690E+00  9.57507E+00  9.91659E+00  1.00134E+01  9.83647E+00  9.45170E+00
   9.03112E+00  8.62949E+00  8.24746E+00  7.91333E+00  7.62226E+00  7.37206E+00  7.16179E+00  6.98888E+00  6.84920E+00  6.73778E+00
   6.64949E+00  6.57962E+00  6.52409E+00  6.47961E+00  6.44364E+00  6.41439E+00  6.39061E+00  6.37148E+00  6.35647E+00  6.34522E+00
   6.33756E+00  6.33344E+00  6.33288E+00  6.33594E+00  6.34264E+00  6.35302E+00  6.36711E+00  6.38490E+00  6.40634E+00  6.43126E+00
   6.45936E+00  6.49025E+00  6.52345E+00  6.55832E+00  6.59409E+00  6.62985E+00  6.66456E+00  6.69715E+00  6.72648E+00  6.75145E+00
   6.77094E+00  6.78395E+00  6.78960E+00  6.78720E+00  6.77633E+00  6.75674E+00  6.72846E+00  6.69172E+00  6.64705E+00  6.59516E+00
   6.53696E+00  6.47347E+00  6.40576E+00  6.33495E+00  6.26217E+00  6.18850E+00  6.11491E+00  6.04227E+00  5.97127E+00  5.90251E+00
   5.83645E+00  5.77342E+00  5.71359E+00  5.65703E+00  5.60373E+00  5.55358E+00  5.50648E+00  5.46222E+00  5.42060E+00  5.38137E+00
   5.34429E+00  5.30915E+00  5.27575E+00  5.24387E+00  5.21332E+00  5.18391E+00  5.15550E+00  5.12796E+00  5.10118E+00  5.07504E+00
   5.04944E+00  5.02429E+00  4.99954E+00  4.97513E+00  4.95101E+00  4.92713E+00  4.90343E+00  4.87988E+00  4.85647E+00  4.83319E+00
   4.80999E+00  4.78684E+00  4.76373E+00  4.74065E+00  4.71761E+00  4.69458E+00  4.67156E+00  4.64853E+00  4.62548E+00  4.60242E+00
   4.57936E+00  4.55629E+00  4.53319E+00  4.51006E+00  4.48690E+00  4.46372E+00  4.44053E+00  4.41732E+00  4.39407E+00  4.37079E+00
   4.34749E+00  4.32417E+00  4.30085E+00  4.27750E+00  4.25411E+00  4.23071E+00  4.20730E+00  4.18389E+00  4.16047E+00  4.13703E+00
   4.11357E+00  4.09011E+00  4.06666E+00  4.04322E+00  4.01978E+00  3.99634E+00  3.97290E+00  3.94948E+00  3.92608E+00  3.90271E+00
   3.87935E+00  3.85600E+00  3.83268E+00  3.80940E+00  3.78617E+00  3.76298E+00  3.73981E+00  3.71669E+00
 NY background values follow
     3.037E+01    3.021E+01    3.005E+01    2.989E+01    2.973E+01    2.957E+01    2.941E+01    2.925E+01    2.909E+01    2.893E+01
     2.876E+01    2.860E+01    2.844E+01    2.828E+01    2.812E+01    2.796E+01    2.780E+01    2.764E+01    2.748E+01    2.732E+01
     2.717E+01    2.701E+01    2.685E+01    2.669E+01    2.653E+01    2.637E+01    2.622E+01    2.606E+01    2.590E+01    2.574E+01
     2.559E+01    2.543E+01    2.528E+01    2.512E+01    2.497E+01    2.481E+01    2.466E+01    2.450E+01    2.435E+01    2.420E+01
     2.405E+01    2.389E+01    2.374E+01    2.359E+01    2.344E+01    2.329E+01    2.314E+01    2.300E+01    2.285E+01    2.270E+01
     2.255E+01    2.241E+01    2.226E+01    2.212E+01    2.197E+01    2.183E+01    2.169E+01    2.155E+01    2.141E+01    2.126E+01
     2.112E+01    2.098E+01    2.085E+01    2.071E+01    2.057E+01    2.043E+01    2.030E+01    2.016E+01    2.003E+01    1.990E+01
     1.976E+01    1.963E+01    1.950E+01    1.937E+01    1.924E+01    1.911E+01    1.898E+01    1.885E+01    1.873E+01    1.860E+01
     1.848E+01    1.835E+01    1.823E+01    1.811E+01    1.798E+01    1.786E+01    1.774E+01    1.762E+01    1.751E+01    1.739E+01
     1.727E+01    1.716E+01    1.704E+01    1.693E+01    1.681E+01    1.670E+01    1.659E+01    1.648E+01    1.637E+01    1.626E+01
     1.616E+01    1.605E+01    1.594E+01    1.584E+01    1.573E+01    1.563E+01    1.553E+01    1.543E+01    1.533E+01    1.523E+01
     1.513E+01    1.503E+01    1.493E+01    1.484E+01    1.474E+01    1.464E+01    1.455E+01    1.446E+01    1.437E+01    1.427E+01
     1.418E+01    1.409E+01    1.401E+01    1.392E+01    1.383E+01    1.374E+01    1.366E+01    1.357E+01    1.349E+01    1.341E+01
     1.333E+01    1.324E+01    1.316E+01    1.308E+01    1.301E+01    1.293E+01    1.285E+01    1.277E+01    1.270E+01    1.262E+01
     1.255E+01    1.248E+01    1.240E+01    1.233E+01    1.226E+01    1.219E+01    1.212E+01    1.205E+01    1.198E+01    1.192E+01
     1.185E+01    1.179E+01    1.172E+01    1.166E+01    1.159E+01    1.153E+01    1.147E+01    1.141E+01    1.134E+01    1.128E+01
     1.122E+01    1.117E+01    1.111E+01    1.105E+01    1.099E+01    1.094E+01    1.088E+01    1.082E+01    1.077E+01    1.072E+01
     1.066E+01    1.061E+01    1.056E+01    1.051E+01    1.045E+01    1.040E+01    1.035E+01    1.030E+01    1.025E+01    1.021E+01
     1.016E+01    1.011E+01    1.006E+01    1.002E+01    9.972E+00    9.926E+00    9.881E+00    9.837E+00    9.793E+00    9.749E+00
     9.706E+00    9.664E+00    9.622E+00    9.580E+00    9.539E+00    9.498E+00    9.458E+00    9.418E+00    9.378E+00    9.339E+00
     9.300E+00    9.262E+00    9.224E+00    9.187E+00    9.150E+00    9.113E+00    9.077E+00    9.041E+00    9.006E+00    8.971E+00
     8.936E+00    8.902E+00    8.868E+00    8.834E+00    8.801E+00    8.768E+00    8.736E+00    8.704E+00    8.672E+00    8.640E+00
     8.609E+00    8.578E+00    8.548E+00    8.517E+00    8.487E+00    8.458E+00    8.428E+00    8.399E+00    8.371E+00    8.342E+00
     8.314E+00    8.286E+00    8.258E+00    8.231E+00    8.204E+00    8.177E+00    8.151E+00    8.124E+00    8.099E+00    8.073E+00
     8.047E+00    8.022E+00    7.997E+00    7.973E+00    7.949E+00    7.924E+00    7.901E+00    7.877E+00    7.854E+00    7.831E+00
     7.808E+00    7.785E+00    7.763E+00    7.741E+00    7.719E+00    7.698E+00    7.676E+00    7.655E+00    7.635E+00    7.614E+00
     7.594E+00    7.574E+00    7.554E+00    7.534E+00    7.515E+00    7.496E+00    7.477E+00    7.458E+00    7.439E+00    7.421E+00
     7.403E+00    7.385E+00    7.368E+00    7.350E+00    7.333E+00    7.316E+00    7.299E+00    7.283E+00    7.266E+00    7.250E+00
     7.234E+00    7.218E+00    7.203E+00    7.187E+00    7.172E+00    7.157E+00    7.142E+00    7.127E+00    7.112E+00    7.098E+00
     7.083E+00    7.069E+00    7.055E+00    7.041E+00    7.027E+00    7.014E+00    7.000E+00    6.987E+00    6.973E+00    6.960E+00
     6.947E+00    6.934E+00    6.921E+00    6.908E+00    6.896E+00    6.883E+00    6.871E+00    6.858E+00    6.846E+00    6.834E+00
     6.821E+00    6.809E+00    6.797E+00    6.785E+00    6.773E+00    6.761E+00    6.750E+00    6.738E+00    6.726E+00    6.714E+00
     6.703E+00    6.691E+00    6.679E+00    6.668E+00    6.656E+00    6.645E+00    6.633E+00    6.622E+00    6.610E+00    6.599E+00
     6.587E+00    6.576E+00    6.565E+00    6.553E+00    6.542E+00    6.531E+00    6.519E+00    6.508E+00    6.497E+00    6.485E+00
     6.474E+00    6.463E+00    6.451E+00    6.440E+00    6.429E+00    6.417E+00    6.406E+00    6.395E+00    6.383E+00    6.372E+00
     6.361E+00    6.349E+00    6.338E+00    6.326E+00    6.315E+00    6.303E+00    6.292E+00    6.280E+00    6.269E+00    6.257E+00
     6.245E+00    6.234E+00    6.222E+00    6.210E+00    6.198E+00    6.187E+00    6.175E+00    6.163E+00    6.151E+00    6.139E+00
     6.127E+00    6.114E+00    6.102E+00    6.090E+00    6.077E+00    6.065E+00    6.053E+00    6.040E+00    6.027E+00    6.015E+00
     6.002E+00    5.989E+00    5.976E+00    5.963E+00    5.950E+00    5.937E+00    5.923E+00    5.910E+00    5.896E+00    5.883E+00
     5.869E+00    5.855E+00    5.841E+00    5.827E+00    5.813E+00    5.799E+00    5.785E+00    5.770E+00    5.756E+00    5.741E+00
     5.726E+00    5.711E+00    5.696E+00    5.681E+00    5.666E+00    5.650E+00    5.635E+00    5.619E+00    5.603E+00    5.587E+00
     5.571E+00    5.555E+00    5.538E+00    5.522E+00    5.505E+00    5.488E+00    5.471E+00    5.454E+00    5.437E+00    5.420E+00
     5.402E+00    5.385E+00    5.367E+00    5.349E+00    5.331E+00    5.313E+00    5.295E+00    5.276E+00    5.258E+00    5.239E+00
     5.221E+00    5.202E+00    5.183E+00    5.164E+00    5.144E+00    5.125E+00    5.105E+00    5.086E+00    5.066E+00    5.046E+00
     5.026E+00    5.006E+00    4.986E+00    4.966E+00    4.945E+00    4.925E+00    4.904E+00    4.883E+00    4.862E+00    4.841E+00
     4.820E+00    4.799E+00    4.777E+00    4.756E+00    4.734E+00    4.712E+00    4.691E+00    4.669E+00    4.647E+00    4.624E+00
     4.602E+00    4.580E+00    4.558E+00    4.535E+00    4.513E+00    4.490E+00    4.467E+00    4.445E+00    4.422E+00    4.399E+00
     4.376E+00    4.353E+00    4.330E+00    4.307E+00    4.284E+00    4.261E+00    4.237E+00    4.214E+00    4.191E+00    4.168E+00
     4.144E+00    4.121E+00    4.098E+00    4.074E+00    4.051E+00    4.027E+00    4.004E+00    3.981E+00    3.957E+00    3.934E+00
     3.910E+00    3.887E+00    3.864E+00    3.840E+00    3.817E+00    3.794E+00    3.770E+00    3.747E+00
 Asp      Conc. = 2.21E+01
