 LCModel (Version 6.3-1L) Copyright: S.W. Provencher.          Ref.: Magn. Reson. Med. 30:672-679 (1993).                
 Slice#2 Row#1 Col#11  K_02_press_1_raw_act
 36 lines in following concentration table = NCONC+1
    Conc.  %SD /Cr+PCr  Metabolite                                         
 7.32E+03  15%  62.399 Ala                                                 
   10.135 520% 8.6E-02 Asp                                                 
  117.281  72%   1.000 Cr                                                  
    0.000 999%   0.000 PCr                                                 
    7.151 447% 6.1E-02 GABA                                                
   10.386 309% 8.9E-02 Glc                                                 
    0.000 999%   0.000 Gln                                                 
    0.000 999%   0.000 Glu                                                 
   60.990  58%   0.520 GPC                                                 
    0.000 999%   0.000 PCh                                                 
  275.935  46%   2.353 GSH                                                 
  393.482 103%   3.355 Ins                                                 
 7.68E+03  21%  65.490 Lac                                                 
    0.000 999%   0.000 NAA                                                 
    0.000 999%   0.000 NAAG                                                
    6.578 161% 5.6E-02 Scyllo                                              
   23.617 223%   0.201 Tau                                                 
   47.951 185%   0.409 -CrCH2                                              
   60.990  58%   0.520 GPC+PCh                                             
    0.000 999%   0.000 NAA+NAAG                                            
  117.281  72%   1.000 Cr+PCr                                              
    0.000 999%   0.000 Glu+Gln                                             
 3.90E+03  38%  33.212 Lip13a                                              
    0.000 999%   0.000 Lip13b                                              
 2.20E+03  27%  18.728 Lip09                                               
 2.08E+03  13%  17.754 MM09                                                
    0.000 999%   0.000 Lip20                                               
  872.879  33%   7.443-MM20                                                
  649.342  25%   5.537 MM12                                                
 5.51E+03   4%  46.943+MM14                                                
 1.96E+03  19%  16.692 MM17                                                
 3.90E+03  38%  33.212 Lip13a+Lip13b                                       
 1.00E+04  15%  85.691 MM14+Lip13a+Lip13b+MM12                             
 4.28E+03  15%  36.482 MM09+Lip09                                          
  872.879  33%   7.443 MM20+Lip20                                          
   6 lines in following misc. output table
  FWHM = 0.168 ppm    S/N =  11                                            
  Data shift = 0.061 ppm                                                   
  Ph: 160 deg      28.2 deg/ppm                                            
  alphaB,S = 1.8E+00,   4.6E+02                                            
    8 spline knots.   Ns = 9(2)                                            
  (13) 5 infls.   ( 3) 1 extrs.                                            
  498 points on ppm-axis = NY
      4.000000     3.992357     3.984714     3.977070     3.969427     3.961784     3.954141     3.946497     3.938854     3.931211
      3.923568     3.915925     3.908281     3.900638     3.892995     3.885352     3.877708     3.870065     3.862422     3.854779
      3.847136     3.839492     3.831849     3.824206     3.816563     3.808919     3.801276     3.793633     3.785990     3.778347
      3.770703     3.763060     3.755417     3.747774     3.740130     3.732487     3.724844     3.717201     3.709558     3.701914
      3.694271     3.686628     3.678985     3.671341     3.663698     3.656055     3.648412     3.640769     3.633125     3.625482
      3.617839     3.610196     3.602552     3.594909     3.587266     3.579623     3.571980     3.564336     3.556693     3.549050
      3.541407     3.533763     3.526120     3.518477     3.510834     3.503191     3.495547     3.487904     3.480261     3.472618
      3.464974     3.457331     3.449688     3.442045     3.434402     3.426758     3.419115     3.411472     3.403829     3.396185
      3.388542     3.380899     3.373256     3.365613     3.357969     3.350326     3.342683     3.335040     3.327396     3.319753
      3.312110     3.304467     3.296824     3.289180     3.281537     3.273894     3.266251     3.258607     3.250964     3.243321
      3.235678     3.228034     3.220391     3.212748     3.205105     3.197462     3.189818     3.182175     3.174532     3.166889
      3.159245     3.151602     3.143959     3.136316     3.128673     3.121029     3.113386     3.105743     3.098100     3.090456
      3.082813     3.075170     3.067527     3.059884     3.052240     3.044597     3.036954     3.029311     3.021667     3.014024
      3.006381     2.998738     2.991095     2.983451     2.975808     2.968165     2.960522     2.952878     2.945235     2.937592
      2.929949     2.922306     2.914662     2.907019     2.899376     2.891733     2.884089     2.876446     2.868803     2.861160
      2.853517     2.845873     2.838230     2.830587     2.822944     2.815300     2.807657     2.800014     2.792371     2.784728
      2.777084     2.769441     2.761798     2.754155     2.746511     2.738868     2.731225     2.723582     2.715939     2.708295
      2.700652     2.693009     2.685366     2.677722     2.670079     2.662436     2.654793     2.647150     2.639506     2.631863
      2.624220     2.616577     2.608933     2.601290     2.593647     2.586004     2.578361     2.570717     2.563074     2.555431
      2.547788     2.540144     2.532501     2.524858     2.517215     2.509572     2.501928     2.494285     2.486642     2.478999
      2.471355     2.463712     2.456069     2.448426     2.440783     2.433139     2.425496     2.417853     2.410210     2.402566
      2.394923     2.387280     2.379637     2.371994     2.364350     2.356707     2.349064     2.341421     2.333777     2.326134
      2.318491     2.310848     2.303205     2.295561     2.287918     2.280275     2.272632     2.264988     2.257345     2.249702
      2.242059     2.234416     2.226772     2.219129     2.211486     2.203843     2.196199     2.188556     2.180913     2.173270
      2.165627     2.157983     2.150340     2.142697     2.135054     2.127410     2.119767     2.112124     2.104481     2.096838
      2.089194     2.081551     2.073908     2.066265     2.058621     2.050978     2.043335     2.035692     2.028049     2.020405
      2.012762     2.005119     1.997476     1.989833     1.982190     1.974546     1.966903     1.959260     1.951617     1.943974
      1.936331     1.928688     1.921045     1.913402     1.905759     1.898115     1.890472     1.882829     1.875186     1.867543
      1.859900     1.852257     1.844614     1.836971     1.829327     1.821684     1.814041     1.806398     1.798755     1.791112
      1.783469     1.775826     1.768183     1.760540     1.752896     1.745253     1.737610     1.729967     1.722324     1.714681
      1.707038     1.699395     1.691752     1.684108     1.676465     1.668822     1.661179     1.653536     1.645893     1.638250
      1.630607     1.622964     1.615321     1.607677     1.600034     1.592391     1.584748     1.577105     1.569462     1.561819
      1.554176     1.546533     1.538890     1.531246     1.523603     1.515960     1.508317     1.500674     1.493031     1.485388
      1.477745     1.470102     1.462458     1.454815     1.447172     1.439529     1.431886     1.424243     1.416600     1.408957
      1.401314     1.393671     1.386027     1.378384     1.370741     1.363098     1.355455     1.347812     1.340169     1.332526
      1.324883     1.317240     1.309596     1.301953     1.294310     1.286667     1.279024     1.271381     1.263738     1.256095
      1.248452     1.240808     1.233165     1.225522     1.217879     1.210236     1.202593     1.194950     1.187307     1.179664
      1.172021     1.164377     1.156734     1.149091     1.141448     1.133805     1.126162     1.118519     1.110876     1.103233
      1.095590     1.087946     1.080303     1.072660     1.065017     1.057374     1.049731     1.042088     1.034445     1.026802
      1.019158     1.011515     1.003872     0.996229     0.988586     0.980943     0.973300     0.965657     0.958014     0.950371
      0.942727     0.935084     0.927441     0.919798     0.912155     0.904512     0.896869     0.889226     0.881583     0.873940
      0.866296     0.858653     0.851010     0.843367     0.835724     0.828081     0.820438     0.812795     0.805152     0.797508
      0.789865     0.782222     0.774579     0.766936     0.759293     0.751650     0.744007     0.736364     0.728721     0.721077
      0.713434     0.705791     0.698148     0.690505     0.682862     0.675219     0.667576     0.659933     0.652290     0.644646
      0.637003     0.629360     0.621717     0.614074     0.606431     0.598788     0.591145     0.583502     0.575858     0.568215
      0.560572     0.552929     0.545286     0.537643     0.530000     0.522357     0.514714     0.507071     0.499427     0.491784
      0.484141     0.476498     0.468855     0.461212     0.453569     0.445925     0.438282     0.430639     0.422996     0.415353
      0.407710     0.400067     0.392424     0.384780     0.377137     0.369494     0.361851     0.354208     0.346565     0.338922
      0.331278     0.323635     0.315992     0.308349     0.300706     0.293063     0.285420     0.277777     0.270133     0.262490
      0.254847     0.247204     0.239561     0.231918     0.224275     0.216631     0.208988     0.201345
 NY phased data points follow
  -1.03985E+01 -1.15957E+01 -1.23310E+01 -1.22283E+01 -9.83378E+00 -8.47328E+00 -7.25584E+00 -1.35498E+01 -7.29229E+00 -7.03911E+00
  -5.29733E+00 -1.14503E+01 -1.16433E+01 -7.46407E+00 -7.51345E+00 -1.23637E+01 -9.84566E+00 -1.07261E+01 -6.56116E+00 -1.01772E+01
  -4.71258E+00 -6.97378E+00 -7.79108E+00 -7.80493E+00 -7.98232E+00 -7.74196E+00 -9.60853E+00 -6.96841E+00 -6.77324E+00 -6.77073E+00
  -8.33336E+00 -8.08186E+00 -6.56200E+00 -7.14266E+00 -1.32528E+01 -8.28275E+00 -9.54930E+00 -8.84657E+00 -9.03769E+00 -9.09028E+00
  -1.04016E+01 -6.61004E+00 -7.32922E+00 -1.02665E+01 -7.71017E+00 -4.83764E+00 -6.63187E+00 -7.35391E+00 -5.51649E+00 -9.34057E+00
  -6.45218E+00 -7.21197E+00 -9.22057E+00 -8.21067E+00 -7.23110E+00 -1.01343E+01 -8.91867E+00 -9.46462E+00 -8.37424E+00 -8.17955E+00
  -9.45985E+00 -9.30905E+00 -5.54371E+00 -1.02527E+01 -7.32030E+00 -1.22316E+01 -9.88811E+00 -8.00200E+00 -6.53496E+00 -8.68115E+00
  -7.68982E+00 -7.45282E+00 -1.06646E+01 -5.73330E+00 -4.36730E+00 -8.55070E+00 -1.25606E+01 -8.55130E+00 -1.13805E+01 -6.42740E+00
  -8.04221E+00 -1.05571E+01 -1.03514E+01 -8.16143E+00 -6.58527E+00 -5.75633E+00 -4.74025E+00 -1.24544E+01 -4.93296E+00 -4.81258E+00
  -1.10662E+01 -7.85982E+00 -7.27726E+00 -5.40072E+00 -1.07892E+01 -6.28324E+00 -6.03491E+00 -4.11941E+00 -5.19452E+00 -5.10746E+00
  -1.11145E+01 -9.57207E+00 -9.59840E+00 -8.97075E+00 -8.20694E+00 -5.66078E+00 -6.83778E+00 -5.46335E+00 -9.15936E+00 -7.17508E+00
  -7.73041E+00 -5.38749E+00 -8.10707E+00 -1.15734E+01 -8.39255E+00 -9.01848E+00 -6.98990E+00 -7.17662E+00 -7.01028E+00 -5.63965E+00
  -2.91302E+00 -1.90014E+00 -3.98062E+00 -6.33879E+00 -4.09991E+00 -4.59335E+00 -7.50981E+00 -8.55641E+00 -6.30826E+00 -7.58566E+00
  -7.55324E+00 -1.02998E+01 -7.98747E+00 -7.75426E+00 -1.01859E+01 -9.38137E+00 -8.04443E+00 -6.65814E+00 -9.47458E+00 -4.72055E+00
  -7.05628E+00 -6.83023E+00 -9.23272E+00 -7.56894E+00 -9.09978E+00 -6.87422E+00 -4.79140E+00 -1.14002E+01 -8.41739E+00 -9.76868E+00
  -1.07327E+01 -7.90350E+00 -8.00853E+00 -7.27926E+00 -5.56018E+00 -6.82084E+00 -7.05282E+00 -8.97504E+00 -6.67037E+00 -1.16384E+01
  -8.90944E+00 -7.46678E+00 -8.18925E+00 -1.16032E+01 -9.40778E+00 -1.10123E+01 -9.83453E+00 -6.16284E+00 -7.36193E+00 -1.28748E+01
  -9.04232E+00 -1.34172E+01 -1.17380E+01 -1.18947E+01 -1.19529E+01 -8.16623E+00 -1.22365E+01 -8.62397E+00 -9.53212E+00 -9.85705E+00
  -1.02109E+01 -8.90292E+00 -8.88207E+00 -9.60010E+00 -7.85279E+00 -1.12712E+01 -1.00358E+01 -1.11613E+01 -1.18192E+01 -4.70335E+00
  -3.03578E+00 -7.95328E+00 -8.00500E+00 -4.81807E+00 -6.25494E+00 -5.10614E+00 -8.84540E+00 -6.78369E+00 -1.15134E+01 -1.18357E+01
  -6.59122E+00 -8.23858E+00 -5.56538E+00 -9.67908E+00 -7.54214E+00 -6.28177E+00 -7.23580E+00 -6.43539E+00 -9.62590E+00 -5.29267E+00
  -7.97300E+00 -6.88483E+00 -5.25731E+00 -6.89026E+00 -1.02758E+01 -1.17249E+01 -7.82359E+00 -6.19753E+00 -6.12146E+00 -7.09920E+00
  -4.61980E+00 -7.29681E+00 -6.03736E+00 -3.73890E+00 -9.83788E+00 -3.96575E+00 -6.23244E+00 -2.77294E+00 -8.50767E+00 -9.95109E+00
  -5.43274E+00 -8.47107E+00 -3.40323E+00 -9.04921E+00 -3.22074E+00 -5.81412E+00 -9.06872E+00 -7.06250E+00 -5.32775E+00 -6.25530E+00
  -6.22063E+00 -6.63203E+00 -4.75704E+00 -5.87228E+00 -5.87158E+00 -8.08861E+00 -6.24799E+00  6.39645E-01 -1.14318E+00 -3.06881E+00
   2.20475E+00  7.51330E-01  2.15016E+00  3.16484E+00  1.11157E+00 -3.85105E+00 -4.05155E+00 -1.98156E+00 -5.24737E+00 -3.67309E+00
  -7.53992E+00 -4.80318E+00 -7.03594E+00 -2.76529E+00 -4.81886E+00 -3.36291E+00 -3.46752E+00 -9.21296E-01 -1.58822E+00 -4.70950E+00
  -5.12600E+00 -1.16816E+00 -2.13719E+00 -5.75623E+00 -3.37685E+00 -2.64026E+00  1.79751E+00  1.51959E+00 -2.83492E-01 -5.42449E-01
   2.90555E-01  3.20539E+00  1.93256E-01  2.20358E+00  5.31316E+00  2.57879E+00  2.27285E+00  1.43933E+00  3.74075E+00  3.28235E+00
   7.42820E+00  6.28831E+00  9.68012E+00  7.78448E+00  1.26900E+01  1.33687E+01  1.27642E+01  1.49488E+01  1.60191E+01  1.62087E+01
   1.61988E+01  1.60772E+01  1.50133E+01  1.89693E+01  2.18665E+01  2.27108E+01  2.62380E+01  2.63680E+01  2.64582E+01  3.40922E+01
   3.13749E+01  3.77596E+01  3.57973E+01  3.47336E+01  4.19902E+01  4.21675E+01  4.62607E+01  4.69046E+01  5.28893E+01  5.08214E+01
   5.45979E+01  5.55910E+01  6.12864E+01  5.80886E+01  5.82365E+01  6.21621E+01  6.54327E+01  5.96923E+01  6.15210E+01  5.70085E+01
   5.79094E+01  5.72997E+01  5.60319E+01  5.00485E+01  5.28398E+01  5.09575E+01  4.74997E+01  4.71067E+01  4.44416E+01  4.92102E+01
   4.47593E+01  4.51702E+01  4.31884E+01  4.26182E+01  3.87245E+01  4.21981E+01  3.59939E+01  3.79665E+01  3.86688E+01  3.33786E+01
   3.38374E+01  3.26238E+01  3.33519E+01  3.70845E+01  3.59843E+01  3.44597E+01  3.73907E+01  3.42625E+01  3.29532E+01  3.12988E+01
   2.97620E+01  3.07446E+01  3.28047E+01  3.25900E+01  2.84582E+01  2.59041E+01  3.31798E+01  2.85592E+01  2.87029E+01  2.81977E+01
   3.07458E+01  3.13511E+01  2.86790E+01  2.84591E+01  3.38725E+01  2.78978E+01  2.89907E+01  2.96628E+01  2.46795E+01  2.61494E+01
   2.87969E+01  2.45111E+01  2.91932E+01  2.43571E+01  2.16349E+01  2.40755E+01  2.33104E+01  2.22065E+01  1.61111E+01  1.98338E+01
   1.69177E+01  1.74685E+01  2.22452E+01  1.52309E+01  2.03407E+01  1.84420E+01  1.54190E+01  1.80455E+01  1.76899E+01  1.07831E+01
   1.34078E+01  1.30291E+01  1.31139E+01  1.31378E+01  1.11369E+01  1.20069E+01  1.05815E+01  1.35177E+01  8.92798E+00  5.05278E+00
   6.88685E+00  9.58650E+00  1.27155E+01  9.17141E+00  1.12564E+01  6.13716E+00  7.67380E+00  1.01479E+01  5.12716E+00  5.28372E+00
   9.58383E+00  6.49948E+00  5.19635E+00  4.30679E+00  8.08354E+00  5.22750E+00  6.15009E+00  4.51919E+00  2.12684E+00  2.99056E+00
   2.63798E+00  5.23567E+00 -1.06859E+00  4.42705E+00  5.25168E+00  1.08764E+00  1.78761E+00  2.96051E+00  2.26687E+00  2.56401E-01
   1.05935E+00  5.12292E+00  3.22138E+00 -2.94733E-01 -5.46082E-01  1.06541E+00  2.32542E+00 -2.16736E+00 -3.22058E+00 -1.96126E+00
  -2.20466E+00  1.10576E+00 -7.32655E-01 -7.43932E-01 -4.18617E+00 -4.35132E+00 -1.98727E+00 -4.94502E+00 -1.02690E+00 -5.41312E+00
  -1.03640E+00  1.00233E+00 -4.30902E+00 -5.12344E+00 -4.80876E+00 -3.84756E+00 -5.38797E+00 -2.15862E+00 -5.06731E+00 -1.19942E+00
  -6.31356E+00 -1.95613E+00 -3.59290E+00 -5.56098E+00 -3.47835E+00 -9.25095E+00 -5.49191E+00 -5.78535E+00 -6.83448E+00 -5.04127E+00
  -4.64503E+00 -4.00391E+00 -3.71309E+00 -7.20848E+00 -6.23814E+00 -7.48664E+00 -8.19335E+00 -5.70682E+00 -9.38597E+00 -5.20406E+00
  -6.08815E+00 -9.65462E+00 -3.99360E+00 -2.06668E+00 -6.46850E+00 -5.76949E+00 -7.29348E+00 -7.25689E+00
 NY points of the fit to the data follow
  -1.04281E+01 -9.66747E+00 -1.04278E+01 -9.76418E+00 -1.00341E+01 -9.23939E+00 -9.31563E+00 -8.79195E+00 -8.45864E+00 -8.60954E+00
  -8.26178E+00 -9.06067E+00 -8.61276E+00 -9.40093E+00 -8.69923E+00 -9.79149E+00 -8.63111E+00 -9.66846E+00 -8.17610E+00 -9.17712E+00
  -7.74135E+00 -8.69236E+00 -7.30546E+00 -8.34199E+00 -7.27010E+00 -8.34125E+00 -7.65848E+00 -8.53636E+00 -8.15394E+00 -8.64060E+00
  -8.47259E+00 -8.46911E+00 -8.45299E+00 -7.97099E+00 -8.23088E+00 -7.45531E+00 -8.05426E+00 -7.15085E+00 -8.12052E+00 -7.21752E+00
  -8.45503E+00 -7.60995E+00 -8.88515E+00 -7.94143E+00 -9.10867E+00 -8.02331E+00 -8.96217E+00 -7.80565E+00 -8.41978E+00 -7.60709E+00
  -8.27603E+00 -7.72284E+00 -8.33544E+00 -8.07673E+00 -8.67912E+00 -8.70729E+00 -8.93810E+00 -8.80935E+00 -8.85350E+00 -8.68732E+00
  -8.59098E+00 -8.47006E+00 -8.32443E+00 -8.37933E+00 -8.32558E+00 -8.41037E+00 -8.37209E+00 -8.45262E+00 -8.39670E+00 -8.45380E+00
  -8.37665E+00 -8.44329E+00 -8.38326E+00 -8.46873E+00 -8.42272E+00 -8.52094E+00 -8.48513E+00 -8.59257E+00 -8.56107E+00 -8.67200E+00
  -8.64924E+00 -8.75171E+00 -8.72623E+00 -8.81584E+00 -8.74273E+00 -8.72843E+00 -8.66975E+00 -8.58119E+00 -8.56509E+00 -8.41239E+00
  -8.43367E+00 -8.20305E+00 -8.26586E+00 -7.96072E+00 -8.06605E+00 -7.69152E+00 -7.85282E+00 -7.41819E+00 -7.63922E+00 -7.16086E+00
  -7.44359E+00 -6.94737E+00 -7.30625E+00 -6.84794E+00 -7.26526E+00 -6.87513E+00 -7.31076E+00 -6.98527E+00 -7.38530E+00 -7.05598E+00
  -7.40920E+00 -7.11816E+00 -7.42091E+00 -7.17518E+00 -7.41786E+00 -7.19298E+00 -7.35018E+00 -7.16416E+00 -7.26838E+00 -7.13913E+00
  -7.21334E+00 -7.14142E+00 -7.14796E+00 -7.09984E+00 -6.99081E+00 -6.90928E+00 -6.78239E+00 -6.77586E+00 -6.65791E+00 -6.74243E+00
  -6.63464E+00 -6.79790E+00 -6.69618E+00 -6.92164E+00 -6.82559E+00 -7.10127E+00 -7.00415E+00 -7.30933E+00 -7.19936E+00 -7.51735E+00
  -7.39839E+00 -7.72192E+00 -7.61846E+00 -7.94549E+00 -7.86996E+00 -8.19182E+00 -8.13984E+00 -8.42000E+00 -8.37129E+00 -8.56030E+00
  -8.51782E+00 -8.67749E+00 -8.65478E+00 -8.77717E+00 -8.76096E+00 -8.83575E+00 -8.81833E+00 -8.88307E+00 -8.89919E+00 -8.95644E+00
  -9.00059E+00 -9.03872E+00 -9.07972E+00 -9.09637E+00 -9.11937E+00 -9.12894E+00 -9.14334E+00 -9.15747E+00 -9.16937E+00 -9.18692E+00
  -9.19644E+00 -9.21043E+00 -9.20599E+00 -9.20790E+00 -9.18599E+00 -9.18207E+00 -9.15653E+00 -9.15531E+00 -9.13201E+00 -9.14137E+00
  -9.13424E+00 -9.13077E+00 -9.12158E+00 -9.09652E+00 -9.08362E+00 -9.03830E+00 -9.02732E+00 -8.96206E+00 -8.95560E+00 -8.87423E+00
  -8.87725E+00 -8.78540E+00 -8.80265E+00 -8.70196E+00 -8.72839E+00 -8.61506E+00 -8.64015E+00 -8.51077E+00 -8.52158E+00 -8.38123E+00
  -8.37655E+00 -8.23474E+00 -8.21901E+00 -8.08411E+00 -8.05946E+00 -7.93300E+00 -7.89628E+00 -7.78505E+00 -7.74227E+00 -7.64187E+00
  -7.58819E+00 -7.49245E+00 -7.41755E+00 -7.32607E+00 -7.24287E+00 -7.15354E+00 -7.06690E+00 -6.98071E+00 -6.89221E+00 -6.80287E+00
  -6.71310E+00 -6.62043E+00 -6.52980E+00 -6.44538E+00 -6.36036E+00 -6.28196E+00 -6.19905E+00 -6.11522E+00 -6.01176E+00 -5.91734E+00
  -5.78838E+00 -5.68112E+00 -5.52418E+00 -5.40766E+00 -5.22664E+00 -5.10900E+00 -4.91185E+00 -4.80086E+00 -4.59275E+00 -4.47921E+00
  -4.25728E+00 -4.13190E+00 -3.89565E+00 -3.75553E+00 -3.51096E+00 -3.37026E+00 -3.13973E+00 -3.01162E+00 -2.81215E+00 -2.70593E+00
  -2.54752E+00 -2.46913E+00 -2.35665E+00 -2.31576E+00 -2.25631E+00 -2.23474E+00 -2.20545E+00 -2.18803E+00 -2.17255E+00 -2.14748E+00
  -2.13471E+00 -2.12610E+00 -2.13236E+00 -2.13439E+00 -2.14860E+00 -2.14942E+00 -2.15973E+00 -2.14169E+00 -2.12273E+00 -2.08179E+00
  -2.03600E+00 -1.97157E+00 -1.89688E+00 -1.80546E+00 -1.69952E+00 -1.57306E+00 -1.42435E+00 -1.24645E+00 -1.03758E+00 -7.89715E-01
  -5.00049E-01 -1.59529E-01  2.35014E-01  6.92902E-01  1.21675E+00  1.81470E+00  2.48733E+00  3.23971E+00  4.06854E+00  4.97404E+00
   5.94779E+00  6.98408E+00  8.06899E+00  9.19176E+00  1.03340E+01  1.14823E+01  1.26180E+01  1.37298E+01  1.48039E+01  1.58371E+01
   1.68264E+01  1.77823E+01  1.87187E+01  1.96641E+01  2.06528E+01  2.17357E+01  2.29749E+01  2.44627E+01  2.63446E+01  2.89480E+01
   3.24193E+01  3.45503E+01  3.81548E+01  3.95339E+01  4.29555E+01  4.36641E+01  4.67753E+01  4.63535E+01  5.06190E+01  5.03849E+01
   5.51262E+01  5.46313E+01  5.89029E+01  5.75186E+01  6.09924E+01  5.86629E+01  6.11169E+01  5.80388E+01  5.97110E+01  5.77201E+01
   5.79742E+01  5.58778E+01  5.51077E+01  5.31534E+01  5.20116E+01  5.03182E+01  4.82100E+01  4.83272E+01  4.61218E+01  4.70417E+01
   4.45604E+01  4.53794E+01  4.27932E+01  4.34213E+01  4.06841E+01  4.09272E+01  3.80864E+01  3.80708E+01  3.59972E+01  3.63506E+01
   3.59850E+01  3.57796E+01  3.56346E+01  3.56333E+01  3.55465E+01  3.46764E+01  3.44264E+01  3.24239E+01  3.32489E+01  3.15524E+01
   3.23792E+01  3.08793E+01  3.15440E+01  3.00230E+01  3.05206E+01  2.91227E+01  2.98327E+01  2.91854E+01  3.03310E+01  3.10107E+01
   3.14351E+01  3.09713E+01  3.07958E+01  2.93200E+01  2.85485E+01  2.65516E+01  2.55479E+01  2.50976E+01  2.48887E+01  2.47984E+01
   2.47545E+01  2.47120E+01  2.46340E+01  2.44969E+01  2.42799E+01  2.39727E+01  2.35669E+01  2.30643E+01  2.24679E+01  2.17897E+01
   2.10409E+01  2.02401E+01  1.94031E+01  1.85506E+01  1.76989E+01  1.68670E+01  1.60676E+01  1.53149E+01  1.46157E+01  1.39780E+01
   1.34026E+01  1.28915E+01  1.24397E+01  1.20445E+01  1.16972E+01  1.13923E+01  1.11192E+01  1.08715E+01  1.06384E+01  1.04140E+01
   1.01889E+01  9.95885E+00  9.71641E+00  9.45950E+00  9.18295E+00  8.88696E+00  8.56863E+00  8.23028E+00  7.87082E+00  7.49410E+00
   7.10030E+00  6.69432E+00  6.27713E+00  5.85410E+00  5.42634E+00  4.99909E+00  4.57324E+00  4.15365E+00  3.74071E+00  3.33866E+00
   2.94713E+00  2.56964E+00  2.20514E+00  1.85653E+00  1.52218E+00  1.20440E+00  9.00997E-01  6.13853E-01  3.40483E-01  8.25173E-02
  -1.62741E-01 -3.93867E-01 -6.13704E-01 -8.20873E-01 -1.01820E+00 -1.20428E+00 -1.38193E+00 -1.54975E+00 -1.71052E+00 -1.86273E+00
  -2.00905E+00 -2.14791E+00 -2.28192E+00 -2.40947E+00 -2.53311E+00 -2.65111E+00 -2.76592E+00 -2.87577E+00 -2.98310E+00 -3.08610E+00
  -3.18712E+00 -3.28430E+00 -3.37992E+00 -3.47210E+00 -3.56313E+00 -3.65111E+00 -3.73825E+00 -3.82258E+00 -3.90633E+00 -3.98752E+00
  -4.06839E+00 -4.14692E+00 -4.22528E+00 -4.30144E+00 -4.37758E+00 -4.45170E+00 -4.52594E+00 -4.59826E+00 -4.67079E+00 -4.74147E+00
  -4.81244E+00 -4.88167E+00 -4.95127E+00 -5.01916E+00 -5.08743E+00 -5.15402E+00 -5.22104E+00 -5.28641E+00 -5.35222E+00 -5.41634E+00
  -5.48086E+00 -5.54366E+00 -5.60682E+00 -5.66820E+00 -5.72981E+00 -5.78946E+00 -5.84913E+00 -5.90659E+00
 NY background values follow
    -1.062E+01   -1.060E+01   -1.058E+01   -1.056E+01   -1.054E+01   -1.051E+01   -1.049E+01   -1.047E+01   -1.045E+01   -1.043E+01
    -1.041E+01   -1.039E+01   -1.036E+01   -1.034E+01   -1.032E+01   -1.030E+01   -1.028E+01   -1.026E+01   -1.024E+01   -1.022E+01
    -1.020E+01   -1.018E+01   -1.016E+01   -1.014E+01   -1.012E+01   -1.010E+01   -1.008E+01   -1.006E+01   -1.004E+01   -1.002E+01
    -1.001E+01   -9.987E+00   -9.969E+00   -9.950E+00   -9.932E+00   -9.915E+00   -9.897E+00   -9.879E+00   -9.862E+00   -9.845E+00
    -9.828E+00   -9.811E+00   -9.795E+00   -9.778E+00   -9.762E+00   -9.746E+00   -9.731E+00   -9.715E+00   -9.700E+00   -9.685E+00
    -9.670E+00   -9.655E+00   -9.641E+00   -9.627E+00   -9.613E+00   -9.599E+00   -9.586E+00   -9.573E+00   -9.560E+00   -9.547E+00
    -9.535E+00   -9.522E+00   -9.511E+00   -9.499E+00   -9.488E+00   -9.477E+00   -9.466E+00   -9.455E+00   -9.445E+00   -9.435E+00
    -9.425E+00   -9.416E+00   -9.407E+00   -9.398E+00   -9.390E+00   -9.382E+00   -9.374E+00   -9.366E+00   -9.359E+00   -9.352E+00
    -9.346E+00   -9.339E+00   -9.333E+00   -9.328E+00   -9.323E+00   -9.318E+00   -9.313E+00   -9.309E+00   -9.305E+00   -9.301E+00
    -9.298E+00   -9.295E+00   -9.293E+00   -9.291E+00   -9.289E+00   -9.288E+00   -9.287E+00   -9.286E+00   -9.286E+00   -9.286E+00
    -9.287E+00   -9.288E+00   -9.289E+00   -9.290E+00   -9.292E+00   -9.295E+00   -9.297E+00   -9.300E+00   -9.304E+00   -9.307E+00
    -9.311E+00   -9.315E+00   -9.319E+00   -9.324E+00   -9.329E+00   -9.334E+00   -9.339E+00   -9.345E+00   -9.350E+00   -9.356E+00
    -9.362E+00   -9.368E+00   -9.374E+00   -9.381E+00   -9.387E+00   -9.394E+00   -9.400E+00   -9.407E+00   -9.414E+00   -9.421E+00
    -9.428E+00   -9.435E+00   -9.442E+00   -9.449E+00   -9.456E+00   -9.462E+00   -9.469E+00   -9.476E+00   -9.483E+00   -9.490E+00
    -9.497E+00   -9.503E+00   -9.510E+00   -9.516E+00   -9.522E+00   -9.529E+00   -9.535E+00   -9.540E+00   -9.546E+00   -9.552E+00
    -9.557E+00   -9.562E+00   -9.567E+00   -9.572E+00   -9.576E+00   -9.580E+00   -9.584E+00   -9.588E+00   -9.591E+00   -9.594E+00
    -9.597E+00   -9.599E+00   -9.602E+00   -9.603E+00   -9.605E+00   -9.606E+00   -9.606E+00   -9.607E+00   -9.607E+00   -9.606E+00
    -9.605E+00   -9.604E+00   -9.602E+00   -9.600E+00   -9.597E+00   -9.594E+00   -9.590E+00   -9.586E+00   -9.581E+00   -9.575E+00
    -9.570E+00   -9.563E+00   -9.556E+00   -9.549E+00   -9.541E+00   -9.532E+00   -9.522E+00   -9.512E+00   -9.502E+00   -9.491E+00
    -9.479E+00   -9.466E+00   -9.453E+00   -9.439E+00   -9.424E+00   -9.409E+00   -9.393E+00   -9.376E+00   -9.358E+00   -9.340E+00
    -9.321E+00   -9.301E+00   -9.280E+00   -9.259E+00   -9.237E+00   -9.214E+00   -9.190E+00   -9.166E+00   -9.141E+00   -9.115E+00
    -9.089E+00   -9.062E+00   -9.034E+00   -9.006E+00   -8.977E+00   -8.947E+00   -8.917E+00   -8.886E+00   -8.854E+00   -8.822E+00
    -8.789E+00   -8.756E+00   -8.722E+00   -8.687E+00   -8.652E+00   -8.617E+00   -8.581E+00   -8.544E+00   -8.507E+00   -8.469E+00
    -8.431E+00   -8.392E+00   -8.353E+00   -8.313E+00   -8.273E+00   -8.232E+00   -8.191E+00   -8.149E+00   -8.107E+00   -8.064E+00
    -8.022E+00   -7.978E+00   -7.934E+00   -7.890E+00   -7.846E+00   -7.801E+00   -7.756E+00   -7.710E+00   -7.664E+00   -7.618E+00
    -7.571E+00   -7.524E+00   -7.477E+00   -7.429E+00   -7.381E+00   -7.333E+00   -7.284E+00   -7.235E+00   -7.186E+00   -7.137E+00
    -7.087E+00   -7.037E+00   -6.987E+00   -6.937E+00   -6.886E+00   -6.836E+00   -6.785E+00   -6.734E+00   -6.682E+00   -6.631E+00
    -6.579E+00   -6.527E+00   -6.475E+00   -6.423E+00   -6.371E+00   -6.319E+00   -6.266E+00   -6.214E+00   -6.161E+00   -6.108E+00
    -6.055E+00   -6.002E+00   -5.950E+00   -5.897E+00   -5.843E+00   -5.790E+00   -5.737E+00   -5.684E+00   -5.631E+00   -5.578E+00
    -5.525E+00   -5.472E+00   -5.418E+00   -5.365E+00   -5.312E+00   -5.259E+00   -5.206E+00   -5.154E+00   -5.101E+00   -5.048E+00
    -4.996E+00   -4.943E+00   -4.891E+00   -4.839E+00   -4.786E+00   -4.734E+00   -4.683E+00   -4.631E+00   -4.579E+00   -4.528E+00
    -4.477E+00   -4.426E+00   -4.375E+00   -4.325E+00   -4.275E+00   -4.225E+00   -4.175E+00   -4.125E+00   -4.076E+00   -4.027E+00
    -3.978E+00   -3.930E+00   -3.881E+00   -3.834E+00   -3.786E+00   -3.739E+00   -3.692E+00   -3.645E+00   -3.599E+00   -3.553E+00
    -3.508E+00   -3.463E+00   -3.418E+00   -3.374E+00   -3.330E+00   -3.287E+00   -3.243E+00   -3.201E+00   -3.159E+00   -3.117E+00
    -3.076E+00   -3.035E+00   -2.995E+00   -2.955E+00   -2.916E+00   -2.877E+00   -2.838E+00   -2.801E+00   -2.763E+00   -2.727E+00
    -2.691E+00   -2.655E+00   -2.620E+00   -2.586E+00   -2.552E+00   -2.519E+00   -2.486E+00   -2.454E+00   -2.423E+00   -2.392E+00
    -2.362E+00   -2.332E+00   -2.303E+00   -2.275E+00   -2.248E+00   -2.221E+00   -2.195E+00   -2.170E+00   -2.145E+00   -2.121E+00
    -2.098E+00   -2.076E+00   -2.054E+00   -2.033E+00   -2.013E+00   -1.994E+00   -1.975E+00   -1.957E+00   -1.940E+00   -1.924E+00
    -1.909E+00   -1.895E+00   -1.881E+00   -1.868E+00   -1.856E+00   -1.845E+00   -1.835E+00   -1.826E+00   -1.817E+00   -1.810E+00
    -1.803E+00   -1.798E+00   -1.793E+00   -1.789E+00   -1.786E+00   -1.785E+00   -1.784E+00   -1.784E+00   -1.785E+00   -1.787E+00
    -1.790E+00   -1.794E+00   -1.799E+00   -1.805E+00   -1.812E+00   -1.820E+00   -1.828E+00   -1.838E+00   -1.849E+00   -1.860E+00
    -1.873E+00   -1.886E+00   -1.900E+00   -1.915E+00   -1.931E+00   -1.948E+00   -1.965E+00   -1.984E+00   -2.003E+00   -2.023E+00
    -2.044E+00   -2.066E+00   -2.088E+00   -2.112E+00   -2.136E+00   -2.161E+00   -2.186E+00   -2.212E+00   -2.240E+00   -2.267E+00
    -2.296E+00   -2.325E+00   -2.355E+00   -2.386E+00   -2.417E+00   -2.449E+00   -2.482E+00   -2.515E+00   -2.549E+00   -2.584E+00
    -2.619E+00   -2.655E+00   -2.692E+00   -2.729E+00   -2.767E+00   -2.805E+00   -2.844E+00   -2.884E+00   -2.924E+00   -2.965E+00
    -3.006E+00   -3.048E+00   -3.090E+00   -3.133E+00   -3.177E+00   -3.221E+00   -3.265E+00   -3.310E+00   -3.355E+00   -3.401E+00
    -3.448E+00   -3.495E+00   -3.542E+00   -3.590E+00   -3.638E+00   -3.686E+00   -3.735E+00   -3.785E+00   -3.835E+00   -3.885E+00
    -3.936E+00   -3.987E+00   -4.038E+00   -4.090E+00   -4.142E+00   -4.194E+00   -4.247E+00   -4.300E+00   -4.354E+00   -4.407E+00
    -4.461E+00   -4.516E+00   -4.570E+00   -4.625E+00   -4.680E+00   -4.736E+00   -4.792E+00   -4.847E+00   -4.904E+00   -4.960E+00
    -5.017E+00   -5.073E+00   -5.130E+00   -5.188E+00   -5.245E+00   -5.303E+00   -5.360E+00   -5.418E+00
 Ala      Conc. = 7.32E+03
