 LCModel (Version 6.3-1L) Copyright: S.W. Provencher.          Ref.: Magn. Reson. Med. 30:672-679 (1993).                
 Slice#2 Row#7 Col#11  K_02_press_1_raw_act
 36 lines in following concentration table = NCONC+1
    Conc.  %SD /Cr+PCr  Metabolite                                         
   79.905 140% 4.9E-02 Ala                                                 
    0.000 999%   0.000 Asp                                                 
   69.828 432% 4.3E-02 Cr                                                  
 1.56E+03  20%   0.957 PCr                                                 
    0.000 999%   0.000 GABA                                                
    0.000 999%   0.000 Glc                                                 
  626.829  35%   0.384 Gln                                                 
 1.82E+03  14%   1.115 Glu                                                 
  541.249   5%   0.332 GPC                                                 
    0.000 999%   0.000 PCh                                                 
  243.340  32%   0.149 GSH                                                 
  806.354  33%   0.494 Ins                                                 
    0.000 999%   0.000 Lac                                                 
 3.07E+03   5%   1.878 NAA                                                 
  537.902  26%   0.329 NAAG                                                
   33.843  92% 2.1E-02 Scyllo                                              
   12.392 999% 7.6E-03 Tau                                                 
 1.03E+03  13%   0.632 -CrCH2                                              
  541.249   5%   0.332 GPC+PCh                                             
 3.60E+03   3%   2.207 NAA+NAAG                                            
 1.63E+03   5%   1.000 Cr+PCr                                              
 2.45E+03  14%   1.499 Glu+Gln                                             
 2.73E+03  39%   1.670 Lip13a                                              
    0.000 999%   0.000 Lip13b                                              
  448.617  83%   0.275 Lip09                                               
 2.24E+03  21%   1.373 MM09                                                
  517.267  44%   0.317 Lip20                                               
 5.21E+03  12%   3.193 MM20                                                
  734.037  42%   0.450 MM12                                                
 4.28E+03  19%   2.621 MM14                                                
 2.03E+03  23%   1.243 MM17                                                
 2.73E+03  39%   1.670 Lip13a+Lip13b                                       
 7.74E+03  10%   4.740 MM14+Lip13a+Lip13b+MM12                             
 2.69E+03  13%   1.648 MM09+Lip09                                          
 5.73E+03  11%   3.510 MM20+Lip20                                          
   6 lines in following misc. output table
  FWHM = 0.038 ppm    S/N =  16                                            
  Data shift = 0.000 ppm                                                   
  Ph: -29 deg      -9.0 deg/ppm                                            
  alphaB,S = 4.6E-01,   8.8E+01                                            
   14 spline knots.   Ns = 6(1)                                            
  (11) 2 infls.   ( 3) 1 extrs.                                            
  498 points on ppm-axis = NY
      4.000000     3.992357     3.984714     3.977070     3.969427     3.961784     3.954141     3.946497     3.938854     3.931211
      3.923568     3.915925     3.908281     3.900638     3.892995     3.885352     3.877708     3.870065     3.862422     3.854779
      3.847136     3.839492     3.831849     3.824206     3.816563     3.808919     3.801276     3.793633     3.785990     3.778347
      3.770703     3.763060     3.755417     3.747774     3.740130     3.732487     3.724844     3.717201     3.709558     3.701914
      3.694271     3.686628     3.678985     3.671341     3.663698     3.656055     3.648412     3.640769     3.633125     3.625482
      3.617839     3.610196     3.602552     3.594909     3.587266     3.579623     3.571980     3.564336     3.556693     3.549050
      3.541407     3.533763     3.526120     3.518477     3.510834     3.503191     3.495547     3.487904     3.480261     3.472618
      3.464974     3.457331     3.449688     3.442045     3.434402     3.426758     3.419115     3.411472     3.403829     3.396185
      3.388542     3.380899     3.373256     3.365613     3.357969     3.350326     3.342683     3.335040     3.327396     3.319753
      3.312110     3.304467     3.296824     3.289180     3.281537     3.273894     3.266251     3.258607     3.250964     3.243321
      3.235678     3.228034     3.220391     3.212748     3.205105     3.197462     3.189818     3.182175     3.174532     3.166889
      3.159245     3.151602     3.143959     3.136316     3.128673     3.121029     3.113386     3.105743     3.098100     3.090456
      3.082813     3.075170     3.067527     3.059884     3.052240     3.044597     3.036954     3.029311     3.021667     3.014024
      3.006381     2.998738     2.991095     2.983451     2.975808     2.968165     2.960522     2.952878     2.945235     2.937592
      2.929949     2.922306     2.914662     2.907019     2.899376     2.891733     2.884089     2.876446     2.868803     2.861160
      2.853517     2.845873     2.838230     2.830587     2.822944     2.815300     2.807657     2.800014     2.792371     2.784728
      2.777084     2.769441     2.761798     2.754155     2.746511     2.738868     2.731225     2.723582     2.715939     2.708295
      2.700652     2.693009     2.685366     2.677722     2.670079     2.662436     2.654793     2.647150     2.639506     2.631863
      2.624220     2.616577     2.608933     2.601290     2.593647     2.586004     2.578361     2.570717     2.563074     2.555431
      2.547788     2.540144     2.532501     2.524858     2.517215     2.509572     2.501928     2.494285     2.486642     2.478999
      2.471355     2.463712     2.456069     2.448426     2.440783     2.433139     2.425496     2.417853     2.410210     2.402566
      2.394923     2.387280     2.379637     2.371994     2.364350     2.356707     2.349064     2.341421     2.333777     2.326134
      2.318491     2.310848     2.303205     2.295561     2.287918     2.280275     2.272632     2.264988     2.257345     2.249702
      2.242059     2.234416     2.226772     2.219129     2.211486     2.203843     2.196199     2.188556     2.180913     2.173270
      2.165627     2.157983     2.150340     2.142697     2.135054     2.127410     2.119767     2.112124     2.104481     2.096838
      2.089194     2.081551     2.073908     2.066265     2.058621     2.050978     2.043335     2.035692     2.028049     2.020405
      2.012762     2.005119     1.997476     1.989833     1.982190     1.974546     1.966903     1.959260     1.951617     1.943974
      1.936331     1.928688     1.921045     1.913402     1.905759     1.898115     1.890472     1.882829     1.875186     1.867543
      1.859900     1.852257     1.844614     1.836971     1.829327     1.821684     1.814041     1.806398     1.798755     1.791112
      1.783469     1.775826     1.768183     1.760540     1.752896     1.745253     1.737610     1.729967     1.722324     1.714681
      1.707038     1.699395     1.691752     1.684108     1.676465     1.668822     1.661179     1.653536     1.645893     1.638250
      1.630607     1.622964     1.615321     1.607677     1.600034     1.592391     1.584748     1.577105     1.569462     1.561819
      1.554176     1.546533     1.538890     1.531246     1.523603     1.515960     1.508317     1.500674     1.493031     1.485388
      1.477745     1.470102     1.462458     1.454815     1.447172     1.439529     1.431886     1.424243     1.416600     1.408957
      1.401314     1.393671     1.386027     1.378384     1.370741     1.363098     1.355455     1.347812     1.340169     1.332526
      1.324883     1.317240     1.309596     1.301953     1.294310     1.286667     1.279024     1.271381     1.263738     1.256095
      1.248452     1.240808     1.233165     1.225522     1.217879     1.210236     1.202593     1.194950     1.187307     1.179664
      1.172021     1.164377     1.156734     1.149091     1.141448     1.133805     1.126162     1.118519     1.110876     1.103233
      1.095590     1.087946     1.080303     1.072660     1.065017     1.057374     1.049731     1.042088     1.034445     1.026802
      1.019158     1.011515     1.003872     0.996229     0.988586     0.980943     0.973300     0.965657     0.958014     0.950371
      0.942727     0.935084     0.927441     0.919798     0.912155     0.904512     0.896869     0.889226     0.881583     0.873940
      0.866296     0.858653     0.851010     0.843367     0.835724     0.828081     0.820438     0.812795     0.805152     0.797508
      0.789865     0.782222     0.774579     0.766936     0.759293     0.751650     0.744007     0.736364     0.728721     0.721077
      0.713434     0.705791     0.698148     0.690505     0.682862     0.675219     0.667576     0.659933     0.652290     0.644646
      0.637003     0.629360     0.621717     0.614074     0.606431     0.598788     0.591145     0.583502     0.575858     0.568215
      0.560572     0.552929     0.545286     0.537643     0.530000     0.522357     0.514714     0.507071     0.499427     0.491784
      0.484141     0.476498     0.468855     0.461212     0.453569     0.445925     0.438282     0.430639     0.422996     0.415353
      0.407710     0.400067     0.392424     0.384780     0.377137     0.369494     0.361851     0.354208     0.346565     0.338922
      0.331278     0.323635     0.315992     0.308349     0.300706     0.293063     0.285420     0.277777     0.270133     0.262490
      0.254847     0.247204     0.239561     0.231918     0.224275     0.216631     0.208988     0.201345
 NY phased data points follow
   1.89641E+01  2.10542E+01  1.83460E+01  2.04084E+01  2.08572E+01  2.42304E+01  2.40266E+01  2.85367E+01  3.01263E+01  3.15014E+01
   3.22383E+01  3.54664E+01  3.20310E+01  3.01971E+01  2.55975E+01  2.15359E+01  1.72001E+01  1.68367E+01  1.64169E+01  1.84648E+01
   2.05498E+01  1.95776E+01  1.66885E+01  1.87724E+01  2.06180E+01  2.02126E+01  2.21953E+01  2.18995E+01  2.04682E+01  1.69887E+01
   1.94559E+01  1.96236E+01  2.33862E+01  2.07511E+01  1.90091E+01  1.82803E+01  1.62465E+01  2.03193E+01  1.58594E+01  1.79509E+01
   2.20876E+01  1.97709E+01  1.92892E+01  1.92584E+01  2.21977E+01  2.62708E+01  2.48376E+01  3.27391E+01  2.86639E+01  2.70185E+01
   2.37144E+01  2.40840E+01  2.00790E+01  2.10692E+01  1.90872E+01  1.93889E+01  2.02150E+01  2.06467E+01  1.76903E+01  1.78584E+01
   1.64032E+01  1.15385E+01  8.91298E+00  1.11160E+01  8.67701E+00  1.20297E+01  1.48542E+01  1.08383E+01  1.23494E+01  8.60553E+00
   1.13590E+01  1.06809E+01  1.29445E+01  1.01794E+01  1.49687E+01  1.11226E+01  1.34111E+01  1.06591E+01  1.06639E+01  1.42509E+01
   1.14725E+01  1.08973E+01  9.52592E+00  1.23369E+01  1.35084E+01  1.00767E+01  9.50561E+00  1.01856E+01  1.04240E+01  1.19108E+01
   1.63045E+01  1.77452E+01  1.35343E+01  1.67359E+01  1.66606E+01  1.80243E+01  1.59754E+01  2.08996E+01  2.25365E+01  2.40252E+01
   3.41841E+01  5.26645E+01  6.81852E+01  7.44670E+01  6.50344E+01  6.02644E+01  4.01247E+01  3.74860E+01  2.11298E+01  1.61988E+01
   1.86069E+01  1.91336E+01  1.86368E+01  1.81989E+01  1.26496E+01  1.59655E+01  1.57363E+01  1.36586E+01  1.43550E+01  1.86982E+01
   1.75978E+01  1.82729E+01  2.20417E+01  2.63543E+01  3.27408E+01  5.15081E+01  6.72884E+01  7.79945E+01  7.96663E+01  6.42105E+01
   5.02892E+01  3.76921E+01  2.62984E+01  1.78867E+01  2.00534E+01  1.72281E+01  1.39751E+01  1.72609E+01  1.15321E+01  1.58179E+01
   1.74189E+01  1.77955E+01  1.78984E+01  1.29121E+01  1.20457E+01  1.38183E+01  1.27286E+01  1.16208E+01  1.07764E+01  1.18446E+01
   9.38294E+00  8.63552E+00  8.52226E+00  1.17820E+01  9.88195E+00  1.32358E+01  1.36339E+01  1.02771E+01  1.05035E+01  1.31927E+01
   8.62111E+00  9.19281E+00  5.52233E+00  3.24639E+00  4.52302E+00  8.59672E+00  4.74566E+00 -2.43960E+00 -2.86432E+00 -5.58037E+00
  -1.23557E+01 -6.80830E+00 -9.80836E+00 -1.08324E+01 -1.51370E+01 -1.36037E+01 -1.74885E+01 -1.40379E+01 -7.59435E+00 -6.28561E+00
  -5.27961E+00 -5.38980E+00 -3.99036E+00 -9.41922E+00 -3.01359E+00 -6.01894E+00 -4.74982E+00 -7.52264E+00 -8.39411E+00 -4.89958E+00
  -2.52778E-01  5.11543E+00  2.70709E+00  4.68702E-01  2.13797E+00  3.65599E+00  7.45549E-01 -5.61085E+00 -6.85869E+00 -9.23929E+00
  -4.62993E+00 -2.61260E+00  2.96164E-01  1.22746E+01  9.69455E+00  1.31190E+01  7.69497E+00  4.68462E+00  7.40204E+00  4.88435E+00
   2.32825E-01  9.22777E+00  1.35074E+01  1.69388E+01  1.88265E+01  2.44171E+01  3.09851E+01  2.99125E+01  2.23410E+01  1.73253E+01
   8.05644E+00  2.06808E+00  9.39731E-01  7.20005E+00  5.13122E+00  1.69378E+01  1.88627E+01  1.97339E+01  2.34690E+01  2.23831E+01
   2.39255E+01  1.88743E+01  2.24975E+01  2.07416E+01  1.78294E+01  1.45006E+01  1.64266E+01  1.73226E+01  1.80724E+01  1.76448E+01
   1.86135E+01  1.20147E+01  8.27386E+00  1.07254E+01  1.33363E+01  2.07378E+01  2.28089E+01  2.45743E+01  2.57727E+01  2.74931E+01
   3.21405E+01  2.81873E+01  3.49833E+01  4.35691E+01  5.49244E+01  6.51840E+01  7.21305E+01  8.08568E+01  1.03510E+02  1.32496E+02
   1.53711E+02  1.54283E+02  1.33903E+02  1.00163E+02  6.81037E+01  4.90555E+01  3.31442E+01  2.57127E+01  1.99190E+01  1.88636E+01
   2.21243E+01  1.14045E+01  1.57646E+01  1.56086E+01  1.59079E+01  1.43549E+01  1.10744E+01  1.66326E+01  1.34495E+01  1.54456E+01
   1.49100E+01  1.06318E+01  9.94370E+00  1.32003E+01  1.12445E+01  1.16228E+01  1.02405E+01  9.78900E+00  1.04660E+01  1.83024E+01
   1.15862E+01  1.43819E+01  2.08357E+01  1.75375E+01  1.83312E+01  1.58469E+01  1.36669E+01  1.66698E+01  1.29077E+01  1.26172E+01
   8.73357E+00  1.10712E+01  1.60824E+01  1.35148E+01  1.19865E+01  1.84994E+01  2.19527E+01  2.89569E+01  2.48508E+01  2.26231E+01
   2.35735E+01  2.50869E+01  2.62680E+01  2.45167E+01  2.28297E+01  2.60226E+01  2.55249E+01  2.10281E+01  2.48661E+01  2.56814E+01
   2.44567E+01  2.30594E+01  2.70442E+01  2.72039E+01  2.56300E+01  2.22576E+01  2.44792E+01  2.59258E+01  2.71645E+01  2.62555E+01
   3.30868E+01  2.92862E+01  3.29812E+01  3.23907E+01  3.63103E+01  3.61753E+01  3.92713E+01  4.03167E+01  4.04245E+01  3.90444E+01
   3.79090E+01  4.15748E+01  4.30857E+01  3.90293E+01  4.16658E+01  4.05742E+01  3.83864E+01  3.81034E+01  3.42173E+01  3.71889E+01
   3.40829E+01  3.62171E+01  3.78181E+01  3.30103E+01  3.45658E+01  2.79485E+01  2.87952E+01  2.63733E+01  2.36987E+01  2.53000E+01
   2.16678E+01  2.37669E+01  1.99468E+01  2.04976E+01  2.11456E+01  1.77502E+01  2.17219E+01  2.10177E+01  2.22170E+01  2.18592E+01
   1.94391E+01  2.14086E+01  2.25683E+01  1.93591E+01  1.97901E+01  1.63309E+01  1.83435E+01  1.43886E+01  1.83944E+01  2.00849E+01
   1.34111E+01  1.26797E+01  1.51728E+01  1.42906E+01  9.72264E+00  1.53810E+01  1.82210E+01  1.69867E+01  1.91527E+01  1.51211E+01
   1.90195E+01  1.55240E+01  1.84478E+01  1.90312E+01  1.90600E+01  2.01348E+01  1.82637E+01  1.99051E+01  2.33333E+01  2.25095E+01
   1.81036E+01  2.37776E+01  2.18215E+01  2.16335E+01  2.15004E+01  2.05294E+01  2.06948E+01  2.41905E+01  2.31905E+01  2.54303E+01
   2.42905E+01  2.27089E+01  2.47132E+01  2.10399E+01  1.92732E+01  1.89006E+01  1.70407E+01  1.50237E+01  1.23972E+01  1.54430E+01
   1.50121E+01  1.34279E+01  1.15518E+01  9.64758E+00  1.18726E+01  9.87240E+00  1.25355E+01  9.81036E+00  8.90601E+00  1.01300E+01
   1.28582E+01  1.22740E+01  1.27361E+01  1.04719E+01  1.12905E+01  6.56524E+00  7.94780E+00  1.03785E+01  1.10710E+01  8.19068E+00
   6.27543E+00  9.13900E+00  7.91596E+00  5.62252E+00  7.15435E+00  6.63526E+00  9.54011E+00  6.70276E+00  6.49694E+00  5.11206E+00
   5.91025E+00  4.54897E+00  6.97120E+00  6.78193E+00  3.82880E+00  7.45019E+00  9.73727E+00  9.71362E+00  5.25025E+00  7.52759E+00
   6.24137E+00  7.92854E+00  4.42113E+00  5.74215E+00  8.23375E+00  2.59877E+00  7.07778E+00  5.60175E+00  8.09706E+00  5.15692E+00
   5.12728E+00  6.84124E+00  5.34205E+00  4.28633E+00  5.40506E+00  3.38107E+00  5.37001E+00  3.21868E+00  6.69042E+00  9.46742E+00
   5.48266E+00  8.46460E+00  7.69246E+00  4.76282E+00  6.93062E+00  6.91822E+00  4.67955E+00  6.14974E+00  6.43317E+00  5.97879E+00
   3.29561E+00  2.59802E+00  1.94587E+00  2.98937E+00  6.29248E+00  3.85808E+00  1.37562E+00  6.68070E+00
 NY points of the fit to the data follow
   1.79132E+01  1.76733E+01  1.78094E+01  1.84629E+01  1.97491E+01  2.13684E+01  2.36899E+01  2.70175E+01  3.08104E+01  3.38668E+01
   3.50103E+01  3.39010E+01  3.11770E+01  2.80218E+01  2.53756E+01  2.35245E+01  2.23292E+01  2.15240E+01  2.09465E+01  2.04996E+01
   2.01457E+01  1.99032E+01  1.95762E+01  1.92889E+01  1.91398E+01  1.87120E+01  1.81016E+01  1.79026E+01  1.86403E+01  2.04279E+01
   2.27897E+01  2.51187E+01  2.67059E+01  2.69869E+01  2.57942E+01  2.33658E+01  2.03915E+01  1.78413E+01  1.63247E+01  1.59698E+01
   1.66776E+01  1.80134E+01  1.93472E+01  2.04146E+01  2.14763E+01  2.27973E+01  2.41790E+01  2.50166E+01  2.47947E+01  2.34837E+01
   2.15164E+01  1.94800E+01  1.77819E+01  1.66452E+01  1.60499E+01  1.58487E+01  1.59243E+01  1.62047E+01  1.66393E+01  1.70680E+01
   1.72342E+01  1.69596E+01  1.62398E+01  1.52950E+01  1.44058E+01  1.38205E+01  1.36375E+01  1.37574E+01  1.40375E+01  1.43841E+01
   1.47197E+01  1.49472E+01  1.49804E+01  1.48047E+01  1.44741E+01  1.40966E+01  1.37514E+01  1.34706E+01  1.32462E+01  1.30793E+01
   1.29986E+01  1.29620E+01  1.28982E+01  1.28918E+01  1.29786E+01  1.29986E+01  1.27309E+01  1.21300E+01  1.13825E+01  1.07744E+01
   1.05264E+01  1.06292E+01  1.09280E+01  1.12916E+01  1.16396E+01  1.20247E+01  1.32450E+01  1.65028E+01  2.04018E+01  2.62591E+01
   3.71248E+01  5.23985E+01  6.66510E+01  7.34078E+01  6.97830E+01  5.81572E+01  4.39347E+01  3.16899E+01  2.30544E+01  1.76684E+01
   1.46017E+01  1.32727E+01  1.27312E+01  1.24398E+01  1.22580E+01  1.21447E+01  1.20786E+01  1.20533E+01  1.20937E+01  1.23119E+01
   1.32883E+01  1.65891E+01  2.10806E+01  2.67304E+01  3.67002E+01  5.17778E+01  6.74985E+01  7.69855E+01  7.59311E+01  6.54582E+01
   5.08529E+01  3.74626E+01  2.75950E+01  2.10295E+01  1.66792E+01  1.40348E+01  1.25160E+01  1.16567E+01  1.13888E+01  1.15659E+01
   1.19152E+01  1.21630E+01  1.21422E+01  1.18364E+01  1.13443E+01  1.08055E+01  1.03099E+01  9.88618E+00  9.49688E+00  9.13117E+00
   8.78173E+00  8.40885E+00  8.01391E+00  7.65886E+00  7.39091E+00  7.16701E+00  7.05456E+00  6.97137E+00  6.56658E+00  5.70159E+00
   4.48578E+00  3.47238E+00  3.30552E+00  3.96963E+00  4.76778E+00  4.96552E+00  4.28159E+00  2.98773E+00  1.62796E+00  5.77033E-01
  -1.16283E-01 -5.55500E-01 -8.71359E-01 -1.45166E+00 -2.40419E+00 -3.35052E+00 -3.63343E+00 -3.01716E+00 -2.08071E+00 -1.59048E+00
  -1.74814E+00 -2.18318E+00 -2.24966E+00 -1.77913E+00 -1.25576E+00 -9.13659E-01 -3.63514E-01  8.38825E-01  2.78567E+00  5.06620E+00
   6.96202E+00  7.99339E+00  7.97739E+00  7.28399E+00  6.45300E+00  5.79276E+00  5.38172E+00  5.27539E+00  5.62025E+00  6.37147E+00
   7.50261E+00  8.97212E+00  1.05478E+01  1.17957E+01  1.20158E+01  1.10020E+01  8.64251E+00  5.13093E+00  1.52657E+00 -9.84966E-01
  -1.65592E+00 -6.09869E-01  1.89657E+00  5.97111E+00  1.11086E+01  1.57853E+01  1.80729E+01  1.70710E+01  1.34203E+01  8.39277E+00
   3.02715E+00 -1.39274E+00 -3.40155E+00 -2.17928E+00  1.86843E+00  7.18128E+00  1.20599E+01  1.55686E+01  1.74497E+01  1.78806E+01
   1.73472E+01  1.66088E+01  1.61933E+01  1.63161E+01  1.69586E+01  1.79912E+01  1.91670E+01  2.01603E+01  2.08131E+01  2.08984E+01
   2.03031E+01  1.93456E+01  1.87612E+01  1.91210E+01  2.04444E+01  2.23200E+01  2.41865E+01  2.56602E+01  2.66336E+01  2.75469E+01
   2.90243E+01  3.08953E+01  3.40226E+01  3.97974E+01  5.03290E+01  6.34084E+01  7.35237E+01  8.58454E+01  1.06755E+02  1.32788E+02
   1.51645E+02  1.52216E+02  1.32968E+02  1.02464E+02  7.23569E+01  4.94323E+01  3.44004E+01  2.53219E+01  2.04460E+01  1.84218E+01
   1.72554E+01  1.64542E+01  1.59678E+01  1.56981E+01  1.54500E+01  1.50821E+01  1.45657E+01  1.39695E+01  1.33690E+01  1.28274E+01
   1.23884E+01  1.20766E+01  1.18833E+01  1.17652E+01  1.16630E+01  1.15507E+01  1.14380E+01  1.13415E+01  1.12854E+01  1.13054E+01
   1.14326E+01  1.16738E+01  1.20016E+01  1.23806E+01  1.27930E+01  1.32323E+01  1.36987E+01  1.42048E+01  1.47673E+01  1.54009E+01
   1.61076E+01  1.68730E+01  1.76702E+01  1.84725E+01  1.92560E+01  2.00022E+01  2.06953E+01  2.13234E+01  2.18779E+01  2.23528E+01
   2.27425E+01  2.30458E+01  2.32645E+01  2.34073E+01  2.34872E+01  2.35226E+01  2.35335E+01  2.35439E+01  2.35792E+01  2.36688E+01
   2.38465E+01  2.41486E+01  2.45492E+01  2.50599E+01  2.57331E+01  2.65147E+01  2.72587E+01  2.78597E+01  2.83440E+01  2.88894E+01
   2.96476E+01  3.06266E+01  3.18276E+01  3.32661E+01  3.48879E+01  3.65318E+01  3.79723E+01  3.90473E+01  3.97333E+01  4.01080E+01
   4.02626E+01  4.02518E+01  4.00942E+01  3.98031E+01  3.93885E+01  3.88505E+01  3.81980E+01  3.74476E+01  3.66170E+01  3.57253E+01
   3.47894E+01  3.38262E+01  3.28499E+01  3.18734E+01  3.09062E+01  2.99559E+01  2.90264E+01  2.81213E+01  2.72417E+01  2.63888E+01
   2.55615E+01  2.47592E+01  2.39798E+01  2.32234E+01  2.24891E+01  2.17780E+01  2.10899E+01  2.04263E+01  1.97883E+01  1.91789E+01
   1.86005E+01  1.80566E+01  1.75494E+01  1.70822E+01  1.66575E+01  1.62791E+01  1.59494E+01  1.56715E+01  1.54468E+01  1.52778E+01
   1.51660E+01  1.51139E+01  1.51224E+01  1.51928E+01  1.53250E+01  1.55197E+01  1.57763E+01  1.60945E+01  1.64718E+01  1.69055E+01
   1.73907E+01  1.79227E+01  1.84943E+01  1.90976E+01  1.97220E+01  2.03563E+01  2.09870E+01  2.16011E+01  2.21837E+01  2.27205E+01
   2.31961E+01  2.35970E+01  2.39104E+01  2.41263E+01  2.42362E+01  2.42349E+01  2.41190E+01  2.38897E+01  2.35501E+01  2.31075E+01
   2.25707E+01  2.19511E+01  2.12611E+01  2.05152E+01  1.97276E+01  1.89135E+01  1.80862E+01  1.72589E+01  1.64424E+01  1.56473E+01
   1.48817E+01  1.41525E+01  1.34638E+01  1.28191E+01  1.22195E+01  1.16661E+01  1.11579E+01  1.06939E+01  1.02713E+01  9.88799E+00
   9.54066E+00  9.22718E+00  8.94412E+00  8.68903E+00  8.45839E+00  8.25008E+00  8.06133E+00  7.89070E+00  7.73565E+00  7.59479E+00
   7.46582E+00  7.34793E+00  7.23955E+00  7.14024E+00  7.04841E+00  6.96356E+00  6.88429E+00  6.81064E+00  6.74168E+00  6.67747E+00
   6.61687E+00  6.55983E+00  6.50549E+00  6.45425E+00  6.40546E+00  6.35935E+00  6.31499E+00  6.27262E+00  6.23162E+00  6.19256E+00
   6.15485E+00  6.11876E+00  6.08348E+00  6.04942E+00  6.01612E+00  5.98419E+00  5.95301E+00  5.92284E+00  5.89299E+00  5.86399E+00
   5.83546E+00  5.80796E+00  5.78084E+00  5.75440E+00  5.72804E+00  5.70240E+00  5.67709E+00  5.65262E+00  5.62826E+00  5.60439E+00
   5.58052E+00  5.55733E+00  5.53440E+00  5.51215E+00  5.48989E+00  5.46805E+00  5.44624E+00  5.42514E+00  5.40427E+00  5.38399E+00
   5.36365E+00  5.34378E+00  5.32404E+00  5.30509E+00  5.28638E+00  5.26827E+00  5.25016E+00  5.23270E+00
 NY background values follow
     1.700E+01    1.694E+01    1.689E+01    1.683E+01    1.677E+01    1.671E+01    1.665E+01    1.659E+01    1.653E+01    1.647E+01
     1.641E+01    1.635E+01    1.630E+01    1.624E+01    1.618E+01    1.612E+01    1.606E+01    1.600E+01    1.595E+01    1.589E+01
     1.583E+01    1.577E+01    1.571E+01    1.566E+01    1.560E+01    1.554E+01    1.548E+01    1.542E+01    1.537E+01    1.531E+01
     1.525E+01    1.519E+01    1.513E+01    1.508E+01    1.502E+01    1.496E+01    1.490E+01    1.484E+01    1.479E+01    1.473E+01
     1.467E+01    1.461E+01    1.455E+01    1.450E+01    1.444E+01    1.438E+01    1.432E+01    1.426E+01    1.420E+01    1.414E+01
     1.409E+01    1.403E+01    1.397E+01    1.391E+01    1.385E+01    1.379E+01    1.373E+01    1.367E+01    1.361E+01    1.355E+01
     1.349E+01    1.343E+01    1.337E+01    1.331E+01    1.324E+01    1.318E+01    1.312E+01    1.306E+01    1.299E+01    1.293E+01
     1.287E+01    1.280E+01    1.274E+01    1.267E+01    1.260E+01    1.254E+01    1.247E+01    1.240E+01    1.233E+01    1.226E+01
     1.220E+01    1.213E+01    1.205E+01    1.198E+01    1.191E+01    1.184E+01    1.177E+01    1.169E+01    1.162E+01    1.154E+01
     1.147E+01    1.139E+01    1.131E+01    1.123E+01    1.115E+01    1.107E+01    1.099E+01    1.091E+01    1.083E+01    1.074E+01
     1.066E+01    1.058E+01    1.049E+01    1.040E+01    1.032E+01    1.023E+01    1.014E+01    1.005E+01    9.961E+00    9.870E+00
     9.778E+00    9.685E+00    9.592E+00    9.498E+00    9.403E+00    9.307E+00    9.211E+00    9.114E+00    9.016E+00    8.917E+00
     8.817E+00    8.717E+00    8.616E+00    8.514E+00    8.411E+00    8.307E+00    8.203E+00    8.098E+00    7.992E+00    7.885E+00
     7.778E+00    7.669E+00    7.560E+00    7.450E+00    7.340E+00    7.228E+00    7.116E+00    7.003E+00    6.889E+00    6.775E+00
     6.660E+00    6.545E+00    6.430E+00    6.315E+00    6.199E+00    6.084E+00    5.968E+00    5.853E+00    5.738E+00    5.624E+00
     5.510E+00    5.396E+00    5.284E+00    5.172E+00    5.061E+00    4.951E+00    4.842E+00    4.734E+00    4.628E+00    4.523E+00
     4.419E+00    4.317E+00    4.217E+00    4.118E+00    4.022E+00    3.927E+00    3.834E+00    3.744E+00    3.655E+00    3.569E+00
     3.486E+00    3.405E+00    3.327E+00    3.251E+00    3.178E+00    3.108E+00    3.042E+00    2.978E+00    2.917E+00    2.860E+00
     2.806E+00    2.756E+00    2.710E+00    2.666E+00    2.626E+00    2.590E+00    2.557E+00    2.527E+00    2.500E+00    2.476E+00
     2.455E+00    2.437E+00    2.421E+00    2.409E+00    2.399E+00    2.391E+00    2.386E+00    2.384E+00    2.383E+00    2.385E+00
     2.389E+00    2.396E+00    2.404E+00    2.414E+00    2.426E+00    2.440E+00    2.456E+00    2.473E+00    2.492E+00    2.512E+00
     2.534E+00    2.556E+00    2.581E+00    2.606E+00    2.632E+00    2.660E+00    2.688E+00    2.718E+00    2.748E+00    2.778E+00
     2.810E+00    2.842E+00    2.874E+00    2.907E+00    2.940E+00    2.973E+00    3.007E+00    3.041E+00    3.074E+00    3.108E+00
     3.142E+00    3.176E+00    3.210E+00    3.244E+00    3.279E+00    3.313E+00    3.347E+00    3.382E+00    3.417E+00    3.451E+00
     3.486E+00    3.521E+00    3.556E+00    3.591E+00    3.626E+00    3.661E+00    3.697E+00    3.732E+00    3.767E+00    3.803E+00
     3.838E+00    3.874E+00    3.910E+00    3.946E+00    3.981E+00    4.017E+00    4.053E+00    4.090E+00    4.126E+00    4.162E+00
     4.198E+00    4.235E+00    4.271E+00    4.308E+00    4.344E+00    4.381E+00    4.417E+00    4.454E+00    4.491E+00    4.528E+00
     4.565E+00    4.602E+00    4.639E+00    4.676E+00    4.713E+00    4.750E+00    4.787E+00    4.825E+00    4.862E+00    4.899E+00
     4.936E+00    4.973E+00    5.010E+00    5.046E+00    5.083E+00    5.120E+00    5.156E+00    5.192E+00    5.229E+00    5.265E+00
     5.300E+00    5.336E+00    5.371E+00    5.406E+00    5.441E+00    5.476E+00    5.510E+00    5.544E+00    5.578E+00    5.612E+00
     5.645E+00    5.677E+00    5.710E+00    5.742E+00    5.774E+00    5.805E+00    5.836E+00    5.866E+00    5.896E+00    5.926E+00
     5.955E+00    5.984E+00    6.012E+00    6.040E+00    6.067E+00    6.093E+00    6.119E+00    6.145E+00    6.170E+00    6.194E+00
     6.218E+00    6.241E+00    6.264E+00    6.286E+00    6.308E+00    6.329E+00    6.350E+00    6.370E+00    6.389E+00    6.408E+00
     6.427E+00    6.445E+00    6.463E+00    6.480E+00    6.496E+00    6.512E+00    6.528E+00    6.543E+00    6.558E+00    6.572E+00
     6.586E+00    6.599E+00    6.612E+00    6.624E+00    6.636E+00    6.647E+00    6.658E+00    6.669E+00    6.679E+00    6.689E+00
     6.698E+00    6.707E+00    6.715E+00    6.723E+00    6.731E+00    6.738E+00    6.745E+00    6.752E+00    6.758E+00    6.763E+00
     6.769E+00    6.774E+00    6.778E+00    6.782E+00    6.786E+00    6.790E+00    6.793E+00    6.796E+00    6.798E+00    6.800E+00
     6.802E+00    6.804E+00    6.805E+00    6.806E+00    6.807E+00    6.807E+00    6.808E+00    6.808E+00    6.807E+00    6.807E+00
     6.806E+00    6.805E+00    6.804E+00    6.803E+00    6.801E+00    6.800E+00    6.798E+00    6.796E+00    6.794E+00    6.791E+00
     6.789E+00    6.786E+00    6.784E+00    6.781E+00    6.778E+00    6.775E+00    6.772E+00    6.769E+00    6.765E+00    6.762E+00
     6.759E+00    6.755E+00    6.752E+00    6.748E+00    6.745E+00    6.741E+00    6.738E+00    6.734E+00    6.731E+00    6.727E+00
     6.724E+00    6.721E+00    6.717E+00    6.714E+00    6.710E+00    6.706E+00    6.703E+00    6.699E+00    6.695E+00    6.691E+00
     6.688E+00    6.684E+00    6.679E+00    6.675E+00    6.671E+00    6.667E+00    6.662E+00    6.658E+00    6.653E+00    6.648E+00
     6.643E+00    6.638E+00    6.632E+00    6.627E+00    6.621E+00    6.615E+00    6.609E+00    6.603E+00    6.596E+00    6.590E+00
     6.583E+00    6.576E+00    6.569E+00    6.561E+00    6.553E+00    6.545E+00    6.537E+00    6.528E+00    6.519E+00    6.510E+00
     6.501E+00    6.491E+00    6.481E+00    6.471E+00    6.460E+00    6.449E+00    6.438E+00    6.427E+00    6.415E+00    6.403E+00
     6.391E+00    6.378E+00    6.365E+00    6.353E+00    6.339E+00    6.326E+00    6.312E+00    6.298E+00    6.284E+00    6.270E+00
     6.256E+00    6.241E+00    6.226E+00    6.212E+00    6.196E+00    6.181E+00    6.166E+00    6.150E+00    6.135E+00    6.119E+00
     6.103E+00    6.087E+00    6.071E+00    6.055E+00    6.039E+00    6.022E+00    6.006E+00    5.989E+00    5.973E+00    5.956E+00
     5.940E+00    5.923E+00    5.906E+00    5.889E+00    5.873E+00    5.856E+00    5.839E+00    5.822E+00
 Ala      Conc. = 7.99E+01
