 LCModel (Version 6.3-1L) Copyright: S.W. Provencher.          Ref.: Magn. Reson. Med. 30:672-679 (1993).                
 Slice#1 Row#6 Col#9  K_02_press_1_raw_act
 36 lines in following concentration table = NCONC+1
    Conc.  %SD /Cr+PCr  Metabolite                                         
   64.443 156% 6.5E-02 Ala                                                 
    0.000 999%   0.000 Asp                                                 
  512.852  36%   0.517 Cr                                                  
  479.448  39%   0.483 PCr                                                 
    0.000 999%   0.000 GABA                                                
    0.000 999%   0.000 Glc                                                 
  346.406  57%   0.349 Gln                                                 
  802.539  27%   0.809 Glu                                                 
  401.612   5%   0.405 GPC                                                 
    0.000 999%   0.000 PCh                                                 
  314.759  22%   0.317 GSH                                                 
  868.571  26%   0.875 Ins                                                 
    0.000 999%   0.000 Lac                                                 
 1.44E+03   7%   1.448 NAA                                                 
  482.021  22%   0.486 NAAG                                                
    0.000 999%   0.000 Scyllo                                              
    0.000 999%   0.000 Tau                                                 
    0.000 999%   0.000 -CrCH2                                              
  401.612   5%   0.405 GPC+PCh                                             
 1.92E+03   5%   1.934 NAA+NAAG                                            
  992.300   6%   1.000 Cr+PCr                                              
 1.15E+03  26%   1.158 Glu+Gln                                             
 2.03E+03  28%   2.049 Lip13a                                              
    0.000 999%   0.000 Lip13b                                              
  224.171 155%   0.226 Lip09                                               
 2.55E+03  16%   2.565 MM09                                                
  373.239  69%   0.376 Lip20                                               
 2.97E+03  16%   2.994 MM20                                                
 1.18E+03  22%   1.185 MM12                                                
 2.65E+03  10%   2.671 MM14                                                
 1.98E+03  21%   1.996 MM17                                                
 2.03E+03  28%   2.049 Lip13a+Lip13b                                       
 5.86E+03  10%   5.906 MM14+Lip13a+Lip13b+MM12                             
 2.77E+03  10%   2.791 MM09+Lip09                                          
 3.34E+03  14%   3.370 MM20+Lip20                                          
   6 lines in following misc. output table
  FWHM = 0.046 ppm    S/N =   9                                            
  Data shift = 0.000 ppm                                                   
  Ph:  23 deg      18.9 deg/ppm                                            
  alphaB,S = 1.4E+00,   9.3E+01                                            
   14 spline knots.   Ns = 7(1)                                            
  (12) 2 infls.   (12) 1 extrs.                                            
  498 points on ppm-axis = NY
      4.000000     3.992357     3.984714     3.977070     3.969427     3.961784     3.954141     3.946497     3.938854     3.931211
      3.923568     3.915925     3.908281     3.900638     3.892995     3.885352     3.877708     3.870065     3.862422     3.854779
      3.847136     3.839492     3.831849     3.824206     3.816563     3.808919     3.801276     3.793633     3.785990     3.778347
      3.770703     3.763060     3.755417     3.747774     3.740130     3.732487     3.724844     3.717201     3.709558     3.701914
      3.694271     3.686628     3.678985     3.671341     3.663698     3.656055     3.648412     3.640769     3.633125     3.625482
      3.617839     3.610196     3.602552     3.594909     3.587266     3.579623     3.571980     3.564336     3.556693     3.549050
      3.541407     3.533763     3.526120     3.518477     3.510834     3.503191     3.495547     3.487904     3.480261     3.472618
      3.464974     3.457331     3.449688     3.442045     3.434402     3.426758     3.419115     3.411472     3.403829     3.396185
      3.388542     3.380899     3.373256     3.365613     3.357969     3.350326     3.342683     3.335040     3.327396     3.319753
      3.312110     3.304467     3.296824     3.289180     3.281537     3.273894     3.266251     3.258607     3.250964     3.243321
      3.235678     3.228034     3.220391     3.212748     3.205105     3.197462     3.189818     3.182175     3.174532     3.166889
      3.159245     3.151602     3.143959     3.136316     3.128673     3.121029     3.113386     3.105743     3.098100     3.090456
      3.082813     3.075170     3.067527     3.059884     3.052240     3.044597     3.036954     3.029311     3.021667     3.014024
      3.006381     2.998738     2.991095     2.983451     2.975808     2.968165     2.960522     2.952878     2.945235     2.937592
      2.929949     2.922306     2.914662     2.907019     2.899376     2.891733     2.884089     2.876446     2.868803     2.861160
      2.853517     2.845873     2.838230     2.830587     2.822944     2.815300     2.807657     2.800014     2.792371     2.784728
      2.777084     2.769441     2.761798     2.754155     2.746511     2.738868     2.731225     2.723582     2.715939     2.708295
      2.700652     2.693009     2.685366     2.677722     2.670079     2.662436     2.654793     2.647150     2.639506     2.631863
      2.624220     2.616577     2.608933     2.601290     2.593647     2.586004     2.578361     2.570717     2.563074     2.555431
      2.547788     2.540144     2.532501     2.524858     2.517215     2.509572     2.501928     2.494285     2.486642     2.478999
      2.471355     2.463712     2.456069     2.448426     2.440783     2.433139     2.425496     2.417853     2.410210     2.402566
      2.394923     2.387280     2.379637     2.371994     2.364350     2.356707     2.349064     2.341421     2.333777     2.326134
      2.318491     2.310848     2.303205     2.295561     2.287918     2.280275     2.272632     2.264988     2.257345     2.249702
      2.242059     2.234416     2.226772     2.219129     2.211486     2.203843     2.196199     2.188556     2.180913     2.173270
      2.165627     2.157983     2.150340     2.142697     2.135054     2.127410     2.119767     2.112124     2.104481     2.096838
      2.089194     2.081551     2.073908     2.066265     2.058621     2.050978     2.043335     2.035692     2.028049     2.020405
      2.012762     2.005119     1.997476     1.989833     1.982190     1.974546     1.966903     1.959260     1.951617     1.943974
      1.936331     1.928688     1.921045     1.913402     1.905759     1.898115     1.890472     1.882829     1.875186     1.867543
      1.859900     1.852257     1.844614     1.836971     1.829327     1.821684     1.814041     1.806398     1.798755     1.791112
      1.783469     1.775826     1.768183     1.760540     1.752896     1.745253     1.737610     1.729967     1.722324     1.714681
      1.707038     1.699395     1.691752     1.684108     1.676465     1.668822     1.661179     1.653536     1.645893     1.638250
      1.630607     1.622964     1.615321     1.607677     1.600034     1.592391     1.584748     1.577105     1.569462     1.561819
      1.554176     1.546533     1.538890     1.531246     1.523603     1.515960     1.508317     1.500674     1.493031     1.485388
      1.477745     1.470102     1.462458     1.454815     1.447172     1.439529     1.431886     1.424243     1.416600     1.408957
      1.401314     1.393671     1.386027     1.378384     1.370741     1.363098     1.355455     1.347812     1.340169     1.332526
      1.324883     1.317240     1.309596     1.301953     1.294310     1.286667     1.279024     1.271381     1.263738     1.256095
      1.248452     1.240808     1.233165     1.225522     1.217879     1.210236     1.202593     1.194950     1.187307     1.179664
      1.172021     1.164377     1.156734     1.149091     1.141448     1.133805     1.126162     1.118519     1.110876     1.103233
      1.095590     1.087946     1.080303     1.072660     1.065017     1.057374     1.049731     1.042088     1.034445     1.026802
      1.019158     1.011515     1.003872     0.996229     0.988586     0.980943     0.973300     0.965657     0.958014     0.950371
      0.942727     0.935084     0.927441     0.919798     0.912155     0.904512     0.896869     0.889226     0.881583     0.873940
      0.866296     0.858653     0.851010     0.843367     0.835724     0.828081     0.820438     0.812795     0.805152     0.797508
      0.789865     0.782222     0.774579     0.766936     0.759293     0.751650     0.744007     0.736364     0.728721     0.721077
      0.713434     0.705791     0.698148     0.690505     0.682862     0.675219     0.667576     0.659933     0.652290     0.644646
      0.637003     0.629360     0.621717     0.614074     0.606431     0.598788     0.591145     0.583502     0.575858     0.568215
      0.560572     0.552929     0.545286     0.537643     0.530000     0.522357     0.514714     0.507071     0.499427     0.491784
      0.484141     0.476498     0.468855     0.461212     0.453569     0.445925     0.438282     0.430639     0.422996     0.415353
      0.407710     0.400067     0.392424     0.384780     0.377137     0.369494     0.361851     0.354208     0.346565     0.338922
      0.331278     0.323635     0.315992     0.308349     0.300706     0.293063     0.285420     0.277777     0.270133     0.262490
      0.254847     0.247204     0.239561     0.231918     0.224275     0.216631     0.208988     0.201345
 NY phased data points follow
   3.60481E+01  3.90772E+01  3.38914E+01  3.56462E+01  3.24231E+01  3.57003E+01  3.70626E+01  4.49235E+01  4.63424E+01  5.08783E+01
   5.47943E+01  5.47629E+01  5.08917E+01  4.29880E+01  4.42927E+01  3.15207E+01  3.00049E+01  3.07629E+01  2.88070E+01  2.75804E+01
   3.25881E+01  3.20919E+01  2.71872E+01  2.40492E+01  3.19571E+01  2.40890E+01  3.49791E+01  2.66359E+01  3.05573E+01  3.29179E+01
   3.24587E+01  2.25540E+01  2.92835E+01  2.42729E+01  2.46683E+01  2.37841E+01  3.03395E+01  2.74261E+01  2.27283E+01  2.34419E+01
   2.48674E+01  2.46780E+01  2.64349E+01  1.94013E+01  1.96225E+01  2.47173E+01  2.87014E+01  2.93345E+01  2.99564E+01  2.99606E+01
   2.08089E+01  2.22021E+01  2.03540E+01  2.11252E+01  1.84150E+01  2.24479E+01  2.27843E+01  2.31353E+01  2.38163E+01  1.74948E+01
   2.07459E+01  1.95597E+01  1.38675E+01  7.59776E+00  1.25106E+01  1.68189E+01  4.00577E+00  1.18952E+01  1.04701E+01  1.38042E+01
   6.95552E+00  7.65429E+00  1.20514E+01  1.17356E+01  8.96324E+00  1.07597E+01  1.02570E+01  1.10992E+01  7.42039E+00  4.41549E+00
   7.21060E+00  5.78345E+00  1.11642E+01  1.11110E+01  8.76765E+00  5.55951E+00  1.01376E+01  2.25394E+00  4.70060E+00  9.10869E+00
   1.01083E+01  5.84855E+00  8.68130E+00  6.19193E+00  1.08973E+01  1.51602E+01  1.17209E+01  1.14698E+01  2.19986E+01  2.38776E+01
   3.09341E+01  3.65622E+01  5.12493E+01  4.98445E+01  5.14219E+01  3.40658E+01  2.55208E+01  1.26989E+01  1.09577E+01  8.00972E+00
   8.84944E+00  7.01165E+00  4.59950E+00  8.63004E+00  8.39970E+00  3.21632E+00  5.20578E+00  4.32013E+00  1.07640E+00  9.00261E+00
   1.07161E+01  1.05328E+01  1.21194E+01  2.08588E+01  1.78535E+01  3.16918E+01  3.34963E+01  4.07405E+01  4.12062E+01  3.51691E+01
   2.30259E+01  1.75953E+01  1.40431E+01  1.09768E+01  8.59615E-01  5.80085E+00  8.70957E+00  1.56921E+00  6.13518E+00  7.63617E+00
   8.70038E+00  5.32912E+00  3.57622E+00  2.40678E+00 -1.04921E+00 -2.81570E+00  1.88723E+00  6.07146E-01 -4.50716E-02 -9.51027E-01
   1.42333E+00 -3.42096E+00  1.06817E+00  1.42593E+00 -7.50990E+00 -1.70038E+00  4.04505E+00  3.21794E+00  5.00042E+00  6.37844E+00
   2.01123E+00 -1.37466E+00 -3.96265E+00 -5.67091E+00 -8.45105E-01  2.77754E-01 -1.60012E+00 -7.90930E-01 -8.19301E+00 -9.00166E+00
  -6.61843E+00 -1.00134E+01 -7.23499E+00 -1.15311E+01 -1.24683E+01 -1.57359E+01 -1.08203E+01 -1.58180E+01 -7.50693E+00 -1.24631E+01
  -1.09126E+01 -7.71969E+00 -7.86027E+00 -9.09273E+00 -8.67102E+00 -6.13154E+00 -6.81671E+00 -8.76154E+00 -8.58180E+00 -2.57216E+00
  -3.04230E+00 -6.31239E+00 -2.47132E+00 -4.59995E+00 -8.41536E+00 -2.72018E+00 -9.95391E+00 -1.00948E+01 -7.86802E+00 -9.99067E+00
  -1.02988E+01 -6.16537E+00 -9.20512E+00 -3.22359E+00 -5.01249E+00 -7.27858E+00 -3.94108E+00 -4.19176E+00 -4.90425E+00 -1.12020E+01
  -6.24443E+00  1.54439E-02  2.10601E+00  6.54848E-01  5.67582E+00  2.21588E+00  1.57338E+00  4.84563E-01 -1.04836E+00 -4.73817E+00
  -2.96778E+00 -6.00028E+00 -7.70687E+00 -4.25597E+00 -4.13039E+00 -4.38247E+00 -2.01971E+00  3.73569E+00  2.80691E+00  3.19781E+00
   1.01063E+00 -9.37228E-02 -3.94635E-01 -3.19005E+00 -4.63276E-01 -1.30384E+00 -7.13433E-02 -2.29976E+00  3.85310E+00  1.92273E-01
  -1.74399E+00  6.84215E-01 -5.83965E+00 -2.53124E+00 -8.37140E-01  5.38664E-01  3.86530E+00  5.05893E+00  7.41350E+00  7.37351E+00
   6.18544E+00  1.61076E+01  1.79387E+01  2.72467E+01  2.87299E+01  3.80904E+01  3.94205E+01  4.32153E+01  5.16192E+01  5.98983E+01
   5.82052E+01  5.88376E+01  4.20351E+01  2.40805E+01  7.21803E+00  1.53548E+00 -5.96240E+00 -7.68780E+00 -5.72495E+00 -1.89809E+00
  -6.69951E+00 -8.11903E+00  1.28380E+00 -5.28811E+00 -8.38315E+00 -7.74752E+00 -4.78776E+00 -6.04773E+00 -3.55779E+00 -5.49625E+00
  -4.78963E+00 -6.38307E+00 -2.40403E+00 -3.70837E+00 -8.16224E+00 -7.88852E+00 -1.25936E+00 -3.11213E+00 -3.84813E+00 -4.85476E+00
  -5.05593E+00 -2.69256E+00 -4.39812E+00 -1.86517E+00 -4.16195E+00  2.11684E-01 -5.99524E-01  2.68376E+00  7.68228E-02 -2.24855E+00
   1.12894E+00  4.78218E+00  2.31100E+00  1.47571E+00  1.95227E+00  7.51633E+00  9.74119E+00  2.25759E+00  7.32843E+00  7.54751E+00
   9.38881E+00  1.40732E+01  1.03882E+01  9.87571E+00  8.81666E+00  7.76690E+00  9.69861E+00  4.72604E+00  8.25984E+00  1.56834E+01
   1.08590E+01  1.30442E+01  1.80017E+01  1.38857E+01  1.53541E+01  1.17226E+01  1.15573E+01  1.06059E+01  6.32904E+00  5.89412E+00
   3.47003E+00  3.89765E-01  3.81291E+00 -1.65707E+00  3.40696E-01  9.91015E-01 -5.01699E+00 -3.39190E+00 -7.07932E+00 -6.76306E+00
  -4.42795E+00 -8.46200E+00 -1.37997E+01 -5.93561E+00 -5.88833E+00 -2.68502E+00 -8.14150E-02  4.06472E-02 -3.34106E+00 -2.42140E+00
  -2.35584E+00 -3.19582E+00 -4.42943E+00 -3.46026E+00  8.17299E-01  3.67003E+00  2.75802E-01  2.26437E+00  4.86188E+00  5.54420E+00
  -3.58394E+00  2.49220E+00  3.22845E+00 -1.26449E+00  1.12176E+00  3.02428E+00  6.52353E+00  1.98301E+00 -1.20514E+00  1.29312E+00
   6.38938E+00  3.47556E+00  2.60302E+00  1.39184E+00  3.76749E-01  3.05594E+00  7.36876E+00  8.53810E-01 -6.56739E-01  3.90911E+00
  -4.48714E+00  8.80675E-01  1.64965E+00  6.63333E-01 -2.48534E+00 -2.39849E+00 -3.09375E+00  2.90063E+00  1.47510E+00  1.20926E+00
  -4.21321E+00  2.77373E-01 -6.52923E-01  1.75012E+00 -2.80970E+00  4.81605E+00  4.35601E+00  8.19119E-01  4.15231E+00  7.55538E+00
   3.81826E+00  7.93213E+00  4.59568E+00  6.95262E+00  5.34325E+00  4.56415E+00  5.26053E+00  9.67429E+00  4.40167E+00 -9.79828E-03
  -1.82986E+00 -4.75030E+00  1.49299E-01 -2.21082E+00 -3.28341E+00 -4.14268E+00 -3.90495E+00 -6.99367E+00 -4.15924E+00 -1.19509E+01
  -1.11331E+01 -7.25409E+00 -7.51237E+00 -1.06588E+01 -9.46572E+00 -3.53140E+00 -1.21949E+01 -1.23107E+01 -1.42869E+01 -1.12159E+01
  -8.23090E+00 -1.04575E+01 -1.44644E+01 -1.12463E+01 -9.40932E+00 -6.96702E+00 -1.36427E+01 -9.51207E+00 -1.12745E+01 -1.01512E+01
  -5.87394E+00 -7.79995E+00 -1.18244E+01 -1.13794E+01 -9.27714E+00 -1.19249E+01 -1.38222E+01 -1.38782E+01 -5.28045E+00 -1.15209E+01
  -1.17784E+01 -9.88534E+00 -9.85315E+00 -1.27486E+01 -1.29239E+01 -1.15403E+01 -1.32310E+01 -1.27064E+01 -1.15997E+01 -1.35395E+01
  -1.00974E+01 -9.13206E+00 -1.52607E+01 -1.36841E+01 -1.06860E+01 -1.05156E+01 -1.02906E+01 -1.66893E+01 -1.20197E+01 -1.03732E+01
  -1.09315E+01 -1.51363E+01 -1.19074E+01 -1.45677E+01 -1.41484E+01 -1.20100E+01 -1.12145E+01 -6.02096E+00 -1.03792E+01 -6.84987E+00
  -1.44245E+01 -9.21267E+00 -1.16927E+01 -1.02666E+01 -9.35937E+00 -1.22373E+01 -1.52149E+01 -1.45432E+01 -1.47515E+01 -1.19002E+01
  -1.17279E+01 -2.02104E+01 -1.81505E+01 -1.35818E+01 -1.27399E+01 -1.73937E+01 -1.28764E+01 -1.28707E+01
 NY points of the fit to the data follow
   3.01071E+01  2.98842E+01  3.01837E+01  3.12289E+01  3.29042E+01  3.53379E+01  3.83394E+01  4.18759E+01  4.57760E+01  4.93988E+01
   5.16444E+01  5.14586E+01  4.85823E+01  4.38099E+01  3.85446E+01  3.40749E+01  3.09866E+01  2.91450E+01  2.80771E+01  2.73769E+01
   2.67747E+01  2.61900E+01  2.58588E+01  2.58681E+01  2.60053E+01  2.63488E+01  2.71010E+01  2.83741E+01  2.99188E+01  3.11994E+01
   3.16990E+01  3.11698E+01  2.97772E+01  2.79594E+01  2.60688E+01  2.43769E+01  2.31278E+01  2.23473E+01  2.19003E+01  2.17665E+01
   2.19788E+01  2.24873E+01  2.31223E+01  2.38301E+01  2.46729E+01  2.56667E+01  2.65962E+01  2.70163E+01  2.64900E+01  2.49309E+01
   2.27168E+01  2.04605E+01  1.87192E+01  1.77389E+01  1.74072E+01  1.74775E+01  1.77116E+01  1.80001E+01  1.82779E+01  1.84429E+01
   1.83528E+01  1.78858E+01  1.70524E+01  1.60301E+01  1.50873E+01  1.44836E+01  1.42880E+01  1.44026E+01  1.46599E+01  1.49207E+01
   1.50889E+01  1.51045E+01  1.49348E+01  1.45790E+01  1.40882E+01  1.35560E+01  1.30737E+01  1.26845E+01  1.23776E+01  1.21072E+01
   1.17899E+01  1.13927E+01  1.09130E+01  1.03647E+01  9.73365E+00  9.01286E+00  8.26261E+00  7.63212E+00  7.28665E+00  7.33487E+00
   7.74380E+00  8.33969E+00  8.94349E+00  9.44636E+00  9.85587E+00  1.05785E+01  1.29218E+01  1.64419E+01  2.03697E+01  2.53456E+01
   3.23002E+01  4.07439E+01  4.80528E+01  5.08123E+01  4.70325E+01  3.76993E+01  2.63706E+01  1.67520E+01  1.05601E+01  7.49140E+00
   6.43340E+00  6.15353E+00  6.02168E+00  5.93567E+00  5.87466E+00  5.83243E+00  5.81154E+00  5.83356E+00  5.94768E+00  6.33658E+00
   7.80440E+00  1.08590E+01  1.45188E+01  1.87182E+01  2.40884E+01  3.08485E+01  3.76421E+01  4.18196E+01  4.10873E+01  3.51878E+01
   2.62522E+01  1.74192E+01  1.07861E+01  6.62908E+00  4.29778E+00  3.00481E+00  2.26206E+00  2.07518E+00  2.39534E+00  2.98009E+00
   3.50916E+00  3.73162E+00  3.56804E+00  3.10511E+00  2.51330E+00  1.94893E+00  1.48535E+00  1.09597E+00  7.49852E-01  4.22329E-01
   9.28339E-02 -2.34657E-01 -5.38120E-01 -8.08064E-01 -1.05586E+00 -1.22888E+00 -1.32833E+00 -1.45239E+00 -1.70835E+00 -2.18872E+00
  -2.78704E+00 -3.25650E+00 -3.42305E+00 -3.34862E+00 -3.26872E+00 -3.43398E+00 -3.92956E+00 -4.63336E+00 -5.33061E+00 -5.85915E+00
  -6.15968E+00 -6.28032E+00 -6.41905E+00 -6.73893E+00 -7.23603E+00 -7.67116E+00 -7.79461E+00 -7.59083E+00 -7.29933E+00 -7.19010E+00
  -7.35800E+00 -7.56740E+00 -7.54597E+00 -7.23972E+00 -6.75022E+00 -6.16073E+00 -5.46809E+00 -4.58942E+00 -3.53951E+00 -2.55419E+00
  -1.98360E+00 -2.08290E+00 -2.78501E+00 -3.81799E+00 -4.83966E+00 -5.55290E+00 -5.77405E+00 -5.44572E+00 -4.69535E+00 -3.73286E+00
  -2.79614E+00 -2.07130E+00 -1.70794E+00 -1.85183E+00 -2.48256E+00 -3.60269E+00 -5.17499E+00 -6.88000E+00 -8.24043E+00 -8.78654E+00
  -8.43176E+00 -7.32947E+00 -5.67853E+00 -3.74795E+00 -1.94247E+00 -8.15798E-01 -7.99278E-01 -1.90787E+00 -3.77365E+00 -5.89363E+00
  -7.70018E+00 -8.70210E+00 -8.59074E+00 -7.36670E+00 -5.42735E+00 -3.34587E+00 -1.66287E+00 -7.02363E-01 -4.80516E-01 -7.58274E-01
  -1.12311E+00 -1.27551E+00 -1.07013E+00 -5.21997E-01  2.07013E-01  8.31631E-01  1.11754E+00  1.04840E+00  7.07019E-01  2.01689E-01
  -3.01298E-01 -5.45740E-01 -3.09301E-01  4.84745E-01  1.70447E+00  3.05121E+00  4.22491E+00  5.10544E+00  6.03296E+00  7.52336E+00
   9.34906E+00  1.16032E+01  1.49626E+01  2.10778E+01  2.92851E+01  3.67172E+01  4.25604E+01  4.77657E+01  5.32664E+01  5.79525E+01
   5.88400E+01  5.32054E+01  4.11796E+01  2.62956E+01  1.30503E+01  4.02949E+00 -8.21085E-01 -2.83051E+00 -3.57022E+00 -4.04106E+00
  -4.40451E+00 -4.67356E+00 -4.87218E+00 -5.05258E+00 -5.27198E+00 -5.55871E+00 -5.88811E+00 -6.20766E+00 -6.46159E+00 -6.61606E+00
  -6.66729E+00 -6.63150E+00 -6.53407E+00 -6.40476E+00 -6.26059E+00 -6.09874E+00 -5.90740E+00 -5.66730E+00 -5.35674E+00 -4.95650E+00
  -4.45926E+00 -3.87820E+00 -3.24213E+00 -2.57934E+00 -1.91426E+00 -1.25900E+00 -6.14262E-01  2.52515E-02  6.66881E-01  1.31490E+00
   1.96594E+00  2.60958E+00  3.23177E+00  3.82215E+00  4.37857E+00  4.90625E+00  5.41487E+00  5.91636E+00  6.42145E+00  6.93912E+00
   7.47540E+00  8.03232E+00  8.60776E+00  9.19553E+00  9.78540E+00  1.03631E+01  1.09106E+01  1.14073E+01  1.18326E+01  1.21714E+01
   1.24141E+01  1.25109E+01  1.24203E+01  1.21461E+01  1.16861E+01  1.10056E+01  1.00503E+01  8.80189E+00  7.34910E+00  5.84456E+00
   4.40665E+00  3.11696E+00  2.01409E+00  1.10741E+00  3.69989E-01 -2.70693E-01 -9.02963E-01 -1.58463E+00 -2.30650E+00 -2.99475E+00
  -3.56594E+00 -3.97251E+00 -4.20495E+00 -4.28051E+00 -4.22653E+00 -4.06219E+00 -3.80306E+00 -3.46361E+00 -3.05790E+00 -2.59979E+00
  -2.10309E+00 -1.58128E+00 -1.04727E+00 -5.13326E-01  8.80956E-03  5.07801E-01  9.72868E-01  1.39416E+00  1.76302E+00  2.07209E+00
   2.31523E+00  2.48763E+00  2.58605E+00  2.60921E+00  2.55788E+00  2.43477E+00  2.24432E+00  1.99263E+00  1.68752E+00  1.33843E+00
   9.56189E-01  5.52463E-01  1.39340E-01 -2.70927E-01 -6.66024E-01 -1.03386E+00 -1.36297E+00 -1.64300E+00 -1.86489E+00 -2.02098E+00
  -2.10491E+00 -2.11182E+00 -2.03861E+00 -1.88414E+00 -1.64926E+00 -1.33664E+00 -9.50747E-01 -4.97970E-01  1.31945E-02  5.72162E-01
   1.16648E+00  1.78221E+00  2.40413E+00  3.01597E+00  3.60068E+00  4.14096E+00  4.62006E+00  5.02241E+00  5.33416E+00  5.54361E+00
   5.64159E+00  5.62196E+00  5.48205E+00  5.22277E+00  4.84837E+00  4.36612E+00  3.78595E+00  3.12009E+00  2.38264E+00  1.58888E+00
   7.54486E-01 -1.05171E-01 -9.75459E-01 -1.84279E+00 -2.69493E+00 -3.52137E+00 -4.31360E+00 -5.06513E+00 -5.77133E+00 -6.42914E+00
  -7.03696E+00 -7.59454E+00 -8.10288E+00 -8.56392E+00 -8.98015E+00 -9.35437E+00 -9.68962E+00 -9.98912E+00 -1.02563E+01 -1.04943E+01
  -1.07063E+01 -1.08949E+01 -1.10626E+01 -1.12118E+01 -1.13448E+01 -1.14636E+01 -1.15696E+01 -1.16644E+01 -1.17491E+01 -1.18251E+01
  -1.18933E+01 -1.19548E+01 -1.20101E+01 -1.20598E+01 -1.21046E+01 -1.21451E+01 -1.21818E+01 -1.22150E+01 -1.22450E+01 -1.22721E+01
  -1.22965E+01 -1.23187E+01 -1.23389E+01 -1.23572E+01 -1.23737E+01 -1.23885E+01 -1.24018E+01 -1.24139E+01 -1.24249E+01 -1.24347E+01
  -1.24433E+01 -1.24510E+01 -1.24578E+01 -1.24640E+01 -1.24694E+01 -1.24740E+01 -1.24779E+01 -1.24812E+01 -1.24840E+01 -1.24864E+01
  -1.24883E+01 -1.24896E+01 -1.24904E+01 -1.24909E+01 -1.24911E+01 -1.24909E+01 -1.24904E+01 -1.24894E+01 -1.24882E+01 -1.24867E+01
  -1.24851E+01 -1.24831E+01 -1.24809E+01 -1.24783E+01 -1.24755E+01 -1.24726E+01 -1.24695E+01 -1.24661E+01 -1.24624E+01 -1.24585E+01
  -1.24544E+01 -1.24502E+01 -1.24457E+01 -1.24410E+01 -1.24359E+01 -1.24306E+01 -1.24251E+01 -1.24194E+01
 NY background values follow
     2.756E+01    2.733E+01    2.710E+01    2.687E+01    2.665E+01    2.642E+01    2.619E+01    2.596E+01    2.574E+01    2.551E+01
     2.528E+01    2.505E+01    2.483E+01    2.460E+01    2.437E+01    2.414E+01    2.392E+01    2.369E+01    2.346E+01    2.323E+01
     2.301E+01    2.278E+01    2.255E+01    2.233E+01    2.210E+01    2.188E+01    2.165E+01    2.142E+01    2.120E+01    2.097E+01
     2.075E+01    2.052E+01    2.030E+01    2.007E+01    1.985E+01    1.963E+01    1.940E+01    1.918E+01    1.896E+01    1.873E+01
     1.851E+01    1.829E+01    1.807E+01    1.785E+01    1.763E+01    1.741E+01    1.719E+01    1.697E+01    1.675E+01    1.653E+01
     1.631E+01    1.609E+01    1.587E+01    1.566E+01    1.544E+01    1.522E+01    1.501E+01    1.479E+01    1.458E+01    1.436E+01
     1.415E+01    1.394E+01    1.373E+01    1.351E+01    1.330E+01    1.309E+01    1.288E+01    1.267E+01    1.247E+01    1.226E+01
     1.205E+01    1.184E+01    1.164E+01    1.143E+01    1.123E+01    1.103E+01    1.082E+01    1.062E+01    1.042E+01    1.022E+01
     1.002E+01    9.822E+00    9.624E+00    9.427E+00    9.230E+00    9.035E+00    8.841E+00    8.647E+00    8.454E+00    8.263E+00
     8.072E+00    7.882E+00    7.693E+00    7.505E+00    7.318E+00    7.132E+00    6.946E+00    6.762E+00    6.579E+00    6.397E+00
     6.215E+00    6.035E+00    5.855E+00    5.676E+00    5.499E+00    5.322E+00    5.146E+00    4.971E+00    4.797E+00    4.624E+00
     4.452E+00    4.280E+00    4.110E+00    3.941E+00    3.772E+00    3.605E+00    3.438E+00    3.272E+00    3.107E+00    2.943E+00
     2.780E+00    2.618E+00    2.456E+00    2.296E+00    2.137E+00    1.978E+00    1.820E+00    1.663E+00    1.507E+00    1.352E+00
     1.198E+00    1.045E+00    8.925E-01    7.409E-01    5.903E-01    4.405E-01    2.916E-01    1.436E-01   -3.544E-03   -1.498E-01
    -2.952E-01   -4.396E-01   -5.832E-01   -7.259E-01   -8.677E-01   -1.009E+00   -1.148E+00   -1.288E+00   -1.426E+00   -1.563E+00
    -1.699E+00   -1.834E+00   -1.969E+00   -2.102E+00   -2.235E+00   -2.367E+00   -2.497E+00   -2.627E+00   -2.756E+00   -2.883E+00
    -3.010E+00   -3.136E+00   -3.261E+00   -3.385E+00   -3.508E+00   -3.630E+00   -3.751E+00   -3.871E+00   -3.990E+00   -4.108E+00
    -4.225E+00   -4.341E+00   -4.456E+00   -4.570E+00   -4.682E+00   -4.794E+00   -4.905E+00   -5.015E+00   -5.124E+00   -5.232E+00
    -5.339E+00   -5.444E+00   -5.549E+00   -5.653E+00   -5.755E+00   -5.857E+00   -5.958E+00   -6.057E+00   -6.156E+00   -6.253E+00
    -6.350E+00   -6.446E+00   -6.540E+00   -6.634E+00   -6.727E+00   -6.818E+00   -6.909E+00   -6.999E+00   -7.088E+00   -7.176E+00
    -7.263E+00   -7.350E+00   -7.435E+00   -7.519E+00   -7.603E+00   -7.685E+00   -7.767E+00   -7.848E+00   -7.928E+00   -8.007E+00
    -8.086E+00   -8.163E+00   -8.240E+00   -8.315E+00   -8.390E+00   -8.465E+00   -8.538E+00   -8.611E+00   -8.682E+00   -8.753E+00
    -8.824E+00   -8.893E+00   -8.962E+00   -9.030E+00   -9.097E+00   -9.163E+00   -9.229E+00   -9.294E+00   -9.358E+00   -9.421E+00
    -9.484E+00   -9.546E+00   -9.607E+00   -9.668E+00   -9.728E+00   -9.787E+00   -9.846E+00   -9.903E+00   -9.960E+00   -1.002E+01
    -1.007E+01   -1.013E+01   -1.018E+01   -1.024E+01   -1.029E+01   -1.034E+01   -1.039E+01   -1.044E+01   -1.049E+01   -1.054E+01
    -1.059E+01   -1.064E+01   -1.069E+01   -1.074E+01   -1.078E+01   -1.083E+01   -1.087E+01   -1.092E+01   -1.096E+01   -1.100E+01
    -1.105E+01   -1.109E+01   -1.113E+01   -1.117E+01   -1.121E+01   -1.125E+01   -1.129E+01   -1.133E+01   -1.136E+01   -1.140E+01
    -1.144E+01   -1.147E+01   -1.151E+01   -1.154E+01   -1.158E+01   -1.161E+01   -1.164E+01   -1.168E+01   -1.171E+01   -1.174E+01
    -1.177E+01   -1.180E+01   -1.183E+01   -1.186E+01   -1.189E+01   -1.191E+01   -1.194E+01   -1.197E+01   -1.199E+01   -1.202E+01
    -1.204E+01   -1.207E+01   -1.209E+01   -1.212E+01   -1.214E+01   -1.216E+01   -1.219E+01   -1.221E+01   -1.223E+01   -1.225E+01
    -1.227E+01   -1.229E+01   -1.231E+01   -1.233E+01   -1.234E+01   -1.236E+01   -1.238E+01   -1.240E+01   -1.241E+01   -1.243E+01
    -1.244E+01   -1.246E+01   -1.247E+01   -1.249E+01   -1.250E+01   -1.252E+01   -1.253E+01   -1.254E+01   -1.255E+01   -1.256E+01
    -1.258E+01   -1.259E+01   -1.260E+01   -1.261E+01   -1.262E+01   -1.263E+01   -1.263E+01   -1.264E+01   -1.265E+01   -1.266E+01
    -1.267E+01   -1.267E+01   -1.268E+01   -1.269E+01   -1.269E+01   -1.270E+01   -1.270E+01   -1.271E+01   -1.271E+01   -1.272E+01
    -1.272E+01   -1.272E+01   -1.273E+01   -1.273E+01   -1.273E+01   -1.274E+01   -1.274E+01   -1.274E+01   -1.274E+01   -1.274E+01
    -1.274E+01   -1.275E+01   -1.275E+01   -1.275E+01   -1.275E+01   -1.275E+01   -1.275E+01   -1.275E+01   -1.275E+01   -1.274E+01
    -1.274E+01   -1.274E+01   -1.274E+01   -1.274E+01   -1.274E+01   -1.273E+01   -1.273E+01   -1.273E+01   -1.273E+01   -1.272E+01
    -1.272E+01   -1.272E+01   -1.271E+01   -1.271E+01   -1.271E+01   -1.270E+01   -1.270E+01   -1.269E+01   -1.269E+01   -1.268E+01
    -1.268E+01   -1.267E+01   -1.267E+01   -1.266E+01   -1.266E+01   -1.265E+01   -1.265E+01   -1.264E+01   -1.264E+01   -1.263E+01
    -1.262E+01   -1.262E+01   -1.261E+01   -1.260E+01   -1.260E+01   -1.259E+01   -1.258E+01   -1.258E+01   -1.257E+01   -1.256E+01
    -1.256E+01   -1.255E+01   -1.254E+01   -1.254E+01   -1.253E+01   -1.252E+01   -1.251E+01   -1.251E+01   -1.250E+01   -1.249E+01
    -1.248E+01   -1.248E+01   -1.247E+01   -1.246E+01   -1.245E+01   -1.244E+01   -1.244E+01   -1.243E+01   -1.242E+01   -1.241E+01
    -1.241E+01   -1.240E+01   -1.239E+01   -1.238E+01   -1.237E+01   -1.237E+01   -1.236E+01   -1.235E+01   -1.234E+01   -1.233E+01
    -1.233E+01   -1.232E+01   -1.231E+01   -1.230E+01   -1.229E+01   -1.229E+01   -1.228E+01   -1.227E+01   -1.226E+01   -1.226E+01
    -1.225E+01   -1.224E+01   -1.223E+01   -1.223E+01   -1.222E+01   -1.221E+01   -1.220E+01   -1.220E+01   -1.219E+01   -1.218E+01
    -1.218E+01   -1.217E+01   -1.216E+01   -1.215E+01   -1.215E+01   -1.214E+01   -1.214E+01   -1.213E+01   -1.212E+01   -1.212E+01
    -1.211E+01   -1.210E+01   -1.210E+01   -1.209E+01   -1.209E+01   -1.208E+01   -1.208E+01   -1.207E+01   -1.206E+01   -1.206E+01
    -1.205E+01   -1.205E+01   -1.204E+01   -1.204E+01   -1.203E+01   -1.203E+01   -1.202E+01   -1.202E+01   -1.201E+01   -1.201E+01
    -1.200E+01   -1.200E+01   -1.199E+01   -1.199E+01   -1.198E+01   -1.198E+01   -1.197E+01   -1.197E+01   -1.196E+01   -1.196E+01
    -1.195E+01   -1.195E+01   -1.194E+01   -1.194E+01   -1.193E+01   -1.193E+01   -1.192E+01   -1.192E+01
 Ala      Conc. = 6.44E+01
