 LCModel (Version 6.3-1L) Copyright: S.W. Provencher.          Ref.: Magn. Reson. Med. 30:672-679 (1993).                
 Slice#2 Row#14 Col#7  K_02_press_1_raw_act
 36 lines in following concentration table = NCONC+1
    Conc.  %SD /Cr+PCr  Metabolite                                         
   44.232  86%   0.570 Ala                                                 
   10.951 172%   0.141 Asp                                                 
   77.617  27%   1.000 Cr                                                  
    0.000 999%   0.000 PCr                                                 
    7.635 149% 9.8E-02 GABA                                                
    9.675 118%   0.125 Glc                                                 
  147.344  61%   1.898 Gln                                                 
  126.247  85%   1.627 Glu                                                 
   15.955 130%   0.206 GPC                                                 
    6.702 315% 8.6E-02 PCh                                                 
  115.979  26%   1.494 GSH                                                 
  435.886  27%   5.616 Ins                                                 
   64.143  65%   0.826 Lac                                                 
   87.767  29%   1.131 NAA                                                 
   28.272  90%   0.364 NAAG                                                
    7.083  52% 9.1E-02 Scyllo                                              
   26.257  71%   0.338 Tau                                                 
   93.073  29%   1.199 -CrCH2                                              
   22.657  35%   0.292 GPC+PCh                                             
  116.039  24%   1.495 NAA+NAAG                                            
   77.617  27%   1.000 Cr+PCr                                              
  273.591  56%   3.525 Glu+Gln                                             
    0.000 999%   0.000 Lip13a                                              
    0.000 999%   0.000 Lip13b                                              
 2.01E-03 999% 2.6E-05 Lip09                                               
   95.755  73%   1.234 MM09                                                
    0.000 999%   0.000 Lip20                                               
  142.743  76%   1.839 MM20                                                
   24.285 102%   0.313 MM12                                                
   33.524 215%   0.432 MM14                                                
   48.481  93%   0.625 MM17                                                
    0.000 999%   0.000 Lip13a+Lip13b                                       
   57.809 155%   0.745 MM14+Lip13a+Lip13b+MM12                             
   95.757  73%   1.234 MM09+Lip09                                          
  142.743  76%   1.839 MM20+Lip20                                          
   6 lines in following misc. output table
  FWHM = 0.069 ppm    S/N =   1                                            
  Data shift =-0.054 ppm                                                   
  Ph: -86 deg     -13.0 deg/ppm                                            
  alphaB,S = 4.8E-01,   4.0E-01                                            
   14 spline knots.   Ns = 5(1)                                            
   6 inflections.     7 extrema                                            
  498 points on ppm-axis = NY
      4.000000     3.992357     3.984714     3.977070     3.969427     3.961784     3.954141     3.946497     3.938854     3.931211
      3.923568     3.915925     3.908281     3.900638     3.892995     3.885352     3.877708     3.870065     3.862422     3.854779
      3.847136     3.839492     3.831849     3.824206     3.816563     3.808919     3.801276     3.793633     3.785990     3.778347
      3.770703     3.763060     3.755417     3.747774     3.740130     3.732487     3.724844     3.717201     3.709558     3.701914
      3.694271     3.686628     3.678985     3.671341     3.663698     3.656055     3.648412     3.640769     3.633125     3.625482
      3.617839     3.610196     3.602552     3.594909     3.587266     3.579623     3.571980     3.564336     3.556693     3.549050
      3.541407     3.533763     3.526120     3.518477     3.510834     3.503191     3.495547     3.487904     3.480261     3.472618
      3.464974     3.457331     3.449688     3.442045     3.434402     3.426758     3.419115     3.411472     3.403829     3.396185
      3.388542     3.380899     3.373256     3.365613     3.357969     3.350326     3.342683     3.335040     3.327396     3.319753
      3.312110     3.304467     3.296824     3.289180     3.281537     3.273894     3.266251     3.258607     3.250964     3.243321
      3.235678     3.228034     3.220391     3.212748     3.205105     3.197462     3.189818     3.182175     3.174532     3.166889
      3.159245     3.151602     3.143959     3.136316     3.128673     3.121029     3.113386     3.105743     3.098100     3.090456
      3.082813     3.075170     3.067527     3.059884     3.052240     3.044597     3.036954     3.029311     3.021667     3.014024
      3.006381     2.998738     2.991095     2.983451     2.975808     2.968165     2.960522     2.952878     2.945235     2.937592
      2.929949     2.922306     2.914662     2.907019     2.899376     2.891733     2.884089     2.876446     2.868803     2.861160
      2.853517     2.845873     2.838230     2.830587     2.822944     2.815300     2.807657     2.800014     2.792371     2.784728
      2.777084     2.769441     2.761798     2.754155     2.746511     2.738868     2.731225     2.723582     2.715939     2.708295
      2.700652     2.693009     2.685366     2.677722     2.670079     2.662436     2.654793     2.647150     2.639506     2.631863
      2.624220     2.616577     2.608933     2.601290     2.593647     2.586004     2.578361     2.570717     2.563074     2.555431
      2.547788     2.540144     2.532501     2.524858     2.517215     2.509572     2.501928     2.494285     2.486642     2.478999
      2.471355     2.463712     2.456069     2.448426     2.440783     2.433139     2.425496     2.417853     2.410210     2.402566
      2.394923     2.387280     2.379637     2.371994     2.364350     2.356707     2.349064     2.341421     2.333777     2.326134
      2.318491     2.310848     2.303205     2.295561     2.287918     2.280275     2.272632     2.264988     2.257345     2.249702
      2.242059     2.234416     2.226772     2.219129     2.211486     2.203843     2.196199     2.188556     2.180913     2.173270
      2.165627     2.157983     2.150340     2.142697     2.135054     2.127410     2.119767     2.112124     2.104481     2.096838
      2.089194     2.081551     2.073908     2.066265     2.058621     2.050978     2.043335     2.035692     2.028049     2.020405
      2.012762     2.005119     1.997476     1.989833     1.982190     1.974546     1.966903     1.959260     1.951617     1.943974
      1.936331     1.928688     1.921045     1.913402     1.905759     1.898115     1.890472     1.882829     1.875186     1.867543
      1.859900     1.852257     1.844614     1.836971     1.829327     1.821684     1.814041     1.806398     1.798755     1.791112
      1.783469     1.775826     1.768183     1.760540     1.752896     1.745253     1.737610     1.729967     1.722324     1.714681
      1.707038     1.699395     1.691752     1.684108     1.676465     1.668822     1.661179     1.653536     1.645893     1.638250
      1.630607     1.622964     1.615321     1.607677     1.600034     1.592391     1.584748     1.577105     1.569462     1.561819
      1.554176     1.546533     1.538890     1.531246     1.523603     1.515960     1.508317     1.500674     1.493031     1.485388
      1.477745     1.470102     1.462458     1.454815     1.447172     1.439529     1.431886     1.424243     1.416600     1.408957
      1.401314     1.393671     1.386027     1.378384     1.370741     1.363098     1.355455     1.347812     1.340169     1.332526
      1.324883     1.317240     1.309596     1.301953     1.294310     1.286667     1.279024     1.271381     1.263738     1.256095
      1.248452     1.240808     1.233165     1.225522     1.217879     1.210236     1.202593     1.194950     1.187307     1.179664
      1.172021     1.164377     1.156734     1.149091     1.141448     1.133805     1.126162     1.118519     1.110876     1.103233
      1.095590     1.087946     1.080303     1.072660     1.065017     1.057374     1.049731     1.042088     1.034445     1.026802
      1.019158     1.011515     1.003872     0.996229     0.988586     0.980943     0.973300     0.965657     0.958014     0.950371
      0.942727     0.935084     0.927441     0.919798     0.912155     0.904512     0.896869     0.889226     0.881583     0.873940
      0.866296     0.858653     0.851010     0.843367     0.835724     0.828081     0.820438     0.812795     0.805152     0.797508
      0.789865     0.782222     0.774579     0.766936     0.759293     0.751650     0.744007     0.736364     0.728721     0.721077
      0.713434     0.705791     0.698148     0.690505     0.682862     0.675219     0.667576     0.659933     0.652290     0.644646
      0.637003     0.629360     0.621717     0.614074     0.606431     0.598788     0.591145     0.583502     0.575858     0.568215
      0.560572     0.552929     0.545286     0.537643     0.530000     0.522357     0.514714     0.507071     0.499427     0.491784
      0.484141     0.476498     0.468855     0.461212     0.453569     0.445925     0.438282     0.430639     0.422996     0.415353
      0.407710     0.400067     0.392424     0.384780     0.377137     0.369494     0.361851     0.354208     0.346565     0.338922
      0.331278     0.323635     0.315992     0.308349     0.300706     0.293063     0.285420     0.277777     0.270133     0.262490
      0.254847     0.247204     0.239561     0.231918     0.224275     0.216631     0.208988     0.201345
 NY phased data points follow
  -6.12170E+01 -5.98661E+01 -5.86685E+01 -5.92604E+01 -5.78046E+01 -6.13635E+01 -5.97144E+01 -5.50353E+01 -5.81085E+01 -5.65041E+01
  -5.12718E+01 -5.36818E+01 -5.47666E+01 -5.09533E+01 -5.37942E+01 -5.27487E+01 -4.92038E+01 -5.50630E+01 -4.93602E+01 -4.82009E+01
  -4.87295E+01 -4.78241E+01 -5.02591E+01 -5.07000E+01 -4.78558E+01 -4.87284E+01 -4.54480E+01 -4.52508E+01 -4.51597E+01 -4.23096E+01
  -4.74825E+01 -4.30782E+01 -3.99998E+01 -4.47377E+01 -3.97862E+01 -3.85923E+01 -4.48218E+01 -4.04132E+01 -4.00122E+01 -3.70209E+01
  -3.89884E+01 -4.36991E+01 -4.05041E+01 -3.83103E+01 -3.73994E+01 -3.58759E+01 -3.89927E+01 -3.68805E+01 -3.76880E+01 -3.78597E+01
  -3.76985E+01 -3.55789E+01 -3.43050E+01 -3.59604E+01 -3.48991E+01 -3.56395E+01 -3.39488E+01 -3.56539E+01 -3.47828E+01 -3.22767E+01
  -3.53810E+01 -3.32945E+01 -3.33202E+01 -3.39303E+01 -3.40255E+01 -3.17932E+01 -3.08915E+01 -3.11689E+01 -3.00668E+01 -3.22300E+01
  -3.13925E+01 -2.83858E+01 -3.23818E+01 -2.91664E+01 -3.03475E+01 -2.69201E+01 -3.16221E+01 -2.93860E+01 -3.00182E+01 -2.76914E+01
  -2.74830E+01 -2.47599E+01 -3.02808E+01 -2.49337E+01 -2.77856E+01 -2.62116E+01 -2.49193E+01 -2.88079E+01 -2.66890E+01 -2.45328E+01
  -2.76434E+01 -2.73486E+01 -2.56642E+01 -2.78482E+01 -2.44028E+01 -2.63903E+01 -2.75134E+01 -2.53377E+01 -2.73116E+01 -2.41371E+01
  -2.48250E+01 -2.36481E+01 -2.35881E+01 -2.36158E+01 -2.29425E+01 -2.23988E+01 -2.50372E+01 -2.31577E+01 -2.17537E+01 -2.72019E+01
  -2.38672E+01 -2.45891E+01 -2.37575E+01 -1.94339E+01 -2.40521E+01 -2.16749E+01 -2.36851E+01 -2.32870E+01 -2.48991E+01 -2.22907E+01
  -2.28260E+01 -2.28600E+01 -2.10816E+01 -2.16953E+01 -2.14667E+01 -1.94993E+01 -1.79261E+01 -1.87651E+01 -1.70035E+01 -1.68259E+01
  -1.67583E+01 -1.63421E+01 -2.12712E+01 -2.21439E+01 -2.21930E+01 -1.94094E+01 -1.79138E+01 -2.12203E+01 -2.05496E+01 -2.09329E+01
  -2.01724E+01 -2.00026E+01 -2.11910E+01 -2.14728E+01 -1.90431E+01 -1.80806E+01 -1.85856E+01 -1.78181E+01 -1.93943E+01 -1.85001E+01
  -1.88250E+01 -2.02776E+01 -1.61634E+01 -1.76802E+01 -1.64173E+01 -1.81193E+01 -1.95062E+01 -1.77524E+01 -1.87913E+01 -1.89420E+01
  -1.65830E+01 -1.81186E+01 -1.72160E+01 -1.69195E+01 -1.99384E+01 -1.84561E+01 -1.99433E+01 -1.90984E+01 -1.77689E+01 -1.86089E+01
  -1.53075E+01 -1.67832E+01 -1.85054E+01 -1.92304E+01 -1.79578E+01 -1.53733E+01 -1.59270E+01 -1.98350E+01 -1.48875E+01 -1.46456E+01
  -1.85148E+01 -1.73276E+01 -1.46294E+01 -1.57533E+01 -1.70221E+01 -1.68860E+01 -1.67406E+01 -1.57877E+01 -1.70149E+01 -1.62113E+01
  -1.49822E+01 -1.52035E+01 -1.33265E+01 -1.68822E+01 -1.56689E+01 -1.37663E+01 -1.46752E+01 -1.36543E+01 -1.30196E+01 -1.52673E+01
  -1.24583E+01 -1.40754E+01 -1.43376E+01 -1.12588E+01 -1.43491E+01 -1.32688E+01 -1.45760E+01 -1.43487E+01 -1.23056E+01 -1.37431E+01
  -1.31220E+01 -1.41122E+01 -1.62954E+01 -1.68159E+01 -1.22070E+01 -1.13192E+01 -1.17871E+01 -1.26617E+01 -1.33864E+01 -1.24492E+01
  -1.41377E+01 -1.40175E+01 -1.44904E+01 -1.45374E+01 -1.28796E+01 -1.00744E+01 -1.28069E+01 -1.27134E+01 -1.06951E+01 -1.21278E+01
  -1.34189E+01 -1.12697E+01 -1.21889E+01 -1.28779E+01 -1.17157E+01 -1.26591E+01 -1.24892E+01 -1.10738E+01 -1.14732E+01 -1.39540E+01
  -1.31556E+01 -1.25731E+01 -1.13755E+01 -1.26975E+01 -1.21672E+01 -1.38391E+01 -9.39702E+00 -1.00766E+01 -1.23541E+01 -8.53833E+00
  -1.21494E+01 -1.15853E+01 -1.21672E+01 -9.24453E+00 -9.06156E+00 -1.21055E+01 -8.68276E+00 -8.65801E+00 -1.09574E+01 -6.11886E+00
  -5.97497E+00 -5.55548E+00 -8.17110E+00 -1.00151E+01 -9.42118E+00 -1.08781E+01 -7.74285E+00 -1.16741E+01 -1.36862E+01 -1.33182E+01
  -8.48737E+00 -8.21182E+00 -7.79757E+00 -1.13360E+01 -1.05145E+01 -1.24079E+01 -1.18771E+01 -1.12141E+01 -1.06329E+01 -1.10374E+01
  -1.13160E+01 -1.07338E+01 -1.04431E+01 -1.16029E+01 -1.13305E+01 -8.77294E+00 -9.39678E+00 -9.18626E+00 -1.13017E+01 -7.66126E+00
  -1.08284E+01 -8.91202E+00 -6.61437E+00 -1.06051E+01 -9.47029E+00 -9.06317E+00 -9.29027E+00 -1.23366E+01 -1.02082E+01 -9.42683E+00
  -1.04439E+01 -9.49741E+00 -9.85042E+00 -8.20687E+00 -1.28331E+01 -1.13116E+01 -1.12489E+01 -1.02226E+01 -1.07388E+01 -9.34074E+00
  -8.62751E+00 -9.17789E+00 -1.18705E+01 -1.17654E+01 -1.04016E+01 -1.03344E+01 -1.18221E+01 -9.44545E+00 -1.13039E+01 -9.54344E+00
  -8.73060E+00 -8.59280E+00 -7.55703E+00 -9.10957E+00 -1.00433E+01 -7.97996E+00 -1.16900E+01 -8.05141E+00 -9.47508E+00 -8.96742E+00
  -1.29885E+01 -9.98716E+00 -1.07979E+01 -9.92853E+00 -8.68072E+00 -8.52302E+00 -1.03723E+01 -1.03365E+01 -9.81175E+00 -1.14185E+01
  -1.12664E+01 -8.99655E+00 -9.82424E+00 -1.18387E+01 -1.00381E+01 -1.21902E+01 -9.87449E+00 -8.50744E+00 -1.19064E+01 -1.03079E+01
  -1.02493E+01 -9.79660E+00 -1.22100E+01 -1.63897E+01 -9.81264E+00 -1.02216E+01 -1.08191E+01 -1.15156E+01 -9.59930E+00 -1.19376E+01
  -9.91609E+00 -7.57159E+00 -1.02538E+01 -8.76780E+00 -7.91261E+00 -9.17422E+00 -8.17695E+00 -1.10810E+01 -1.03440E+01 -1.12189E+01
  -9.99253E+00 -9.38248E+00 -1.10830E+01 -1.13013E+01 -8.08661E+00 -7.96288E+00 -8.70758E+00 -1.37632E+01 -1.08565E+01 -1.08977E+01
  -9.81012E+00 -9.51876E+00 -9.98318E+00 -9.72011E+00 -8.12072E+00 -6.86158E+00 -1.02861E+01 -8.87713E+00 -1.05649E+01 -8.36013E+00
  -8.95166E+00 -5.93196E+00 -6.95569E+00 -5.56301E+00 -8.64998E+00 -7.11958E+00 -6.73716E+00 -5.06317E+00 -5.28453E+00 -7.22782E+00
  -5.84643E+00 -5.88032E+00 -5.76082E+00 -7.70807E+00 -8.23470E+00 -4.70971E+00 -6.86940E+00 -5.53663E+00 -9.55756E+00 -7.34513E+00
  -6.34681E+00 -7.46916E+00 -6.26775E+00 -5.20027E+00 -5.82065E+00 -5.20276E+00 -6.82188E+00 -5.43570E+00 -6.92814E+00 -8.14676E+00
  -5.79118E+00 -7.17797E+00 -4.14123E+00 -6.19625E+00 -3.78696E+00 -4.36715E+00 -5.62646E+00 -4.91888E+00 -6.75527E+00 -6.31243E+00
  -5.65731E+00 -3.07112E+00 -5.53516E+00 -3.20186E+00 -1.99146E+00 -5.31213E+00 -4.32588E+00 -5.05177E+00 -3.89127E+00 -2.75342E+00
  -5.88877E+00 -2.66968E+00 -4.20881E+00 -2.85528E+00 -5.34214E+00 -6.62653E+00 -3.25578E+00 -8.53641E+00 -4.63897E+00 -4.93151E+00
  -4.25380E+00 -4.70293E+00 -3.40841E+00 -5.96799E+00 -3.31962E+00 -1.47042E+00 -4.19316E+00 -4.66917E+00 -4.35114E+00 -5.24481E+00
  -3.39656E+00 -3.99861E+00 -2.40858E+00 -1.06084E+00 -1.47313E+00 -4.67138E+00 -4.19364E+00 -3.48712E+00 -5.81139E+00 -4.43801E+00
  -4.49678E+00 -3.37665E+00 -5.22310E+00 -6.78101E+00 -3.08464E+00 -2.26663E+00 -2.98835E+00 -2.70376E+00 -4.59888E+00 -4.78639E+00
  -4.25568E+00 -3.53410E+00 -6.82713E+00 -3.77763E+00 -4.31390E+00 -4.58604E+00 -2.32584E+00 -5.07423E+00 -3.32866E+00 -1.29980E+00
  -3.68148E+00 -3.85424E+00 -2.65851E+00 -3.19294E+00 -4.73361E+00 -3.27556E+00 -2.66284E+00 -2.75392E+00
 NY points of the fit to the data follow
  -5.68202E+01 -5.69113E+01 -5.66838E+01 -5.67348E+01 -5.57249E+01 -5.74513E+01 -5.68408E+01 -5.38195E+01 -5.63010E+01 -5.50238E+01
  -5.22124E+01 -5.46110E+01 -5.33620E+01 -5.14773E+01 -5.34973E+01 -5.05559E+01 -5.02202E+01 -5.07753E+01 -5.04404E+01 -4.97503E+01
  -4.97715E+01 -4.87062E+01 -4.88092E+01 -4.85949E+01 -4.82756E+01 -4.76922E+01 -4.45935E+01 -4.61893E+01 -4.49151E+01 -4.16609E+01
  -4.44141E+01 -4.31033E+01 -4.10436E+01 -4.32722E+01 -4.08346E+01 -4.12289E+01 -4.30601E+01 -4.19283E+01 -4.27241E+01 -4.20438E+01
  -4.21432E+01 -4.19102E+01 -4.10581E+01 -3.95084E+01 -3.82379E+01 -3.81869E+01 -3.71499E+01 -3.64759E+01 -3.72358E+01 -3.67585E+01
  -3.63673E+01 -3.66249E+01 -3.60890E+01 -3.66211E+01 -3.77791E+01 -3.69758E+01 -3.61247E+01 -3.58757E+01 -3.44973E+01 -3.45228E+01
  -3.43443E+01 -3.35976E+01 -3.39144E+01 -3.35201E+01 -3.28788E+01 -3.31332E+01 -3.27562E+01 -3.29326E+01 -3.20223E+01 -3.20350E+01
  -3.16600E+01 -3.06108E+01 -3.06904E+01 -3.05038E+01 -2.97541E+01 -3.01101E+01 -2.96851E+01 -2.94320E+01 -2.94578E+01 -2.93523E+01
  -2.90372E+01 -2.88285E+01 -2.85359E+01 -2.85156E+01 -2.86925E+01 -2.84752E+01 -2.84097E+01 -2.85595E+01 -2.81227E+01 -2.79977E+01
  -2.77874E+01 -2.75220E+01 -2.72411E+01 -2.69839E+01 -2.67888E+01 -2.60964E+01 -2.61558E+01 -2.62039E+01 -2.57131E+01 -2.37733E+01
  -2.49094E+01 -2.42971E+01 -2.28841E+01 -2.41706E+01 -2.39719E+01 -2.24646E+01 -2.38395E+01 -2.28188E+01 -2.26520E+01 -2.40349E+01
  -2.36214E+01 -2.35900E+01 -2.33838E+01 -2.32355E+01 -2.31103E+01 -2.29524E+01 -2.29017E+01 -2.26914E+01 -2.26170E+01 -2.25246E+01
  -2.23464E+01 -2.21890E+01 -2.19096E+01 -1.90615E+01 -2.07882E+01 -1.98219E+01 -1.80220E+01 -1.97029E+01 -1.94413E+01 -1.73214E+01
  -1.91712E+01 -1.83547E+01 -1.84363E+01 -2.00129E+01 -2.06846E+01 -2.00828E+01 -1.98366E+01 -2.04376E+01 -1.91908E+01 -1.99295E+01
  -1.98861E+01 -1.92442E+01 -1.92999E+01 -1.90802E+01 -1.84533E+01 -1.88120E+01 -1.84395E+01 -1.86757E+01 -1.86609E+01 -1.86640E+01
  -1.86275E+01 -1.85657E+01 -1.84889E+01 -1.83861E+01 -1.83546E+01 -1.81736E+01 -1.81744E+01 -1.81657E+01 -1.79563E+01 -1.79685E+01
  -1.78807E+01 -1.76014E+01 -1.76976E+01 -1.75756E+01 -1.74454E+01 -1.75009E+01 -1.73952E+01 -1.71945E+01 -1.72006E+01 -1.70339E+01
  -1.69786E+01 -1.69696E+01 -1.69610E+01 -1.68214E+01 -1.67339E+01 -1.67507E+01 -1.65675E+01 -1.65751E+01 -1.65499E+01 -1.64820E+01
  -1.63357E+01 -1.64857E+01 -1.62387E+01 -1.62242E+01 -1.62408E+01 -1.60915E+01 -1.57363E+01 -1.55716E+01 -1.51293E+01 -1.50441E+01
  -1.50593E+01 -1.48652E+01 -1.48258E+01 -1.52816E+01 -1.53841E+01 -1.48587E+01 -1.54914E+01 -1.53908E+01 -1.46914E+01 -1.49663E+01
  -1.46856E+01 -1.38978E+01 -1.39512E+01 -1.37315E+01 -1.31850E+01 -1.32044E+01 -1.43538E+01 -1.43735E+01 -1.35674E+01 -1.51443E+01
  -1.43892E+01 -1.37344E+01 -1.41478E+01 -1.36569E+01 -1.32982E+01 -1.33362E+01 -1.26143E+01 -1.26968E+01 -1.26881E+01 -1.32288E+01
  -1.29889E+01 -1.28433E+01 -1.35893E+01 -1.29843E+01 -1.29784E+01 -1.30031E+01 -1.25220E+01 -1.27937E+01 -1.28267E+01 -1.19737E+01
  -1.23993E+01 -1.23213E+01 -1.22799E+01 -1.22499E+01 -1.15680E+01 -1.23875E+01 -1.19963E+01 -1.13595E+01 -1.16677E+01 -1.22022E+01
  -1.15388E+01 -1.21638E+01 -1.18815E+01 -1.21349E+01 -1.17391E+01 -1.23334E+01 -1.18623E+01 -1.18180E+01 -1.19307E+01 -1.16979E+01
  -1.11585E+01 -1.12564E+01 -1.03598E+01 -1.06994E+01 -1.07351E+01 -1.01282E+01 -8.59494E+00 -8.17057E+00 -9.18694E+00 -7.00547E+00
  -7.64950E+00 -9.04587E+00 -7.84541E+00 -8.57210E+00 -9.44829E+00 -7.89400E+00 -1.02225E+01 -1.05778E+01 -1.06590E+01 -1.05596E+01
  -1.07105E+01 -1.06771E+01 -1.06695E+01 -1.06498E+01 -1.06886E+01 -1.06530E+01 -1.06431E+01 -1.06654E+01 -1.06263E+01 -1.06273E+01
  -1.06532E+01 -1.06570E+01 -1.06461E+01 -1.06571E+01 -1.06382E+01 -1.06278E+01 -1.06205E+01 -1.06076E+01 -1.05702E+01 -1.05640E+01
  -1.05518E+01 -1.05168E+01 -1.05074E+01 -1.04884E+01 -1.04605E+01 -1.04470E+01 -1.04243E+01 -1.03933E+01 -1.03882E+01 -1.03584E+01
  -1.03452E+01 -1.03281E+01 -1.03104E+01 -1.02944E+01 -1.02881E+01 -1.02664E+01 -1.02639E+01 -1.02520E+01 -1.02512E+01 -1.02437E+01
  -1.02472E+01 -1.02408E+01 -1.02454E+01 -1.02396E+01 -1.02432E+01 -1.02351E+01 -1.02351E+01 -1.02211E+01 -1.02125E+01 -1.01863E+01
  -1.01593E+01 -1.01053E+01 -9.89133E+00 -9.50888E+00 -1.03050E+01 -9.80749E+00 -9.89809E+00 -1.05495E+01 -1.03064E+01 -1.03389E+01
  -1.12364E+01 -9.93543E+00 -1.07530E+01 -1.09273E+01 -1.00291E+01 -1.02256E+01 -1.03124E+01 -9.62926E+00 -1.00296E+01 -9.64840E+00
  -9.38631E+00 -9.67295E+00 -9.64944E+00 -9.14748E+00 -9.00893E+00 -1.00765E+01 -9.03858E+00 -9.72257E+00 -1.04347E+01 -9.89033E+00
  -1.05759E+01 -1.07353E+01 -9.38033E+00 -1.12720E+01 -1.01093E+01 -9.74608E+00 -1.02398E+01 -9.48954E+00 -9.33269E+00 -9.70230E+00
  -8.74794E+00 -9.25136E+00 -9.42038E+00 -9.43276E+00 -9.43879E+00 -9.42484E+00 -9.41101E+00 -9.38282E+00 -9.35843E+00 -9.32207E+00
  -9.29099E+00 -9.24912E+00 -9.21323E+00 -9.16704E+00 -9.12690E+00 -9.07651E+00 -9.03208E+00 -8.97741E+00 -8.92851E+00 -8.86916E+00
  -8.81515E+00 -8.75037E+00 -8.69052E+00 -8.61962E+00 -8.55322E+00 -8.47540E+00 -8.40161E+00 -8.31617E+00 -8.23456E+00 -8.14133E+00
  -8.05200E+00 -7.95139E+00 -7.85516E+00 -7.74855E+00 -7.64741E+00 -7.53737E+00 -7.43437E+00 -7.32435E+00 -7.22332E+00 -7.11746E+00
  -7.02269E+00 -6.92516E+00 -6.84046E+00 -6.75458E+00 -6.68266E+00 -6.61042E+00 -6.55245E+00 -6.49404E+00 -6.44922E+00 -6.40301E+00
  -6.36900E+00 -6.33205E+00 -6.30550E+00 -6.27419E+00 -6.25135E+00 -6.22207E+00 -6.19964E+00 -6.16945E+00 -6.14492E+00 -6.11175E+00
  -6.08351E+00 -6.04629E+00 -6.01376E+00 -5.97226E+00 -5.93551E+00 -5.89004E+00 -5.84957E+00 -5.80082E+00 -5.75741E+00 -5.70616E+00
  -5.66057E+00 -5.60754E+00 -5.56049E+00 -5.50637E+00 -5.45848E+00 -5.40383E+00 -5.35555E+00 -5.30075E+00 -5.25250E+00 -5.19794E+00
  -5.15002E+00 -5.09595E+00 -5.04855E+00 -4.99517E+00 -4.94854E+00 -4.89605E+00 -4.85033E+00 -4.79886E+00 -4.75416E+00 -4.70383E+00
  -4.66031E+00 -4.61125E+00 -4.56900E+00 -4.52127E+00 -4.48031E+00 -4.43392E+00 -4.39423E+00 -4.34911E+00 -4.31059E+00 -4.26666E+00
  -4.22927E+00 -4.18646E+00 -4.15013E+00 -4.10839E+00 -4.07301E+00 -4.03225E+00 -3.99778E+00 -3.95792E+00 -3.92429E+00 -3.88525E+00
  -3.85235E+00 -3.81405E+00 -3.78183E+00 -3.74421E+00 -3.71257E+00 -3.67553E+00 -3.64438E+00 -3.60785E+00 -3.57714E+00 -3.54104E+00
  -3.51067E+00 -3.47489E+00 -3.44478E+00 -3.40927E+00 -3.37935E+00 -3.34402E+00 -3.31418E+00 -3.27894E+00 -3.24913E+00 -3.21392E+00
  -3.18404E+00 -3.14875E+00 -3.11872E+00 -3.08329E+00 -3.05304E+00 -3.01740E+00 -2.98685E+00 -2.95089E+00
 NY background values follow
    -5.816E+01   -5.776E+01   -5.735E+01   -5.694E+01   -5.653E+01   -5.613E+01   -5.572E+01   -5.531E+01   -5.491E+01   -5.450E+01
    -5.409E+01   -5.369E+01   -5.328E+01   -5.288E+01   -5.247E+01   -5.207E+01   -5.167E+01   -5.126E+01   -5.086E+01   -5.046E+01
    -5.006E+01   -4.966E+01   -4.927E+01   -4.887E+01   -4.847E+01   -4.808E+01   -4.769E+01   -4.730E+01   -4.691E+01   -4.652E+01
    -4.613E+01   -4.575E+01   -4.537E+01   -4.498E+01   -4.461E+01   -4.423E+01   -4.385E+01   -4.348E+01   -4.311E+01   -4.274E+01
    -4.237E+01   -4.201E+01   -4.165E+01   -4.129E+01   -4.093E+01   -4.058E+01   -4.023E+01   -3.988E+01   -3.954E+01   -3.919E+01
    -3.885E+01   -3.852E+01   -3.818E+01   -3.785E+01   -3.752E+01   -3.720E+01   -3.687E+01   -3.655E+01   -3.624E+01   -3.592E+01
    -3.561E+01   -3.530E+01   -3.499E+01   -3.469E+01   -3.439E+01   -3.409E+01   -3.380E+01   -3.351E+01   -3.322E+01   -3.294E+01
    -3.265E+01   -3.238E+01   -3.210E+01   -3.183E+01   -3.156E+01   -3.129E+01   -3.103E+01   -3.077E+01   -3.051E+01   -3.025E+01
    -3.000E+01   -2.975E+01   -2.951E+01   -2.927E+01   -2.903E+01   -2.879E+01   -2.856E+01   -2.833E+01   -2.811E+01   -2.788E+01
    -2.766E+01   -2.745E+01   -2.724E+01   -2.703E+01   -2.682E+01   -2.662E+01   -2.642E+01   -2.622E+01   -2.602E+01   -2.583E+01
    -2.564E+01   -2.546E+01   -2.527E+01   -2.509E+01   -2.492E+01   -2.474E+01   -2.457E+01   -2.440E+01   -2.423E+01   -2.407E+01
    -2.390E+01   -2.374E+01   -2.358E+01   -2.343E+01   -2.327E+01   -2.312E+01   -2.297E+01   -2.283E+01   -2.268E+01   -2.254E+01
    -2.240E+01   -2.226E+01   -2.212E+01   -2.198E+01   -2.185E+01   -2.171E+01   -2.158E+01   -2.145E+01   -2.133E+01   -2.120E+01
    -2.107E+01   -2.095E+01   -2.083E+01   -2.071E+01   -2.059E+01   -2.047E+01   -2.035E+01   -2.023E+01   -2.012E+01   -2.000E+01
    -1.989E+01   -1.978E+01   -1.967E+01   -1.956E+01   -1.945E+01   -1.934E+01   -1.923E+01   -1.913E+01   -1.902E+01   -1.892E+01
    -1.881E+01   -1.871E+01   -1.861E+01   -1.851E+01   -1.841E+01   -1.831E+01   -1.821E+01   -1.812E+01   -1.802E+01   -1.792E+01
    -1.783E+01   -1.774E+01   -1.764E+01   -1.755E+01   -1.746E+01   -1.737E+01   -1.728E+01   -1.719E+01   -1.710E+01   -1.701E+01
    -1.692E+01   -1.684E+01   -1.675E+01   -1.667E+01   -1.658E+01   -1.650E+01   -1.641E+01   -1.633E+01   -1.625E+01   -1.616E+01
    -1.608E+01   -1.600E+01   -1.592E+01   -1.584E+01   -1.576E+01   -1.568E+01   -1.560E+01   -1.553E+01   -1.545E+01   -1.537E+01
    -1.530E+01   -1.522E+01   -1.515E+01   -1.507E+01   -1.500E+01   -1.492E+01   -1.485E+01   -1.478E+01   -1.471E+01   -1.463E+01
    -1.456E+01   -1.449E+01   -1.442E+01   -1.436E+01   -1.429E+01   -1.422E+01   -1.415E+01   -1.409E+01   -1.402E+01   -1.395E+01
    -1.389E+01   -1.383E+01   -1.376E+01   -1.370E+01   -1.364E+01   -1.358E+01   -1.352E+01   -1.346E+01   -1.340E+01   -1.334E+01
    -1.328E+01   -1.322E+01   -1.316E+01   -1.311E+01   -1.305E+01   -1.300E+01   -1.294E+01   -1.289E+01   -1.284E+01   -1.279E+01
    -1.273E+01   -1.268E+01   -1.263E+01   -1.258E+01   -1.254E+01   -1.249E+01   -1.244E+01   -1.239E+01   -1.235E+01   -1.230E+01
    -1.226E+01   -1.221E+01   -1.217E+01   -1.213E+01   -1.209E+01   -1.204E+01   -1.200E+01   -1.196E+01   -1.192E+01   -1.189E+01
    -1.185E+01   -1.181E+01   -1.177E+01   -1.174E+01   -1.170E+01   -1.167E+01   -1.164E+01   -1.160E+01   -1.157E+01   -1.154E+01
    -1.151E+01   -1.148E+01   -1.145E+01   -1.142E+01   -1.139E+01   -1.136E+01   -1.133E+01   -1.131E+01   -1.128E+01   -1.126E+01
    -1.123E+01   -1.121E+01   -1.118E+01   -1.116E+01   -1.114E+01   -1.112E+01   -1.110E+01   -1.108E+01   -1.106E+01   -1.104E+01
    -1.102E+01   -1.100E+01   -1.098E+01   -1.097E+01   -1.095E+01   -1.093E+01   -1.092E+01   -1.090E+01   -1.089E+01   -1.088E+01
    -1.086E+01   -1.085E+01   -1.084E+01   -1.082E+01   -1.081E+01   -1.080E+01   -1.079E+01   -1.078E+01   -1.077E+01   -1.076E+01
    -1.075E+01   -1.074E+01   -1.073E+01   -1.072E+01   -1.071E+01   -1.070E+01   -1.070E+01   -1.069E+01   -1.068E+01   -1.067E+01
    -1.067E+01   -1.066E+01   -1.065E+01   -1.065E+01   -1.064E+01   -1.063E+01   -1.063E+01   -1.062E+01   -1.062E+01   -1.061E+01
    -1.060E+01   -1.060E+01   -1.059E+01   -1.059E+01   -1.058E+01   -1.057E+01   -1.057E+01   -1.056E+01   -1.055E+01   -1.055E+01
    -1.054E+01   -1.053E+01   -1.052E+01   -1.052E+01   -1.051E+01   -1.050E+01   -1.049E+01   -1.048E+01   -1.046E+01   -1.045E+01
    -1.044E+01   -1.043E+01   -1.041E+01   -1.040E+01   -1.038E+01   -1.037E+01   -1.035E+01   -1.033E+01   -1.031E+01   -1.029E+01
    -1.027E+01   -1.025E+01   -1.023E+01   -1.020E+01   -1.018E+01   -1.015E+01   -1.012E+01   -1.009E+01   -1.006E+01   -1.003E+01
    -9.997E+00   -9.962E+00   -9.927E+00   -9.889E+00   -9.851E+00   -9.811E+00   -9.769E+00   -9.727E+00   -9.683E+00   -9.638E+00
    -9.591E+00   -9.544E+00   -9.495E+00   -9.446E+00   -9.395E+00   -9.343E+00   -9.290E+00   -9.237E+00   -9.182E+00   -9.127E+00
    -9.070E+00   -9.013E+00   -8.955E+00   -8.897E+00   -8.837E+00   -8.777E+00   -8.716E+00   -8.655E+00   -8.593E+00   -8.531E+00
    -8.468E+00   -8.404E+00   -8.340E+00   -8.276E+00   -8.212E+00   -8.147E+00   -8.081E+00   -8.016E+00   -7.950E+00   -7.884E+00
    -7.817E+00   -7.751E+00   -7.685E+00   -7.618E+00   -7.551E+00   -7.485E+00   -7.418E+00   -7.352E+00   -7.285E+00   -7.219E+00
    -7.153E+00   -7.086E+00   -7.021E+00   -6.955E+00   -6.889E+00   -6.824E+00   -6.758E+00   -6.693E+00   -6.629E+00   -6.564E+00
    -6.500E+00   -6.436E+00   -6.372E+00   -6.309E+00   -6.246E+00   -6.183E+00   -6.121E+00   -6.059E+00   -5.998E+00   -5.937E+00
    -5.876E+00   -5.816E+00   -5.756E+00   -5.697E+00   -5.638E+00   -5.580E+00   -5.522E+00   -5.465E+00   -5.408E+00   -5.352E+00
    -5.296E+00   -5.241E+00   -5.187E+00   -5.133E+00   -5.080E+00   -5.027E+00   -4.976E+00   -4.924E+00   -4.874E+00   -4.824E+00
    -4.775E+00   -4.727E+00   -4.680E+00   -4.633E+00   -4.587E+00   -4.542E+00   -4.498E+00   -4.454E+00   -4.411E+00   -4.368E+00
    -4.326E+00   -4.285E+00   -4.244E+00   -4.204E+00   -4.164E+00   -4.125E+00   -4.087E+00   -4.049E+00   -4.011E+00   -3.974E+00
    -3.937E+00   -3.900E+00   -3.864E+00   -3.828E+00   -3.793E+00   -3.758E+00   -3.723E+00   -3.688E+00   -3.653E+00   -3.619E+00
    -3.585E+00   -3.551E+00   -3.517E+00   -3.484E+00   -3.450E+00   -3.417E+00   -3.383E+00   -3.350E+00   -3.317E+00   -3.283E+00
    -3.250E+00   -3.216E+00   -3.183E+00   -3.149E+00   -3.115E+00   -3.081E+00   -3.047E+00   -3.013E+00
 Ala      Conc. = 4.42E+01
