 LCModel (Version 6.3-1L) Copyright: S.W. Provencher.          Ref.: Magn. Reson. Med. 30:672-679 (1993).                
 Slice#3 Row#1 Col#5  K_02_press_1_raw_act
 36 lines in following concentration table = NCONC+1
    Conc.  %SD /Cr+PCr  Metabolite                                         
  139.367 207%   1.569 Ala                                                 
    9.591  96%   0.108 Asp                                                 
   88.824  60%   1.000 Cr                                                  
    0.000 999%   0.000 PCr                                                 
    5.654  98% 6.4E-02 GABA                                                
    5.877  95% 6.6E-02 Glc                                                 
 1.13E+03  44%  12.727 Gln                                                 
  671.174  82%   7.556 Glu                                                 
    0.000 999%   0.000 GPC                                                 
   33.975  58%   0.382 PCh                                                 
  143.532  68%   1.616 GSH                                                 
  633.752  44%   7.135 Ins                                                 
 2.06E+03  20%  23.173 Lac                                                 
    0.000 999%   0.000 NAA                                                 
    0.000 999%   0.000 NAAG                                                
    2.053  91% 2.3E-02 Scyllo                                              
   10.183  90%   0.115 Tau                                                 
    9.174 100%   0.103 -CrCH2                                              
   33.975  58%   0.382 GPC+PCh                                             
    0.000 999%   0.000 NAA+NAAG                                            
   88.824  60%   1.000 Cr+PCr                                              
 1.80E+03  46%  20.284 Glu+Gln                                             
 1.41E+03  26%  15.916 Lip13a                                              
    0.000 999%   0.000 Lip13b                                              
  562.114  22%   6.328 Lip09                                               
    0.000 999%   0.000 MM09                                                
   96.349 119%   1.085 Lip20                                               
    0.000 999%   0.000 MM20                                                
    8.685 568% 9.8E-02 MM12                                                
    0.000 999%   0.000 MM14                                                
    0.000 999%   0.000 MM17                                                
 1.41E+03  26%  15.916 Lip13a+Lip13b                                       
 1.42E+03  25%  16.014 MM14+Lip13a+Lip13b+MM12                             
  562.114  22%   6.328 MM09+Lip09                                          
   96.349 119%   1.085 MM20+Lip20                                          
   6 lines in following misc. output table
  FWHM = 0.153 ppm    S/N =   2                                            
  Data shift = 0.061 ppm                                                   
  Ph:-131 deg     -59.1 deg/ppm                                            
  alphaB,S = 8.5E+01,   4.1E+02                                            
    7 spline knots.   Ns = 9(2)                                            
  (14)13 infls.   (12) 6 extrs.                                            
  498 points on ppm-axis = NY
      4.000000     3.992357     3.984714     3.977070     3.969427     3.961784     3.954141     3.946497     3.938854     3.931211
      3.923568     3.915925     3.908281     3.900638     3.892995     3.885352     3.877708     3.870065     3.862422     3.854779
      3.847136     3.839492     3.831849     3.824206     3.816563     3.808919     3.801276     3.793633     3.785990     3.778347
      3.770703     3.763060     3.755417     3.747774     3.740130     3.732487     3.724844     3.717201     3.709558     3.701914
      3.694271     3.686628     3.678985     3.671341     3.663698     3.656055     3.648412     3.640769     3.633125     3.625482
      3.617839     3.610196     3.602552     3.594909     3.587266     3.579623     3.571980     3.564336     3.556693     3.549050
      3.541407     3.533763     3.526120     3.518477     3.510834     3.503191     3.495547     3.487904     3.480261     3.472618
      3.464974     3.457331     3.449688     3.442045     3.434402     3.426758     3.419115     3.411472     3.403829     3.396185
      3.388542     3.380899     3.373256     3.365613     3.357969     3.350326     3.342683     3.335040     3.327396     3.319753
      3.312110     3.304467     3.296824     3.289180     3.281537     3.273894     3.266251     3.258607     3.250964     3.243321
      3.235678     3.228034     3.220391     3.212748     3.205105     3.197462     3.189818     3.182175     3.174532     3.166889
      3.159245     3.151602     3.143959     3.136316     3.128673     3.121029     3.113386     3.105743     3.098100     3.090456
      3.082813     3.075170     3.067527     3.059884     3.052240     3.044597     3.036954     3.029311     3.021667     3.014024
      3.006381     2.998738     2.991095     2.983451     2.975808     2.968165     2.960522     2.952878     2.945235     2.937592
      2.929949     2.922306     2.914662     2.907019     2.899376     2.891733     2.884089     2.876446     2.868803     2.861160
      2.853517     2.845873     2.838230     2.830587     2.822944     2.815300     2.807657     2.800014     2.792371     2.784728
      2.777084     2.769441     2.761798     2.754155     2.746511     2.738868     2.731225     2.723582     2.715939     2.708295
      2.700652     2.693009     2.685366     2.677722     2.670079     2.662436     2.654793     2.647150     2.639506     2.631863
      2.624220     2.616577     2.608933     2.601290     2.593647     2.586004     2.578361     2.570717     2.563074     2.555431
      2.547788     2.540144     2.532501     2.524858     2.517215     2.509572     2.501928     2.494285     2.486642     2.478999
      2.471355     2.463712     2.456069     2.448426     2.440783     2.433139     2.425496     2.417853     2.410210     2.402566
      2.394923     2.387280     2.379637     2.371994     2.364350     2.356707     2.349064     2.341421     2.333777     2.326134
      2.318491     2.310848     2.303205     2.295561     2.287918     2.280275     2.272632     2.264988     2.257345     2.249702
      2.242059     2.234416     2.226772     2.219129     2.211486     2.203843     2.196199     2.188556     2.180913     2.173270
      2.165627     2.157983     2.150340     2.142697     2.135054     2.127410     2.119767     2.112124     2.104481     2.096838
      2.089194     2.081551     2.073908     2.066265     2.058621     2.050978     2.043335     2.035692     2.028049     2.020405
      2.012762     2.005119     1.997476     1.989833     1.982190     1.974546     1.966903     1.959260     1.951617     1.943974
      1.936331     1.928688     1.921045     1.913402     1.905759     1.898115     1.890472     1.882829     1.875186     1.867543
      1.859900     1.852257     1.844614     1.836971     1.829327     1.821684     1.814041     1.806398     1.798755     1.791112
      1.783469     1.775826     1.768183     1.760540     1.752896     1.745253     1.737610     1.729967     1.722324     1.714681
      1.707038     1.699395     1.691752     1.684108     1.676465     1.668822     1.661179     1.653536     1.645893     1.638250
      1.630607     1.622964     1.615321     1.607677     1.600034     1.592391     1.584748     1.577105     1.569462     1.561819
      1.554176     1.546533     1.538890     1.531246     1.523603     1.515960     1.508317     1.500674     1.493031     1.485388
      1.477745     1.470102     1.462458     1.454815     1.447172     1.439529     1.431886     1.424243     1.416600     1.408957
      1.401314     1.393671     1.386027     1.378384     1.370741     1.363098     1.355455     1.347812     1.340169     1.332526
      1.324883     1.317240     1.309596     1.301953     1.294310     1.286667     1.279024     1.271381     1.263738     1.256095
      1.248452     1.240808     1.233165     1.225522     1.217879     1.210236     1.202593     1.194950     1.187307     1.179664
      1.172021     1.164377     1.156734     1.149091     1.141448     1.133805     1.126162     1.118519     1.110876     1.103233
      1.095590     1.087946     1.080303     1.072660     1.065017     1.057374     1.049731     1.042088     1.034445     1.026802
      1.019158     1.011515     1.003872     0.996229     0.988586     0.980943     0.973300     0.965657     0.958014     0.950371
      0.942727     0.935084     0.927441     0.919798     0.912155     0.904512     0.896869     0.889226     0.881583     0.873940
      0.866296     0.858653     0.851010     0.843367     0.835724     0.828081     0.820438     0.812795     0.805152     0.797508
      0.789865     0.782222     0.774579     0.766936     0.759293     0.751650     0.744007     0.736364     0.728721     0.721077
      0.713434     0.705791     0.698148     0.690505     0.682862     0.675219     0.667576     0.659933     0.652290     0.644646
      0.637003     0.629360     0.621717     0.614074     0.606431     0.598788     0.591145     0.583502     0.575858     0.568215
      0.560572     0.552929     0.545286     0.537643     0.530000     0.522357     0.514714     0.507071     0.499427     0.491784
      0.484141     0.476498     0.468855     0.461212     0.453569     0.445925     0.438282     0.430639     0.422996     0.415353
      0.407710     0.400067     0.392424     0.384780     0.377137     0.369494     0.361851     0.354208     0.346565     0.338922
      0.331278     0.323635     0.315992     0.308349     0.300706     0.293063     0.285420     0.277777     0.270133     0.262490
      0.254847     0.247204     0.239561     0.231918     0.224275     0.216631     0.208988     0.201345
 NY phased data points follow
  -6.27275E+00 -6.04570E+00 -4.57270E+00 -5.39257E+00 -5.34819E+00 -4.93795E+00 -4.07715E+00 -3.99613E+00 -7.97959E+00 -3.63400E+00
  -4.51464E-01 -3.96860E+00 -6.24222E+00 -4.18136E+00 -4.26188E+00 -5.21962E+00 -5.24484E+00 -2.38926E+00 -2.85092E+00 -4.66644E+00
  -4.10314E+00 -2.66995E+00 -2.74268E+00 -1.06870E+00 -1.72424E+00 -1.51105E+00 -4.88019E+00 -6.16522E+00 -2.41583E+00 -4.13998E-01
  -2.22073E+00 -3.30364E+00 -1.78845E+00  1.01349E+00  1.24787E+00 -7.16342E-01 -1.18947E+00  2.14207E+00 -5.96369E+00 -1.27062E+00
  -1.18764E+00 -2.29472E+00 -1.55250E+00 -1.34659E+00 -1.79164E+00 -7.95966E-01  2.28565E+00 -1.22150E+00 -5.13611E+00 -2.14114E+00
   1.68768E-01  3.02919E-01 -1.18859E+00 -9.66237E-01 -1.76051E+00 -1.47579E+00 -1.64637E+00  5.61184E-01 -2.72472E+00 -1.12839E-01
  -1.40694E-02  5.41407E-01 -1.27780E+00 -2.49668E+00 -3.26985E+00  2.92227E+00  4.83340E-01  5.74896E-01 -7.08666E-01 -3.43790E+00
  -9.74672E-01 -2.05337E+00  5.76495E-01 -1.96766E-01  2.42087E+00  2.73056E+00 -3.71622E-01 -1.87712E+00 -4.63307E-01 -4.17967E-01
  -3.04299E+00 -2.05800E+00 -2.01726E+00 -2.76729E+00 -4.24188E-03  1.09774E+00  3.28281E+00 -2.23770E+00 -4.89118E+00 -2.94695E+00
  -1.18716E+00  2.30324E+00  2.55088E+00  7.47627E-01  7.50245E-01  1.19239E+00 -5.94661E-01 -1.79306E+00 -3.69688E+00 -4.91835E+00
   9.01889E-01  1.30147E+00  1.07070E+00  1.57564E+00 -1.52304E-01  6.04036E-02 -1.48897E+00 -1.89781E+00  2.11287E+00 -2.64931E+00
  -1.61053E+00  1.46743E+00 -1.81686E-01 -1.07820E+00 -2.00449E+00  4.76839E-01  2.52623E+00  1.13051E+00  4.02992E+00  8.65105E-01
   3.31435E+00 -8.71796E-01 -2.19987E+00 -5.00772E+00  1.03339E+00  1.21909E+00  5.88007E+00  1.25864E+00  4.62847E+00  1.15579E+00
   2.56635E+00 -8.78763E-02  2.30079E+00  1.00436E+00  2.80295E+00  2.48270E-01 -4.57505E-01  4.59286E+00  8.13717E-01 -2.13078E+00
  -1.59668E-01  2.38046E-01  4.98456E+00 -1.50140E+00 -3.74919E+00 -7.87376E-01  3.70836E+00  4.58150E+00  1.41397E+00  2.98536E+00
   2.53399E+00  2.04918E+00  2.07572E+00  2.06203E-01  2.56540E+00  2.56452E+00  1.04780E+00  3.38802E+00  4.92915E-01  1.96780E+00
  -4.82065E-01  4.68421E-02  1.81866E+00 -3.44686E-01 -2.75366E+00  6.27009E+00  3.86025E+00  3.96962E+00  1.22968E+00  1.28775E+00
   1.45837E+00  3.19993E+00  3.81615E+00  3.09234E+00  8.30924E-01  1.32378E+00  2.99918E+00  2.91971E+00  6.19464E+00  1.78163E+00
  -1.09627E+00  5.81303E+00  4.42584E+00  3.17213E+00  2.71513E+00  1.69753E-01 -4.36970E-01  2.15027E+00  3.50068E+00  3.72840E+00
   2.45142E+00  5.24524E+00  4.46108E+00  7.40222E+00  6.51241E+00  1.99216E+00  2.34305E+00  1.42839E+00  1.30952E+00  2.30225E+00
   5.14281E+00  2.42099E+00  4.07509E+00  6.60236E+00  6.87706E+00  4.61503E+00  6.87843E+00  6.42429E+00  5.43125E+00  2.96781E+00
   3.83290E+00  3.93686E+00  3.32521E+00  3.85475E+00  4.51379E+00  6.28851E+00  3.46116E+00  9.16000E+00  4.22739E+00  5.67177E+00
   3.69619E+00  6.24929E+00  8.63057E+00  5.85514E+00  6.69390E+00  6.22422E+00  3.09815E+00  5.95338E+00  7.09787E+00  6.76894E+00
   6.64783E+00  9.09639E+00  5.83028E+00  3.95712E+00  4.07617E+00  6.37475E+00  5.40244E+00  7.60356E+00  4.18355E+00  6.42462E+00
   2.37262E+00  3.06526E+00  4.65136E+00  5.63236E+00  3.85376E+00  5.13276E+00  7.12131E+00  5.53785E+00  7.92317E+00  4.25274E+00
   6.97280E+00  8.20280E+00  1.20118E+01  6.38233E+00  1.11432E+01  7.85605E+00  2.60225E+00  2.01288E+00  4.05530E+00  6.53383E+00
   9.65721E+00  9.02342E+00  9.56272E+00  8.37636E+00  7.64597E+00  1.09487E+01  1.24462E+01  6.29116E+00  7.58618E+00  9.08367E+00
   7.85295E+00  1.08387E+01  7.26419E+00  5.09745E+00  8.21450E+00  7.23235E+00  8.01072E+00  1.02357E+01  1.12510E+01  8.93595E+00
   1.02352E+01  5.86127E+00  8.57049E+00  6.78928E+00  9.60548E+00  9.45420E+00  1.22838E+01  7.24689E+00  7.79289E+00  1.00612E+01
   9.81988E+00  7.14294E+00  8.01236E+00  5.61416E+00  7.06487E+00  1.17089E+01  1.04742E+01  7.69889E+00  8.90991E+00  6.95239E+00
   1.24247E+01  9.88221E+00  1.14777E+01  1.20314E+01  1.19209E+01  9.42974E+00  1.29917E+01  1.00152E+01  1.18898E+01  1.08494E+01
   1.24001E+01  1.41932E+01  1.11537E+01  1.35957E+01  1.23231E+01  8.94533E+00  1.38015E+01  8.38531E+00  1.06314E+01  1.23669E+01
   1.06168E+01  1.17922E+01  1.40944E+01  1.22580E+01  1.73294E+01  1.41345E+01  1.58588E+01  1.53640E+01  1.54377E+01  1.61791E+01
   1.46550E+01  1.93823E+01  1.43277E+01  1.72197E+01  1.45616E+01  1.36234E+01  1.26501E+01  1.96668E+01  1.29466E+01  1.46699E+01
   1.45547E+01  1.89044E+01  1.65553E+01  1.84261E+01  1.44673E+01  1.65720E+01  1.27771E+01  1.45693E+01  1.21513E+01  9.80631E+00
   8.06907E+00  1.51720E+01  1.56810E+01  1.47016E+01  1.91569E+01  1.75003E+01  1.56979E+01  1.47662E+01  1.70168E+01  1.39461E+01
   1.36428E+01  1.51584E+01  1.66378E+01  1.42387E+01  1.25864E+01  1.03665E+01  1.00883E+01  8.45300E+00  9.94222E+00  3.13337E+00
   9.86070E+00  6.76667E+00  9.61607E+00  6.98038E+00  6.34584E+00  1.14044E+01  8.65617E+00  1.09935E+01  1.13158E+01  7.14712E+00
   8.67213E+00  7.04854E+00  5.96803E+00  7.94070E+00  7.71990E+00  1.06523E+01  6.48710E+00  7.69130E+00  6.81918E+00  7.90288E+00
   7.35782E+00  9.54487E+00  9.46103E+00  7.60302E+00  8.52118E+00  6.85552E+00  6.87192E+00  5.66335E+00  7.33256E+00  4.79971E+00
   7.44554E+00  5.73567E+00  4.85115E+00  3.79996E+00  1.99097E+00  5.70967E+00  2.46577E+00  5.92443E+00  5.61473E+00  2.62001E+00
   4.26175E+00  7.41787E+00  6.21928E+00  1.90289E+00  3.07335E+00  3.73558E+00  3.74042E+00  1.09361E+00  3.82046E+00  5.13909E+00
   4.53804E+00  4.93059E+00  5.41319E+00  4.42964E+00  4.09055E+00  5.15668E+00  5.43366E+00  3.62944E+00  4.32335E+00  5.27258E+00
   2.24082E+00  4.04326E+00  1.96383E+00  8.73690E-01  1.51758E+00  8.77169E-01  6.46550E+00  1.11803E+00  3.84228E+00  3.30126E+00
   3.51629E+00  1.02316E+00  5.60947E+00  5.50156E+00  3.88561E+00  5.80052E+00  1.88816E+00  3.56760E+00  5.59926E+00  3.80897E+00
   4.74904E+00  5.48012E-01  3.40488E+00  2.18069E+00  3.28949E+00  5.31056E+00  8.37649E-01  4.21791E+00  4.53598E+00  4.20748E+00
   3.99977E+00  1.17230E+00  2.87589E+00  2.28721E+00  2.04355E+00  2.00090E+00  1.29140E+00  2.75845E+00  4.64958E+00  2.43347E+00
   1.50242E+00  4.77352E+00  2.37158E+00  3.20695E+00  5.04351E+00  4.26103E+00  2.66492E+00  4.76371E+00  1.44388E+00  3.44649E+00
   1.85413E+00  2.71607E+00  1.97519E+00  2.74149E+00  5.12446E+00  2.71979E+00  3.83295E+00 -8.12526E-01  3.54629E+00  4.75555E-01
   3.82210E+00  1.94489E+00 -1.61226E-01  2.62227E+00  3.98244E+00  5.10174E-01  2.04417E+00  9.89609E-01
 NY points of the fit to the data follow
  -4.37531E+00 -4.62857E+00 -4.38673E+00 -4.60732E+00 -4.38643E+00 -4.54530E+00 -4.31654E+00 -4.44516E+00 -4.21949E+00 -4.35759E+00
  -4.18762E+00 -4.37223E+00 -4.23454E+00 -4.39855E+00 -4.17620E+00 -4.22250E+00 -3.94096E+00 -3.85911E+00 -3.58458E+00 -3.41417E+00
  -3.24879E+00 -3.03243E+00 -2.97529E+00 -2.72386E+00 -2.75920E+00 -2.47101E+00 -2.56482E+00 -2.22296E+00 -2.35516E+00 -1.91206E+00
  -2.04823E+00 -1.53014E+00 -1.71572E+00 -1.19887E+00 -1.44175E+00 -9.86982E-01 -1.27066E+00 -8.90086E-01 -1.16991E+00 -8.57155E-01
  -1.11135E+00 -8.46967E-01 -1.04047E+00 -8.10691E-01 -9.26158E-01 -7.42623E-01 -8.03132E-01 -6.92092E-01 -7.46576E-01 -7.38068E-01
  -8.02986E-01 -8.66486E-01 -9.00670E-01 -9.80348E-01 -9.49675E-01 -1.01411E+00 -9.46110E-01 -1.01899E+00 -9.37767E-01 -1.03254E+00
  -9.47896E-01 -1.05341E+00 -9.56480E-01 -1.06037E+00 -9.54156E-01 -1.05158E+00 -9.36486E-01 -1.01931E+00 -8.90298E-01 -9.60640E-01
  -8.28333E-01 -9.21206E-01 -8.21627E-01 -9.46433E-01 -8.77007E-01 -1.02014E+00 -9.67125E-01 -1.11748E+00 -1.06672E+00 -1.21686E+00
  -1.17321E+00 -1.32148E+00 -1.28426E+00 -1.43568E+00 -1.40387E+00 -1.51874E+00 -1.45115E+00 -1.53346E+00 -1.41430E+00 -1.47059E+00
  -1.29722E+00 -1.34148E+00 -1.12653E+00 -1.17103E+00 -9.26321E-01 -9.79261E-01 -7.18988E-01 -7.79761E-01 -5.05690E-01 -5.76003E-01
  -2.92142E-01 -3.86286E-01 -1.09934E-01 -2.39944E-01  9.18964E-03 -1.52873E-01  5.72549E-02 -1.17107E-01  5.64889E-02 -8.04788E-02
   9.32254E-02 -1.06869E-02  1.73973E-01  9.54204E-02  2.94519E-01  2.39428E-01  4.61123E-01  4.15226E-01  6.49215E-01  5.98054E-01
   8.31743E-01  7.69895E-01  1.01292E+00  9.43558E-01  1.21270E+00  1.12852E+00  1.41965E+00  1.28395E+00  1.56975E+00  1.38205E+00
   1.64568E+00  1.42146E+00  1.65477E+00  1.41341E+00  1.61790E+00  1.37794E+00  1.56075E+00  1.33704E+00  1.50555E+00  1.30939E+00
   1.46426E+00  1.30004E+00  1.43677E+00  1.30572E+00  1.42189E+00  1.32363E+00  1.42000E+00  1.35794E+00  1.44062E+00  1.41897E+00
   1.49505E+00  1.48873E+00  1.55125E+00  1.55983E+00  1.61354E+00  1.63754E+00  1.68589E+00  1.71584E+00  1.75438E+00  1.78884E+00
   1.82088E+00  1.86075E+00  1.89347E+00  1.93728E+00  1.97339E+00  2.01693E+00  2.05532E+00  2.09442E+00  2.13352E+00  2.16894E+00
   2.20950E+00  2.24355E+00  2.29177E+00  2.33096E+00  2.39090E+00  2.42986E+00  2.47892E+00  2.51155E+00  2.51960E+00  2.53131E+00
   2.49501E+00  2.50392E+00  2.45003E+00  2.50944E+00  2.49236E+00  2.62541E+00  2.64256E+00  2.86728E+00  2.88702E+00  3.15277E+00
   3.11023E+00  3.33292E+00  3.10325E+00  3.33708E+00  3.00899E+00  3.32076E+00  2.98533E+00  3.43072E+00  3.17812E+00  3.71471E+00
   3.50374E+00  4.05229E+00  3.82176E+00  4.29554E+00  3.97750E+00  4.35654E+00  4.01853E+00  4.37444E+00  4.11061E+00  4.49740E+00
   4.37206E+00  4.77973E+00  4.78078E+00  5.13986E+00  5.18766E+00  5.45764E+00  5.48822E+00  5.64890E+00  5.60304E+00  5.73920E+00
   5.67733E+00  5.86815E+00  5.82927E+00  6.12195E+00  6.06854E+00  6.35590E+00  6.25696E+00  6.48238E+00  6.33160E+00  6.44904E+00
   6.26343E+00  6.28688E+00  6.09424E+00  6.11688E+00  6.01668E+00  6.04612E+00  6.04947E+00  6.05434E+00  6.14513E+00  6.05878E+00
   6.19144E+00  6.00715E+00  6.19259E+00  5.95805E+00  6.20626E+00  5.98708E+00  6.31716E+00  6.15053E+00  6.51869E+00  6.40604E+00
   6.76977E+00  6.69516E+00  7.01981E+00  6.96683E+00  7.23804E+00  7.20649E+00  7.43008E+00  7.41616E+00  7.59000E+00  7.61876E+00
   7.76842E+00  7.82521E+00  7.93662E+00  8.00547E+00  8.06401E+00  8.11208E+00  8.14486E+00  8.18921E+00  8.20759E+00  8.25469E+00
   8.27313E+00  8.32323E+00  8.34651E+00  8.40451E+00  8.43383E+00  8.49443E+00  8.52681E+00  8.58346E+00  8.61374E+00  8.66346E+00
   8.69438E+00  8.74053E+00  8.78221E+00  8.83099E+00  8.88052E+00  8.93083E+00  8.98704E+00  9.03762E+00  9.09722E+00  9.15192E+00
   9.21433E+00  9.27280E+00  9.33811E+00  9.40128E+00  9.47041E+00  9.54043E+00  9.61537E+00  9.69165E+00  9.77202E+00  9.85461E+00
   9.94083E+00  1.00302E+01  1.01232E+01  1.02207E+01  1.03232E+01  1.04315E+01  1.05472E+01  1.06722E+01  1.08112E+01  1.09498E+01
   1.10692E+01  1.12167E+01  1.13017E+01  1.14616E+01  1.15097E+01  1.16880E+01  1.17194E+01  1.19663E+01  1.19922E+01  1.23183E+01
   1.23420E+01  1.27489E+01  1.27713E+01  1.32585E+01  1.32919E+01  1.38757E+01  1.39683E+01  1.47032E+01  1.49851E+01  1.59806E+01
   1.59920E+01  1.68428E+01  1.64791E+01  1.70249E+01  1.63047E+01  1.64976E+01  1.56609E+01  1.61271E+01  1.53165E+01  1.60931E+01
   1.52520E+01  1.62587E+01  1.52371E+01  1.62845E+01  1.49745E+01  1.59410E+01  1.44379E+01  1.53647E+01  1.38839E+01  1.49531E+01
   1.36467E+01  1.49680E+01  1.38228E+01  1.52305E+01  1.41244E+01  1.53510E+01  1.42211E+01  1.51120E+01  1.39744E+01  1.45155E+01
   1.34176E+01  1.36662E+01  1.26401E+01  1.26382E+01  1.17151E+01  1.15214E+01  1.07680E+01  1.04897E+01  9.90227E+00  9.59188E+00
   8.98731E+00  8.57873E+00  8.11089E+00  7.71129E+00  7.41588E+00  7.12467E+00  7.03703E+00  7.02041E+00  7.03753E+00  7.07745E+00
   7.13485E+00  7.20537E+00  7.28575E+00  7.37230E+00  7.46192E+00  7.55079E+00  7.63563E+00  7.71248E+00  7.77803E+00  7.82843E+00
   7.86066E+00  7.87138E+00  7.85829E+00  7.81905E+00  7.75262E+00  7.65811E+00  7.53608E+00  7.38728E+00  7.21395E+00  7.01847E+00
   6.80454E+00  6.57575E+00  6.33673E+00  6.09161E+00  5.84523E+00  5.60156E+00  5.36496E+00  5.13861E+00  4.92580E+00  4.72850E+00
   4.54870E+00  4.38707E+00  4.24433E+00  4.11997E+00  4.01369E+00  3.92412E+00  3.85031E+00  3.79040E+00  3.74318E+00  3.70665E+00
   3.67957E+00  3.66004E+00  3.64705E+00  3.63893E+00  3.63495E+00  3.63373E+00  3.63481E+00  3.63711E+00  3.64041E+00  3.64386E+00
   3.64746E+00  3.65052E+00  3.65317E+00  3.65486E+00  3.65583E+00  3.65559E+00  3.65447E+00  3.65201E+00  3.64857E+00  3.64377E+00
   3.63796E+00  3.63078E+00  3.62261E+00  3.61308E+00  3.60258E+00  3.59076E+00  3.57801E+00  3.56398E+00  3.54907E+00  3.53291E+00
   3.51591E+00  3.49770E+00  3.47871E+00  3.45855E+00  3.43764E+00  3.41560E+00  3.39285E+00  3.36902E+00  3.34452E+00  3.31896E+00
   3.29277E+00  3.26556E+00  3.23775E+00  3.20896E+00  3.17961E+00  3.14931E+00  3.11847E+00  3.08671E+00  3.05446E+00  3.02132E+00
   2.98772E+00  2.95326E+00  2.91837E+00  2.88265E+00  2.84655E+00  2.80965E+00  2.77241E+00  2.73440E+00  2.69608E+00  2.65706E+00
   2.61777E+00  2.57781E+00  2.53764E+00  2.49685E+00  2.45592E+00  2.41444E+00  2.37288E+00  2.33086E+00  2.28886E+00  2.24649E+00
   2.20426E+00  2.16182E+00  2.11967E+00  2.07749E+00  2.03585E+00  1.99446E+00  1.95396E+00  1.91416E+00
 NY background values follow
    -5.109E+00   -5.082E+00   -5.055E+00   -5.027E+00   -4.999E+00   -4.971E+00   -4.943E+00   -4.914E+00   -4.885E+00   -4.856E+00
    -4.826E+00   -4.796E+00   -4.766E+00   -4.735E+00   -4.705E+00   -4.674E+00   -4.642E+00   -4.611E+00   -4.579E+00   -4.546E+00
    -4.514E+00   -4.481E+00   -4.448E+00   -4.415E+00   -4.381E+00   -4.347E+00   -4.313E+00   -4.278E+00   -4.244E+00   -4.209E+00
    -4.174E+00   -4.138E+00   -4.102E+00   -4.066E+00   -4.030E+00   -3.994E+00   -3.957E+00   -3.920E+00   -3.883E+00   -3.845E+00
    -3.808E+00   -3.770E+00   -3.731E+00   -3.693E+00   -3.654E+00   -3.615E+00   -3.576E+00   -3.537E+00   -3.497E+00   -3.458E+00
    -3.418E+00   -3.377E+00   -3.337E+00   -3.296E+00   -3.256E+00   -3.214E+00   -3.173E+00   -3.132E+00   -3.090E+00   -3.048E+00
    -3.006E+00   -2.964E+00   -2.921E+00   -2.879E+00   -2.836E+00   -2.793E+00   -2.750E+00   -2.706E+00   -2.663E+00   -2.619E+00
    -2.575E+00   -2.531E+00   -2.487E+00   -2.442E+00   -2.398E+00   -2.353E+00   -2.308E+00   -2.263E+00   -2.218E+00   -2.172E+00
    -2.127E+00   -2.081E+00   -2.035E+00   -1.989E+00   -1.943E+00   -1.897E+00   -1.851E+00   -1.804E+00   -1.757E+00   -1.711E+00
    -1.664E+00   -1.617E+00   -1.570E+00   -1.522E+00   -1.475E+00   -1.427E+00   -1.380E+00   -1.332E+00   -1.284E+00   -1.236E+00
    -1.188E+00   -1.140E+00   -1.092E+00   -1.043E+00   -9.947E-01   -9.461E-01   -8.975E-01   -8.488E-01   -7.999E-01   -7.510E-01
    -7.020E-01   -6.530E-01   -6.039E-01   -5.546E-01   -5.054E-01   -4.560E-01   -4.066E-01   -3.571E-01   -3.076E-01   -2.580E-01
    -2.083E-01   -1.586E-01   -1.089E-01   -5.905E-02   -9.202E-03    4.069E-02    9.063E-02    1.406E-01    1.906E-01    2.407E-01
     2.907E-01    3.409E-01    3.910E-01    4.411E-01    4.913E-01    5.415E-01    5.917E-01    6.420E-01    6.922E-01    7.425E-01
     7.927E-01    8.430E-01    8.933E-01    9.435E-01    9.938E-01    1.044E+00    1.094E+00    1.145E+00    1.195E+00    1.245E+00
     1.295E+00    1.345E+00    1.395E+00    1.446E+00    1.496E+00    1.546E+00    1.596E+00    1.646E+00    1.696E+00    1.746E+00
     1.796E+00    1.845E+00    1.895E+00    1.945E+00    1.995E+00    2.044E+00    2.094E+00    2.143E+00    2.193E+00    2.242E+00
     2.291E+00    2.341E+00    2.390E+00    2.439E+00    2.488E+00    2.537E+00    2.586E+00    2.635E+00    2.683E+00    2.732E+00
     2.780E+00    2.829E+00    2.877E+00    2.925E+00    2.974E+00    3.022E+00    3.069E+00    3.117E+00    3.165E+00    3.213E+00
     3.260E+00    3.307E+00    3.355E+00    3.402E+00    3.449E+00    3.496E+00    3.542E+00    3.589E+00    3.635E+00    3.682E+00
     3.728E+00    3.774E+00    3.820E+00    3.866E+00    3.911E+00    3.957E+00    4.002E+00    4.047E+00    4.092E+00    4.137E+00
     4.182E+00    4.226E+00    4.270E+00    4.315E+00    4.358E+00    4.402E+00    4.446E+00    4.489E+00    4.533E+00    4.576E+00
     4.619E+00    4.661E+00    4.704E+00    4.746E+00    4.788E+00    4.830E+00    4.872E+00    4.914E+00    4.955E+00    4.996E+00
     5.037E+00    5.078E+00    5.118E+00    5.159E+00    5.199E+00    5.238E+00    5.278E+00    5.317E+00    5.357E+00    5.396E+00
     5.434E+00    5.473E+00    5.511E+00    5.549E+00    5.587E+00    5.624E+00    5.662E+00    5.699E+00    5.735E+00    5.772E+00
     5.808E+00    5.844E+00    5.880E+00    5.916E+00    5.951E+00    5.986E+00    6.021E+00    6.055E+00    6.089E+00    6.123E+00
     6.157E+00    6.190E+00    6.223E+00    6.256E+00    6.289E+00    6.321E+00    6.353E+00    6.385E+00    6.416E+00    6.447E+00
     6.478E+00    6.509E+00    6.539E+00    6.569E+00    6.598E+00    6.628E+00    6.657E+00    6.686E+00    6.714E+00    6.742E+00
     6.770E+00    6.797E+00    6.824E+00    6.851E+00    6.878E+00    6.904E+00    6.930E+00    6.955E+00    6.981E+00    7.006E+00
     7.030E+00    7.054E+00    7.078E+00    7.102E+00    7.125E+00    7.148E+00    7.171E+00    7.193E+00    7.215E+00    7.236E+00
     7.257E+00    7.278E+00    7.299E+00    7.319E+00    7.338E+00    7.358E+00    7.377E+00    7.396E+00    7.414E+00    7.432E+00
     7.449E+00    7.467E+00    7.484E+00    7.500E+00    7.516E+00    7.532E+00    7.547E+00    7.562E+00    7.577E+00    7.591E+00
     7.605E+00    7.618E+00    7.632E+00    7.644E+00    7.657E+00    7.669E+00    7.680E+00    7.691E+00    7.702E+00    7.712E+00
     7.722E+00    7.732E+00    7.741E+00    7.750E+00    7.758E+00    7.766E+00    7.774E+00    7.781E+00    7.788E+00    7.794E+00
     7.800E+00    7.806E+00    7.811E+00    7.816E+00    7.820E+00    7.824E+00    7.827E+00    7.830E+00    7.833E+00    7.835E+00
     7.837E+00    7.838E+00    7.839E+00    7.840E+00    7.840E+00    7.840E+00    7.839E+00    7.838E+00    7.836E+00    7.834E+00
     7.832E+00    7.829E+00    7.826E+00    7.822E+00    7.818E+00    7.813E+00    7.808E+00    7.802E+00    7.797E+00    7.790E+00
     7.783E+00    7.776E+00    7.768E+00    7.760E+00    7.752E+00    7.743E+00    7.733E+00    7.723E+00    7.713E+00    7.702E+00
     7.691E+00    7.679E+00    7.667E+00    7.654E+00    7.641E+00    7.627E+00    7.613E+00    7.599E+00    7.584E+00    7.569E+00
     7.553E+00    7.536E+00    7.520E+00    7.503E+00    7.485E+00    7.467E+00    7.448E+00    7.429E+00    7.410E+00    7.390E+00
     7.369E+00    7.348E+00    7.327E+00    7.305E+00    7.283E+00    7.260E+00    7.237E+00    7.213E+00    7.189E+00    7.164E+00
     7.139E+00    7.113E+00    7.087E+00    7.061E+00    7.034E+00    7.006E+00    6.979E+00    6.950E+00    6.921E+00    6.892E+00
     6.862E+00    6.832E+00    6.801E+00    6.770E+00    6.738E+00    6.706E+00    6.673E+00    6.640E+00    6.607E+00    6.572E+00
     6.538E+00    6.503E+00    6.467E+00    6.431E+00    6.395E+00    6.358E+00    6.321E+00    6.283E+00    6.244E+00    6.206E+00
     6.166E+00    6.127E+00    6.086E+00    6.046E+00    6.004E+00    5.963E+00    5.921E+00    5.878E+00    5.835E+00    5.791E+00
     5.747E+00    5.703E+00    5.658E+00    5.612E+00    5.566E+00    5.520E+00    5.473E+00    5.426E+00    5.378E+00    5.329E+00
     5.281E+00    5.231E+00    5.182E+00    5.131E+00    5.081E+00    5.030E+00    4.978E+00    4.926E+00    4.873E+00    4.820E+00
     4.767E+00    4.713E+00    4.659E+00    4.604E+00    4.548E+00    4.493E+00    4.436E+00    4.379E+00    4.322E+00    4.265E+00
     4.206E+00    4.148E+00    4.089E+00    4.029E+00    3.969E+00    3.909E+00    3.848E+00    3.786E+00    3.725E+00    3.662E+00
     3.600E+00    3.536E+00    3.473E+00    3.409E+00    3.344E+00    3.279E+00    3.213E+00    3.147E+00
 Ala      Conc. = 1.39E+02
