 LCModel (Version 6.3-1L) Copyright: S.W. Provencher.          Ref.: Magn. Reson. Med. 30:672-679 (1993).                
 Slice#3 Row#14 Col#6  K_02_press_1_raw_act
 36 lines in following concentration table = NCONC+1
    Conc.  %SD /Cr+PCr  Metabolite                                         
   23.618 332% 8.0E-02 Ala                                                 
    7.452 521% 2.5E-02 Asp                                                 
    0.000 999%   0.000 Cr                                                  
  296.556  12%   1.000 PCr                                                 
   15.706 150% 5.3E-02 GABA                                                
    3.695 643% 1.2E-02 Glc                                                 
    0.000 999%   0.000 Gln                                                 
    0.000 999%   0.000 Glu                                                 
   86.324  16%   0.291 GPC                                                 
    0.000 999%   0.000 PCh                                                 
    0.000 999%   0.000 GSH                                                 
  416.257  37%   1.404 Ins                                                 
   87.638  98%   0.296 Lac                                                 
    0.000 999%   0.000 NAA                                                 
    0.000 999%   0.000 NAAG                                                
   12.802  58% 4.3E-02 Scyllo                                              
   17.687 218% 6.0E-02 Tau                                                 
    0.000 999%   0.000 -CrCH2                                              
   86.324  16%   0.291 GPC+PCh                                             
    0.000 999%   0.000 NAA+NAAG                                            
  296.556  12%   1.000 Cr+PCr                                              
    0.000 999%   0.000 Glu+Gln                                             
    0.000 999%   0.000 Lip13a                                              
   83.281  52%   0.281 Lip13b                                              
   11.525 334% 3.9E-02 Lip09                                               
  122.682  53%   0.414 MM09                                                
   17.507 157% 5.9E-02 Lip20                                               
  191.431  54%   0.646 MM20                                                
   36.870  73%   0.124 MM12                                                
   38.336 214%   0.129 MM14                                                
   48.299 114%   0.163 MM17                                                
   83.281  52%   0.281 Lip13a+Lip13b                                       
  158.487  68%   0.534 MM14+Lip13a+Lip13b+MM12                             
  134.207  48%   0.453 MM09+Lip09                                          
  208.938  50%   0.705 MM20+Lip20                                          
   6 lines in following misc. output table
  FWHM = 0.161 ppm    S/N =   2                                            
  Data shift = 0.084 ppm                                                   
  Ph:  94 deg      60.4 deg/ppm                                            
  alphaB,S = 5.7E-01,   5.2E+00                                            
   14 spline knots.   Ns =10(1)                                            
  (12)11 infls.   (15) 9 extrs.                                            
  498 points on ppm-axis = NY
      4.000000     3.992357     3.984714     3.977070     3.969427     3.961784     3.954141     3.946497     3.938854     3.931211
      3.923568     3.915925     3.908281     3.900638     3.892995     3.885352     3.877708     3.870065     3.862422     3.854779
      3.847136     3.839492     3.831849     3.824206     3.816563     3.808919     3.801276     3.793633     3.785990     3.778347
      3.770703     3.763060     3.755417     3.747774     3.740130     3.732487     3.724844     3.717201     3.709558     3.701914
      3.694271     3.686628     3.678985     3.671341     3.663698     3.656055     3.648412     3.640769     3.633125     3.625482
      3.617839     3.610196     3.602552     3.594909     3.587266     3.579623     3.571980     3.564336     3.556693     3.549050
      3.541407     3.533763     3.526120     3.518477     3.510834     3.503191     3.495547     3.487904     3.480261     3.472618
      3.464974     3.457331     3.449688     3.442045     3.434402     3.426758     3.419115     3.411472     3.403829     3.396185
      3.388542     3.380899     3.373256     3.365613     3.357969     3.350326     3.342683     3.335040     3.327396     3.319753
      3.312110     3.304467     3.296824     3.289180     3.281537     3.273894     3.266251     3.258607     3.250964     3.243321
      3.235678     3.228034     3.220391     3.212748     3.205105     3.197462     3.189818     3.182175     3.174532     3.166889
      3.159245     3.151602     3.143959     3.136316     3.128673     3.121029     3.113386     3.105743     3.098100     3.090456
      3.082813     3.075170     3.067527     3.059884     3.052240     3.044597     3.036954     3.029311     3.021667     3.014024
      3.006381     2.998738     2.991095     2.983451     2.975808     2.968165     2.960522     2.952878     2.945235     2.937592
      2.929949     2.922306     2.914662     2.907019     2.899376     2.891733     2.884089     2.876446     2.868803     2.861160
      2.853517     2.845873     2.838230     2.830587     2.822944     2.815300     2.807657     2.800014     2.792371     2.784728
      2.777084     2.769441     2.761798     2.754155     2.746511     2.738868     2.731225     2.723582     2.715939     2.708295
      2.700652     2.693009     2.685366     2.677722     2.670079     2.662436     2.654793     2.647150     2.639506     2.631863
      2.624220     2.616577     2.608933     2.601290     2.593647     2.586004     2.578361     2.570717     2.563074     2.555431
      2.547788     2.540144     2.532501     2.524858     2.517215     2.509572     2.501928     2.494285     2.486642     2.478999
      2.471355     2.463712     2.456069     2.448426     2.440783     2.433139     2.425496     2.417853     2.410210     2.402566
      2.394923     2.387280     2.379637     2.371994     2.364350     2.356707     2.349064     2.341421     2.333777     2.326134
      2.318491     2.310848     2.303205     2.295561     2.287918     2.280275     2.272632     2.264988     2.257345     2.249702
      2.242059     2.234416     2.226772     2.219129     2.211486     2.203843     2.196199     2.188556     2.180913     2.173270
      2.165627     2.157983     2.150340     2.142697     2.135054     2.127410     2.119767     2.112124     2.104481     2.096838
      2.089194     2.081551     2.073908     2.066265     2.058621     2.050978     2.043335     2.035692     2.028049     2.020405
      2.012762     2.005119     1.997476     1.989833     1.982190     1.974546     1.966903     1.959260     1.951617     1.943974
      1.936331     1.928688     1.921045     1.913402     1.905759     1.898115     1.890472     1.882829     1.875186     1.867543
      1.859900     1.852257     1.844614     1.836971     1.829327     1.821684     1.814041     1.806398     1.798755     1.791112
      1.783469     1.775826     1.768183     1.760540     1.752896     1.745253     1.737610     1.729967     1.722324     1.714681
      1.707038     1.699395     1.691752     1.684108     1.676465     1.668822     1.661179     1.653536     1.645893     1.638250
      1.630607     1.622964     1.615321     1.607677     1.600034     1.592391     1.584748     1.577105     1.569462     1.561819
      1.554176     1.546533     1.538890     1.531246     1.523603     1.515960     1.508317     1.500674     1.493031     1.485388
      1.477745     1.470102     1.462458     1.454815     1.447172     1.439529     1.431886     1.424243     1.416600     1.408957
      1.401314     1.393671     1.386027     1.378384     1.370741     1.363098     1.355455     1.347812     1.340169     1.332526
      1.324883     1.317240     1.309596     1.301953     1.294310     1.286667     1.279024     1.271381     1.263738     1.256095
      1.248452     1.240808     1.233165     1.225522     1.217879     1.210236     1.202593     1.194950     1.187307     1.179664
      1.172021     1.164377     1.156734     1.149091     1.141448     1.133805     1.126162     1.118519     1.110876     1.103233
      1.095590     1.087946     1.080303     1.072660     1.065017     1.057374     1.049731     1.042088     1.034445     1.026802
      1.019158     1.011515     1.003872     0.996229     0.988586     0.980943     0.973300     0.965657     0.958014     0.950371
      0.942727     0.935084     0.927441     0.919798     0.912155     0.904512     0.896869     0.889226     0.881583     0.873940
      0.866296     0.858653     0.851010     0.843367     0.835724     0.828081     0.820438     0.812795     0.805152     0.797508
      0.789865     0.782222     0.774579     0.766936     0.759293     0.751650     0.744007     0.736364     0.728721     0.721077
      0.713434     0.705791     0.698148     0.690505     0.682862     0.675219     0.667576     0.659933     0.652290     0.644646
      0.637003     0.629360     0.621717     0.614074     0.606431     0.598788     0.591145     0.583502     0.575858     0.568215
      0.560572     0.552929     0.545286     0.537643     0.530000     0.522357     0.514714     0.507071     0.499427     0.491784
      0.484141     0.476498     0.468855     0.461212     0.453569     0.445925     0.438282     0.430639     0.422996     0.415353
      0.407710     0.400067     0.392424     0.384780     0.377137     0.369494     0.361851     0.354208     0.346565     0.338922
      0.331278     0.323635     0.315992     0.308349     0.300706     0.293063     0.285420     0.277777     0.270133     0.262490
      0.254847     0.247204     0.239561     0.231918     0.224275     0.216631     0.208988     0.201345
 NY phased data points follow
   5.42713E+01  5.42170E+01  5.57067E+01  5.23764E+01  5.15111E+01  5.27017E+01  4.93370E+01  4.77876E+01  4.62463E+01  4.25792E+01
   4.48442E+01  4.33841E+01  4.23014E+01  4.32994E+01  4.04874E+01  3.95992E+01  3.95331E+01  3.71077E+01  3.69513E+01  3.65673E+01
   3.26883E+01  3.44749E+01  3.53780E+01  3.17485E+01  3.27912E+01  3.05341E+01  2.80007E+01  3.15636E+01  2.97535E+01  2.86587E+01
   3.12664E+01  2.97746E+01  2.95964E+01  2.88361E+01  2.61784E+01  2.70452E+01  2.59095E+01  2.76939E+01  2.45741E+01  2.56617E+01
   2.55057E+01  2.47890E+01  2.53749E+01  2.47341E+01  2.36588E+01  2.20067E+01  2.55473E+01  2.28302E+01  2.29511E+01  2.11782E+01
   2.04167E+01  2.07318E+01  1.82158E+01  2.11905E+01  1.93152E+01  1.83723E+01  1.93410E+01  1.77261E+01  2.02507E+01  1.70480E+01
   1.62490E+01  1.68860E+01  1.42167E+01  1.49431E+01  1.66240E+01  1.03141E+01  1.31787E+01  1.32572E+01  1.38494E+01  1.29077E+01
   1.10604E+01  1.04677E+01  9.98813E+00  1.18809E+01  8.54583E+00  1.10193E+01  1.04661E+01  1.04725E+01  8.86548E+00  1.03455E+01
   8.38547E+00  8.45231E+00  9.17402E+00  7.66880E+00  7.02095E+00  7.37330E+00  7.63639E+00  7.06366E+00  8.01268E+00  7.89327E+00
   7.49248E+00  7.63089E+00  7.67380E+00  6.14242E+00  7.60853E+00  6.42628E+00  6.98916E+00  7.44018E+00  7.59018E+00  7.99422E+00
   7.61312E+00  5.36994E+00  3.95464E+00  5.78494E+00  5.00003E+00  2.71432E+00  5.01648E+00  3.16687E+00  5.69825E+00  2.75053E+00
   7.31028E-01  1.28227E+00  2.94916E+00  2.72016E+00  4.76118E+00  1.60605E+00 -2.90429E-01  2.52131E+00  1.47203E+00 -2.83281E-01
   4.06760E+00  2.59775E+00  5.46108E-01  3.59492E+00  1.68771E+00 -2.80948E-02  4.45572E-01  1.78210E+00  1.91541E+00 -1.23933E+00
   1.04576E+00  4.84825E-01 -9.05420E-01 -2.50888E+00 -9.27682E-01  4.98524E-01 -1.31096E+00 -2.90870E-01 -1.50979E+00 -3.97602E+00
  -6.74899E-01 -4.66918E+00 -1.75015E-01 -4.25380E+00 -2.95919E+00 -3.51371E+00 -2.38717E+00 -5.33128E+00 -3.01862E+00 -5.64460E+00
  -6.85438E+00 -3.62660E+00 -6.54883E+00 -5.43716E+00 -3.49985E+00 -6.73815E+00 -6.42653E+00 -5.13881E+00 -6.35213E+00 -6.13992E+00
  -8.49908E+00 -8.00327E+00 -6.00678E+00 -6.55076E+00 -7.47943E+00 -7.19444E+00 -7.18637E+00 -8.02466E+00 -6.71876E+00 -6.46997E+00
  -8.36644E+00 -1.06329E+01 -1.00124E+01 -1.03074E+01 -9.25333E+00 -8.78335E+00 -1.01161E+01 -1.00602E+01 -1.03573E+01 -1.13487E+01
  -9.18618E+00 -9.48747E+00 -1.00864E+01 -8.41379E+00 -9.98970E+00 -1.17696E+01 -1.07461E+01 -1.18381E+01 -1.17074E+01 -1.26880E+01
  -1.00320E+01 -1.22843E+01 -1.11122E+01 -1.13854E+01 -1.35014E+01 -1.39862E+01 -1.45190E+01 -1.17208E+01 -1.33967E+01 -1.26438E+01
  -1.43133E+01 -1.40576E+01 -1.32670E+01 -1.31715E+01 -1.43952E+01 -1.51219E+01 -1.31858E+01 -1.45744E+01 -1.41119E+01 -1.52817E+01
  -1.54945E+01 -1.44976E+01 -1.47059E+01 -1.56495E+01 -1.47740E+01 -1.52732E+01 -1.24797E+01 -1.40732E+01 -1.65155E+01 -1.66507E+01
  -1.61997E+01 -1.49911E+01 -1.62229E+01 -1.67525E+01 -1.49207E+01 -1.48240E+01 -1.62408E+01 -1.70158E+01 -1.82005E+01 -1.84767E+01
  -1.85950E+01 -1.56215E+01 -1.66010E+01 -1.80491E+01 -1.71742E+01 -1.68765E+01 -1.74350E+01 -1.88133E+01 -1.84079E+01 -1.84957E+01
  -1.65893E+01 -1.73813E+01 -1.74539E+01 -1.57893E+01 -1.74846E+01 -1.77218E+01 -1.57286E+01 -1.69579E+01 -1.62416E+01 -1.55811E+01
  -1.83858E+01 -1.96836E+01 -2.02195E+01 -1.72362E+01 -1.56733E+01 -1.73905E+01 -1.65393E+01 -1.73643E+01 -1.84045E+01 -1.62487E+01
  -1.77949E+01 -1.90549E+01 -1.99131E+01 -1.71470E+01 -2.03740E+01 -1.89292E+01 -2.10045E+01 -2.10550E+01 -1.79493E+01 -2.10219E+01
  -2.22188E+01 -1.90832E+01 -1.99709E+01 -2.03958E+01 -1.75502E+01 -1.78349E+01 -1.81330E+01 -2.05019E+01 -2.16992E+01 -2.07606E+01
  -2.04532E+01 -1.88527E+01 -1.89132E+01 -1.93555E+01 -1.97039E+01 -1.94868E+01 -2.01145E+01 -2.16022E+01 -1.91096E+01 -1.96299E+01
  -2.05939E+01 -2.00386E+01 -2.05059E+01 -1.91944E+01 -1.86464E+01 -2.14407E+01 -1.98868E+01 -1.89452E+01 -1.97049E+01 -2.01272E+01
  -2.01784E+01 -2.11373E+01 -2.04703E+01 -2.19041E+01 -1.95195E+01 -2.05219E+01 -1.88078E+01 -2.12313E+01 -2.24531E+01 -1.99000E+01
  -2.13425E+01 -2.08074E+01 -2.11256E+01 -2.04019E+01 -2.05613E+01 -2.29124E+01 -1.95732E+01 -2.06197E+01 -1.92036E+01 -2.14156E+01
  -2.10577E+01 -2.14514E+01 -2.24847E+01 -2.06009E+01 -1.93092E+01 -1.93228E+01 -2.03319E+01 -2.06637E+01 -2.17969E+01 -1.98368E+01
  -2.08298E+01 -2.36956E+01 -2.02034E+01 -2.17613E+01 -1.84460E+01 -2.29717E+01 -2.18879E+01 -1.92718E+01 -1.96049E+01 -1.91717E+01
  -2.41398E+01 -2.16285E+01 -2.11355E+01 -2.23612E+01 -2.20878E+01 -2.15498E+01 -2.24828E+01 -2.07595E+01 -2.06771E+01 -2.10122E+01
  -2.15637E+01 -2.10530E+01 -1.70067E+01 -1.93555E+01 -1.96566E+01 -1.95358E+01 -1.92660E+01 -1.86243E+01 -2.01385E+01 -1.91140E+01
  -1.98966E+01 -1.81924E+01 -1.86732E+01 -2.07806E+01 -1.97740E+01 -2.30463E+01 -2.06709E+01 -2.03387E+01 -1.79699E+01 -2.00141E+01
  -1.99388E+01 -1.71597E+01 -1.77821E+01 -1.79338E+01 -1.86373E+01 -1.82930E+01 -1.88368E+01 -1.98303E+01 -2.12520E+01 -2.01453E+01
  -1.86967E+01 -1.83500E+01 -2.03399E+01 -1.79745E+01 -2.05213E+01 -1.87972E+01 -2.04433E+01 -2.16541E+01 -2.10603E+01 -1.89380E+01
  -1.97078E+01 -2.02252E+01 -1.86858E+01 -1.82366E+01 -1.63949E+01 -1.52762E+01 -1.72686E+01 -1.74786E+01 -1.75350E+01 -1.82082E+01
  -1.61816E+01 -1.58084E+01 -1.54361E+01 -1.63441E+01 -1.40149E+01 -1.67582E+01 -1.70336E+01 -1.69932E+01 -1.72610E+01 -1.94813E+01
  -1.75116E+01 -1.64715E+01 -1.58955E+01 -1.62054E+01 -1.70864E+01 -1.49521E+01 -1.76494E+01 -1.63932E+01 -1.42072E+01 -1.37724E+01
  -1.48238E+01 -1.65603E+01 -1.71574E+01 -1.58142E+01 -1.64488E+01 -1.90063E+01 -1.81440E+01 -1.61402E+01 -1.72998E+01 -1.68303E+01
  -1.67003E+01 -1.57601E+01 -1.64560E+01 -1.33379E+01 -1.51449E+01 -1.23160E+01 -1.29872E+01 -1.36892E+01 -1.29278E+01 -1.30385E+01
  -1.37613E+01 -1.21171E+01 -1.48852E+01 -1.53236E+01 -1.30758E+01 -1.25601E+01 -1.38757E+01 -1.23012E+01 -1.27995E+01 -1.31389E+01
  -1.19388E+01 -1.29401E+01 -1.30638E+01 -1.14891E+01 -1.04982E+01 -1.34745E+01 -1.21998E+01 -1.35207E+01 -1.20287E+01 -1.26216E+01
  -1.31847E+01 -1.20681E+01 -1.36626E+01 -1.19900E+01 -1.14491E+01 -1.22438E+01 -1.14818E+01 -1.28784E+01 -1.05336E+01 -1.15528E+01
  -1.08304E+01 -1.19304E+01 -8.81323E+00 -1.16715E+01 -1.19903E+01 -1.02680E+01 -8.81562E+00 -1.07662E+01 -9.33722E+00 -1.17416E+01
  -8.48662E+00 -8.93586E+00 -7.50176E+00 -9.42438E+00 -9.50861E+00 -1.01523E+01 -7.70695E+00 -9.62908E+00 -8.92184E+00 -8.86732E+00
  -1.16097E+01 -9.57646E+00 -8.42901E+00 -9.80880E+00 -7.42461E+00 -9.23849E+00 -9.18613E+00 -6.73547E+00
 NY points of the fit to the data follow
   5.05861E+01  5.02773E+01  5.10246E+01  4.98862E+01  4.89744E+01  4.90731E+01  4.74151E+01  4.55453E+01  4.49466E+01  4.46184E+01
   4.36399E+01  4.24281E+01  4.24574E+01  4.24110E+01  4.09848E+01  3.94569E+01  3.93828E+01  3.93565E+01  3.88620E+01  3.83995E+01
   3.66410E+01  3.54620E+01  3.46998E+01  3.40155E+01  3.34148E+01  3.28663E+01  3.23109E+01  3.17956E+01  3.13002E+01  3.08818E+01
   3.03810E+01  2.97207E+01  2.91944E+01  2.86729E+01  2.79871E+01  2.73992E+01  2.68506E+01  2.62848E+01  2.61040E+01  2.62990E+01
   2.61304E+01  2.56865E+01  2.55058E+01  2.51876E+01  2.45174E+01  2.38232E+01  2.30951E+01  2.23393E+01  2.17362E+01  2.12374E+01
   2.07144E+01  2.03160E+01  2.01564E+01  2.01288E+01  1.96411E+01  1.88119E+01  1.85499E+01  1.84272E+01  1.80545E+01  1.74592E+01
   1.66159E+01  1.58682E+01  1.53646E+01  1.50671E+01  1.48627E+01  1.46162E+01  1.43838E+01  1.39733E+01  1.35441E+01  1.32753E+01
   1.29900E+01  1.25817E+01  1.21423E+01  1.17452E+01  1.12530E+01  1.08061E+01  1.06187E+01  1.04969E+01  1.00815E+01  9.66771E+00
   9.35073E+00  8.76876E+00  8.36874E+00  8.06778E+00  7.41938E+00  6.93791E+00  6.69215E+00  6.46777E+00  6.15089E+00  5.73415E+00
   5.47008E+00  5.13367E+00  4.74189E+00  5.65791E+00  6.93787E+00  6.58796E+00  7.48275E+00  8.28085E+00  6.99515E+00  7.39264E+00
   7.67407E+00  5.86455E+00  4.81000E+00  4.99626E+00  4.90580E+00  3.89633E+00  3.50051E+00  4.32685E+00  4.15148E+00  2.47619E+00
   1.68643E+00  2.26320E+00  2.39228E+00  2.60113E+00  1.82204E+00  2.46788E-01  4.19628E-01  2.18828E+00  2.48333E+00  2.48169E+00
   4.50947E+00  3.93368E+00  3.46475E+00  4.82923E+00  3.46425E+00  1.45110E+00  1.36095E+00  1.70292E+00  1.01000E+00 -9.56289E-02
   6.56889E-01  1.42991E+00  2.22871E-01 -1.34616E+00 -9.18264E-01 -2.38178E-01  3.20662E-03  2.97026E-01 -1.45232E+00 -2.54298E+00
  -3.03788E+00 -3.39266E+00 -3.70088E+00 -3.96868E+00 -4.20977E+00 -4.44236E+00 -4.65692E+00 -4.86458E+00 -5.06887E+00 -5.25907E+00
  -5.45030E+00 -5.64163E+00 -5.83066E+00 -6.01703E+00 -6.19506E+00 -6.37131E+00 -6.54868E+00 -6.72158E+00 -6.89084E+00 -7.05944E+00
  -7.22491E+00 -7.38764E+00 -7.54948E+00 -7.70863E+00 -7.86816E+00 -8.02778E+00 -8.18424E+00 -8.34081E+00 -8.49750E+00 -8.65439E+00
  -8.81101E+00 -8.96151E+00 -9.11217E+00 -9.26810E+00 -9.42224E+00 -9.56973E+00 -9.71744E+00 -9.86535E+00 -1.00100E+01 -1.01581E+01
  -1.03073E+01 -1.04534E+01 -1.06022E+01 -1.07549E+01 -1.09047E+01 -1.10499E+01 -1.11995E+01 -1.13493E+01 -1.14927E+01 -1.16374E+01
  -1.17820E+01 -1.19246E+01 -1.20666E+01 -1.22088E+01 -1.23496E+01 -1.24868E+01 -1.26284E+01 -1.27712E+01 -1.29101E+01 -1.30456E+01
  -1.31824E+01 -1.33201E+01 -1.34555E+01 -1.35901E+01 -1.37206E+01 -1.38492E+01 -1.39803E+01 -1.41127E+01 -1.42457E+01 -1.43789E+01
  -1.45095E+01 -1.46417E+01 -1.47704E+01 -1.48899E+01 -1.49991E+01 -1.51000E+01 -1.52007E+01 -1.53009E+01 -1.54004E+01 -1.55062E+01
  -1.56179E+01 -1.57439E+01 -1.58744E+01 -1.59897E+01 -1.61021E+01 -1.62104E+01 -1.63083E+01 -1.64089E+01 -1.64945E+01 -1.65614E+01
  -1.66485E+01 -1.67468E+01 -1.68280E+01 -1.68946E+01 -1.69712E+01 -1.70614E+01 -1.71426E+01 -1.72080E+01 -1.72789E+01 -1.73573E+01
  -1.74263E+01 -1.74849E+01 -1.75283E+01 -1.75624E+01 -1.76041E+01 -1.76482E+01 -1.76910E+01 -1.77323E+01 -1.77730E+01 -1.78137E+01
  -1.78562E+01 -1.79006E+01 -1.79447E+01 -1.79906E+01 -1.80375E+01 -1.80827E+01 -1.81334E+01 -1.81861E+01 -1.82373E+01 -1.82944E+01
  -1.83621E+01 -1.84315E+01 -1.85013E+01 -1.85817E+01 -1.86591E+01 -1.87296E+01 -1.88075E+01 -1.88761E+01 -1.89376E+01 -1.90053E+01
  -1.90732E+01 -1.91414E+01 -1.92081E+01 -1.92728E+01 -1.93462E+01 -1.94264E+01 -1.94948E+01 -1.95620E+01 -1.96341E+01 -1.97032E+01
  -1.97684E+01 -1.98270E+01 -1.98820E+01 -1.99386E+01 -1.99912E+01 -2.00432E+01 -2.00909E+01 -2.01375E+01 -2.01890E+01 -2.02381E+01
  -2.02789E+01 -2.03190E+01 -2.03597E+01 -2.03948E+01 -2.04247E+01 -2.04521E+01 -2.04755E+01 -2.04966E+01 -2.05173E+01 -2.05365E+01
  -2.05534E+01 -2.05691E+01 -2.05853E+01 -2.06001E+01 -2.06156E+01 -2.06311E+01 -2.06467E+01 -2.06628E+01 -2.06799E+01 -2.06979E+01
  -2.07170E+01 -2.07368E+01 -2.07574E+01 -2.07782E+01 -2.07985E+01 -2.08169E+01 -2.08272E+01 -2.08026E+01 -2.07518E+01 -2.07728E+01
  -2.07964E+01 -2.07625E+01 -2.08386E+01 -2.08998E+01 -2.09283E+01 -2.10768E+01 -2.11431E+01 -2.11140E+01 -2.11469E+01 -2.11177E+01
  -2.11048E+01 -2.10906E+01 -2.09979E+01 -2.09924E+01 -2.10618E+01 -2.10398E+01 -2.09612E+01 -2.07937E+01 -2.05455E+01 -2.05847E+01
  -2.06097E+01 -2.03502E+01 -2.05732E+01 -2.08311E+01 -2.08569E+01 -2.12572E+01 -2.13758E+01 -2.12776E+01 -2.12657E+01 -2.09847E+01
  -2.09167E+01 -2.06682E+01 -2.00389E+01 -1.98648E+01 -1.99887E+01 -1.97184E+01 -1.93045E+01 -1.91121E+01 -1.91510E+01 -1.93387E+01
  -1.92285E+01 -1.91983E+01 -1.94194E+01 -1.95167E+01 -1.95092E+01 -1.94625E+01 -1.92470E+01 -1.92620E+01 -1.93281E+01 -1.93703E+01
  -1.93947E+01 -1.94067E+01 -1.94097E+01 -1.94061E+01 -1.93973E+01 -1.93845E+01 -1.93682E+01 -1.93491E+01 -1.93273E+01 -1.93029E+01
  -1.92758E+01 -1.92458E+01 -1.92125E+01 -1.91757E+01 -1.91348E+01 -1.90893E+01 -1.90388E+01 -1.89825E+01 -1.89200E+01 -1.88507E+01
  -1.87742E+01 -1.86901E+01 -1.85983E+01 -1.84988E+01 -1.83917E+01 -1.82775E+01 -1.81569E+01 -1.80308E+01 -1.79001E+01 -1.77663E+01
  -1.76306E+01 -1.74946E+01 -1.73597E+01 -1.72273E+01 -1.70987E+01 -1.69750E+01 -1.68570E+01 -1.67455E+01 -1.66407E+01 -1.65429E+01
  -1.64518E+01 -1.63672E+01 -1.62885E+01 -1.62150E+01 -1.61460E+01 -1.60807E+01 -1.60182E+01 -1.59577E+01 -1.58985E+01 -1.58399E+01
  -1.57813E+01 -1.57222E+01 -1.56621E+01 -1.56008E+01 -1.55380E+01 -1.54735E+01 -1.54071E+01 -1.53390E+01 -1.52689E+01 -1.51970E+01
  -1.51232E+01 -1.50476E+01 -1.49702E+01 -1.48911E+01 -1.48104E+01 -1.47282E+01 -1.46444E+01 -1.45592E+01 -1.44726E+01 -1.43846E+01
  -1.42954E+01 -1.42049E+01 -1.41132E+01 -1.40204E+01 -1.39264E+01 -1.38313E+01 -1.37352E+01 -1.36380E+01 -1.35398E+01 -1.34406E+01
  -1.33404E+01 -1.32393E+01 -1.31372E+01 -1.30342E+01 -1.29303E+01 -1.28255E+01 -1.27199E+01 -1.26133E+01 -1.25059E+01 -1.23976E+01
  -1.22884E+01 -1.21784E+01 -1.20676E+01 -1.19560E+01 -1.18435E+01 -1.17302E+01 -1.16161E+01 -1.15011E+01 -1.13854E+01 -1.12689E+01
  -1.11515E+01 -1.10334E+01 -1.09145E+01 -1.07948E+01 -1.06744E+01 -1.05532E+01 -1.04312E+01 -1.03084E+01 -1.01849E+01 -1.00606E+01
  -9.93558E+00 -9.80981E+00 -9.68330E+00 -9.55606E+00 -9.42809E+00 -9.29939E+00 -9.16999E+00 -9.03988E+00 -8.90907E+00 -8.77757E+00
  -8.64538E+00 -8.51254E+00 -8.37903E+00 -8.24490E+00 -8.11013E+00 -7.97477E+00 -7.83882E+00 -7.70233E+00
 NY background values follow
     4.697E+01    4.636E+01    4.576E+01    4.515E+01    4.454E+01    4.394E+01    4.333E+01    4.273E+01    4.213E+01    4.153E+01
     4.093E+01    4.034E+01    3.974E+01    3.915E+01    3.856E+01    3.797E+01    3.739E+01    3.681E+01    3.622E+01    3.565E+01
     3.507E+01    3.450E+01    3.393E+01    3.337E+01    3.280E+01    3.224E+01    3.169E+01    3.113E+01    3.059E+01    3.004E+01
     2.950E+01    2.896E+01    2.843E+01    2.790E+01    2.738E+01    2.685E+01    2.634E+01    2.583E+01    2.532E+01    2.482E+01
     2.432E+01    2.383E+01    2.334E+01    2.286E+01    2.238E+01    2.191E+01    2.145E+01    2.099E+01    2.053E+01    2.008E+01
     1.964E+01    1.920E+01    1.877E+01    1.834E+01    1.791E+01    1.750E+01    1.708E+01    1.667E+01    1.627E+01    1.587E+01
     1.548E+01    1.509E+01    1.470E+01    1.432E+01    1.395E+01    1.358E+01    1.321E+01    1.285E+01    1.249E+01    1.214E+01
     1.179E+01    1.144E+01    1.110E+01    1.077E+01    1.043E+01    1.011E+01    9.782E+00    9.462E+00    9.145E+00    8.832E+00
     8.524E+00    8.218E+00    7.917E+00    7.619E+00    7.324E+00    7.033E+00    6.746E+00    6.462E+00    6.181E+00    5.904E+00
     5.630E+00    5.359E+00    5.091E+00    4.827E+00    4.565E+00    4.307E+00    4.051E+00    3.799E+00    3.549E+00    3.302E+00
     3.058E+00    2.817E+00    2.578E+00    2.343E+00    2.109E+00    1.879E+00    1.651E+00    1.425E+00    1.202E+00    9.819E-01
     7.637E-01    5.478E-01    3.343E-01    1.230E-01   -8.602E-02   -2.929E-01   -4.976E-01   -7.003E-01   -9.008E-01   -1.099E+00
    -1.296E+00   -1.491E+00   -1.683E+00   -1.874E+00   -2.063E+00   -2.251E+00   -2.436E+00   -2.620E+00   -2.803E+00   -2.983E+00
    -3.162E+00   -3.340E+00   -3.516E+00   -3.690E+00   -3.864E+00   -4.035E+00   -4.206E+00   -4.375E+00   -4.543E+00   -4.710E+00
    -4.875E+00   -5.039E+00   -5.203E+00   -5.364E+00   -5.525E+00   -5.685E+00   -5.844E+00   -6.002E+00   -6.158E+00   -6.314E+00
    -6.469E+00   -6.623E+00   -6.776E+00   -6.928E+00   -7.079E+00   -7.230E+00   -7.380E+00   -7.529E+00   -7.677E+00   -7.825E+00
    -7.972E+00   -8.118E+00   -8.264E+00   -8.409E+00   -8.553E+00   -8.697E+00   -8.841E+00   -8.984E+00   -9.126E+00   -9.268E+00
    -9.410E+00   -9.551E+00   -9.692E+00   -9.832E+00   -9.972E+00   -1.011E+01   -1.025E+01   -1.039E+01   -1.053E+01   -1.067E+01
    -1.081E+01   -1.095E+01   -1.108E+01   -1.122E+01   -1.136E+01   -1.150E+01   -1.164E+01   -1.177E+01   -1.191E+01   -1.204E+01
    -1.218E+01   -1.232E+01   -1.245E+01   -1.259E+01   -1.272E+01   -1.285E+01   -1.299E+01   -1.312E+01   -1.325E+01   -1.338E+01
    -1.351E+01   -1.364E+01   -1.377E+01   -1.389E+01   -1.402E+01   -1.415E+01   -1.427E+01   -1.440E+01   -1.452E+01   -1.464E+01
    -1.476E+01   -1.488E+01   -1.500E+01   -1.512E+01   -1.524E+01   -1.536E+01   -1.547E+01   -1.558E+01   -1.570E+01   -1.581E+01
    -1.592E+01   -1.603E+01   -1.614E+01   -1.624E+01   -1.635E+01   -1.645E+01   -1.655E+01   -1.665E+01   -1.675E+01   -1.685E+01
    -1.695E+01   -1.704E+01   -1.714E+01   -1.723E+01   -1.732E+01   -1.741E+01   -1.750E+01   -1.759E+01   -1.768E+01   -1.776E+01
    -1.784E+01   -1.793E+01   -1.801E+01   -1.809E+01   -1.817E+01   -1.825E+01   -1.832E+01   -1.840E+01   -1.847E+01   -1.855E+01
    -1.862E+01   -1.869E+01   -1.876E+01   -1.883E+01   -1.889E+01   -1.896E+01   -1.903E+01   -1.909E+01   -1.915E+01   -1.922E+01
    -1.928E+01   -1.934E+01   -1.940E+01   -1.945E+01   -1.951E+01   -1.957E+01   -1.962E+01   -1.967E+01   -1.973E+01   -1.978E+01
    -1.983E+01   -1.988E+01   -1.993E+01   -1.998E+01   -2.003E+01   -2.007E+01   -2.012E+01   -2.016E+01   -2.020E+01   -2.025E+01
    -2.029E+01   -2.033E+01   -2.037E+01   -2.041E+01   -2.045E+01   -2.048E+01   -2.052E+01   -2.055E+01   -2.059E+01   -2.062E+01
    -2.065E+01   -2.068E+01   -2.072E+01   -2.074E+01   -2.077E+01   -2.080E+01   -2.083E+01   -2.085E+01   -2.088E+01   -2.090E+01
    -2.093E+01   -2.095E+01   -2.097E+01   -2.099E+01   -2.101E+01   -2.103E+01   -2.105E+01   -2.106E+01   -2.108E+01   -2.109E+01
    -2.111E+01   -2.112E+01   -2.113E+01   -2.115E+01   -2.116E+01   -2.117E+01   -2.117E+01   -2.118E+01   -2.119E+01   -2.120E+01
    -2.120E+01   -2.120E+01   -2.121E+01   -2.121E+01   -2.121E+01   -2.121E+01   -2.121E+01   -2.121E+01   -2.121E+01   -2.121E+01
    -2.120E+01   -2.120E+01   -2.119E+01   -2.118E+01   -2.118E+01   -2.117E+01   -2.116E+01   -2.115E+01   -2.114E+01   -2.112E+01
    -2.111E+01   -2.109E+01   -2.108E+01   -2.106E+01   -2.104E+01   -2.103E+01   -2.101E+01   -2.099E+01   -2.096E+01   -2.094E+01
    -2.092E+01   -2.089E+01   -2.087E+01   -2.084E+01   -2.081E+01   -2.079E+01   -2.076E+01   -2.072E+01   -2.069E+01   -2.066E+01
    -2.063E+01   -2.059E+01   -2.056E+01   -2.052E+01   -2.048E+01   -2.044E+01   -2.040E+01   -2.036E+01   -2.032E+01   -2.028E+01
    -2.023E+01   -2.019E+01   -2.014E+01   -2.010E+01   -2.005E+01   -2.000E+01   -1.995E+01   -1.990E+01   -1.985E+01   -1.980E+01
    -1.974E+01   -1.969E+01   -1.963E+01   -1.958E+01   -1.952E+01   -1.946E+01   -1.940E+01   -1.934E+01   -1.928E+01   -1.922E+01
    -1.916E+01   -1.910E+01   -1.903E+01   -1.897E+01   -1.890E+01   -1.884E+01   -1.877E+01   -1.870E+01   -1.863E+01   -1.856E+01
    -1.849E+01   -1.842E+01   -1.835E+01   -1.827E+01   -1.820E+01   -1.813E+01   -1.805E+01   -1.797E+01   -1.790E+01   -1.782E+01
    -1.774E+01   -1.766E+01   -1.758E+01   -1.750E+01   -1.742E+01   -1.733E+01   -1.725E+01   -1.717E+01   -1.708E+01   -1.700E+01
    -1.691E+01   -1.682E+01   -1.673E+01   -1.664E+01   -1.656E+01   -1.646E+01   -1.637E+01   -1.628E+01   -1.619E+01   -1.610E+01
    -1.600E+01   -1.591E+01   -1.581E+01   -1.572E+01   -1.562E+01   -1.552E+01   -1.542E+01   -1.532E+01   -1.523E+01   -1.512E+01
    -1.502E+01   -1.492E+01   -1.482E+01   -1.472E+01   -1.461E+01   -1.451E+01   -1.440E+01   -1.430E+01   -1.419E+01   -1.408E+01
    -1.397E+01   -1.386E+01   -1.376E+01   -1.364E+01   -1.353E+01   -1.342E+01   -1.331E+01   -1.320E+01   -1.308E+01   -1.297E+01
    -1.285E+01   -1.274E+01   -1.262E+01   -1.250E+01   -1.239E+01   -1.227E+01   -1.215E+01   -1.203E+01   -1.191E+01   -1.179E+01
    -1.166E+01   -1.154E+01   -1.142E+01   -1.129E+01   -1.117E+01   -1.104E+01   -1.091E+01   -1.079E+01   -1.066E+01   -1.053E+01
    -1.040E+01   -1.027E+01   -1.014E+01   -1.001E+01   -9.876E+00   -9.743E+00   -9.609E+00   -9.474E+00   -9.339E+00   -9.203E+00
    -9.067E+00   -8.929E+00   -8.791E+00   -8.652E+00   -8.513E+00   -8.372E+00   -8.231E+00   -8.090E+00
 Ala      Conc. = 2.36E+01
