 LCModel (Version 6.3-1L) Copyright: S.W. Provencher.          Ref.: Magn. Reson. Med. 30:672-679 (1993).                
 Slice#3 Row#13 Col#7  K_02_press_1_raw_act
 36 lines in following concentration table = NCONC+1
    Conc.  %SD /Cr+PCr  Metabolite                                         
    0.000 999%   0.000 Ala                                                 
    0.000 999%   0.000 Asp                                                 
  559.814   7%   1.000 Cr                                                  
    0.000 999%   0.000 PCr                                                 
   68.257 101%   0.122 GABA                                                
    0.000 999%   0.000 Glc                                                 
 1.26E+03  26%   2.242 Gln                                                 
 1.02E+03  35%   1.818 Glu                                                 
  168.270   9%   0.301 GPC                                                 
    0.000 999%   0.000 PCh                                                 
  370.220  16%   0.661 GSH                                                 
 1.88E+03  14%   3.354 Ins                                                 
  118.290 124%   0.211 Lac                                                 
  822.860  10%   1.470 NAA                                                 
  153.953  58%   0.275 NAAG                                                
   63.188  28%   0.113 Scyllo                                              
    0.000 999%   0.000 Tau                                                 
    0.000 999%   0.000 -CrCH2                                              
  168.270   9%   0.301 GPC+PCh                                             
  976.813   5%   1.745 NAA+NAAG                                            
  559.814   7%   1.000 Cr+PCr                                              
 2.27E+03  27%   4.060 Glu+Gln                                             
   37.142 917% 6.6E-02 Lip13a                                              
  116.731  78%   0.209 Lip13b                                              
   41.586 176% 7.4E-02 Lip09                                               
   29.043 333% 5.2E-02 MM09                                                
   23.486 177% 4.2E-02 Lip20                                               
   49.661 306% 8.9E-02 MM20                                                
    8.694 380% 1.6E-02 MM12                                                
    2.142 999% 3.8E-03 MM14                                                
   19.157 290% 3.4E-02 MM17                                                
  153.873 174%   0.275 Lip13a+Lip13b                                       
  164.709 156%   0.294 MM14+Lip13a+Lip13b+MM12                             
   70.629 140%   0.126 MM09+Lip09                                          
   73.147 197%   0.131 MM20+Lip20                                          
   6 lines in following misc. output table
  FWHM = 0.092 ppm    S/N =   6                                            
  Data shift = 0.038 ppm                                                   
  Ph: -35 deg     -20.5 deg/ppm                                            
  alphaB,S = 5.2E-01,   4.8E+01                                            
   14 spline knots.   Ns =11(1)                                            
  (19) 9 infls.   (18) 3 extrs.                                            
  498 points on ppm-axis = NY
      4.000000     3.992357     3.984714     3.977070     3.969427     3.961784     3.954141     3.946497     3.938854     3.931211
      3.923568     3.915925     3.908281     3.900638     3.892995     3.885352     3.877708     3.870065     3.862422     3.854779
      3.847136     3.839492     3.831849     3.824206     3.816563     3.808919     3.801276     3.793633     3.785990     3.778347
      3.770703     3.763060     3.755417     3.747774     3.740130     3.732487     3.724844     3.717201     3.709558     3.701914
      3.694271     3.686628     3.678985     3.671341     3.663698     3.656055     3.648412     3.640769     3.633125     3.625482
      3.617839     3.610196     3.602552     3.594909     3.587266     3.579623     3.571980     3.564336     3.556693     3.549050
      3.541407     3.533763     3.526120     3.518477     3.510834     3.503191     3.495547     3.487904     3.480261     3.472618
      3.464974     3.457331     3.449688     3.442045     3.434402     3.426758     3.419115     3.411472     3.403829     3.396185
      3.388542     3.380899     3.373256     3.365613     3.357969     3.350326     3.342683     3.335040     3.327396     3.319753
      3.312110     3.304467     3.296824     3.289180     3.281537     3.273894     3.266251     3.258607     3.250964     3.243321
      3.235678     3.228034     3.220391     3.212748     3.205105     3.197462     3.189818     3.182175     3.174532     3.166889
      3.159245     3.151602     3.143959     3.136316     3.128673     3.121029     3.113386     3.105743     3.098100     3.090456
      3.082813     3.075170     3.067527     3.059884     3.052240     3.044597     3.036954     3.029311     3.021667     3.014024
      3.006381     2.998738     2.991095     2.983451     2.975808     2.968165     2.960522     2.952878     2.945235     2.937592
      2.929949     2.922306     2.914662     2.907019     2.899376     2.891733     2.884089     2.876446     2.868803     2.861160
      2.853517     2.845873     2.838230     2.830587     2.822944     2.815300     2.807657     2.800014     2.792371     2.784728
      2.777084     2.769441     2.761798     2.754155     2.746511     2.738868     2.731225     2.723582     2.715939     2.708295
      2.700652     2.693009     2.685366     2.677722     2.670079     2.662436     2.654793     2.647150     2.639506     2.631863
      2.624220     2.616577     2.608933     2.601290     2.593647     2.586004     2.578361     2.570717     2.563074     2.555431
      2.547788     2.540144     2.532501     2.524858     2.517215     2.509572     2.501928     2.494285     2.486642     2.478999
      2.471355     2.463712     2.456069     2.448426     2.440783     2.433139     2.425496     2.417853     2.410210     2.402566
      2.394923     2.387280     2.379637     2.371994     2.364350     2.356707     2.349064     2.341421     2.333777     2.326134
      2.318491     2.310848     2.303205     2.295561     2.287918     2.280275     2.272632     2.264988     2.257345     2.249702
      2.242059     2.234416     2.226772     2.219129     2.211486     2.203843     2.196199     2.188556     2.180913     2.173270
      2.165627     2.157983     2.150340     2.142697     2.135054     2.127410     2.119767     2.112124     2.104481     2.096838
      2.089194     2.081551     2.073908     2.066265     2.058621     2.050978     2.043335     2.035692     2.028049     2.020405
      2.012762     2.005119     1.997476     1.989833     1.982190     1.974546     1.966903     1.959260     1.951617     1.943974
      1.936331     1.928688     1.921045     1.913402     1.905759     1.898115     1.890472     1.882829     1.875186     1.867543
      1.859900     1.852257     1.844614     1.836971     1.829327     1.821684     1.814041     1.806398     1.798755     1.791112
      1.783469     1.775826     1.768183     1.760540     1.752896     1.745253     1.737610     1.729967     1.722324     1.714681
      1.707038     1.699395     1.691752     1.684108     1.676465     1.668822     1.661179     1.653536     1.645893     1.638250
      1.630607     1.622964     1.615321     1.607677     1.600034     1.592391     1.584748     1.577105     1.569462     1.561819
      1.554176     1.546533     1.538890     1.531246     1.523603     1.515960     1.508317     1.500674     1.493031     1.485388
      1.477745     1.470102     1.462458     1.454815     1.447172     1.439529     1.431886     1.424243     1.416600     1.408957
      1.401314     1.393671     1.386027     1.378384     1.370741     1.363098     1.355455     1.347812     1.340169     1.332526
      1.324883     1.317240     1.309596     1.301953     1.294310     1.286667     1.279024     1.271381     1.263738     1.256095
      1.248452     1.240808     1.233165     1.225522     1.217879     1.210236     1.202593     1.194950     1.187307     1.179664
      1.172021     1.164377     1.156734     1.149091     1.141448     1.133805     1.126162     1.118519     1.110876     1.103233
      1.095590     1.087946     1.080303     1.072660     1.065017     1.057374     1.049731     1.042088     1.034445     1.026802
      1.019158     1.011515     1.003872     0.996229     0.988586     0.980943     0.973300     0.965657     0.958014     0.950371
      0.942727     0.935084     0.927441     0.919798     0.912155     0.904512     0.896869     0.889226     0.881583     0.873940
      0.866296     0.858653     0.851010     0.843367     0.835724     0.828081     0.820438     0.812795     0.805152     0.797508
      0.789865     0.782222     0.774579     0.766936     0.759293     0.751650     0.744007     0.736364     0.728721     0.721077
      0.713434     0.705791     0.698148     0.690505     0.682862     0.675219     0.667576     0.659933     0.652290     0.644646
      0.637003     0.629360     0.621717     0.614074     0.606431     0.598788     0.591145     0.583502     0.575858     0.568215
      0.560572     0.552929     0.545286     0.537643     0.530000     0.522357     0.514714     0.507071     0.499427     0.491784
      0.484141     0.476498     0.468855     0.461212     0.453569     0.445925     0.438282     0.430639     0.422996     0.415353
      0.407710     0.400067     0.392424     0.384780     0.377137     0.369494     0.361851     0.354208     0.346565     0.338922
      0.331278     0.323635     0.315992     0.308349     0.300706     0.293063     0.285420     0.277777     0.270133     0.262490
      0.254847     0.247204     0.239561     0.231918     0.224275     0.216631     0.208988     0.201345
 NY phased data points follow
  -1.46283E+02 -1.43224E+02 -1.36879E+02 -1.38282E+02 -1.33951E+02 -1.31677E+02 -1.30203E+02 -1.25396E+02 -1.24347E+02 -1.20950E+02
  -1.18533E+02 -1.16787E+02 -1.16130E+02 -1.15483E+02 -1.15560E+02 -1.17256E+02 -1.15058E+02 -1.12784E+02 -1.10660E+02 -1.11880E+02
  -1.10425E+02 -1.09256E+02 -1.06943E+02 -1.04008E+02 -1.05014E+02 -1.01194E+02 -1.01275E+02 -9.90992E+01 -9.62724E+01 -9.68425E+01
  -9.53513E+01 -9.32268E+01 -9.02887E+01 -9.03967E+01 -8.98649E+01 -8.89912E+01 -8.65496E+01 -8.52056E+01 -8.46292E+01 -8.33066E+01
  -8.02777E+01 -8.14654E+01 -7.82462E+01 -7.94157E+01 -7.62388E+01 -7.44224E+01 -7.20288E+01 -7.23414E+01 -7.36011E+01 -7.10699E+01
  -7.22880E+01 -7.02200E+01 -6.94372E+01 -7.03821E+01 -6.89984E+01 -6.65466E+01 -6.80629E+01 -6.76553E+01 -6.75106E+01 -6.34794E+01
  -6.20740E+01 -6.37107E+01 -6.49930E+01 -6.29767E+01 -6.30401E+01 -6.50657E+01 -6.11949E+01 -5.87989E+01 -5.81358E+01 -6.09538E+01
  -6.06324E+01 -5.97840E+01 -5.73054E+01 -5.76736E+01 -5.38041E+01 -5.59542E+01 -5.55441E+01 -5.43020E+01 -5.12586E+01 -5.56305E+01
  -5.31377E+01 -5.27596E+01 -5.07721E+01 -5.26408E+01 -4.99957E+01 -4.64696E+01 -4.94700E+01 -4.85730E+01 -4.63724E+01 -4.67287E+01
  -4.60648E+01 -4.44692E+01 -4.37789E+01 -4.42400E+01 -4.29786E+01 -4.24596E+01 -3.92640E+01 -3.76753E+01 -3.97668E+01 -3.96129E+01
  -3.94710E+01 -3.39471E+01 -3.24762E+01 -3.02324E+01 -3.07523E+01 -3.16152E+01 -3.45311E+01 -3.27861E+01 -3.23764E+01 -3.22288E+01
  -3.37826E+01 -3.50228E+01 -3.31775E+01 -3.25879E+01 -3.33351E+01 -3.40240E+01 -3.36151E+01 -3.30201E+01 -2.74029E+01 -2.83155E+01
  -2.52827E+01 -2.76505E+01 -2.63192E+01 -2.37781E+01 -2.15853E+01 -2.16914E+01 -1.73490E+01 -1.86263E+01 -1.68157E+01 -1.90216E+01
  -1.96054E+01 -1.99378E+01 -2.11572E+01 -1.95624E+01 -2.54793E+01 -2.45667E+01 -2.25777E+01 -2.31882E+01 -2.14967E+01 -2.46964E+01
  -2.31596E+01 -2.28832E+01 -2.39129E+01 -2.62241E+01 -2.37434E+01 -2.46274E+01 -2.56074E+01 -2.21607E+01 -2.22515E+01 -2.51927E+01
  -2.05838E+01 -2.25035E+01 -2.26992E+01 -2.12246E+01 -2.33025E+01 -2.12145E+01 -2.14349E+01 -2.21015E+01 -2.08459E+01 -1.90328E+01
  -1.99352E+01 -1.90739E+01 -2.02606E+01 -1.94708E+01 -1.85293E+01 -1.92311E+01 -1.81714E+01 -1.81570E+01 -1.77728E+01 -2.12426E+01
  -1.88279E+01 -2.04230E+01 -2.01980E+01 -1.96174E+01 -2.09227E+01 -2.17655E+01 -1.87213E+01 -1.95761E+01 -2.06718E+01 -2.25921E+01
  -1.81692E+01 -1.86853E+01 -1.75130E+01 -1.73894E+01 -1.73805E+01 -1.70076E+01 -1.64908E+01 -1.77196E+01 -1.66815E+01 -1.48875E+01
  -1.38198E+01 -1.31783E+01 -1.21482E+01 -1.33316E+01 -1.41339E+01 -1.35778E+01 -1.27024E+01 -1.16246E+01 -1.25092E+01 -1.26207E+01
  -9.49482E+00 -1.38977E+01 -1.05981E+01 -1.05195E+01 -9.50667E+00 -1.04584E+01 -1.41009E+01 -8.69904E+00 -1.08167E+01 -1.15915E+01
  -1.16505E+01 -1.12476E+01 -8.71034E+00 -8.44490E+00 -8.73468E+00 -8.56058E+00 -8.67361E+00 -6.46633E+00 -7.49887E+00 -5.44153E+00
  -6.35515E+00 -6.93643E+00 -5.40046E+00 -7.43460E+00 -5.94461E+00 -8.34394E+00 -4.57753E+00 -3.31222E+00 -6.40093E+00 -4.94563E+00
  -4.52091E+00 -5.40965E+00 -6.66523E+00 -2.06828E+00 -3.10277E+00 -3.86562E+00 -6.08060E+00 -3.98253E+00 -2.13598E+00 -4.42957E+00
  -3.99676E+00 -4.93339E+00 -1.93209E+00 -4.73476E+00 -3.10491E+00 -1.05638E+00 -1.21113E+00  5.88031E-01 -1.34861E+00  1.82531E+00
   4.03879E+00  4.80351E+00  4.09943E+00  6.30912E+00  1.07624E+01  1.51028E+01  1.36111E+01  1.14191E+01  1.81444E+01  1.77739E+01
   1.87907E+01  1.98584E+01  1.95050E+01  1.62180E+01  1.24443E+01  1.21374E+01  8.86146E+00  7.07115E+00  5.92213E+00  3.79995E+00
   4.43006E+00  3.85711E+00 -8.45436E-01  1.51740E+00  1.40859E-01  2.54859E+00  5.47223E-01  3.81702E+00  4.43426E+00  4.75240E-01
   4.89076E+00  4.02319E+00  3.04440E+00  2.38006E+00  1.81802E+00  4.15711E+00  1.94025E-02  3.68214E+00  4.27962E+00  4.98920E+00
   4.05255E+00  2.75951E+00  1.23466E-01  2.11068E+00  3.47938E-01  2.82496E+00  3.79142E+00  4.08359E+00  6.35301E+00  3.62601E+00
   3.01272E+00  1.25993E+00  2.59922E+00  4.00995E+00  4.13241E+00  4.46232E+00  5.31268E+00  3.08969E+00  4.28735E+00  5.07440E+00
   7.37460E+00  3.78638E+00  5.95101E+00  6.78045E+00  4.31527E+00  3.91204E+00  3.13136E+00  5.47204E+00  3.84050E+00  3.75310E+00
   2.79386E+00  3.79932E+00  3.31276E+00  4.37586E+00  5.35721E+00  3.89441E+00  5.19424E+00  4.99354E+00  4.08750E+00  3.95782E+00
   6.49902E+00  5.08723E+00  3.57844E+00  6.26720E+00  4.95409E+00  5.62298E+00  6.81112E+00  7.53152E+00  7.39792E+00  9.68842E+00
   8.49184E+00  4.72702E+00  3.75003E+00  6.95374E+00  6.43396E+00  7.21967E+00  4.60713E+00  8.01555E+00  5.19991E+00  8.41230E+00
   6.37514E+00  9.36835E+00  7.97751E+00  8.38218E+00  9.54678E+00  9.43364E+00  8.48070E+00  8.63611E+00  8.25363E+00  6.52863E+00
   7.98911E+00  7.72411E+00  7.87888E+00  9.86457E+00  7.23504E+00  9.07175E+00  7.88385E+00  7.95605E+00  7.86212E+00  7.68822E+00
   7.38311E+00  8.03588E+00  7.78755E+00  6.93201E+00  5.82683E+00  6.67965E+00  9.70159E+00  7.27839E+00  7.40942E+00  9.50202E+00
   9.13900E+00  1.07259E+01  8.37601E+00  7.73913E+00  1.21347E+01  7.72261E+00  9.91047E+00  8.74231E+00  7.90825E+00  8.30679E+00
   8.67094E+00  9.80808E+00  7.80614E+00  9.22899E+00  5.93841E+00  8.79529E+00  7.81808E+00  7.99162E+00  8.15455E+00  9.95182E+00
   9.81264E+00  9.44744E+00  8.88423E+00  1.10933E+01  8.91850E+00  9.67094E+00  1.01333E+01  8.24738E+00  1.02897E+01  6.53438E+00
   1.02343E+01  1.15405E+01  1.10617E+01  1.08744E+01  9.91666E+00  1.07776E+01  1.07789E+01  9.91750E+00  1.12702E+01  6.87568E+00
   1.02688E+01  8.89458E+00  1.00416E+01  9.38715E+00  8.94789E+00  8.91544E+00  1.25212E+01  8.02509E+00  9.10966E+00  9.80750E+00
   1.05726E+01  1.03428E+01  1.06204E+01  1.00107E+01  1.12907E+01  9.11641E+00  8.39686E+00  8.13404E+00  9.43505E+00  1.10924E+01
   8.42880E+00  9.69069E+00  8.62883E+00  5.65991E+00  6.96816E+00  1.02437E+01  8.41179E+00  1.23187E+01  1.06553E+01  1.05424E+01
   9.01617E+00  1.15109E+01  9.85780E+00  9.93948E+00  7.69471E+00  1.11232E+01  7.85407E+00  1.13394E+01  1.13944E+01  8.84382E+00
   1.12909E+01  1.04612E+01  9.00357E+00  1.02843E+01  1.14600E+01  1.05170E+01  1.26590E+01  8.78250E+00  8.40389E+00  5.71369E+00
   1.15577E+01  1.00576E+01  9.93793E+00  1.06605E+01  9.93519E+00  1.06475E+01  1.15744E+01  1.11612E+01  1.13532E+01  1.18916E+01
   8.68584E+00  1.28168E+01  1.08452E+01  1.05316E+01  9.98218E+00  9.87184E+00  9.17921E+00  1.07549E+01  8.32550E+00  8.40161E+00
   1.08054E+01  1.35201E+01  1.08372E+01  1.28746E+01  1.05098E+01  1.28290E+01  1.07636E+01  8.38172E+00
 NY points of the fit to the data follow
  -1.39833E+02 -1.38161E+02 -1.36586E+02 -1.34881E+02 -1.32785E+02 -1.30792E+02 -1.29186E+02 -1.27623E+02 -1.25636E+02 -1.23059E+02
  -1.20420E+02 -1.18238E+02 -1.16710E+02 -1.15922E+02 -1.15544E+02 -1.14954E+02 -1.13990E+02 -1.13154E+02 -1.12560E+02 -1.11657E+02
  -1.10295E+02 -1.08752E+02 -1.07276E+02 -1.05703E+02 -1.04017E+02 -1.02458E+02 -1.00944E+02 -9.93066E+01 -9.75010E+01 -9.55111E+01
  -9.34803E+01 -9.19309E+01 -9.09288E+01 -9.01228E+01 -8.92872E+01 -8.85372E+01 -8.78583E+01 -8.68757E+01 -8.54887E+01 -8.38162E+01
  -8.23673E+01 -8.14186E+01 -8.05098E+01 -7.92370E+01 -7.72161E+01 -7.50124E+01 -7.35200E+01 -7.29066E+01 -7.29079E+01 -7.29831E+01
  -7.26783E+01 -7.19361E+01 -7.12620E+01 -7.09161E+01 -7.05243E+01 -6.96990E+01 -6.87514E+01 -6.80559E+01 -6.72945E+01 -6.62436E+01
  -6.52435E+01 -6.45645E+01 -6.40080E+01 -6.32985E+01 -6.24442E+01 -6.15794E+01 -6.07307E+01 -5.98030E+01 -5.88387E+01 -5.79892E+01
  -5.72290E+01 -5.65510E+01 -5.59441E+01 -5.53886E+01 -5.48518E+01 -5.42553E+01 -5.36557E+01 -5.32034E+01 -5.28536E+01 -5.24619E+01
  -5.19962E+01 -5.16173E+01 -5.12745E+01 -5.08425E+01 -5.02754E+01 -4.96956E+01 -4.92074E+01 -4.87580E+01 -4.83206E+01 -4.79183E+01
  -4.74388E+01 -4.67133E+01 -4.55363E+01 -4.40750E+01 -4.27311E+01 -4.14542E+01 -4.00706E+01 -3.90299E+01 -3.85014E+01 -3.78600E+01
  -3.65188E+01 -3.44941E+01 -3.25539E+01 -3.12681E+01 -3.08827E+01 -3.14859E+01 -3.25325E+01 -3.30488E+01 -3.29916E+01 -3.31402E+01
  -3.36269E+01 -3.38777E+01 -3.37284E+01 -3.37039E+01 -3.41618E+01 -3.43046E+01 -3.34598E+01 -3.19991E+01 -3.04544E+01 -2.88893E+01
  -2.71671E+01 -2.56996E+01 -2.47853E+01 -2.39572E+01 -2.25066E+01 -2.03344E+01 -1.83044E+01 -1.71636E+01 -1.71463E+01 -1.81767E+01
  -1.95446E+01 -2.03054E+01 -2.05127E+01 -2.10755E+01 -2.21525E+01 -2.30894E+01 -2.35230E+01 -2.38339E+01 -2.44764E+01 -2.48389E+01
  -2.45897E+01 -2.42174E+01 -2.39010E+01 -2.37080E+01 -2.36125E+01 -2.34654E+01 -2.32096E+01 -2.29564E+01 -2.27210E+01 -2.24955E+01
  -2.23399E+01 -2.22515E+01 -2.22115E+01 -2.21472E+01 -2.20127E+01 -2.18206E+01 -2.15808E+01 -2.13294E+01 -2.11370E+01 -2.10527E+01
  -2.10148E+01 -2.09261E+01 -2.07511E+01 -2.05092E+01 -2.02765E+01 -2.01279E+01 -2.00838E+01 -2.00790E+01 -2.00368E+01 -1.99426E+01
  -1.98203E+01 -1.96787E+01 -1.95241E+01 -1.94086E+01 -1.93761E+01 -1.93509E+01 -1.92503E+01 -1.90430E+01 -1.87641E+01 -1.84794E+01
  -1.81868E+01 -1.78227E+01 -1.73670E+01 -1.69040E+01 -1.65358E+01 -1.63182E+01 -1.61750E+01 -1.59469E+01 -1.55632E+01 -1.51343E+01
  -1.47221E+01 -1.43364E+01 -1.39638E+01 -1.36441E+01 -1.33759E+01 -1.30887E+01 -1.27388E+01 -1.23283E+01 -1.18328E+01 -1.14110E+01
  -1.11318E+01 -1.09318E+01 -1.08420E+01 -1.08453E+01 -1.07062E+01 -1.04193E+01 -1.03179E+01 -1.06838E+01 -1.12742E+01 -1.15026E+01
  -1.12724E+01 -1.07957E+01 -1.01281E+01 -9.30856E+00 -8.50763E+00 -7.88429E+00 -7.33310E+00 -6.87487E+00 -6.80510E+00 -7.09676E+00
  -7.32396E+00 -7.25372E+00 -7.25693E+00 -7.23197E+00 -6.79913E+00 -6.13091E+00 -5.58477E+00 -5.36181E+00 -5.28208E+00 -5.04790E+00
  -4.64959E+00 -4.24147E+00 -3.99173E+00 -3.79468E+00 -3.57368E+00 -3.52807E+00 -3.69758E+00 -3.63185E+00 -3.22821E+00 -2.92006E+00
  -3.11105E+00 -3.55179E+00 -3.78551E+00 -3.86158E+00 -3.81582E+00 -3.35078E+00 -2.49230E+00 -1.65753E+00 -9.83776E-01  2.44357E-01
   2.32171E+00  4.44035E+00  6.44374E+00  9.00007E+00  1.17069E+01  1.31439E+01  1.35790E+01  1.42914E+01  1.60890E+01  1.81846E+01
   1.95412E+01  1.95927E+01  1.78661E+01  1.49443E+01  1.24570E+01  1.11803E+01  9.93285E+00  7.92229E+00  6.20439E+00  5.42325E+00
   4.88059E+00  3.54907E+00  2.04071E+00  1.61930E+00  1.64582E+00  1.72265E+00  1.80909E+00  1.90662E+00  1.97727E+00  2.04510E+00
   2.11884E+00  2.19085E+00  2.26643E+00  2.36109E+00  2.45761E+00  2.53324E+00  2.59662E+00  2.66416E+00  2.73686E+00  2.81039E+00
   2.88573E+00  2.96608E+00  3.05071E+00  3.13002E+00  3.20246E+00  3.27140E+00  3.33731E+00  3.40032E+00  3.46298E+00  3.52567E+00
   3.58965E+00  3.65647E+00  3.72387E+00  3.78681E+00  3.84709E+00  3.90790E+00  3.96802E+00  4.02618E+00  4.08280E+00  4.13922E+00
   4.19574E+00  4.25069E+00  4.30448E+00  4.35795E+00  4.41112E+00  4.46438E+00  4.51824E+00  4.57286E+00  4.62845E+00  4.68509E+00
   4.74286E+00  4.80178E+00  4.86190E+00  4.92332E+00  4.98621E+00  5.05073E+00  5.11694E+00  5.18497E+00  5.25506E+00  5.32762E+00
   5.40323E+00  5.48262E+00  5.56697E+00  5.65835E+00  5.76081E+00  5.88423E+00  6.04261E+00  6.19930E+00  6.31555E+00  6.40698E+00
   6.47686E+00  6.48497E+00  6.45439E+00  6.46975E+00  6.60891E+00  6.80979E+00  6.94815E+00  7.02708E+00  7.10565E+00  7.18200E+00
   7.29051E+00  7.48899E+00  7.77930E+00  8.10528E+00  8.43396E+00  8.74659E+00  8.94375E+00  8.91517E+00  8.72265E+00  8.58005E+00
   8.50295E+00  8.37465E+00  8.19773E+00  8.04880E+00  7.96772E+00  7.89919E+00  7.78359E+00  7.69689E+00  7.66770E+00  7.67047E+00
   7.69140E+00  7.72347E+00  7.76252E+00  7.80602E+00  7.85243E+00  7.90083E+00  7.95065E+00  8.00161E+00  8.05358E+00  8.10650E+00
   8.16037E+00  8.21517E+00  8.27088E+00  8.32753E+00  8.38517E+00  8.44384E+00  8.50356E+00  8.56431E+00  8.62602E+00  8.68866E+00
   8.75214E+00  8.81633E+00  8.88102E+00  8.94590E+00  9.01064E+00  9.07485E+00  9.13809E+00  9.19988E+00  9.25965E+00  9.31681E+00
   9.37082E+00  9.42115E+00  9.46735E+00  9.50900E+00  9.54575E+00  9.57738E+00  9.60379E+00  9.62503E+00  9.64128E+00  9.65284E+00
   9.66010E+00  9.66354E+00  9.66374E+00  9.66128E+00  9.65676E+00  9.65074E+00  9.64373E+00  9.63624E+00  9.62872E+00  9.62154E+00
   9.61499E+00  9.60927E+00  9.60454E+00  9.60090E+00  9.59843E+00  9.59713E+00  9.59696E+00  9.59786E+00  9.59975E+00  9.60259E+00
   9.60630E+00  9.61080E+00  9.61602E+00  9.62185E+00  9.62827E+00  9.63523E+00  9.64270E+00  9.65066E+00  9.65904E+00  9.66785E+00
   9.67707E+00  9.68674E+00  9.69685E+00  9.70740E+00  9.71839E+00  9.72984E+00  9.74179E+00  9.75428E+00  9.76732E+00  9.78092E+00
   9.79510E+00  9.80991E+00  9.82539E+00  9.84157E+00  9.85841E+00  9.87587E+00  9.89392E+00  9.91255E+00  9.93175E+00  9.95149E+00
   9.97173E+00  9.99244E+00  1.00136E+01  1.00352E+01  1.00572E+01  1.00796E+01  1.01024E+01  1.01255E+01  1.01489E+01  1.01727E+01
   1.01967E+01  1.02210E+01  1.02455E+01  1.02702E+01  1.02951E+01  1.03202E+01  1.03454E+01  1.03708E+01  1.03963E+01  1.04219E+01
   1.04475E+01  1.04733E+01  1.04990E+01  1.05248E+01  1.05506E+01  1.05764E+01  1.06022E+01  1.06279E+01  1.06536E+01  1.06792E+01
   1.07048E+01  1.07303E+01  1.07557E+01  1.07810E+01  1.08063E+01  1.08314E+01  1.08565E+01  1.08816E+01
 NY background values follow
    -1.447E+02   -1.433E+02   -1.418E+02   -1.404E+02   -1.389E+02   -1.375E+02   -1.360E+02   -1.346E+02   -1.332E+02   -1.317E+02
    -1.303E+02   -1.289E+02   -1.275E+02   -1.261E+02   -1.247E+02   -1.233E+02   -1.219E+02   -1.205E+02   -1.191E+02   -1.177E+02
    -1.163E+02   -1.150E+02   -1.136E+02   -1.123E+02   -1.109E+02   -1.096E+02   -1.083E+02   -1.070E+02   -1.056E+02   -1.044E+02
    -1.031E+02   -1.018E+02   -1.005E+02   -9.927E+01   -9.803E+01   -9.680E+01   -9.558E+01   -9.438E+01   -9.318E+01   -9.200E+01
    -9.083E+01   -8.968E+01   -8.854E+01   -8.741E+01   -8.630E+01   -8.520E+01   -8.411E+01   -8.304E+01   -8.199E+01   -8.095E+01
    -7.992E+01   -7.891E+01   -7.791E+01   -7.693E+01   -7.596E+01   -7.500E+01   -7.405E+01   -7.312E+01   -7.220E+01   -7.129E+01
    -7.040E+01   -6.952E+01   -6.864E+01   -6.779E+01   -6.694E+01   -6.610E+01   -6.527E+01   -6.446E+01   -6.366E+01   -6.286E+01
    -6.208E+01   -6.131E+01   -6.054E+01   -5.979E+01   -5.905E+01   -5.831E+01   -5.758E+01   -5.687E+01   -5.616E+01   -5.546E+01
    -5.477E+01   -5.409E+01   -5.341E+01   -5.275E+01   -5.209E+01   -5.144E+01   -5.079E+01   -5.015E+01   -4.952E+01   -4.890E+01
    -4.828E+01   -4.767E+01   -4.706E+01   -4.646E+01   -4.587E+01   -4.528E+01   -4.470E+01   -4.413E+01   -4.356E+01   -4.300E+01
    -4.244E+01   -4.189E+01   -4.135E+01   -4.081E+01   -4.028E+01   -3.976E+01   -3.924E+01   -3.873E+01   -3.822E+01   -3.772E+01
    -3.723E+01   -3.674E+01   -3.626E+01   -3.579E+01   -3.532E+01   -3.486E+01   -3.440E+01   -3.395E+01   -3.351E+01   -3.307E+01
    -3.264E+01   -3.222E+01   -3.180E+01   -3.139E+01   -3.098E+01   -3.058E+01   -3.019E+01   -2.981E+01   -2.943E+01   -2.905E+01
    -2.869E+01   -2.833E+01   -2.797E+01   -2.762E+01   -2.728E+01   -2.695E+01   -2.662E+01   -2.629E+01   -2.598E+01   -2.567E+01
    -2.536E+01   -2.506E+01   -2.477E+01   -2.448E+01   -2.420E+01   -2.392E+01   -2.365E+01   -2.338E+01   -2.312E+01   -2.286E+01
    -2.260E+01   -2.235E+01   -2.211E+01   -2.186E+01   -2.162E+01   -2.139E+01   -2.116E+01   -2.093E+01   -2.070E+01   -2.048E+01
    -2.025E+01   -2.004E+01   -1.982E+01   -1.961E+01   -1.939E+01   -1.918E+01   -1.898E+01   -1.877E+01   -1.857E+01   -1.836E+01
    -1.816E+01   -1.796E+01   -1.776E+01   -1.756E+01   -1.736E+01   -1.716E+01   -1.696E+01   -1.676E+01   -1.656E+01   -1.636E+01
    -1.616E+01   -1.596E+01   -1.576E+01   -1.555E+01   -1.535E+01   -1.515E+01   -1.494E+01   -1.474E+01   -1.453E+01   -1.433E+01
    -1.412E+01   -1.391E+01   -1.371E+01   -1.350E+01   -1.329E+01   -1.308E+01   -1.287E+01   -1.267E+01   -1.246E+01   -1.225E+01
    -1.204E+01   -1.183E+01   -1.162E+01   -1.141E+01   -1.120E+01   -1.099E+01   -1.079E+01   -1.058E+01   -1.037E+01   -1.016E+01
    -9.951E+00   -9.743E+00   -9.535E+00   -9.328E+00   -9.121E+00   -8.914E+00   -8.708E+00   -8.502E+00   -8.297E+00   -8.092E+00
    -7.888E+00   -7.684E+00   -7.481E+00   -7.279E+00   -7.077E+00   -6.876E+00   -6.676E+00   -6.477E+00   -6.278E+00   -6.080E+00
    -5.884E+00   -5.688E+00   -5.493E+00   -5.299E+00   -5.107E+00   -4.915E+00   -4.725E+00   -4.536E+00   -4.349E+00   -4.162E+00
    -3.977E+00   -3.794E+00   -3.611E+00   -3.431E+00   -3.252E+00   -3.074E+00   -2.899E+00   -2.724E+00   -2.552E+00   -2.381E+00
    -2.213E+00   -2.046E+00   -1.881E+00   -1.718E+00   -1.557E+00   -1.398E+00   -1.241E+00   -1.086E+00   -9.336E-01   -7.832E-01
    -6.351E-01   -4.894E-01   -3.460E-01   -2.050E-01   -6.646E-02    6.959E-02    2.031E-01    3.340E-01    4.623E-01    5.879E-01
     7.109E-01    8.310E-01    9.484E-01    1.063E+00    1.175E+00    1.284E+00    1.391E+00    1.495E+00    1.597E+00    1.697E+00
     1.794E+00    1.889E+00    1.981E+00    2.072E+00    2.161E+00    2.248E+00    2.332E+00    2.415E+00    2.497E+00    2.576E+00
     2.654E+00    2.731E+00    2.805E+00    2.879E+00    2.951E+00    3.022E+00    3.091E+00    3.159E+00    3.227E+00    3.293E+00
     3.358E+00    3.422E+00    3.486E+00    3.549E+00    3.611E+00    3.672E+00    3.733E+00    3.793E+00    3.853E+00    3.912E+00
     3.971E+00    4.030E+00    4.089E+00    4.147E+00    4.205E+00    4.264E+00    4.322E+00    4.381E+00    4.440E+00    4.499E+00
     4.558E+00    4.617E+00    4.677E+00    4.736E+00    4.796E+00    4.855E+00    4.915E+00    4.975E+00    5.035E+00    5.095E+00
     5.155E+00    5.216E+00    5.276E+00    5.336E+00    5.397E+00    5.457E+00    5.517E+00    5.578E+00    5.638E+00    5.699E+00
     5.759E+00    5.820E+00    5.880E+00    5.941E+00    6.001E+00    6.062E+00    6.122E+00    6.183E+00    6.243E+00    6.303E+00
     6.363E+00    6.423E+00    6.484E+00    6.544E+00    6.603E+00    6.663E+00    6.723E+00    6.783E+00    6.842E+00    6.901E+00
     6.961E+00    7.020E+00    7.079E+00    7.138E+00    7.196E+00    7.255E+00    7.313E+00    7.371E+00    7.429E+00    7.486E+00
     7.543E+00    7.600E+00    7.656E+00    7.712E+00    7.768E+00    7.823E+00    7.878E+00    7.932E+00    7.986E+00    8.039E+00
     8.092E+00    8.144E+00    8.195E+00    8.246E+00    8.297E+00    8.346E+00    8.395E+00    8.443E+00    8.491E+00    8.537E+00
     8.583E+00    8.628E+00    8.673E+00    8.716E+00    8.759E+00    8.800E+00    8.841E+00    8.881E+00    8.920E+00    8.958E+00
     8.995E+00    9.031E+00    9.065E+00    9.099E+00    9.132E+00    9.163E+00    9.194E+00    9.223E+00    9.251E+00    9.278E+00
     9.304E+00    9.328E+00    9.352E+00    9.375E+00    9.397E+00    9.418E+00    9.438E+00    9.457E+00    9.476E+00    9.493E+00
     9.511E+00    9.527E+00    9.543E+00    9.558E+00    9.573E+00    9.587E+00    9.601E+00    9.615E+00    9.628E+00    9.640E+00
     9.653E+00    9.665E+00    9.677E+00    9.689E+00    9.701E+00    9.712E+00    9.724E+00    9.735E+00    9.747E+00    9.758E+00
     9.770E+00    9.782E+00    9.794E+00    9.806E+00    9.819E+00    9.832E+00    9.845E+00    9.859E+00    9.873E+00    9.887E+00
     9.902E+00    9.918E+00    9.934E+00    9.951E+00    9.968E+00    9.986E+00    1.000E+01    1.002E+01    1.004E+01    1.006E+01
     1.008E+01    1.010E+01    1.013E+01    1.015E+01    1.017E+01    1.019E+01    1.021E+01    1.024E+01    1.026E+01    1.028E+01
     1.031E+01    1.033E+01    1.036E+01    1.038E+01    1.040E+01    1.043E+01    1.045E+01    1.048E+01    1.050E+01    1.053E+01
     1.055E+01    1.058E+01    1.060E+01    1.063E+01    1.065E+01    1.068E+01    1.070E+01    1.073E+01    1.075E+01    1.077E+01
     1.080E+01    1.082E+01    1.084E+01    1.087E+01    1.089E+01    1.091E+01    1.094E+01    1.096E+01
 Cr       Conc. = 5.60E+02
