 LCModel (Version 6.3-1L) Copyright: S.W. Provencher.          Ref.: Magn. Reson. Med. 30:672-679 (1993).                
 Slice#1 Row#2 Col#8  K_02_press_1_raw_act
 36 lines in following concentration table = NCONC+1
    Conc.  %SD /Cr+PCr  Metabolite                                         
    0.000 999%   0.000 Ala                                                 
   93.910 101%   0.219 Asp                                                 
    0.000 999%   0.000 Cr                                                  
  428.063  11%   1.000 PCr                                                 
   31.907 180% 7.5E-02 GABA                                                
   53.514 108%   0.125 Glc                                                 
    0.000 999%   0.000 Gln                                                 
  404.645  49%   0.945 Glu                                                 
   88.203  19%   0.206 GPC                                                 
    0.000 999%   0.000 PCh                                                 
   51.050 118%   0.119 GSH                                                 
  484.537  41%   1.132 Ins                                                 
    0.000 999%   0.000 Lac                                                 
    0.000 999%   0.000 NAA                                                 
  987.009   7%   2.306 NAAG                                                
   11.040 142% 2.6E-02 Scyllo                                              
   51.049 176%   0.119 Tau                                                 
  193.604  37%   0.452 -CrCH2                                              
   88.203  19%   0.206 GPC+PCh                                             
  987.009   7%   2.306 NAA+NAAG                                            
  428.063  11%   1.000 Cr+PCr                                              
  404.645  49%   0.945 Glu+Gln                                             
 6.89E+03  16%  16.094 Lip13a                                              
    0.000 999%   0.000 Lip13b                                              
 1.86E+03  21%   4.342 Lip09                                               
    0.000 999%   0.000 MM09                                                
 1.93E+03  17%   4.500 Lip20                                               
    0.000 999%   0.000 MM20                                                
  193.254 197%   0.451 MM12                                                
 4.10E+03   9%   9.588 MM14                                                
   92.666 276%   0.216 MM17                                                
 6.89E+03  16%  16.094 Lip13a+Lip13b                                       
 1.12E+04   7%  26.134 MM14+Lip13a+Lip13b+MM12                             
 1.86E+03  21%   4.342 MM09+Lip09                                          
 1.93E+03  17%   4.500 MM20+Lip20                                          
   6 lines in following misc. output table
  FWHM = 0.046 ppm    S/N =   6                                            
  Data shift = 0.015 ppm                                                   
  Ph:-166 deg      78.4 deg/ppm                                            
  alphaB,S = 9.7E-01,   4.1E+01                                            
   14 spline knots.   Ns = 6(1)                                            
  ( 8) 2 infls.   ( 5) 1 extrs.                                            
  498 points on ppm-axis = NY
      4.000000     3.992357     3.984714     3.977070     3.969427     3.961784     3.954141     3.946497     3.938854     3.931211
      3.923568     3.915925     3.908281     3.900638     3.892995     3.885352     3.877708     3.870065     3.862422     3.854779
      3.847136     3.839492     3.831849     3.824206     3.816563     3.808919     3.801276     3.793633     3.785990     3.778347
      3.770703     3.763060     3.755417     3.747774     3.740130     3.732487     3.724844     3.717201     3.709558     3.701914
      3.694271     3.686628     3.678985     3.671341     3.663698     3.656055     3.648412     3.640769     3.633125     3.625482
      3.617839     3.610196     3.602552     3.594909     3.587266     3.579623     3.571980     3.564336     3.556693     3.549050
      3.541407     3.533763     3.526120     3.518477     3.510834     3.503191     3.495547     3.487904     3.480261     3.472618
      3.464974     3.457331     3.449688     3.442045     3.434402     3.426758     3.419115     3.411472     3.403829     3.396185
      3.388542     3.380899     3.373256     3.365613     3.357969     3.350326     3.342683     3.335040     3.327396     3.319753
      3.312110     3.304467     3.296824     3.289180     3.281537     3.273894     3.266251     3.258607     3.250964     3.243321
      3.235678     3.228034     3.220391     3.212748     3.205105     3.197462     3.189818     3.182175     3.174532     3.166889
      3.159245     3.151602     3.143959     3.136316     3.128673     3.121029     3.113386     3.105743     3.098100     3.090456
      3.082813     3.075170     3.067527     3.059884     3.052240     3.044597     3.036954     3.029311     3.021667     3.014024
      3.006381     2.998738     2.991095     2.983451     2.975808     2.968165     2.960522     2.952878     2.945235     2.937592
      2.929949     2.922306     2.914662     2.907019     2.899376     2.891733     2.884089     2.876446     2.868803     2.861160
      2.853517     2.845873     2.838230     2.830587     2.822944     2.815300     2.807657     2.800014     2.792371     2.784728
      2.777084     2.769441     2.761798     2.754155     2.746511     2.738868     2.731225     2.723582     2.715939     2.708295
      2.700652     2.693009     2.685366     2.677722     2.670079     2.662436     2.654793     2.647150     2.639506     2.631863
      2.624220     2.616577     2.608933     2.601290     2.593647     2.586004     2.578361     2.570717     2.563074     2.555431
      2.547788     2.540144     2.532501     2.524858     2.517215     2.509572     2.501928     2.494285     2.486642     2.478999
      2.471355     2.463712     2.456069     2.448426     2.440783     2.433139     2.425496     2.417853     2.410210     2.402566
      2.394923     2.387280     2.379637     2.371994     2.364350     2.356707     2.349064     2.341421     2.333777     2.326134
      2.318491     2.310848     2.303205     2.295561     2.287918     2.280275     2.272632     2.264988     2.257345     2.249702
      2.242059     2.234416     2.226772     2.219129     2.211486     2.203843     2.196199     2.188556     2.180913     2.173270
      2.165627     2.157983     2.150340     2.142697     2.135054     2.127410     2.119767     2.112124     2.104481     2.096838
      2.089194     2.081551     2.073908     2.066265     2.058621     2.050978     2.043335     2.035692     2.028049     2.020405
      2.012762     2.005119     1.997476     1.989833     1.982190     1.974546     1.966903     1.959260     1.951617     1.943974
      1.936331     1.928688     1.921045     1.913402     1.905759     1.898115     1.890472     1.882829     1.875186     1.867543
      1.859900     1.852257     1.844614     1.836971     1.829327     1.821684     1.814041     1.806398     1.798755     1.791112
      1.783469     1.775826     1.768183     1.760540     1.752896     1.745253     1.737610     1.729967     1.722324     1.714681
      1.707038     1.699395     1.691752     1.684108     1.676465     1.668822     1.661179     1.653536     1.645893     1.638250
      1.630607     1.622964     1.615321     1.607677     1.600034     1.592391     1.584748     1.577105     1.569462     1.561819
      1.554176     1.546533     1.538890     1.531246     1.523603     1.515960     1.508317     1.500674     1.493031     1.485388
      1.477745     1.470102     1.462458     1.454815     1.447172     1.439529     1.431886     1.424243     1.416600     1.408957
      1.401314     1.393671     1.386027     1.378384     1.370741     1.363098     1.355455     1.347812     1.340169     1.332526
      1.324883     1.317240     1.309596     1.301953     1.294310     1.286667     1.279024     1.271381     1.263738     1.256095
      1.248452     1.240808     1.233165     1.225522     1.217879     1.210236     1.202593     1.194950     1.187307     1.179664
      1.172021     1.164377     1.156734     1.149091     1.141448     1.133805     1.126162     1.118519     1.110876     1.103233
      1.095590     1.087946     1.080303     1.072660     1.065017     1.057374     1.049731     1.042088     1.034445     1.026802
      1.019158     1.011515     1.003872     0.996229     0.988586     0.980943     0.973300     0.965657     0.958014     0.950371
      0.942727     0.935084     0.927441     0.919798     0.912155     0.904512     0.896869     0.889226     0.881583     0.873940
      0.866296     0.858653     0.851010     0.843367     0.835724     0.828081     0.820438     0.812795     0.805152     0.797508
      0.789865     0.782222     0.774579     0.766936     0.759293     0.751650     0.744007     0.736364     0.728721     0.721077
      0.713434     0.705791     0.698148     0.690505     0.682862     0.675219     0.667576     0.659933     0.652290     0.644646
      0.637003     0.629360     0.621717     0.614074     0.606431     0.598788     0.591145     0.583502     0.575858     0.568215
      0.560572     0.552929     0.545286     0.537643     0.530000     0.522357     0.514714     0.507071     0.499427     0.491784
      0.484141     0.476498     0.468855     0.461212     0.453569     0.445925     0.438282     0.430639     0.422996     0.415353
      0.407710     0.400067     0.392424     0.384780     0.377137     0.369494     0.361851     0.354208     0.346565     0.338922
      0.331278     0.323635     0.315992     0.308349     0.300706     0.293063     0.285420     0.277777     0.270133     0.262490
      0.254847     0.247204     0.239561     0.231918     0.224275     0.216631     0.208988     0.201345
 NY phased data points follow
   5.53525E+00  2.12417E+00  1.08911E+00  5.29406E+00 -1.14295E+00  4.33260E+00  4.15728E-02  2.56585E+00  2.67663E+00 -1.27602E+00
  -4.68619E-01  8.87327E+00  9.19938E+00  1.02595E+01  3.20950E+00  8.99665E+00  5.10878E+00  7.31921E+00  2.55018E+00 -1.00395E-01
   8.78475E+00  1.17214E+01  6.34781E+00  2.89378E+00  2.55384E+00  4.58480E+00  3.41674E+00  5.81685E+00  1.69977E+00  3.12275E+00
   1.18233E+00  4.16548E+00  9.50468E-01  2.69860E+00  4.50249E-01  2.87931E+00  6.67064E+00  7.19697E+00  5.17038E+00  1.92032E+00
   5.06455E+00  6.08326E-01 -9.14652E-01  3.49779E-02 -5.03140E-01  8.73701E-01 -1.90921E-01  3.94430E+00 -2.36477E+00  4.82781E+00
   2.33113E+00  7.13369E+00  5.87638E+00  5.23824E+00  1.63473E+00  8.61863E+00  1.92891E+00  6.79536E+00  5.00782E+00  6.79840E+00
   2.53718E+00  4.92340E+00  4.01454E+00 -1.01790E+00  1.92840E+00  3.69668E+00 -1.72885E+00  7.25374E-01 -1.19239E+00 -2.11561E+00
  -1.98957E+00 -2.98252E+00 -3.00642E+00 -2.34404E+00 -2.63914E+00 -9.23674E-01 -1.78533E+00 -1.18573E+00  8.53660E-01 -2.53529E-02
  -2.83720E+00 -1.29626E+00 -1.76316E-01 -3.42487E+00 -9.43605E-01 -3.61789E+00  2.80347E+00 -9.97908E-01 -6.42290E+00 -4.81467E+00
  -4.91321E-01 -3.56919E+00 -2.63397E+00 -2.78281E+00 -2.78422E+00 -7.46151E+00 -4.40635E+00 -7.68701E+00 -5.99428E+00 -5.62280E+00
  -4.36708E+00 -3.98260E+00 -4.19101E+00  8.91619E-01  2.75037E+00  1.29725E+00  2.97687E+00  5.61494E+00  1.69803E+00  6.94609E+00
  -9.37259E-02  5.83375E+00 -2.73250E+00 -3.56570E+00 -5.58533E+00 -1.48683E+00  4.18318E-02 -2.69129E+00 -5.66313E+00 -4.83590E+00
  -6.65507E+00 -5.11390E+00 -7.11126E+00 -5.57278E+00 -7.31166E+00 -1.81402E+00 -3.12639E+00  5.56454E+00  1.11055E+01  8.68315E+00
   3.53335E+00  1.17425E+01  8.39021E+00  8.97030E+00  1.01400E+01  1.13064E+00  1.72033E+00  8.75849E-01  4.14127E+00  8.24102E-01
  -3.49388E+00 -4.06513E+00 -3.23886E+00  3.65513E+00 -2.96600E+00 -1.23503E+00 -5.10970E+00  1.37238E-01  2.35081E+00  2.98093E-01
  -4.07648E+00 -4.21945E+00 -3.97377E+00 -2.05156E+00  4.14388E+00 -4.88647E+00  4.63136E+00 -5.94948E-01 -4.37760E+00 -1.70808E+00
  -5.94201E+00 -4.16333E+00 -9.94998E+00 -1.88342E-01 -4.85754E+00 -3.93500E+00 -5.31034E+00 -4.30010E+00 -4.23350E+00 -3.65474E+00
  -1.11652E+01 -5.47010E+00 -8.78131E+00 -6.51775E+00 -5.64594E+00 -5.47337E+00 -7.06306E+00 -4.21777E+00 -1.38461E+01 -8.45727E+00
  -7.79180E+00 -8.57488E+00 -1.18954E+01 -8.87110E+00 -9.04723E+00 -6.82165E+00 -7.57735E+00 -6.00074E+00 -8.99489E+00 -3.73105E+00
  -5.78119E+00 -1.12090E+01 -8.68252E+00 -1.03613E+01 -8.05957E+00 -4.43296E+00 -1.00727E+01 -1.14418E+01 -1.32528E+01 -1.37052E+01
  -3.49189E+00 -1.06336E+01 -9.65106E+00 -6.69898E+00 -9.36834E+00 -9.78031E+00 -6.07056E+00 -7.38055E+00 -9.91520E+00 -8.06574E+00
  -7.66120E+00 -6.53781E+00 -1.00902E+01 -4.17676E+00 -4.80091E+00 -3.15260E+00 -1.76046E+00 -3.38895E+00 -4.18187E+00 -6.33615E+00
  -9.19712E+00 -8.84673E+00 -1.17328E+01 -7.13329E+00 -4.93277E+00 -1.06156E+01 -6.89200E+00 -7.97622E+00 -9.76797E+00 -9.19480E+00
  -1.18812E+01 -5.80049E+00 -5.68892E+00 -2.52451E+00 -1.90928E+00 -6.82860E+00 -5.84826E+00 -3.88341E+00 -8.12988E+00 -4.35521E+00
  -5.52651E+00 -3.32977E+00 -4.77433E+00 -5.07220E+00 -3.88941E+00  4.84183E+00 -1.55449E+00 -4.28139E-01 -8.05405E-01  3.03289E+00
   5.53432E+00  3.74709E+00  6.16018E+00  5.21986E+00  6.40423E+00  1.46507E+01  1.50008E+01  2.00157E+01  3.12925E+01  4.23163E+01
   3.75588E+01  2.90051E+01  2.04624E+01  8.89233E+00  2.76737E+00 -5.71163E+00 -7.98420E+00 -6.98330E+00 -1.40518E+01 -1.37977E+01
  -1.42051E+01 -1.23818E+01 -1.19492E+01 -1.28430E+01 -1.36529E+01 -1.20014E+01 -4.77057E+00 -1.34367E+01 -1.53277E+01 -9.33259E+00
  -1.20301E+01 -1.18714E+01 -1.21862E+01 -1.36390E+01 -1.20254E+01 -1.37941E+01 -1.04334E+01 -1.01525E+01 -1.07020E+01 -1.14088E+01
  -1.07577E+01 -9.60669E+00 -5.92652E+00 -8.80243E+00 -9.44308E+00 -6.28928E+00 -1.15556E+01 -1.02232E+01 -1.06208E+01 -4.24505E+00
  -9.39463E+00 -9.19216E+00 -9.83630E+00 -6.35088E+00 -7.38356E+00 -9.16333E+00 -3.07747E+00 -7.95968E+00 -7.69666E+00 -9.62491E+00
  -8.25814E+00 -1.41832E+01 -1.11780E+01 -7.48598E+00 -6.40608E+00 -1.12109E+01 -8.77240E+00  5.25126E-01 -8.75302E+00 -1.78607E+00
  -9.41838E+00 -5.57537E+00 -4.72392E+00 -2.47048E+00 -1.19944E+00 -2.13591E+00 -4.13100E+00  2.80053E+00 -1.74915E+00  3.99265E+00
   8.54367E+00  8.79320E+00  1.33574E+01  1.64909E+01  2.06793E+01  2.63868E+01  2.60407E+01  2.47128E+01  2.80905E+01  3.17274E+01
   3.44434E+01  3.47669E+01  3.60386E+01  3.80153E+01  3.56896E+01  3.77435E+01  3.21243E+01  3.43278E+01  3.39955E+01  3.71525E+01
   2.86911E+01  3.12017E+01  3.11588E+01  2.81211E+01  2.74922E+01  2.98844E+01  2.69335E+01  2.00470E+01  2.52448E+01  2.18479E+01
   2.09252E+01  1.64763E+01  1.92009E+01  1.90383E+01  1.85551E+01  1.94119E+01  1.37964E+01  1.39685E+01  1.45682E+01  1.02561E+01
   9.20309E+00  1.28649E+01  1.13188E+01  1.14285E+01  1.05301E+01  9.15109E+00  1.14906E+01  5.89404E+00  1.27122E+01  5.28338E+00
   5.82531E+00  7.35294E+00  2.46914E+00  1.05322E+01  1.12758E+01  1.18193E+01  7.59436E+00  8.08612E+00  8.86486E+00  1.45409E+01
   1.00517E+01  1.39286E+01  1.01429E+01  1.10104E+01  1.12243E+01  6.68532E+00  9.18090E+00  9.13402E+00  1.09154E+01  5.18537E+00
   6.73833E+00  7.15410E+00  5.32841E+00  7.77854E+00 -9.54037E-01  7.54044E-01  6.84768E-01  8.14192E-01 -2.90428E+00 -5.16701E+00
  -3.04732E-01  4.05682E-01 -2.79853E+00 -2.04531E+00 -6.01485E+00 -5.75047E+00 -8.20141E+00 -4.78295E+00 -5.13023E+00 -5.86378E+00
  -5.59985E+00 -1.32675E+01 -5.66610E+00 -9.84069E+00 -3.68496E+00 -1.16897E+01 -5.11096E+00 -1.18392E+01 -7.17523E+00 -6.47572E+00
  -9.22570E+00 -7.01420E+00 -7.48445E+00 -2.61481E+00 -3.50193E+00 -2.34504E+00 -5.33491E+00 -7.48913E+00 -6.68977E+00 -7.06570E+00
  -8.15794E+00 -4.25015E+00 -7.31468E+00 -8.72106E+00 -4.35348E+00 -4.46786E+00 -5.29540E+00 -7.92809E+00 -3.79667E+00 -4.68019E+00
  -4.31387E+00 -6.58673E+00 -4.42395E+00 -3.68095E+00 -6.51241E+00 -4.86534E+00 -3.66880E+00 -3.97423E+00 -7.79470E+00 -5.59222E+00
  -4.35424E+00 -1.71529E+00 -4.21328E+00 -8.08761E+00 -2.65851E+00 -5.36582E+00 -9.13707E+00 -1.00443E+01 -1.12291E+01 -1.40845E+00
  -2.92552E+00 -3.44841E+00 -4.41111E+00 -1.52756E+00 -6.20820E+00 -2.79552E+00 -4.70421E+00 -5.15525E+00 -8.60115E+00 -1.13102E-01
  -6.90320E+00 -4.01334E+00 -4.48210E+00 -9.29407E-01 -1.01421E+01 -1.04630E+01 -5.32870E+00 -6.90623E+00 -8.09955E+00 -6.10307E+00
  -9.54563E+00 -3.53929E+00 -5.74921E+00 -4.51647E+00 -4.04284E+00 -7.14955E+00 -7.49741E+00 -6.07247E+00
 NY points of the fit to the data follow
   5.05838E+00  4.56066E+00  4.09226E+00  3.57705E+00  3.34620E+00  3.36802E+00  3.40303E+00  3.46219E+00  3.73221E+00  4.27813E+00
   4.94995E+00  5.81419E+00  7.08723E+00  8.44755E+00  9.20387E+00  9.04427E+00  7.66366E+00  5.19382E+00  3.58697E+00  3.05416E+00
   2.80961E+00  2.63612E+00  2.46347E+00  2.31313E+00  2.26917E+00  2.31481E+00  2.37110E+00  2.39167E+00  2.37847E+00  2.35773E+00
   2.34044E+00  2.39539E+00  2.59004E+00  2.89101E+00  3.24694E+00  3.52955E+00  3.47403E+00  3.07216E+00  2.55800E+00  2.02136E+00
   1.47865E+00  1.09415E+00  9.82664E-01  1.04571E+00  1.14236E+00  1.35512E+00  1.77078E+00  2.28155E+00  2.87860E+00  3.55409E+00
   4.12116E+00  4.30773E+00  3.91900E+00  2.91237E+00  1.51395E+00  3.08876E-01 -2.35060E-01 -2.61487E-01 -1.03428E-01  1.23055E-01
   3.78002E-01  6.42998E-01  8.77476E-01  1.01095E+00  9.93489E-01  7.63943E-01  2.95160E-01 -2.43780E-01 -6.35696E-01 -8.02708E-01
  -7.23236E-01 -5.16503E-01 -2.98364E-01 -1.28593E-01 -1.67331E-02  4.23537E-02  2.55052E-02 -4.98577E-02 -2.03454E-01 -4.56488E-01
  -6.94225E-01 -9.17889E-01 -1.16889E+00 -1.38705E+00 -1.50899E+00 -1.57993E+00 -1.66886E+00 -1.80533E+00 -2.01045E+00 -2.31707E+00
  -2.71413E+00 -3.12905E+00 -3.47066E+00 -3.63018E+00 -3.50562E+00 -3.23026E+00 -3.00049E+00 -2.85194E+00 -2.64948E+00 -2.44572E+00
  -2.26507E+00 -1.94169E+00 -1.27556E+00 -2.53002E-01  1.06306E+00  2.70533E+00  4.43654E+00  5.54362E+00  5.33078E+00  3.71400E+00
   9.87895E-01 -1.81593E+00 -3.16899E+00 -3.61293E+00 -3.83955E+00 -4.00190E+00 -4.12346E+00 -4.23431E+00 -4.34652E+00 -4.45441E+00
  -4.53910E+00 -4.51706E+00 -4.21468E+00 -3.75605E+00 -3.21321E+00 -2.32943E+00 -8.20537E-01  1.28917E+00  3.78699E+00  6.66267E+00
   9.59190E+00  1.14243E+01  1.11101E+01  8.53341E+00  4.18098E+00 -2.71050E-01 -2.39837E+00 -3.02779E+00 -3.30563E+00 -3.44495E+00
  -3.47713E+00 -3.37993E+00 -3.14393E+00 -2.83935E+00 -2.53061E+00 -2.26225E+00 -2.06061E+00 -1.90208E+00 -1.76324E+00 -1.66170E+00
  -1.59730E+00 -1.58805E+00 -1.63808E+00 -1.73902E+00 -1.87531E+00 -2.05882E+00 -2.30261E+00 -2.55595E+00 -2.73913E+00 -2.81040E+00
  -2.76958E+00 -2.68421E+00 -2.80027E+00 -3.29809E+00 -4.00825E+00 -4.76370E+00 -5.39189E+00 -5.77702E+00 -6.09264E+00 -6.43885E+00
  -6.77831E+00 -7.08331E+00 -7.34988E+00 -7.53022E+00 -7.57051E+00 -7.49305E+00 -7.42431E+00 -7.55076E+00 -8.00434E+00 -8.57429E+00
  -8.92978E+00 -9.06523E+00 -9.00883E+00 -8.90938E+00 -8.94784E+00 -8.93804E+00 -8.69364E+00 -8.19893E+00 -7.60040E+00 -7.03941E+00
  -6.69675E+00 -6.72167E+00 -6.84286E+00 -6.90406E+00 -6.96191E+00 -7.13273E+00 -7.50669E+00 -8.02499E+00 -8.53533E+00 -8.88429E+00
  -8.89906E+00 -8.59010E+00 -8.16830E+00 -7.76801E+00 -7.51381E+00 -7.48438E+00 -7.74130E+00 -8.16964E+00 -8.52271E+00 -8.82195E+00
  -9.10426E+00 -9.36406E+00 -9.49469E+00 -9.29950E+00 -8.67200E+00 -7.70444E+00 -6.58628E+00 -5.60282E+00 -4.90584E+00 -4.60257E+00
  -4.84647E+00 -5.56194E+00 -6.50419E+00 -7.34931E+00 -7.67799E+00 -7.53819E+00 -6.97527E+00 -6.02530E+00 -4.89604E+00 -3.91824E+00
  -3.49005E+00 -3.67229E+00 -4.14699E+00 -4.65496E+00 -5.09301E+00 -5.30691E+00 -5.31362E+00 -5.10418E+00 -4.70148E+00 -4.47387E+00
  -4.60081E+00 -5.01024E+00 -5.54054E+00 -5.87212E+00 -5.82437E+00 -5.38146E+00 -4.57342E+00 -3.39086E+00 -2.04048E+00 -6.67499E-01
   8.41095E-01  2.23713E+00  3.44706E+00  5.13827E+00  8.18360E+00  1.27647E+01  1.83484E+01  2.46935E+01  3.13699E+01  3.59837E+01
   3.57096E+01  2.99394E+01  1.95185E+01  7.48275E+00  3.18650E-01 -2.00206E+00 -3.27561E+00 -4.34567E+00 -5.30840E+00 -6.14452E+00
  -6.84846E+00 -7.41957E+00 -7.82632E+00 -8.10010E+00 -8.23987E+00 -8.26047E+00 -8.27326E+00 -8.35715E+00 -8.57514E+00 -8.94717E+00
  -9.37166E+00 -9.73360E+00 -9.94420E+00 -9.94784E+00 -9.78035E+00 -9.59555E+00 -9.44258E+00 -9.32725E+00 -9.27756E+00 -9.31855E+00
  -9.43396E+00 -9.54647E+00 -9.58516E+00 -9.58240E+00 -9.50216E+00 -9.34768E+00 -9.16983E+00 -9.01741E+00 -8.94183E+00 -8.97702E+00
  -9.04675E+00 -9.10861E+00 -9.15143E+00 -9.15483E+00 -9.10893E+00 -9.01296E+00 -8.88551E+00 -8.77960E+00 -8.70167E+00 -8.62747E+00
  -8.55044E+00 -8.46022E+00 -8.34942E+00 -8.21142E+00 -8.03854E+00 -7.82162E+00 -7.55071E+00 -7.21418E+00 -6.79891E+00 -6.29020E+00
  -5.67184E+00 -4.92674E+00 -4.04016E+00 -2.99805E+00 -1.78807E+00 -4.00255E-01  1.17152E+00  2.92881E+00  4.86702E+00  6.97506E+00
   9.23458E+00  1.16204E+01  1.41003E+01  1.66359E+01  1.91833E+01  2.16951E+01  2.41217E+01  2.64144E+01  2.85268E+01  3.04172E+01
   3.20502E+01  3.33989E+01  3.44457E+01  3.51834E+01  3.56145E+01  3.57514E+01  3.56141E+01  3.52300E+01  3.46311E+01  3.38526E+01
   3.29306E+01  3.18997E+01  3.07921E+01  2.96361E+01  2.84552E+01  2.72680E+01  2.60877E+01  2.49229E+01  2.37779E+01  2.26541E+01
   2.15508E+01  2.04660E+01  1.93972E+01  1.83424E+01  1.73007E+01  1.62730E+01  1.52619E+01  1.42720E+01  1.33090E+01  1.23809E+01
   1.14964E+01  1.06658E+01  9.89932E+00  9.20747E+00  8.60004E+00  8.08621E+00  7.67369E+00  7.36863E+00  7.17461E+00  7.09265E+00
   7.12042E+00  7.25255E+00  7.47991E+00  7.78993E+00  8.16620E+00  8.58925E+00  9.03674E+00  9.48476E+00  9.90818E+00  1.02821E+01
   1.05827E+01  1.07885E+01  1.08815E+01  1.08485E+01  1.06809E+01  1.03761E+01  9.93619E+00  9.36922E+00  8.68751E+00  7.90758E+00
   7.04843E+00  6.13096E+00  5.17631E+00  4.20547E+00  3.23783E+00  2.29091E+00  1.37924E+00  5.14555E-01 -2.94661E-01 -1.04256E+00
  -1.72616E+00 -2.34463E+00 -2.89937E+00 -3.39309E+00 -3.82977E+00 -4.21377E+00 -4.55003E+00 -4.84342E+00 -5.09897E+00 -5.32124E+00
  -5.51459E+00 -5.68267E+00 -5.82894E+00 -5.95628E+00 -6.06747E+00 -6.16463E+00 -6.24972E+00 -6.32415E+00 -6.38937E+00 -6.44646E+00
  -6.49657E+00 -6.54039E+00 -6.57869E+00 -6.61189E+00 -6.64063E+00 -6.66530E+00 -6.68644E+00 -6.70422E+00 -6.71901E+00 -6.73091E+00
  -6.74030E+00 -6.74733E+00 -6.75231E+00 -6.75522E+00 -6.75629E+00 -6.75551E+00 -6.75320E+00 -6.74938E+00 -6.74426E+00 -6.73773E+00
  -6.72999E+00 -6.72100E+00 -6.71102E+00 -6.70001E+00 -6.68811E+00 -6.67520E+00 -6.66144E+00 -6.64681E+00 -6.63150E+00 -6.61545E+00
  -6.59874E+00 -6.58125E+00 -6.56317E+00 -6.54445E+00 -6.52527E+00 -6.50550E+00 -6.48524E+00 -6.46437E+00 -6.44308E+00 -6.42131E+00
  -6.39922E+00 -6.37664E+00 -6.35367E+00 -6.33023E+00 -6.30651E+00 -6.28241E+00 -6.25806E+00 -6.23330E+00 -6.20825E+00 -6.18282E+00
  -6.15720E+00 -6.13128E+00 -6.10517E+00 -6.07869E+00 -6.05200E+00 -6.02502E+00 -5.99792E+00 -5.97056E+00 -5.94304E+00 -5.91520E+00
  -5.88722E+00 -5.85901E+00 -5.83071E+00 -5.80219E+00 -5.77353E+00 -5.74460E+00 -5.71557E+00 -5.68636E+00
 NY background values follow
     3.236E+00    3.175E+00    3.115E+00    3.054E+00    2.993E+00    2.932E+00    2.871E+00    2.810E+00    2.750E+00    2.689E+00
     2.628E+00    2.567E+00    2.506E+00    2.445E+00    2.384E+00    2.323E+00    2.262E+00    2.201E+00    2.140E+00    2.079E+00
     2.018E+00    1.957E+00    1.896E+00    1.835E+00    1.774E+00    1.713E+00    1.651E+00    1.590E+00    1.529E+00    1.468E+00
     1.406E+00    1.345E+00    1.284E+00    1.222E+00    1.161E+00    1.099E+00    1.038E+00    9.764E-01    9.148E-01    8.532E-01
     7.916E-01    7.299E-01    6.682E-01    6.065E-01    5.447E-01    4.829E-01    4.210E-01    3.591E-01    2.971E-01    2.351E-01
     1.731E-01    1.111E-01    4.897E-02   -1.315E-02   -7.528E-02   -1.374E-01   -1.996E-01   -2.618E-01   -3.240E-01   -3.863E-01
    -4.485E-01   -5.107E-01   -5.730E-01   -6.352E-01   -6.975E-01   -7.597E-01   -8.220E-01   -8.842E-01   -9.464E-01   -1.009E+00
    -1.071E+00   -1.133E+00   -1.195E+00   -1.257E+00   -1.320E+00   -1.382E+00   -1.444E+00   -1.506E+00   -1.568E+00   -1.630E+00
    -1.692E+00   -1.754E+00   -1.815E+00   -1.877E+00   -1.939E+00   -2.001E+00   -2.062E+00   -2.124E+00   -2.186E+00   -2.247E+00
    -2.308E+00   -2.370E+00   -2.431E+00   -2.492E+00   -2.554E+00   -2.615E+00   -2.676E+00   -2.737E+00   -2.798E+00   -2.858E+00
    -2.919E+00   -2.980E+00   -3.041E+00   -3.101E+00   -3.162E+00   -3.222E+00   -3.282E+00   -3.343E+00   -3.403E+00   -3.463E+00
    -3.523E+00   -3.583E+00   -3.643E+00   -3.703E+00   -3.762E+00   -3.822E+00   -3.882E+00   -3.941E+00   -4.000E+00   -4.060E+00
    -4.119E+00   -4.178E+00   -4.237E+00   -4.296E+00   -4.355E+00   -4.414E+00   -4.473E+00   -4.531E+00   -4.590E+00   -4.649E+00
    -4.707E+00   -4.765E+00   -4.824E+00   -4.882E+00   -4.940E+00   -4.998E+00   -5.056E+00   -5.113E+00   -5.171E+00   -5.229E+00
    -5.286E+00   -5.344E+00   -5.401E+00   -5.458E+00   -5.515E+00   -5.572E+00   -5.629E+00   -5.685E+00   -5.742E+00   -5.798E+00
    -5.855E+00   -5.911E+00   -5.967E+00   -6.023E+00   -6.078E+00   -6.134E+00   -6.189E+00   -6.245E+00   -6.300E+00   -6.355E+00
    -6.409E+00   -6.464E+00   -6.518E+00   -6.573E+00   -6.627E+00   -6.681E+00   -6.734E+00   -6.788E+00   -6.841E+00   -6.894E+00
    -6.947E+00   -7.000E+00   -7.052E+00   -7.105E+00   -7.157E+00   -7.209E+00   -7.260E+00   -7.312E+00   -7.363E+00   -7.414E+00
    -7.465E+00   -7.515E+00   -7.565E+00   -7.615E+00   -7.665E+00   -7.715E+00   -7.764E+00   -7.813E+00   -7.862E+00   -7.910E+00
    -7.959E+00   -8.007E+00   -8.054E+00   -8.102E+00   -8.149E+00   -8.196E+00   -8.242E+00   -8.289E+00   -8.335E+00   -8.380E+00
    -8.426E+00   -8.471E+00   -8.516E+00   -8.561E+00   -8.605E+00   -8.649E+00   -8.692E+00   -8.736E+00   -8.779E+00   -8.821E+00
    -8.864E+00   -8.906E+00   -8.948E+00   -8.989E+00   -9.030E+00   -9.071E+00   -9.111E+00   -9.151E+00   -9.191E+00   -9.230E+00
    -9.269E+00   -9.308E+00   -9.346E+00   -9.384E+00   -9.422E+00   -9.459E+00   -9.496E+00   -9.532E+00   -9.569E+00   -9.604E+00
    -9.640E+00   -9.675E+00   -9.709E+00   -9.743E+00   -9.777E+00   -9.811E+00   -9.844E+00   -9.876E+00   -9.908E+00   -9.940E+00
    -9.972E+00   -1.000E+01   -1.003E+01   -1.006E+01   -1.009E+01   -1.012E+01   -1.015E+01   -1.018E+01   -1.021E+01   -1.024E+01
    -1.026E+01   -1.029E+01   -1.032E+01   -1.034E+01   -1.037E+01   -1.039E+01   -1.042E+01   -1.044E+01   -1.046E+01   -1.049E+01
    -1.051E+01   -1.053E+01   -1.055E+01   -1.057E+01   -1.060E+01   -1.062E+01   -1.064E+01   -1.066E+01   -1.067E+01   -1.069E+01
    -1.071E+01   -1.073E+01   -1.074E+01   -1.076E+01   -1.078E+01   -1.079E+01   -1.081E+01   -1.082E+01   -1.084E+01   -1.085E+01
    -1.086E+01   -1.087E+01   -1.089E+01   -1.090E+01   -1.091E+01   -1.092E+01   -1.093E+01   -1.094E+01   -1.095E+01   -1.096E+01
    -1.096E+01   -1.097E+01   -1.098E+01   -1.099E+01   -1.099E+01   -1.100E+01   -1.100E+01   -1.101E+01   -1.101E+01   -1.102E+01
    -1.102E+01   -1.102E+01   -1.103E+01   -1.103E+01   -1.103E+01   -1.103E+01   -1.103E+01   -1.103E+01   -1.103E+01   -1.103E+01
    -1.103E+01   -1.103E+01   -1.103E+01   -1.103E+01   -1.102E+01   -1.102E+01   -1.102E+01   -1.101E+01   -1.101E+01   -1.100E+01
    -1.100E+01   -1.099E+01   -1.099E+01   -1.098E+01   -1.097E+01   -1.097E+01   -1.096E+01   -1.095E+01   -1.094E+01   -1.093E+01
    -1.092E+01   -1.092E+01   -1.091E+01   -1.089E+01   -1.088E+01   -1.087E+01   -1.086E+01   -1.085E+01   -1.084E+01   -1.083E+01
    -1.081E+01   -1.080E+01   -1.079E+01   -1.077E+01   -1.076E+01   -1.074E+01   -1.073E+01   -1.071E+01   -1.070E+01   -1.068E+01
    -1.066E+01   -1.065E+01   -1.063E+01   -1.061E+01   -1.060E+01   -1.058E+01   -1.056E+01   -1.054E+01   -1.052E+01   -1.050E+01
    -1.048E+01   -1.046E+01   -1.044E+01   -1.042E+01   -1.040E+01   -1.038E+01   -1.036E+01   -1.034E+01   -1.032E+01   -1.030E+01
    -1.027E+01   -1.025E+01   -1.023E+01   -1.020E+01   -1.018E+01   -1.016E+01   -1.013E+01   -1.011E+01   -1.009E+01   -1.006E+01
    -1.004E+01   -1.001E+01   -9.985E+00   -9.959E+00   -9.933E+00   -9.907E+00   -9.881E+00   -9.854E+00   -9.827E+00   -9.800E+00
    -9.773E+00   -9.745E+00   -9.717E+00   -9.689E+00   -9.661E+00   -9.632E+00   -9.604E+00   -9.575E+00   -9.546E+00   -9.516E+00
    -9.487E+00   -9.457E+00   -9.427E+00   -9.397E+00   -9.366E+00   -9.336E+00   -9.305E+00   -9.274E+00   -9.243E+00   -9.211E+00
    -9.180E+00   -9.148E+00   -9.116E+00   -9.084E+00   -9.052E+00   -9.019E+00   -8.987E+00   -8.954E+00   -8.921E+00   -8.888E+00
    -8.855E+00   -8.821E+00   -8.788E+00   -8.754E+00   -8.720E+00   -8.686E+00   -8.652E+00   -8.618E+00   -8.584E+00   -8.549E+00
    -8.515E+00   -8.480E+00   -8.446E+00   -8.411E+00   -8.376E+00   -8.341E+00   -8.306E+00   -8.270E+00   -8.235E+00   -8.200E+00
    -8.164E+00   -8.129E+00   -8.093E+00   -8.058E+00   -8.022E+00   -7.986E+00   -7.951E+00   -7.915E+00   -7.879E+00   -7.843E+00
    -7.807E+00   -7.771E+00   -7.735E+00   -7.699E+00   -7.663E+00   -7.627E+00   -7.590E+00   -7.554E+00   -7.518E+00   -7.482E+00
    -7.446E+00   -7.409E+00   -7.373E+00   -7.337E+00   -7.301E+00   -7.264E+00   -7.228E+00   -7.192E+00   -7.155E+00   -7.119E+00
    -7.082E+00   -7.046E+00   -7.010E+00   -6.973E+00   -6.937E+00   -6.900E+00   -6.864E+00   -6.828E+00   -6.791E+00   -6.755E+00
    -6.718E+00   -6.682E+00   -6.645E+00   -6.609E+00   -6.572E+00   -6.536E+00   -6.500E+00   -6.463E+00   -6.427E+00   -6.390E+00
    -6.354E+00   -6.317E+00   -6.281E+00   -6.245E+00   -6.208E+00   -6.172E+00   -6.135E+00   -6.099E+00
 Asp      Conc. = 9.39E+01
