 LCModel (Version 6.3-1L) Copyright: S.W. Provencher.          Ref.: Magn. Reson. Med. 30:672-679 (1993).                
 Slice#1 Row#3 Col#14  K_02_press_1_raw_act
 36 lines in following concentration table = NCONC+1
    Conc.  %SD /Cr+PCr  Metabolite                                         
 9.21E+04   9% 358.287 Ala                                                 
   31.170  63%   0.121 Asp                                                 
   45.194 999%   0.176 Cr                                                  
  211.966 706%   0.824 PCr                                                 
   18.702  63% 7.3E-02 GABA                                                
   18.702  63% 7.3E-02 Glc                                                 
    0.000 999%   0.000 Gln                                                 
 5.22E+03  51%  20.292 Glu                                                 
  106.499 331%   0.414 GPC                                                 
   15.580 999% 6.1E-02 PCh                                                 
 1.18E+03  33%   4.605 GSH                                                 
 1.33E+03  78%   5.156 Ins                                                 
 1.05E+04  81%  41.002 Lac                                                 
    0.000 999%   0.000 NAA                                                 
    0.000 999%   0.000 NAAG                                                
    6.234  63% 2.4E-02 Scyllo                                              
   31.170  63%   0.121 Tau                                                 
   19.898 802% 7.7E-02 -CrCH2                                              
  122.079  72%   0.475 GPC+PCh                                             
    0.000 999%   0.000 NAA+NAAG                                            
  257.160  81%   1.000 Cr+PCr                                              
 5.22E+03  51%  20.292 Glu+Gln                                             
    0.000 999%   0.000 Lip13a                                              
 2.55E+03  24%   9.898 Lip13b                                              
  612.704  64%   2.383 Lip09                                               
 1.08E+04  10%  41.873 MM09                                                
    0.000 999%   0.000 Lip20                                               
    0.000 999%   0.000-MM20                                                
 3.47E+03  22%  13.493 MM12                                                
 5.57E+04   1% 216.605+MM14                                                
 1.63E+04  11%  63.218+MM17                                                
 2.55E+03  24%   9.898 Lip13a+Lip13b                                       
 6.17E+04   2% 239.996 MM14+Lip13a+Lip13b+MM12                             
 1.14E+04  10%  44.256 MM09+Lip09                                          
    0.000 999%   0.000 MM20+Lip20                                          
   6 lines in following misc. output table
  FWHM = 0.153 ppm    S/N =  33                                            
  Data shift = 0.115 ppm                                                   
  Ph:-117 deg      73.0 deg/ppm                                            
  alphaB,S = 1.2E+01,   8.7E+02                                            
    9 spline knots.   Ns = 9(2)                                            
  (13) 5 infls.   ( 5) 1 extrs.                                            
  498 points on ppm-axis = NY
      4.000000     3.992357     3.984714     3.977070     3.969427     3.961784     3.954141     3.946497     3.938854     3.931211
      3.923568     3.915925     3.908281     3.900638     3.892995     3.885352     3.877708     3.870065     3.862422     3.854779
      3.847136     3.839492     3.831849     3.824206     3.816563     3.808919     3.801276     3.793633     3.785990     3.778347
      3.770703     3.763060     3.755417     3.747774     3.740130     3.732487     3.724844     3.717201     3.709558     3.701914
      3.694271     3.686628     3.678985     3.671341     3.663698     3.656055     3.648412     3.640769     3.633125     3.625482
      3.617839     3.610196     3.602552     3.594909     3.587266     3.579623     3.571980     3.564336     3.556693     3.549050
      3.541407     3.533763     3.526120     3.518477     3.510834     3.503191     3.495547     3.487904     3.480261     3.472618
      3.464974     3.457331     3.449688     3.442045     3.434402     3.426758     3.419115     3.411472     3.403829     3.396185
      3.388542     3.380899     3.373256     3.365613     3.357969     3.350326     3.342683     3.335040     3.327396     3.319753
      3.312110     3.304467     3.296824     3.289180     3.281537     3.273894     3.266251     3.258607     3.250964     3.243321
      3.235678     3.228034     3.220391     3.212748     3.205105     3.197462     3.189818     3.182175     3.174532     3.166889
      3.159245     3.151602     3.143959     3.136316     3.128673     3.121029     3.113386     3.105743     3.098100     3.090456
      3.082813     3.075170     3.067527     3.059884     3.052240     3.044597     3.036954     3.029311     3.021667     3.014024
      3.006381     2.998738     2.991095     2.983451     2.975808     2.968165     2.960522     2.952878     2.945235     2.937592
      2.929949     2.922306     2.914662     2.907019     2.899376     2.891733     2.884089     2.876446     2.868803     2.861160
      2.853517     2.845873     2.838230     2.830587     2.822944     2.815300     2.807657     2.800014     2.792371     2.784728
      2.777084     2.769441     2.761798     2.754155     2.746511     2.738868     2.731225     2.723582     2.715939     2.708295
      2.700652     2.693009     2.685366     2.677722     2.670079     2.662436     2.654793     2.647150     2.639506     2.631863
      2.624220     2.616577     2.608933     2.601290     2.593647     2.586004     2.578361     2.570717     2.563074     2.555431
      2.547788     2.540144     2.532501     2.524858     2.517215     2.509572     2.501928     2.494285     2.486642     2.478999
      2.471355     2.463712     2.456069     2.448426     2.440783     2.433139     2.425496     2.417853     2.410210     2.402566
      2.394923     2.387280     2.379637     2.371994     2.364350     2.356707     2.349064     2.341421     2.333777     2.326134
      2.318491     2.310848     2.303205     2.295561     2.287918     2.280275     2.272632     2.264988     2.257345     2.249702
      2.242059     2.234416     2.226772     2.219129     2.211486     2.203843     2.196199     2.188556     2.180913     2.173270
      2.165627     2.157983     2.150340     2.142697     2.135054     2.127410     2.119767     2.112124     2.104481     2.096838
      2.089194     2.081551     2.073908     2.066265     2.058621     2.050978     2.043335     2.035692     2.028049     2.020405
      2.012762     2.005119     1.997476     1.989833     1.982190     1.974546     1.966903     1.959260     1.951617     1.943974
      1.936331     1.928688     1.921045     1.913402     1.905759     1.898115     1.890472     1.882829     1.875186     1.867543
      1.859900     1.852257     1.844614     1.836971     1.829327     1.821684     1.814041     1.806398     1.798755     1.791112
      1.783469     1.775826     1.768183     1.760540     1.752896     1.745253     1.737610     1.729967     1.722324     1.714681
      1.707038     1.699395     1.691752     1.684108     1.676465     1.668822     1.661179     1.653536     1.645893     1.638250
      1.630607     1.622964     1.615321     1.607677     1.600034     1.592391     1.584748     1.577105     1.569462     1.561819
      1.554176     1.546533     1.538890     1.531246     1.523603     1.515960     1.508317     1.500674     1.493031     1.485388
      1.477745     1.470102     1.462458     1.454815     1.447172     1.439529     1.431886     1.424243     1.416600     1.408957
      1.401314     1.393671     1.386027     1.378384     1.370741     1.363098     1.355455     1.347812     1.340169     1.332526
      1.324883     1.317240     1.309596     1.301953     1.294310     1.286667     1.279024     1.271381     1.263738     1.256095
      1.248452     1.240808     1.233165     1.225522     1.217879     1.210236     1.202593     1.194950     1.187307     1.179664
      1.172021     1.164377     1.156734     1.149091     1.141448     1.133805     1.126162     1.118519     1.110876     1.103233
      1.095590     1.087946     1.080303     1.072660     1.065017     1.057374     1.049731     1.042088     1.034445     1.026802
      1.019158     1.011515     1.003872     0.996229     0.988586     0.980943     0.973300     0.965657     0.958014     0.950371
      0.942727     0.935084     0.927441     0.919798     0.912155     0.904512     0.896869     0.889226     0.881583     0.873940
      0.866296     0.858653     0.851010     0.843367     0.835724     0.828081     0.820438     0.812795     0.805152     0.797508
      0.789865     0.782222     0.774579     0.766936     0.759293     0.751650     0.744007     0.736364     0.728721     0.721077
      0.713434     0.705791     0.698148     0.690505     0.682862     0.675219     0.667576     0.659933     0.652290     0.644646
      0.637003     0.629360     0.621717     0.614074     0.606431     0.598788     0.591145     0.583502     0.575858     0.568215
      0.560572     0.552929     0.545286     0.537643     0.530000     0.522357     0.514714     0.507071     0.499427     0.491784
      0.484141     0.476498     0.468855     0.461212     0.453569     0.445925     0.438282     0.430639     0.422996     0.415353
      0.407710     0.400067     0.392424     0.384780     0.377137     0.369494     0.361851     0.354208     0.346565     0.338922
      0.331278     0.323635     0.315992     0.308349     0.300706     0.293063     0.285420     0.277777     0.270133     0.262490
      0.254847     0.247204     0.239561     0.231918     0.224275     0.216631     0.208988     0.201345
 NY phased data points follow
   1.99202E+01  2.03951E+01  1.98768E+01  1.96432E+01  1.65763E+01  1.99075E+01  2.12654E+01  2.07988E+01  2.10955E+01  2.11704E+01
   1.91886E+01  2.00855E+01  2.04635E+01  2.23427E+01  1.85047E+01  1.54289E+01  1.57130E+01  1.70234E+01  1.81870E+01  1.55975E+01
   1.47364E+01  1.67480E+01  1.40431E+01  1.78236E+01  1.31571E+01  1.85199E+01  1.55254E+01  1.55202E+01  1.39285E+01  1.71763E+01
   1.40621E+01  1.65553E+01  1.61700E+01  1.51934E+01  1.28598E+01  1.38771E+01  1.39339E+01  1.13567E+01  1.13669E+01  1.31439E+01
   8.65664E+00  1.50108E+01  1.36508E+01  1.40696E+01  1.08839E+01  1.05412E+01  1.01145E+01  1.28300E+01  9.58737E+00  1.19142E+01
   1.00401E+01  1.11282E+01  1.10442E+01  8.29467E+00  8.78458E+00  5.61171E+00  1.01181E+01  3.70882E+00  8.86219E+00  3.97868E+00
   5.29688E+00  3.18624E+00  1.10948E+01  4.29339E+00  7.26881E+00  4.35420E+00  6.78307E+00  2.00727E+00  3.49693E+00  6.05665E+00
   2.69664E+00  2.14304E+00  2.38787E+00  1.70266E+00 -1.06890E-02  8.72098E-01  5.27420E-01  2.70830E+00  1.18496E+00  1.16531E+00
  -3.87096E+00 -2.35618E+00 -1.15022E+00 -4.22790E+00 -3.30555E+00 -4.28516E+00 -1.24030E+00 -4.52762E+00 -2.61039E+00 -3.56322E+00
  -5.48604E+00 -4.31856E+00 -8.74796E+00 -9.80290E+00 -5.89183E+00 -6.26362E+00 -8.48443E+00 -7.96330E+00 -1.02760E+01 -9.39681E+00
  -9.96151E+00 -9.67148E+00 -8.79513E+00 -1.31638E+01 -1.20084E+01 -9.71577E+00 -1.52663E+01 -1.06893E+01 -1.55762E+01 -1.40664E+01
  -1.29320E+01 -1.59464E+01 -1.61434E+01 -1.53695E+01 -1.88250E+01 -1.91888E+01 -1.71992E+01 -1.75355E+01 -1.75797E+01 -1.97922E+01
  -1.87203E+01 -2.23081E+01 -2.06550E+01 -1.58006E+01 -1.85111E+01 -2.06158E+01 -2.41314E+01 -2.30069E+01 -2.20118E+01 -2.34471E+01
  -2.41147E+01 -2.63023E+01 -2.56123E+01 -2.25550E+01 -2.69313E+01 -2.58980E+01 -2.75973E+01 -2.52060E+01 -2.83206E+01 -3.05882E+01
  -2.87942E+01 -2.84150E+01 -3.11858E+01 -2.88886E+01 -3.41542E+01 -3.47906E+01 -3.71263E+01 -3.05722E+01 -3.17525E+01 -3.26878E+01
  -3.38775E+01 -3.79315E+01 -3.70220E+01 -3.34469E+01 -3.49577E+01 -3.68895E+01 -3.47206E+01 -3.84482E+01 -3.65284E+01 -3.75635E+01
  -4.26330E+01 -4.02192E+01 -4.17665E+01 -4.10393E+01 -4.39423E+01 -4.25555E+01 -4.20285E+01 -4.19003E+01 -4.47629E+01 -4.42771E+01
  -4.87755E+01 -4.43076E+01 -4.47103E+01 -4.55299E+01 -4.89439E+01 -4.61471E+01 -5.08491E+01 -4.84906E+01 -5.17808E+01 -5.00901E+01
  -5.31685E+01 -4.86098E+01 -5.08152E+01 -5.35473E+01 -5.28197E+01 -5.53140E+01 -5.28967E+01 -5.60238E+01 -5.70629E+01 -5.89270E+01
  -5.50246E+01 -5.75774E+01 -5.90505E+01 -5.64645E+01 -5.86086E+01 -5.83078E+01 -5.73909E+01 -5.71979E+01 -6.28962E+01 -6.13703E+01
  -6.23949E+01 -6.62212E+01 -6.20047E+01 -6.36037E+01 -6.68837E+01 -6.78618E+01 -6.54844E+01 -6.87652E+01 -6.76981E+01 -7.01976E+01
  -6.90188E+01 -7.07560E+01 -7.22286E+01 -7.16796E+01 -7.43155E+01 -7.52086E+01 -7.44886E+01 -7.43555E+01 -7.57907E+01 -7.64294E+01
  -7.71945E+01 -8.02765E+01 -7.78047E+01 -7.84394E+01 -7.58104E+01 -8.13546E+01 -8.10425E+01 -8.10498E+01 -7.99076E+01 -8.14451E+01
  -7.96321E+01 -8.06966E+01 -8.48949E+01 -8.59180E+01 -8.26249E+01 -7.96373E+01 -8.24814E+01 -8.18482E+01 -8.07283E+01 -8.21394E+01
  -8.28254E+01 -8.06628E+01 -8.21062E+01 -8.15489E+01 -8.24427E+01 -8.12925E+01 -8.39239E+01 -7.98589E+01 -8.18510E+01 -8.27833E+01
  -7.92680E+01 -7.63465E+01 -7.95265E+01 -7.79242E+01 -7.66836E+01 -7.55673E+01 -7.81645E+01 -7.53863E+01 -8.00012E+01 -7.73264E+01
  -7.48114E+01 -7.42598E+01 -7.29616E+01 -6.80846E+01 -7.02155E+01 -6.83902E+01 -6.66894E+01 -6.92685E+01 -6.53769E+01 -6.08419E+01
  -6.04853E+01 -5.40432E+01 -5.63583E+01 -5.49621E+01 -5.25371E+01 -4.93476E+01 -4.39036E+01 -4.29795E+01 -4.24830E+01 -3.51316E+01
  -3.16616E+01 -2.99519E+01 -2.46818E+01 -1.78016E+01 -1.10738E+01 -6.91893E+00  7.33591E+00  8.50639E+00  1.66021E+01  3.01992E+01
   4.05829E+01  5.13353E+01  6.11565E+01  7.27229E+01  8.55278E+01  1.02995E+02  1.12673E+02  1.30994E+02  1.42415E+02  1.60974E+02
   1.74162E+02  1.92289E+02  2.11397E+02  2.26597E+02  2.47148E+02  2.63691E+02  2.81979E+02  3.00458E+02  3.22416E+02  3.40606E+02
   3.61502E+02  3.79965E+02  3.95875E+02  4.15333E+02  4.28174E+02  4.41965E+02  4.51893E+02  4.59344E+02  4.61760E+02  4.63147E+02
   4.56717E+02  4.51955E+02  4.40418E+02  4.25809E+02  4.09663E+02  3.94045E+02  3.72950E+02  3.52295E+02  3.30607E+02  3.11441E+02
   2.90709E+02  2.67458E+02  2.51682E+02  2.33369E+02  2.15578E+02  1.96885E+02  1.77394E+02  1.59258E+02  1.39639E+02  1.30188E+02
   1.14439E+02  1.01921E+02  8.59942E+01  7.57750E+01  6.25999E+01  5.72770E+01  5.22687E+01  4.02875E+01  3.59480E+01  3.04574E+01
   2.44541E+01  2.18693E+01  1.73741E+01  1.19775E+01  6.61637E+00  5.82794E+00 -3.11813E+00 -3.97573E+00 -7.29737E+00 -7.16082E+00
  -1.36414E+01 -1.28009E+01 -1.55371E+01 -1.97228E+01 -2.03522E+01 -2.22509E+01 -2.50433E+01 -2.80005E+01 -2.80738E+01 -3.26607E+01
  -3.23760E+01 -3.68376E+01 -3.75905E+01 -4.10509E+01 -3.96476E+01 -4.61922E+01 -4.46069E+01 -4.80457E+01 -4.94158E+01 -4.92151E+01
  -5.04478E+01 -5.15457E+01 -5.65440E+01 -5.60272E+01 -5.98813E+01 -6.08540E+01 -6.37908E+01 -6.53811E+01 -6.39881E+01 -6.53178E+01
  -6.73011E+01 -6.74633E+01 -7.27922E+01 -7.31235E+01 -7.23564E+01 -7.64014E+01 -7.57525E+01 -7.72113E+01 -7.57862E+01 -7.95024E+01
  -8.08293E+01 -8.26238E+01 -8.16010E+01 -8.15570E+01 -8.28096E+01 -8.30953E+01 -8.84672E+01 -8.36437E+01 -8.60856E+01 -8.26858E+01
  -8.64226E+01 -8.32513E+01 -8.57016E+01 -8.71983E+01 -9.09486E+01 -9.02483E+01 -8.68549E+01 -8.73476E+01 -8.71318E+01 -8.74152E+01
  -8.75664E+01 -8.49631E+01 -8.85401E+01 -9.02121E+01 -9.04445E+01 -8.80297E+01 -8.91583E+01 -8.56408E+01 -8.70949E+01 -8.97361E+01
  -8.69797E+01 -8.65808E+01 -8.49854E+01 -8.63377E+01 -8.48253E+01 -8.33363E+01 -8.45632E+01 -8.48349E+01 -8.41745E+01 -8.17293E+01
  -7.94111E+01 -8.38454E+01 -8.09947E+01 -8.04645E+01 -7.89378E+01 -7.60147E+01 -7.90917E+01 -7.76678E+01 -7.88967E+01 -7.39552E+01
  -7.36043E+01 -7.60703E+01 -7.47171E+01 -7.29426E+01 -6.88477E+01 -7.08237E+01 -6.87249E+01 -6.75580E+01 -6.66827E+01 -6.73609E+01
  -6.71023E+01 -6.56517E+01 -6.60977E+01 -6.19260E+01 -6.53793E+01 -6.43448E+01 -6.41631E+01 -6.02307E+01 -6.15953E+01 -5.81240E+01
  -5.65886E+01 -5.95115E+01 -5.71724E+01 -5.20370E+01 -5.24414E+01 -5.05892E+01 -5.45550E+01 -5.14570E+01 -5.14584E+01 -4.84858E+01
  -4.79037E+01 -4.64984E+01 -5.21234E+01 -4.49638E+01 -4.47894E+01 -4.34423E+01 -4.62571E+01 -4.24936E+01 -4.40151E+01 -3.99812E+01
  -3.92843E+01 -4.28024E+01 -3.50450E+01 -3.81109E+01 -3.28409E+01 -3.80170E+01 -3.16781E+01 -3.14411E+01
 NY points of the fit to the data follow
   1.72316E+01  1.49052E+01  1.57777E+01  1.46599E+01  1.70267E+01  1.79458E+01  1.99464E+01  2.05061E+01  2.18013E+01  2.20750E+01
   2.19580E+01  2.10779E+01  1.97929E+01  1.96487E+01  1.87982E+01  1.92416E+01  1.81913E+01  1.88273E+01  1.76486E+01  1.84663E+01
   1.63221E+01  1.68006E+01  1.44752E+01  1.52294E+01  1.28940E+01  1.38820E+01  1.15658E+01  1.28040E+01  1.08711E+01  1.25653E+01
   1.12829E+01  1.32966E+01  1.22664E+01  1.41708E+01  1.31878E+01  1.48678E+01  1.38603E+01  1.47803E+01  1.35865E+01  1.40132E+01
   1.25749E+01  1.23912E+01  1.08951E+01  1.10723E+01  1.12048E+01  1.20719E+01  1.23915E+01  1.30032E+01  1.33608E+01  1.33734E+01
   1.24463E+01  1.09102E+01  9.40421E+00  8.00562E+00  7.13035E+00  6.31639E+00  6.31312E+00  6.24964E+00  7.00916E+00  7.13720E+00
   7.46558E+00  7.08740E+00  7.17663E+00  6.64357E+00  6.65419E+00  6.05970E+00  5.99561E+00  5.32277E+00  5.16843E+00  4.49076E+00
   4.37801E+00  3.71741E+00  3.55244E+00  2.85565E+00  2.61774E+00  1.88110E+00  1.57699E+00  7.91879E-01  4.30229E-01 -3.90496E-01
  -8.73151E-01 -1.73322E+00 -2.28875E+00 -3.16512E+00 -3.73617E+00 -4.35283E+00 -4.86823E+00 -5.43633E+00 -5.98349E+00 -6.47266E+00
  -7.02701E+00 -7.35104E+00 -7.88067E+00 -8.05890E+00 -8.53802E+00 -8.62290E+00 -9.09431E+00 -9.13667E+00 -9.61356E+00 -9.64394E+00
  -1.01312E+01 -1.02096E+01 -1.07370E+01 -1.09153E+01 -1.15040E+01 -1.18230E+01 -1.24675E+01 -1.29276E+01 -1.35881E+01 -1.39758E+01
  -1.46380E+01 -1.50979E+01 -1.57823E+01 -1.62508E+01 -1.68666E+01 -1.71339E+01 -1.77329E+01 -1.79751E+01 -1.85917E+01 -1.87784E+01
  -1.94346E+01 -1.94975E+01 -2.02186E+01 -2.01848E+01 -2.10030E+01 -2.07602E+01 -2.16796E+01 -2.13886E+01 -2.24573E+01 -2.21213E+01
  -2.33263E+01 -2.29711E+01 -2.43172E+01 -2.39742E+01 -2.54355E+01 -2.51284E+01 -2.66752E+01 -2.64178E+01 -2.79784E+01 -2.77771E+01
  -2.93101E+01 -2.91995E+01 -3.06912E+01 -3.06887E+01 -3.21228E+01 -3.22842E+01 -3.36287E+01 -3.39688E+01 -3.51720E+01 -3.54788E+01
  -3.65612E+01 -3.70012E+01 -3.80146E+01 -3.85883E+01 -3.94396E+01 -3.99449E+01 -4.07118E+01 -4.12877E+01 -4.20290E+01 -4.27323E+01
  -4.34587E+01 -4.41994E+01 -4.48813E+01 -4.55522E+01 -4.62073E+01 -4.68445E+01 -4.75257E+01 -4.81828E+01 -4.88852E+01 -4.95568E+01
  -5.02615E+01 -5.08808E+01 -5.15243E+01 -5.20741E+01 -5.26827E+01 -5.32456E+01 -5.38505E+01 -5.44135E+01 -5.50262E+01 -5.56742E+01
  -5.61814E+01 -5.67692E+01 -5.71890E+01 -5.77850E+01 -5.81454E+01 -5.87730E+01 -5.90432E+01 -5.96488E+01 -5.97766E+01 -6.04254E+01
  -6.04786E+01 -6.11272E+01 -6.13202E+01 -6.19810E+01 -6.22334E+01 -6.28276E+01 -6.29927E+01 -6.32807E+01 -6.28746E+01 -6.31443E+01
  -6.27882E+01 -6.31622E+01 -6.28066E+01 -6.34465E+01 -6.33438E+01 -6.43943E+01 -6.40279E+01 -6.51427E+01 -6.47739E+01 -6.61167E+01
  -6.58871E+01 -6.74729E+01 -6.73299E+01 -6.91323E+01 -6.89834E+01 -7.07149E+01 -7.05836E+01 -7.21333E+01 -7.20780E+01 -7.33949E+01
  -7.34472E+01 -7.44303E+01 -7.45411E+01 -7.51604E+01 -7.52498E+01 -7.56103E+01 -7.56195E+01 -7.55365E+01 -7.55661E+01 -7.53956E+01
  -7.53062E+01 -7.51098E+01 -7.50747E+01 -7.50490E+01 -7.50823E+01 -7.51017E+01 -7.51470E+01 -7.50671E+01 -7.47056E+01 -7.48273E+01
  -7.44638E+01 -7.46415E+01 -7.41194E+01 -7.43510E+01 -7.41909E+01 -7.45700E+01 -7.43334E+01 -7.45609E+01 -7.43756E+01 -7.42553E+01
  -7.40403E+01 -7.35516E+01 -7.33712E+01 -7.27158E+01 -7.26384E+01 -7.17614E+01 -7.17407E+01 -7.06812E+01 -7.05843E+01 -6.93122E+01
  -6.91889E+01 -6.77967E+01 -6.77174E+01 -6.62938E+01 -6.62431E+01 -6.49333E+01 -6.47207E+01 -6.32971E+01 -6.28736E+01 -6.13553E+01
  -6.05951E+01 -5.89744E+01 -5.79852E+01 -5.63127E+01 -5.49850E+01 -5.29953E+01 -5.10964E+01 -4.85857E+01 -4.59095E+01 -4.26816E+01
  -3.91026E+01 -3.48380E+01 -2.99535E+01 -2.42557E+01 -1.77905E+01 -1.03799E+01 -2.08267E+00  7.09569E+00  1.72115E+01  2.81454E+01
   3.98655E+01  5.21944E+01  6.50396E+01  7.81740E+01  9.14949E+01  1.04842E+02  1.18115E+02  1.31244E+02  1.44258E+02  1.57275E+02
   1.70544E+02  1.84457E+02  1.99586E+02  2.16763E+02  2.37031E+02  2.61122E+02  2.86554E+02  3.08140E+02  3.28733E+02  3.46919E+02
   3.65246E+02  3.80792E+02  3.95957E+02  4.08563E+02  4.25842E+02  4.38858E+02  4.51389E+02  4.56921E+02  4.60845E+02  4.58237E+02
   4.55210E+02  4.46660E+02  4.37615E+02  4.23743E+02  4.08456E+02  3.89853E+02  3.69944E+02  3.49531E+02  3.28932E+02  3.11164E+02
   2.89750E+02  2.71533E+02  2.50460E+02  2.32766E+02  2.11754E+02  1.94284E+02  1.73608E+02  1.60375E+02  1.42853E+02  1.31203E+02
   1.15369E+02  1.03508E+02  8.78347E+01  7.74201E+01  6.50365E+01  6.08438E+01  5.38521E+01  4.91894E+01  4.16110E+01  3.64254E+01
   2.83513E+01  2.16128E+01  1.14347E+01  5.14691E+00  1.08776E+00  4.85155E-01 -9.34976E-01 -1.47717E+00 -3.77896E+00 -6.13163E+00
  -9.59345E+00 -1.27926E+01 -1.64524E+01 -1.93645E+01 -2.27505E+01 -2.55354E+01 -2.80191E+01 -3.04002E+01 -3.09189E+01 -3.13126E+01
  -3.27259E+01 -3.39686E+01 -3.57576E+01 -3.79722E+01 -4.03185E+01 -4.42229E+01 -4.66026E+01 -4.83207E+01 -4.97835E+01 -5.11155E+01
  -5.23769E+01 -5.36062E+01 -5.48346E+01 -5.60874E+01 -5.73861E+01 -5.87467E+01 -6.01797E+01 -6.16885E+01 -6.32700E+01 -6.49141E+01
  -6.66055E+01 -6.83237E+01 -7.00460E+01 -7.17468E+01 -7.34008E+01 -7.49832E+01 -7.64724E+01 -7.78497E+01 -7.91014E+01 -8.02184E+01
  -8.11970E+01 -8.20388E+01 -8.27507E+01 -8.33441E+01 -8.38343E+01 -8.42388E+01 -8.45770E+01 -8.48682E+01 -8.51311E+01 -8.53817E+01
  -8.56332E+01 -8.58940E+01 -8.61690E+01 -8.64578E+01 -8.67565E+01 -8.70574E+01 -8.73501E+01 -8.76223E+01 -8.78615E+01 -8.80551E+01
  -8.81924E+01 -8.82645E+01 -8.82649E+01 -8.81899E+01 -8.80387E+01 -8.78126E+01 -8.75156E+01 -8.71528E+01 -8.67309E+01 -8.62568E+01
  -8.57380E+01 -8.51816E+01 -8.45944E+01 -8.39824E+01 -8.33510E+01 -8.27045E+01 -8.20469E+01 -8.13811E+01 -8.07095E+01 -8.00340E+01
  -7.93560E+01 -7.86764E+01 -7.79962E+01 -7.73158E+01 -7.66358E+01 -7.59563E+01 -7.52775E+01 -7.45996E+01 -7.39227E+01 -7.32470E+01
  -7.25724E+01 -7.18989E+01 -7.12266E+01 -7.05556E+01 -6.98859E+01 -6.92174E+01 -6.85502E+01 -6.78842E+01 -6.72195E+01 -6.65560E+01
  -6.58938E+01 -6.52328E+01 -6.45729E+01 -6.39141E+01 -6.32564E+01 -6.25997E+01 -6.19440E+01 -6.12892E+01 -6.06351E+01 -5.99817E+01
  -5.93288E+01 -5.86765E+01 -5.80244E+01 -5.73725E+01 -5.67204E+01 -5.60681E+01 -5.54152E+01 -5.47617E+01 -5.41070E+01 -5.34509E+01
  -5.27929E+01 -5.21327E+01 -5.14696E+01 -5.08033E+01 -5.01328E+01 -4.94574E+01 -4.87762E+01 -4.80881E+01 -4.73917E+01 -4.66856E+01
  -4.59677E+01 -4.52358E+01 -4.44868E+01 -4.37172E+01 -4.29221E+01 -4.20950E+01 -4.12270E+01 -4.03054E+01
 NY background values follow
     4.202E+01    4.200E+01    4.198E+01    4.195E+01    4.192E+01    4.188E+01    4.183E+01    4.178E+01    4.172E+01    4.165E+01
     4.158E+01    4.150E+01    4.142E+01    4.133E+01    4.124E+01    4.114E+01    4.103E+01    4.092E+01    4.080E+01    4.068E+01
     4.055E+01    4.041E+01    4.027E+01    4.012E+01    3.997E+01    3.981E+01    3.965E+01    3.948E+01    3.930E+01    3.912E+01
     3.894E+01    3.875E+01    3.855E+01    3.835E+01    3.814E+01    3.792E+01    3.771E+01    3.748E+01    3.725E+01    3.702E+01
     3.677E+01    3.653E+01    3.628E+01    3.602E+01    3.576E+01    3.549E+01    3.522E+01    3.494E+01    3.466E+01    3.437E+01
     3.408E+01    3.378E+01    3.348E+01    3.317E+01    3.286E+01    3.254E+01    3.222E+01    3.189E+01    3.156E+01    3.122E+01
     3.088E+01    3.053E+01    3.018E+01    2.982E+01    2.946E+01    2.909E+01    2.872E+01    2.835E+01    2.797E+01    2.758E+01
     2.719E+01    2.680E+01    2.640E+01    2.600E+01    2.559E+01    2.518E+01    2.477E+01    2.435E+01    2.392E+01    2.349E+01
     2.306E+01    2.262E+01    2.218E+01    2.174E+01    2.129E+01    2.083E+01    2.038E+01    1.992E+01    1.945E+01    1.898E+01
     1.851E+01    1.803E+01    1.755E+01    1.706E+01    1.658E+01    1.608E+01    1.559E+01    1.509E+01    1.459E+01    1.408E+01
     1.357E+01    1.305E+01    1.254E+01    1.202E+01    1.149E+01    1.097E+01    1.044E+01    9.902E+00    9.365E+00    8.824E+00
     8.281E+00    7.735E+00    7.185E+00    6.633E+00    6.077E+00    5.519E+00    4.958E+00    4.394E+00    3.827E+00    3.257E+00
     2.685E+00    2.109E+00    1.532E+00    9.513E-01    3.684E-01   -2.171E-01   -8.050E-01   -1.395E+00   -1.988E+00   -2.583E+00
    -3.181E+00   -3.780E+00   -4.382E+00   -4.987E+00   -5.593E+00   -6.201E+00   -6.812E+00   -7.424E+00   -8.038E+00   -8.655E+00
    -9.273E+00   -9.893E+00   -1.051E+01   -1.114E+01   -1.176E+01   -1.239E+01   -1.302E+01   -1.365E+01   -1.428E+01   -1.491E+01
    -1.555E+01   -1.618E+01   -1.682E+01   -1.746E+01   -1.810E+01   -1.874E+01   -1.938E+01   -2.003E+01   -2.067E+01   -2.132E+01
    -2.197E+01   -2.261E+01   -2.326E+01   -2.391E+01   -2.456E+01   -2.521E+01   -2.586E+01   -2.652E+01   -2.717E+01   -2.782E+01
    -2.848E+01   -2.913E+01   -2.978E+01   -3.044E+01   -3.109E+01   -3.175E+01   -3.240E+01   -3.305E+01   -3.371E+01   -3.436E+01
    -3.501E+01   -3.566E+01   -3.631E+01   -3.696E+01   -3.761E+01   -3.825E+01   -3.890E+01   -3.954E+01   -4.019E+01   -4.083E+01
    -4.146E+01   -4.210E+01   -4.274E+01   -4.337E+01   -4.400E+01   -4.463E+01   -4.525E+01   -4.587E+01   -4.649E+01   -4.711E+01
    -4.773E+01   -4.834E+01   -4.894E+01   -4.955E+01   -5.015E+01   -5.075E+01   -5.134E+01   -5.193E+01   -5.252E+01   -5.311E+01
    -5.368E+01   -5.426E+01   -5.483E+01   -5.540E+01   -5.596E+01   -5.652E+01   -5.707E+01   -5.762E+01   -5.816E+01   -5.870E+01
    -5.923E+01   -5.976E+01   -6.028E+01   -6.080E+01   -6.131E+01   -6.181E+01   -6.231E+01   -6.281E+01   -6.329E+01   -6.378E+01
    -6.425E+01   -6.472E+01   -6.518E+01   -6.564E+01   -6.609E+01   -6.653E+01   -6.697E+01   -6.740E+01   -6.782E+01   -6.824E+01
    -6.864E+01   -6.904E+01   -6.944E+01   -6.982E+01   -7.020E+01   -7.057E+01   -7.093E+01   -7.129E+01   -7.163E+01   -7.197E+01
    -7.230E+01   -7.262E+01   -7.294E+01   -7.324E+01   -7.354E+01   -7.383E+01   -7.411E+01   -7.439E+01   -7.465E+01   -7.491E+01
    -7.516E+01   -7.540E+01   -7.563E+01   -7.586E+01   -7.608E+01   -7.629E+01   -7.649E+01   -7.669E+01   -7.688E+01   -7.706E+01
    -7.723E+01   -7.739E+01   -7.755E+01   -7.770E+01   -7.784E+01   -7.798E+01   -7.811E+01   -7.823E+01   -7.834E+01   -7.845E+01
    -7.855E+01   -7.864E+01   -7.872E+01   -7.880E+01   -7.887E+01   -7.894E+01   -7.899E+01   -7.904E+01   -7.909E+01   -7.912E+01
    -7.915E+01   -7.918E+01   -7.919E+01   -7.921E+01   -7.921E+01   -7.921E+01   -7.920E+01   -7.918E+01   -7.916E+01   -7.913E+01
    -7.910E+01   -7.906E+01   -7.901E+01   -7.896E+01   -7.890E+01   -7.884E+01   -7.877E+01   -7.869E+01   -7.861E+01   -7.852E+01
    -7.843E+01   -7.833E+01   -7.823E+01   -7.812E+01   -7.800E+01   -7.788E+01   -7.775E+01   -7.762E+01   -7.749E+01   -7.735E+01
    -7.720E+01   -7.705E+01   -7.689E+01   -7.673E+01   -7.657E+01   -7.640E+01   -7.622E+01   -7.604E+01   -7.586E+01   -7.567E+01
    -7.547E+01   -7.528E+01   -7.507E+01   -7.487E+01   -7.466E+01   -7.444E+01   -7.422E+01   -7.400E+01   -7.377E+01   -7.354E+01
    -7.331E+01   -7.307E+01   -7.282E+01   -7.257E+01   -7.232E+01   -7.207E+01   -7.181E+01   -7.154E+01   -7.128E+01   -7.101E+01
    -7.073E+01   -7.045E+01   -7.017E+01   -6.988E+01   -6.959E+01   -6.930E+01   -6.900E+01   -6.870E+01   -6.840E+01   -6.809E+01
    -6.778E+01   -6.746E+01   -6.714E+01   -6.682E+01   -6.650E+01   -6.617E+01   -6.584E+01   -6.550E+01   -6.516E+01   -6.482E+01
    -6.448E+01   -6.413E+01   -6.378E+01   -6.342E+01   -6.307E+01   -6.271E+01   -6.234E+01   -6.198E+01   -6.161E+01   -6.124E+01
    -6.086E+01   -6.049E+01   -6.011E+01   -5.972E+01   -5.934E+01   -5.895E+01   -5.856E+01   -5.817E+01   -5.777E+01   -5.738E+01
    -5.698E+01   -5.657E+01   -5.617E+01   -5.576E+01   -5.535E+01   -5.494E+01   -5.453E+01   -5.411E+01   -5.369E+01   -5.327E+01
    -5.285E+01   -5.242E+01   -5.200E+01   -5.157E+01   -5.114E+01   -5.071E+01   -5.028E+01   -4.984E+01   -4.940E+01   -4.896E+01
    -4.852E+01   -4.808E+01   -4.764E+01   -4.719E+01   -4.675E+01   -4.630E+01   -4.585E+01   -4.540E+01   -4.495E+01   -4.450E+01
    -4.405E+01   -4.359E+01   -4.314E+01   -4.268E+01   -4.222E+01   -4.176E+01   -4.131E+01   -4.085E+01   -4.039E+01   -3.993E+01
    -3.947E+01   -3.901E+01   -3.855E+01   -3.809E+01   -3.762E+01   -3.716E+01   -3.670E+01   -3.624E+01   -3.578E+01   -3.532E+01
    -3.486E+01   -3.440E+01   -3.394E+01   -3.348E+01   -3.302E+01   -3.256E+01   -3.210E+01   -3.164E+01   -3.119E+01   -3.073E+01
    -3.028E+01   -2.982E+01   -2.937E+01   -2.892E+01   -2.846E+01   -2.801E+01   -2.757E+01   -2.712E+01   -2.667E+01   -2.623E+01
    -2.578E+01   -2.534E+01   -2.490E+01   -2.446E+01   -2.402E+01   -2.359E+01   -2.315E+01   -2.272E+01   -2.229E+01   -2.186E+01
    -2.144E+01   -2.101E+01   -2.059E+01   -2.017E+01   -1.975E+01   -1.933E+01   -1.892E+01   -1.851E+01   -1.810E+01   -1.769E+01
    -1.729E+01   -1.689E+01   -1.649E+01   -1.609E+01   -1.569E+01   -1.530E+01   -1.491E+01   -1.453E+01   -1.414E+01   -1.376E+01
    -1.339E+01   -1.301E+01   -1.264E+01   -1.227E+01   -1.190E+01   -1.154E+01   -1.118E+01   -1.082E+01
 Ala      Conc. = 9.21E+04
