 LCModel (Version 6.3-1L) Copyright: S.W. Provencher.          Ref.: Magn. Reson. Med. 30:672-679 (1993).                
 Slice#1 Row#10 Col#14  K_02_press_1_raw_act
 36 lines in following concentration table = NCONC+1
    Conc.  %SD /Cr+PCr  Metabolite                                         
 2.08E+03  19%   0.000 Ala                                                 
    8.551  23%   0.000 Asp                                                 
    0.000 999%   0.000 Cr                                                  
    0.000 999%   0.000 PCr                                                 
    5.130  23%   0.000 GABA                                                
    5.129  23%   0.000 Glc                                                 
   24.191 999%   0.000 Gln                                                 
    0.000 999%   0.000 Glu                                                 
    0.000 999%   0.000 GPC                                                 
    0.000 999%   0.000 PCh                                                 
   34.200 144%   0.000 GSH                                                 
    0.000 999%   0.000 Ins                                                 
    0.000 999%   0.000 Lac                                                 
  171.011  23%   0.000 NAA                                                 
    0.000 999%   0.000 NAAG                                                
    1.710  23%   0.000 Scyllo                                              
    8.544  23%   0.000 Tau                                                 
    0.000 999%   0.000 -CrCH2                                              
    0.000 999%   0.000 GPC+PCh                                             
  171.011  23%   0.000 NAA+NAAG                                            
    0.000 999%   0.000 Cr+PCr                                              
   24.191 999%   0.000 Glu+Gln                                             
 3.38E+03  13%   0.000 Lip13a                                              
    0.000 999%   0.000 Lip13b                                              
 1.99E+03   9%   0.000 Lip09                                               
 2.87E+03   6%   0.000 MM09                                                
  650.847  25%   0.000 Lip20                                               
    0.000 999%   0.000 MM20                                                
 2.30E+03  13%   0.000 MM12                                                
 2.18E+03  10%   0.000 MM14                                                
  652.818  20%   0.000 MM17                                                
 3.38E+03  13%   0.000 Lip13a+Lip13b                                       
 7.85E+03   5%   0.000 MM14+Lip13a+Lip13b+MM12                             
 4.87E+03   4%   0.000 MM09+Lip09                                          
  650.847  25%   0.000 MM20+Lip20                                          
   6 lines in following misc. output table
  FWHM = 0.153 ppm    S/N =   9                                            
  Data shift = 0.153 ppm                                                   
  Ph: 117 deg      34.5 deg/ppm                                            
  alphaB,S = 1.1E+01,   2.3E+02                                            
    8 spline knots.   Ns = 9(2)                                            
  (11) 2 infls.   ( 6) 1 extrs.                                            
  498 points on ppm-axis = NY
      4.000000     3.992357     3.984714     3.977070     3.969427     3.961784     3.954141     3.946497     3.938854     3.931211
      3.923568     3.915925     3.908281     3.900638     3.892995     3.885352     3.877708     3.870065     3.862422     3.854779
      3.847136     3.839492     3.831849     3.824206     3.816563     3.808919     3.801276     3.793633     3.785990     3.778347
      3.770703     3.763060     3.755417     3.747774     3.740130     3.732487     3.724844     3.717201     3.709558     3.701914
      3.694271     3.686628     3.678985     3.671341     3.663698     3.656055     3.648412     3.640769     3.633125     3.625482
      3.617839     3.610196     3.602552     3.594909     3.587266     3.579623     3.571980     3.564336     3.556693     3.549050
      3.541407     3.533763     3.526120     3.518477     3.510834     3.503191     3.495547     3.487904     3.480261     3.472618
      3.464974     3.457331     3.449688     3.442045     3.434402     3.426758     3.419115     3.411472     3.403829     3.396185
      3.388542     3.380899     3.373256     3.365613     3.357969     3.350326     3.342683     3.335040     3.327396     3.319753
      3.312110     3.304467     3.296824     3.289180     3.281537     3.273894     3.266251     3.258607     3.250964     3.243321
      3.235678     3.228034     3.220391     3.212748     3.205105     3.197462     3.189818     3.182175     3.174532     3.166889
      3.159245     3.151602     3.143959     3.136316     3.128673     3.121029     3.113386     3.105743     3.098100     3.090456
      3.082813     3.075170     3.067527     3.059884     3.052240     3.044597     3.036954     3.029311     3.021667     3.014024
      3.006381     2.998738     2.991095     2.983451     2.975808     2.968165     2.960522     2.952878     2.945235     2.937592
      2.929949     2.922306     2.914662     2.907019     2.899376     2.891733     2.884089     2.876446     2.868803     2.861160
      2.853517     2.845873     2.838230     2.830587     2.822944     2.815300     2.807657     2.800014     2.792371     2.784728
      2.777084     2.769441     2.761798     2.754155     2.746511     2.738868     2.731225     2.723582     2.715939     2.708295
      2.700652     2.693009     2.685366     2.677722     2.670079     2.662436     2.654793     2.647150     2.639506     2.631863
      2.624220     2.616577     2.608933     2.601290     2.593647     2.586004     2.578361     2.570717     2.563074     2.555431
      2.547788     2.540144     2.532501     2.524858     2.517215     2.509572     2.501928     2.494285     2.486642     2.478999
      2.471355     2.463712     2.456069     2.448426     2.440783     2.433139     2.425496     2.417853     2.410210     2.402566
      2.394923     2.387280     2.379637     2.371994     2.364350     2.356707     2.349064     2.341421     2.333777     2.326134
      2.318491     2.310848     2.303205     2.295561     2.287918     2.280275     2.272632     2.264988     2.257345     2.249702
      2.242059     2.234416     2.226772     2.219129     2.211486     2.203843     2.196199     2.188556     2.180913     2.173270
      2.165627     2.157983     2.150340     2.142697     2.135054     2.127410     2.119767     2.112124     2.104481     2.096838
      2.089194     2.081551     2.073908     2.066265     2.058621     2.050978     2.043335     2.035692     2.028049     2.020405
      2.012762     2.005119     1.997476     1.989833     1.982190     1.974546     1.966903     1.959260     1.951617     1.943974
      1.936331     1.928688     1.921045     1.913402     1.905759     1.898115     1.890472     1.882829     1.875186     1.867543
      1.859900     1.852257     1.844614     1.836971     1.829327     1.821684     1.814041     1.806398     1.798755     1.791112
      1.783469     1.775826     1.768183     1.760540     1.752896     1.745253     1.737610     1.729967     1.722324     1.714681
      1.707038     1.699395     1.691752     1.684108     1.676465     1.668822     1.661179     1.653536     1.645893     1.638250
      1.630607     1.622964     1.615321     1.607677     1.600034     1.592391     1.584748     1.577105     1.569462     1.561819
      1.554176     1.546533     1.538890     1.531246     1.523603     1.515960     1.508317     1.500674     1.493031     1.485388
      1.477745     1.470102     1.462458     1.454815     1.447172     1.439529     1.431886     1.424243     1.416600     1.408957
      1.401314     1.393671     1.386027     1.378384     1.370741     1.363098     1.355455     1.347812     1.340169     1.332526
      1.324883     1.317240     1.309596     1.301953     1.294310     1.286667     1.279024     1.271381     1.263738     1.256095
      1.248452     1.240808     1.233165     1.225522     1.217879     1.210236     1.202593     1.194950     1.187307     1.179664
      1.172021     1.164377     1.156734     1.149091     1.141448     1.133805     1.126162     1.118519     1.110876     1.103233
      1.095590     1.087946     1.080303     1.072660     1.065017     1.057374     1.049731     1.042088     1.034445     1.026802
      1.019158     1.011515     1.003872     0.996229     0.988586     0.980943     0.973300     0.965657     0.958014     0.950371
      0.942727     0.935084     0.927441     0.919798     0.912155     0.904512     0.896869     0.889226     0.881583     0.873940
      0.866296     0.858653     0.851010     0.843367     0.835724     0.828081     0.820438     0.812795     0.805152     0.797508
      0.789865     0.782222     0.774579     0.766936     0.759293     0.751650     0.744007     0.736364     0.728721     0.721077
      0.713434     0.705791     0.698148     0.690505     0.682862     0.675219     0.667576     0.659933     0.652290     0.644646
      0.637003     0.629360     0.621717     0.614074     0.606431     0.598788     0.591145     0.583502     0.575858     0.568215
      0.560572     0.552929     0.545286     0.537643     0.530000     0.522357     0.514714     0.507071     0.499427     0.491784
      0.484141     0.476498     0.468855     0.461212     0.453569     0.445925     0.438282     0.430639     0.422996     0.415353
      0.407710     0.400067     0.392424     0.384780     0.377137     0.369494     0.361851     0.354208     0.346565     0.338922
      0.331278     0.323635     0.315992     0.308349     0.300706     0.293063     0.285420     0.277777     0.270133     0.262490
      0.254847     0.247204     0.239561     0.231918     0.224275     0.216631     0.208988     0.201345
 NY phased data points follow
   5.22387E+00  3.34766E+00  4.03632E+00  1.56463E+00  1.96919E+00  2.74734E+00  2.98499E+00  2.99294E+00  3.27867E+00  4.29954E+00
   2.76461E+00  3.41325E+00  4.39904E+00  3.09988E+00  2.99745E+00  1.79541E+00  2.67433E+00  3.08916E+00  2.20598E+00  4.28255E+00
   1.70903E+00  1.64311E+00  2.50577E+00  3.01224E+00  2.57851E+00  2.06950E+00  3.03223E+00  4.27236E+00  3.01803E+00  1.56052E+00
   1.52705E+00  4.20153E+00  4.63681E+00  2.89407E+00  1.66243E+00  2.58275E+00  3.17053E+00  1.59432E+00  3.20905E+00  2.90663E+00
   2.00844E+00  1.59355E+00  3.14896E+00  3.08803E+00  3.55130E+00  2.58844E+00  2.02033E+00  8.62318E-01  2.71882E+00  3.24336E+00
   4.25874E+00  1.95305E+00  5.08168E+00  1.52985E+00  8.54739E-01  1.63803E+00  2.64946E+00  1.64906E+00  3.96186E+00  3.45389E+00
   2.90577E+00  2.14359E+00  1.33831E+00  1.46485E+00  3.54589E+00  2.63217E+00  1.43675E+00  4.71834E+00  2.52867E+00  1.34873E+00
   4.16488E+00  3.26203E+00  1.45123E+00  2.39884E+00  2.42305E+00  2.77431E+00  3.70513E+00  3.86034E+00  1.42468E+00  2.68529E+00
   2.90001E+00 -8.58934E-02  3.40558E+00  1.99572E+00  7.88850E-01  4.07869E+00  3.04906E+00  6.47867E+00  3.88301E+00  3.61737E+00
   3.42672E+00  2.23880E+00  1.66852E+00  1.38185E+00  1.45773E+00  3.90807E+00  1.64246E+00  1.37682E+00  2.06324E+00  2.11632E+00
   2.88566E+00  3.34003E+00  2.70055E+00  2.31274E+00  3.10799E+00  2.43104E+00  8.32111E-01  2.08659E+00  1.08679E+00  2.70179E+00
   5.85010E+00  3.21356E+00  4.50543E+00  2.55788E+00  1.27782E+00  1.05538E+00  7.41496E-01  3.30345E+00  3.18532E+00  8.03083E-01
   1.49701E+00  1.28805E+00  4.76387E+00  2.64026E+00  4.32718E+00  3.00095E+00  2.86088E+00  1.52211E+00  3.10168E+00  3.05355E+00
   2.66165E+00  2.89348E+00  4.33088E+00  4.08107E+00  3.20365E+00  2.87415E+00  8.15241E-01  2.88542E+00  5.71429E+00  3.30616E+00
   2.30783E+00  3.14700E+00  3.75140E+00  2.34010E+00  1.90329E+00  2.68431E+00  4.18397E+00  3.24008E+00  2.67586E+00  4.60123E+00
   4.35762E+00  6.46275E+00  3.57505E+00  4.40455E+00  1.69376E+00  3.54945E+00  3.16329E+00  3.23549E+00  3.65270E+00  3.55172E+00
   7.63674E-01  2.77638E+00  3.42949E+00  1.58164E+00  5.06466E-01  2.33024E+00  1.69312E+00  1.09144E+00  3.51039E-01  1.32435E+00
   2.50361E+00  2.63997E+00  1.16641E+00  3.02036E+00  3.52560E+00  2.95166E+00  2.16494E+00  5.46781E+00  9.62929E-01  4.39850E+00
   2.54438E+00  2.38434E+00  2.03688E+00  2.59379E+00  2.13154E+00  2.88265E+00  3.23006E+00  3.72207E+00  4.07461E+00  2.41661E-01
   2.06859E+00  1.30045E+00  1.98317E+00  2.25529E+00  1.41554E+00  8.90499E-01  1.79015E+00  1.49715E+00  3.65452E+00  3.05576E+00
   2.29261E+00  3.35963E+00  1.98900E+00  3.21251E+00  2.23186E+00  2.03662E+00  2.58810E+00  2.80493E+00  2.26104E+00  2.62105E+00
   3.99628E+00  1.07719E+00  4.52687E+00  2.98063E+00  1.64441E+00  1.09512E+00  4.87387E+00  1.57241E+00  2.06911E+00  3.77430E+00
   4.60033E+00  2.60676E+00  5.35424E+00  3.93844E+00  1.41926E+00  3.09103E+00  3.58629E+00  2.94696E+00  2.07676E+00  4.17210E+00
   2.41514E+00  2.56076E+00  1.47840E+00  3.21005E+00  1.71294E+00  3.07308E+00  1.04776E+00  1.51466E+00  1.97361E-01  1.04202E+00
   5.44628E-01  1.47126E+00  3.66541E+00  3.44170E+00  4.36678E+00  4.64410E+00  3.34106E+00  2.23579E+00  3.93130E+00  5.37089E+00
   5.95553E+00  3.22259E+00  4.04953E+00  5.42243E+00  5.83195E+00  2.23776E+00  6.33979E+00  5.15369E+00  5.67475E+00  5.05790E+00
   5.23437E+00  5.70107E+00  5.18246E+00  5.13841E+00  5.84474E+00  5.80715E+00  4.74336E+00  2.60533E+00  3.37432E+00  4.79753E+00
   4.12677E+00  2.97098E+00  3.17354E+00  4.28067E+00  2.76415E+00  1.52415E+00  4.36179E+00  3.87636E+00  2.88008E+00  4.24346E+00
   6.19160E+00  4.81775E+00  4.98615E+00  2.99429E+00  5.02010E+00  4.90777E+00  5.15390E+00  7.51472E+00  3.91837E+00  4.02940E+00
   4.32605E+00  4.30567E+00  3.48619E+00  4.46134E+00  5.77121E+00  5.22352E+00  6.16843E+00  6.65942E+00  4.72179E+00  6.12972E+00
   4.44900E+00  5.37213E+00  5.71489E+00  6.18663E+00  5.12897E+00  5.12131E+00  7.06857E+00  6.65649E+00  6.63885E+00  5.83590E+00
   9.85182E+00  1.07809E+01  8.41512E+00  1.10073E+01  1.30136E+01  1.37092E+01  1.29752E+01  1.56634E+01  1.55038E+01  1.38860E+01
   1.59527E+01  1.51418E+01  1.38112E+01  1.49808E+01  1.49645E+01  1.44424E+01  1.52265E+01  1.41875E+01  1.60408E+01  1.45815E+01
   1.29696E+01  1.49439E+01  1.55269E+01  1.75901E+01  1.57077E+01  1.46404E+01  1.58500E+01  1.40521E+01  1.50358E+01  1.78043E+01
   1.51564E+01  1.66127E+01  1.50631E+01  1.41018E+01  1.60719E+01  1.42443E+01  1.65289E+01  1.70340E+01  1.46145E+01  1.61431E+01
   1.64705E+01  1.57982E+01  1.72517E+01  1.57824E+01  1.68738E+01  1.59488E+01  1.70194E+01  1.65523E+01  1.56695E+01  1.61133E+01
   1.73110E+01  1.61197E+01  1.61243E+01  1.66688E+01  1.78818E+01  1.89085E+01  1.76308E+01  1.65436E+01  2.05781E+01  1.85763E+01
   1.90794E+01  1.97461E+01  1.77517E+01  1.82803E+01  1.79126E+01  1.67637E+01  1.75963E+01  2.05953E+01  1.91971E+01  1.84612E+01
   1.76062E+01  1.73091E+01  1.82361E+01  1.73768E+01  1.48090E+01  1.49255E+01  1.49841E+01  1.65077E+01  1.54487E+01  1.59081E+01
   1.53606E+01  1.48723E+01  1.49546E+01  1.34895E+01  1.31166E+01  1.52761E+01  1.40577E+01  1.29977E+01  9.05184E+00  1.12998E+01
   1.30291E+01  1.19700E+01  1.14558E+01  1.06464E+01  9.80655E+00  1.02606E+01  9.28233E+00  7.95090E+00  7.62425E+00  9.36077E+00
   6.77131E+00  8.66365E+00  7.46987E+00  5.03140E+00  5.47089E+00  3.54542E+00  5.42569E+00  4.02876E+00  4.34096E+00  3.16195E+00
   3.26256E+00  2.80880E+00  3.29871E+00  3.25062E+00  2.24846E+00 -9.05873E-01  8.38965E-01 -3.68402E-02 -1.82045E+00 -9.97302E-01
   1.36960E+00 -1.20668E+00 -1.86715E+00 -2.14234E+00 -1.42435E+00 -3.82092E+00 -3.00650E+00 -3.54290E+00 -3.96860E+00 -4.06442E+00
  -6.46001E+00 -5.64882E+00 -4.46069E+00 -4.70267E+00 -5.09880E+00 -6.54208E+00 -6.33292E+00 -6.09177E+00 -7.11732E+00 -7.76985E+00
  -8.42326E+00 -9.23019E+00 -7.93594E+00 -9.29308E+00 -5.49884E+00 -9.00285E+00 -8.81932E+00 -7.36149E+00 -8.32167E+00 -8.43950E+00
  -1.04873E+01 -8.29360E+00 -9.43979E+00 -7.32247E+00 -9.02857E+00 -1.04023E+01 -7.92308E+00 -1.06534E+01 -8.52025E+00 -8.78604E+00
  -1.10730E+01 -1.02632E+01 -1.05061E+01 -8.32351E+00 -1.07481E+01 -1.04083E+01 -8.65838E+00 -1.06476E+01 -1.07550E+01 -1.15382E+01
  -1.03913E+01 -8.16462E+00 -1.01967E+01 -9.91515E+00 -9.81368E+00 -9.50227E+00 -1.01034E+01 -1.01662E+01 -9.83624E+00 -9.18546E+00
  -9.95603E+00 -7.42384E+00 -1.02762E+01 -1.03656E+01 -8.35822E+00 -1.06417E+01 -9.74207E+00 -9.48827E+00
 NY points of the fit to the data follow
   3.22438E+00  3.19834E+00  3.17187E+00  3.14678E+00  3.11308E+00  3.10958E+00  3.07605E+00  3.13284E+00  3.11522E+00  3.23866E+00
   3.18326E+00  3.36241E+00  3.21851E+00  3.44351E+00  3.14638E+00  3.41539E+00  2.97234E+00  3.33979E+00  2.78830E+00  3.27198E+00
   2.64268E+00  3.26732E+00  2.57632E+00  3.31035E+00  2.57284E+00  3.36976E+00  2.61840E+00  3.42739E+00  2.66967E+00  3.45187E+00
   2.71603E+00  3.43001E+00  2.74505E+00  3.35959E+00  2.76370E+00  3.26893E+00  2.77952E+00  3.16061E+00  2.77639E+00  3.04508E+00
   2.77686E+00  2.98414E+00  2.84863E+00  2.98985E+00  2.97133E+00  3.05063E+00  3.08421E+00  3.07517E+00  3.03799E+00  2.95752E+00
   2.92649E+00  2.82442E+00  2.82302E+00  2.74599E+00  2.79961E+00  2.82818E+00  2.90702E+00  2.93319E+00  2.99588E+00  3.00619E+00
   3.03321E+00  3.02176E+00  3.00247E+00  2.98863E+00  2.97324E+00  2.96393E+00  2.95058E+00  2.94395E+00  2.93182E+00  2.92735E+00
   2.91677E+00  2.91350E+00  2.90438E+00  2.90112E+00  2.89365E+00  2.88907E+00  2.88314E+00  2.87625E+00  2.87161E+00  2.86189E+00
   2.85836E+00  2.84588E+00  2.84350E+00  2.82854E+00  2.82713E+00  2.81071E+00  2.81025E+00  2.79330E+00  2.79335E+00  2.77632E+00
   2.77602E+00  2.75998E+00  2.75902E+00  2.74498E+00  2.74350E+00  2.73214E+00  2.72987E+00  2.72152E+00  2.71794E+00  2.71149E+00
   2.70686E+00  2.70254E+00  2.69737E+00  2.69551E+00  2.69052E+00  2.69080E+00  2.68638E+00  2.68843E+00  2.68529E+00  2.68756E+00
   2.68513E+00  2.68822E+00  2.68700E+00  2.69126E+00  2.69152E+00  2.69709E+00  2.69963E+00  2.70799E+00  2.71302E+00  2.72339E+00
   2.73032E+00  2.74099E+00  2.74794E+00  2.75786E+00  2.76520E+00  2.77499E+00  2.78376E+00  2.79526E+00  2.80594E+00  2.81951E+00
   2.83191E+00  2.84604E+00  2.85994E+00  2.87421E+00  2.88948E+00  2.90368E+00  2.91941E+00  2.93199E+00  2.94656E+00  2.95578E+00
   2.96775E+00  2.97249E+00  2.98093E+00  2.98112E+00  2.98465E+00  2.97874E+00  2.97653E+00  2.96289E+00  2.95465E+00  2.93212E+00
   2.91828E+00  2.88806E+00  2.86884E+00  2.83200E+00  2.80494E+00  2.76097E+00  2.72318E+00  2.67003E+00  2.62321E+00  2.56549E+00
   2.51170E+00  2.45533E+00  2.39629E+00  2.34277E+00  2.27953E+00  2.22908E+00  2.16569E+00  2.11964E+00  2.05968E+00  2.01764E+00
   1.96399E+00  1.92624E+00  1.88290E+00  1.84992E+00  1.82165E+00  1.79381E+00  1.78432E+00  1.76126E+00  1.77049E+00  1.75121E+00
   1.77570E+00  1.75701E+00  1.79241E+00  1.77394E+00  1.81957E+00  1.80438E+00  1.85409E+00  1.84487E+00  1.89060E+00  1.88927E+00
   1.92931E+00  1.93661E+00  1.96877E+00  1.98249E+00  2.00440E+00  2.02326E+00  2.03305E+00  2.05553E+00  2.05454E+00  2.08201E+00
   2.07560E+00  2.10479E+00  2.09650E+00  2.12606E+00  2.12180E+00  2.15318E+00  2.15537E+00  2.18774E+00  2.19989E+00  2.23438E+00
   2.26168E+00  2.29958E+00  2.33924E+00  2.37852E+00  2.42571E+00  2.46222E+00  2.51296E+00  2.54573E+00  2.59653E+00  2.62461E+00
   2.67194E+00  2.70035E+00  2.74362E+00  2.77219E+00  2.80967E+00  2.83770E+00  2.86735E+00  2.88974E+00  2.90984E+00  2.92674E+00
   2.93852E+00  2.95226E+00  2.95895E+00  2.97469E+00  2.98296E+00  3.00252E+00  3.01979E+00  3.04796E+00  3.07794E+00  3.11827E+00
   3.16402E+00  3.21960E+00  3.28513E+00  3.37188E+00  3.49235E+00  3.60741E+00  3.79135E+00  3.92307E+00  4.17361E+00  4.28957E+00
   4.57048E+00  4.63944E+00  4.91149E+00  4.91789E+00  5.15929E+00  5.09896E+00  5.29105E+00  5.16023E+00  5.27892E+00  5.08886E+00
   5.13025E+00  4.90162E+00  4.88454E+00  4.63964E+00  4.57714E+00  4.33626E+00  4.24602E+00  4.02765E+00  3.92213E+00  3.74454E+00
   3.64538E+00  3.52478E+00  3.45473E+00  3.39527E+00  3.35752E+00  3.35761E+00  3.35122E+00  3.41475E+00  3.45513E+00  3.58653E+00
   3.69912E+00  3.89164E+00  4.09108E+00  4.28342E+00  4.46562E+00  4.63590E+00  4.79175E+00  4.93137E+00  5.05309E+00  5.15592E+00
   5.23966E+00  5.30467E+00  5.35257E+00  5.38557E+00  5.40678E+00  5.42018E+00  5.43022E+00  5.44217E+00  5.46147E+00  5.49409E+00
   5.54592E+00  5.62337E+00  5.73243E+00  5.87953E+00  6.07086E+00  6.31307E+00  6.61301E+00  6.97880E+00  7.42020E+00  7.95538E+00
   8.62917E+00  9.43069E+00  1.02027E+01  1.12060E+01  1.19102E+01  1.30069E+01  1.33550E+01  1.42960E+01  1.41272E+01  1.49474E+01
   1.43929E+01  1.51596E+01  1.43701E+01  1.51841E+01  1.43585E+01  1.51337E+01  1.44449E+01  1.50879E+01  1.46533E+01  1.51518E+01
   1.49945E+01  1.52979E+01  1.54231E+01  1.54320E+01  1.57524E+01  1.54102E+01  1.58884E+01  1.53132E+01  1.59547E+01  1.52385E+01
   1.59695E+01  1.51589E+01  1.59483E+01  1.50823E+01  1.59437E+01  1.51729E+01  1.61196E+01  1.56157E+01  1.65640E+01  1.62827E+01
   1.67968E+01  1.63346E+01  1.65451E+01  1.60661E+01  1.60683E+01  1.57663E+01  1.57549E+01  1.59433E+01  1.62196E+01  1.65400E+01
   1.68798E+01  1.72214E+01  1.75506E+01  1.78554E+01  1.81256E+01  1.83526E+01  1.85297E+01  1.86522E+01  1.87176E+01  1.87257E+01
   1.86787E+01  1.85809E+01  1.84389E+01  1.82607E+01  1.80557E+01  1.78338E+01  1.76052E+01  1.73792E+01  1.71641E+01  1.69666E+01
   1.67912E+01  1.66399E+01  1.65124E+01  1.64058E+01  1.63149E+01  1.62329E+01  1.61514E+01  1.60612E+01  1.59531E+01  1.58182E+01
   1.56486E+01  1.54381E+01  1.51822E+01  1.48787E+01  1.45278E+01  1.41318E+01  1.36951E+01  1.32238E+01  1.27254E+01  1.22085E+01
   1.16816E+01  1.11535E+01  1.06322E+01  1.01245E+01  9.63630E+00  9.17145E+00  8.73228E+00  8.31936E+00  7.93156E+00  7.56625E+00
   7.21954E+00  6.88654E+00  6.56176E+00  6.23936E+00  5.91358E+00  5.57901E+00  5.23085E+00  4.86519E+00  4.47912E+00  4.07085E+00
   3.63977E+00  3.18639E+00  2.71227E+00  2.21989E+00  1.71250E+00  1.19392E+00  6.68351E-01  1.40179E-01 -3.86221E-01 -9.06628E-01
  -1.41713E+00 -1.91422E+00 -2.39489E+00 -2.85666E+00 -3.29761E+00 -3.71635E+00 -4.11200E+00 -4.48418E+00 -4.83290E+00 -5.15852E+00
  -5.46172E+00 -5.74337E+00 -6.00452E+00 -6.24634E+00 -6.47007E+00 -6.67696E+00 -6.86829E+00 -7.04527E+00 -7.20910E+00 -7.36090E+00
  -7.50171E+00 -7.63253E+00 -7.75425E+00 -7.86771E+00 -7.97367E+00 -8.07281E+00 -8.16576E+00 -8.25308E+00 -8.33530E+00 -8.41286E+00
  -8.48618E+00 -8.55564E+00 -8.62157E+00 -8.68428E+00 -8.74403E+00 -8.80109E+00 -8.85567E+00 -8.90796E+00 -8.95817E+00 -9.00644E+00
  -9.05294E+00 -9.09779E+00 -9.14113E+00 -9.18306E+00 -9.22369E+00 -9.26312E+00 -9.30142E+00 -9.33869E+00 -9.37498E+00 -9.41037E+00
  -9.44492E+00 -9.47868E+00 -9.51171E+00 -9.54405E+00 -9.57574E+00 -9.60684E+00 -9.63737E+00 -9.66738E+00 -9.69688E+00 -9.72591E+00
  -9.75451E+00 -9.78269E+00 -9.81048E+00 -9.83790E+00 -9.86497E+00 -9.89171E+00 -9.91813E+00 -9.94426E+00
 NY background values follow
    -3.383E-01   -3.472E-01   -3.561E-01   -3.650E-01   -3.741E-01   -3.832E-01   -3.924E-01   -4.016E-01   -4.109E-01   -4.203E-01
    -4.297E-01   -4.393E-01   -4.488E-01   -4.585E-01   -4.682E-01   -4.779E-01   -4.878E-01   -4.977E-01   -5.076E-01   -5.177E-01
    -5.277E-01   -5.379E-01   -5.481E-01   -5.584E-01   -5.688E-01   -5.792E-01   -5.897E-01   -6.002E-01   -6.108E-01   -6.215E-01
    -6.322E-01   -6.430E-01   -6.539E-01   -6.648E-01   -6.758E-01   -6.869E-01   -6.980E-01   -7.092E-01   -7.205E-01   -7.318E-01
    -7.432E-01   -7.546E-01   -7.661E-01   -7.777E-01   -7.893E-01   -8.010E-01   -8.128E-01   -8.246E-01   -8.365E-01   -8.485E-01
    -8.605E-01   -8.726E-01   -8.847E-01   -8.969E-01   -9.092E-01   -9.215E-01   -9.339E-01   -9.464E-01   -9.589E-01   -9.715E-01
    -9.842E-01   -9.969E-01   -1.010E+00   -1.022E+00   -1.035E+00   -1.048E+00   -1.061E+00   -1.074E+00   -1.088E+00   -1.101E+00
    -1.114E+00   -1.127E+00   -1.141E+00   -1.154E+00   -1.168E+00   -1.181E+00   -1.195E+00   -1.209E+00   -1.223E+00   -1.236E+00
    -1.250E+00   -1.264E+00   -1.278E+00   -1.292E+00   -1.307E+00   -1.321E+00   -1.335E+00   -1.349E+00   -1.364E+00   -1.378E+00
    -1.393E+00   -1.407E+00   -1.422E+00   -1.437E+00   -1.452E+00   -1.466E+00   -1.481E+00   -1.496E+00   -1.511E+00   -1.526E+00
    -1.542E+00   -1.557E+00   -1.572E+00   -1.587E+00   -1.603E+00   -1.618E+00   -1.634E+00   -1.649E+00   -1.665E+00   -1.681E+00
    -1.696E+00   -1.712E+00   -1.728E+00   -1.744E+00   -1.760E+00   -1.776E+00   -1.792E+00   -1.809E+00   -1.825E+00   -1.841E+00
    -1.858E+00   -1.874E+00   -1.891E+00   -1.907E+00   -1.924E+00   -1.940E+00   -1.957E+00   -1.974E+00   -1.991E+00   -2.008E+00
    -2.025E+00   -2.042E+00   -2.059E+00   -2.076E+00   -2.094E+00   -2.111E+00   -2.128E+00   -2.146E+00   -2.163E+00   -2.181E+00
    -2.198E+00   -2.216E+00   -2.234E+00   -2.252E+00   -2.270E+00   -2.288E+00   -2.306E+00   -2.324E+00   -2.342E+00   -2.360E+00
    -2.378E+00   -2.397E+00   -2.415E+00   -2.434E+00   -2.452E+00   -2.471E+00   -2.489E+00   -2.508E+00   -2.527E+00   -2.546E+00
    -2.564E+00   -2.583E+00   -2.602E+00   -2.622E+00   -2.641E+00   -2.660E+00   -2.679E+00   -2.698E+00   -2.718E+00   -2.737E+00
    -2.757E+00   -2.776E+00   -2.796E+00   -2.816E+00   -2.836E+00   -2.855E+00   -2.875E+00   -2.895E+00   -2.915E+00   -2.935E+00
    -2.956E+00   -2.976E+00   -2.996E+00   -3.017E+00   -3.037E+00   -3.057E+00   -3.078E+00   -3.099E+00   -3.119E+00   -3.140E+00
    -3.161E+00   -3.182E+00   -3.203E+00   -3.224E+00   -3.245E+00   -3.266E+00   -3.287E+00   -3.308E+00   -3.329E+00   -3.351E+00
    -3.372E+00   -3.394E+00   -3.415E+00   -3.437E+00   -3.459E+00   -3.480E+00   -3.502E+00   -3.524E+00   -3.546E+00   -3.568E+00
    -3.590E+00   -3.612E+00   -3.634E+00   -3.657E+00   -3.679E+00   -3.701E+00   -3.724E+00   -3.746E+00   -3.769E+00   -3.791E+00
    -3.814E+00   -3.837E+00   -3.860E+00   -3.882E+00   -3.905E+00   -3.928E+00   -3.951E+00   -3.974E+00   -3.997E+00   -4.021E+00
    -4.044E+00   -4.067E+00   -4.091E+00   -4.114E+00   -4.137E+00   -4.161E+00   -4.184E+00   -4.208E+00   -4.232E+00   -4.255E+00
    -4.279E+00   -4.303E+00   -4.327E+00   -4.351E+00   -4.375E+00   -4.399E+00   -4.423E+00   -4.447E+00   -4.471E+00   -4.495E+00
    -4.519E+00   -4.544E+00   -4.568E+00   -4.593E+00   -4.617E+00   -4.641E+00   -4.666E+00   -4.691E+00   -4.715E+00   -4.740E+00
    -4.765E+00   -4.789E+00   -4.814E+00   -4.839E+00   -4.864E+00   -4.889E+00   -4.914E+00   -4.939E+00   -4.964E+00   -4.989E+00
    -5.014E+00   -5.039E+00   -5.064E+00   -5.090E+00   -5.115E+00   -5.140E+00   -5.166E+00   -5.191E+00   -5.217E+00   -5.242E+00
    -5.267E+00   -5.293E+00   -5.319E+00   -5.344E+00   -5.370E+00   -5.396E+00   -5.421E+00   -5.447E+00   -5.473E+00   -5.499E+00
    -5.524E+00   -5.550E+00   -5.576E+00   -5.602E+00   -5.628E+00   -5.654E+00   -5.680E+00   -5.706E+00   -5.732E+00   -5.758E+00
    -5.785E+00   -5.811E+00   -5.837E+00   -5.863E+00   -5.889E+00   -5.916E+00   -5.942E+00   -5.968E+00   -5.995E+00   -6.021E+00
    -6.047E+00   -6.074E+00   -6.100E+00   -6.127E+00   -6.153E+00   -6.180E+00   -6.206E+00   -6.233E+00   -6.259E+00   -6.286E+00
    -6.312E+00   -6.339E+00   -6.366E+00   -6.392E+00   -6.419E+00   -6.446E+00   -6.472E+00   -6.499E+00   -6.526E+00   -6.553E+00
    -6.579E+00   -6.606E+00   -6.633E+00   -6.660E+00   -6.687E+00   -6.714E+00   -6.740E+00   -6.767E+00   -6.794E+00   -6.821E+00
    -6.848E+00   -6.875E+00   -6.902E+00   -6.929E+00   -6.956E+00   -6.983E+00   -7.010E+00   -7.037E+00   -7.064E+00   -7.091E+00
    -7.118E+00   -7.145E+00   -7.172E+00   -7.199E+00   -7.226E+00   -7.253E+00   -7.280E+00   -7.307E+00   -7.335E+00   -7.362E+00
    -7.389E+00   -7.416E+00   -7.443E+00   -7.470E+00   -7.497E+00   -7.524E+00   -7.552E+00   -7.579E+00   -7.606E+00   -7.633E+00
    -7.660E+00   -7.687E+00   -7.714E+00   -7.741E+00   -7.769E+00   -7.796E+00   -7.823E+00   -7.850E+00   -7.877E+00   -7.904E+00
    -7.931E+00   -7.958E+00   -7.986E+00   -8.013E+00   -8.040E+00   -8.067E+00   -8.094E+00   -8.121E+00   -8.148E+00   -8.175E+00
    -8.202E+00   -8.229E+00   -8.256E+00   -8.284E+00   -8.311E+00   -8.338E+00   -8.365E+00   -8.392E+00   -8.419E+00   -8.446E+00
    -8.473E+00   -8.500E+00   -8.527E+00   -8.554E+00   -8.580E+00   -8.607E+00   -8.634E+00   -8.661E+00   -8.688E+00   -8.715E+00
    -8.742E+00   -8.769E+00   -8.795E+00   -8.822E+00   -8.849E+00   -8.876E+00   -8.902E+00   -8.929E+00   -8.956E+00   -8.983E+00
    -9.009E+00   -9.036E+00   -9.062E+00   -9.089E+00   -9.116E+00   -9.142E+00   -9.169E+00   -9.195E+00   -9.222E+00   -9.248E+00
    -9.274E+00   -9.301E+00   -9.327E+00   -9.354E+00   -9.380E+00   -9.406E+00   -9.432E+00   -9.459E+00   -9.485E+00   -9.511E+00
    -9.537E+00   -9.563E+00   -9.589E+00   -9.615E+00   -9.641E+00   -9.667E+00   -9.693E+00   -9.719E+00   -9.745E+00   -9.770E+00
    -9.796E+00   -9.822E+00   -9.848E+00   -9.873E+00   -9.899E+00   -9.924E+00   -9.950E+00   -9.975E+00   -1.000E+01   -1.003E+01
    -1.005E+01   -1.008E+01   -1.010E+01   -1.013E+01   -1.015E+01   -1.018E+01   -1.020E+01   -1.023E+01   -1.025E+01   -1.028E+01
    -1.030E+01   -1.033E+01   -1.035E+01   -1.038E+01   -1.040E+01   -1.043E+01   -1.045E+01   -1.048E+01   -1.050E+01   -1.052E+01
    -1.055E+01   -1.057E+01   -1.060E+01   -1.062E+01   -1.065E+01   -1.067E+01   -1.069E+01   -1.072E+01   -1.074E+01   -1.077E+01
    -1.079E+01   -1.081E+01   -1.084E+01   -1.086E+01   -1.088E+01   -1.091E+01   -1.093E+01   -1.096E+01
 Ala      Conc. = 2.08E+03
