 LCModel (Version 6.3-1L) Copyright: S.W. Provencher.          Ref.: Magn. Reson. Med. 30:672-679 (1993).                
 Slice#1 Row#10 Col#12  K_02_press_1_raw_act
 36 lines in following concentration table = NCONC+1
    Conc.  %SD /Cr+PCr  Metabolite                                         
  106.653  41%   0.358 Ala                                                 
    0.000 999%   0.000 Asp                                                 
    0.000 999%   0.000 Cr                                                  
  297.512   9%   1.000 PCr                                                 
   67.244  85%   0.226 GABA                                                
   63.733  95%   0.214 Glc                                                 
   95.421  88%   0.321 Gln                                                 
  754.359  15%   2.536 Glu                                                 
    0.000 999%   0.000 GPC                                                 
   82.220  11%   0.276 PCh                                                 
   38.087  82%   0.128 GSH                                                 
  233.794  42%   0.786 Ins                                                 
  104.393  45%   0.351 Lac                                                 
 1.27E+03   7%   4.276 NAA                                                 
  363.052  21%   1.220 NAAG                                                
   18.924  61% 6.4E-02 Scyllo                                              
  176.898  45%   0.595 Tau                                                 
  182.846  22%   0.615 -CrCH2                                              
   82.220  11%   0.276 GPC+PCh                                             
 1.64E+03   3%   5.496 NAA+NAAG                                            
  297.512   9%   1.000 Cr+PCr                                              
  849.780  16%   2.856 Glu+Gln                                             
 4.01E+03   9%  13.476 Lip13a                                              
    0.000 999%   0.000 Lip13b                                              
  859.032  24%   2.887 Lip09                                               
  690.803  21%   2.322 MM09                                                
 1.27E+03  11%   4.281 Lip20                                               
  835.405  26%   2.808 MM20                                                
  175.238  79%   0.589 MM12                                                
  716.278  28%   2.408 MM14                                                
  230.618  42%   0.775 MM17                                                
 4.01E+03   9%  13.476 Lip13a+Lip13b                                       
 4.90E+03   4%  16.473 MM14+Lip13a+Lip13b+MM12                             
 1.55E+03   8%   5.209 MM09+Lip09                                          
 2.11E+03   9%   7.089 MM20+Lip20                                          
   6 lines in following misc. output table
  FWHM = 0.038 ppm    S/N =  17                                            
  Data shift =-0.008 ppm                                                   
  Ph:  66 deg      20.9 deg/ppm                                            
  alphaB,S = 8.5E+01,   9.4E+00                                            
   14 spline knots.   Ns = 6(1)                                            
   2 inflections.     1 extrema                                            
  498 points on ppm-axis = NY
      4.000000     3.992357     3.984714     3.977070     3.969427     3.961784     3.954141     3.946497     3.938854     3.931211
      3.923568     3.915925     3.908281     3.900638     3.892995     3.885352     3.877708     3.870065     3.862422     3.854779
      3.847136     3.839492     3.831849     3.824206     3.816563     3.808919     3.801276     3.793633     3.785990     3.778347
      3.770703     3.763060     3.755417     3.747774     3.740130     3.732487     3.724844     3.717201     3.709558     3.701914
      3.694271     3.686628     3.678985     3.671341     3.663698     3.656055     3.648412     3.640769     3.633125     3.625482
      3.617839     3.610196     3.602552     3.594909     3.587266     3.579623     3.571980     3.564336     3.556693     3.549050
      3.541407     3.533763     3.526120     3.518477     3.510834     3.503191     3.495547     3.487904     3.480261     3.472618
      3.464974     3.457331     3.449688     3.442045     3.434402     3.426758     3.419115     3.411472     3.403829     3.396185
      3.388542     3.380899     3.373256     3.365613     3.357969     3.350326     3.342683     3.335040     3.327396     3.319753
      3.312110     3.304467     3.296824     3.289180     3.281537     3.273894     3.266251     3.258607     3.250964     3.243321
      3.235678     3.228034     3.220391     3.212748     3.205105     3.197462     3.189818     3.182175     3.174532     3.166889
      3.159245     3.151602     3.143959     3.136316     3.128673     3.121029     3.113386     3.105743     3.098100     3.090456
      3.082813     3.075170     3.067527     3.059884     3.052240     3.044597     3.036954     3.029311     3.021667     3.014024
      3.006381     2.998738     2.991095     2.983451     2.975808     2.968165     2.960522     2.952878     2.945235     2.937592
      2.929949     2.922306     2.914662     2.907019     2.899376     2.891733     2.884089     2.876446     2.868803     2.861160
      2.853517     2.845873     2.838230     2.830587     2.822944     2.815300     2.807657     2.800014     2.792371     2.784728
      2.777084     2.769441     2.761798     2.754155     2.746511     2.738868     2.731225     2.723582     2.715939     2.708295
      2.700652     2.693009     2.685366     2.677722     2.670079     2.662436     2.654793     2.647150     2.639506     2.631863
      2.624220     2.616577     2.608933     2.601290     2.593647     2.586004     2.578361     2.570717     2.563074     2.555431
      2.547788     2.540144     2.532501     2.524858     2.517215     2.509572     2.501928     2.494285     2.486642     2.478999
      2.471355     2.463712     2.456069     2.448426     2.440783     2.433139     2.425496     2.417853     2.410210     2.402566
      2.394923     2.387280     2.379637     2.371994     2.364350     2.356707     2.349064     2.341421     2.333777     2.326134
      2.318491     2.310848     2.303205     2.295561     2.287918     2.280275     2.272632     2.264988     2.257345     2.249702
      2.242059     2.234416     2.226772     2.219129     2.211486     2.203843     2.196199     2.188556     2.180913     2.173270
      2.165627     2.157983     2.150340     2.142697     2.135054     2.127410     2.119767     2.112124     2.104481     2.096838
      2.089194     2.081551     2.073908     2.066265     2.058621     2.050978     2.043335     2.035692     2.028049     2.020405
      2.012762     2.005119     1.997476     1.989833     1.982190     1.974546     1.966903     1.959260     1.951617     1.943974
      1.936331     1.928688     1.921045     1.913402     1.905759     1.898115     1.890472     1.882829     1.875186     1.867543
      1.859900     1.852257     1.844614     1.836971     1.829327     1.821684     1.814041     1.806398     1.798755     1.791112
      1.783469     1.775826     1.768183     1.760540     1.752896     1.745253     1.737610     1.729967     1.722324     1.714681
      1.707038     1.699395     1.691752     1.684108     1.676465     1.668822     1.661179     1.653536     1.645893     1.638250
      1.630607     1.622964     1.615321     1.607677     1.600034     1.592391     1.584748     1.577105     1.569462     1.561819
      1.554176     1.546533     1.538890     1.531246     1.523603     1.515960     1.508317     1.500674     1.493031     1.485388
      1.477745     1.470102     1.462458     1.454815     1.447172     1.439529     1.431886     1.424243     1.416600     1.408957
      1.401314     1.393671     1.386027     1.378384     1.370741     1.363098     1.355455     1.347812     1.340169     1.332526
      1.324883     1.317240     1.309596     1.301953     1.294310     1.286667     1.279024     1.271381     1.263738     1.256095
      1.248452     1.240808     1.233165     1.225522     1.217879     1.210236     1.202593     1.194950     1.187307     1.179664
      1.172021     1.164377     1.156734     1.149091     1.141448     1.133805     1.126162     1.118519     1.110876     1.103233
      1.095590     1.087946     1.080303     1.072660     1.065017     1.057374     1.049731     1.042088     1.034445     1.026802
      1.019158     1.011515     1.003872     0.996229     0.988586     0.980943     0.973300     0.965657     0.958014     0.950371
      0.942727     0.935084     0.927441     0.919798     0.912155     0.904512     0.896869     0.889226     0.881583     0.873940
      0.866296     0.858653     0.851010     0.843367     0.835724     0.828081     0.820438     0.812795     0.805152     0.797508
      0.789865     0.782222     0.774579     0.766936     0.759293     0.751650     0.744007     0.736364     0.728721     0.721077
      0.713434     0.705791     0.698148     0.690505     0.682862     0.675219     0.667576     0.659933     0.652290     0.644646
      0.637003     0.629360     0.621717     0.614074     0.606431     0.598788     0.591145     0.583502     0.575858     0.568215
      0.560572     0.552929     0.545286     0.537643     0.530000     0.522357     0.514714     0.507071     0.499427     0.491784
      0.484141     0.476498     0.468855     0.461212     0.453569     0.445925     0.438282     0.430639     0.422996     0.415353
      0.407710     0.400067     0.392424     0.384780     0.377137     0.369494     0.361851     0.354208     0.346565     0.338922
      0.331278     0.323635     0.315992     0.308349     0.300706     0.293063     0.285420     0.277777     0.270133     0.262490
      0.254847     0.247204     0.239561     0.231918     0.224275     0.216631     0.208988     0.201345
 NY phased data points follow
  -1.45703E+00 -2.97652E+00  1.55046E-01 -4.15165E-01  7.43118E-01 -1.46554E+00 -1.28167E+00 -5.62455E-01 -7.42078E-01 -1.54270E+00
  -1.43174E+00  2.28792E-01 -2.40170E-01 -1.30958E-01  5.50438E-01 -4.98127E-01 -1.06613E+00 -9.78197E-01 -1.98769E+00 -1.94845E+00
  -1.76401E+00 -3.02410E+00 -8.02365E-01 -3.21197E+00 -1.17360E+00 -8.20184E-01 -7.70274E-01 -4.44717E+00 -2.49559E+00 -2.17358E-01
  -2.19934E+00 -2.20448E+00 -1.12717E+00 -2.07850E+00 -2.95157E+00 -1.05967E+00 -6.83380E-01 -1.71768E+00 -7.28175E-01 -5.35562E+00
  -4.73977E-01 -1.39746E+00 -1.55190E-01 -2.57099E+00 -2.61083E+00  1.81184E-01  2.04006E-01 -1.14041E+00  3.59077E-01 -8.60194E-01
   1.26178E+00 -9.69542E-02 -1.70092E+00 -1.05762E+00  1.54658E-01 -1.69827E+00 -2.53555E+00  3.08575E+00 -3.20923E+00  1.68064E+00
   4.11013E+00 -6.83904E-01 -8.61257E-01  9.13793E-01 -2.92386E+00 -1.21561E+00 -1.63589E+00 -2.49446E+00 -2.87897E+00  2.63523E-01
  -1.61456E+00 -2.62701E-02 -1.69342E+00  1.08847E+00 -8.68459E-01 -1.06482E+00 -3.14827E+00 -6.03973E-01  4.36665E-01 -2.03471E+00
   3.01758E+00 -3.98722E+00 -2.67904E+00  2.66159E-02 -3.39079E-01 -1.59878E-01 -1.47602E+00  2.64550E-01 -9.92099E-01 -1.71878E+00
  -3.10564E-01 -6.41042E-02  7.93761E-01 -5.32996E-01 -2.79437E-01 -4.61966E+00 -1.36912E+00 -4.38950E+00  1.71870E+00  9.53244E-02
   2.70626E+00  3.07160E+00  4.19158E+00  6.39510E+00  7.36408E+00  1.06855E+01  7.76826E+00  1.71306E+00  2.42132E+00  1.10072E+00
  -1.13301E+00  8.10537E-01  7.72688E-01  5.02492E-01 -2.54778E-01  2.51096E+00 -3.70944E+00  6.50829E-01  9.18689E-02  4.21809E-01
   4.65178E-01  3.24944E-01 -1.66744E+00  1.80833E+00  5.12173E-02  2.32487E+00  3.79891E+00  1.01431E+01  1.38952E+01  1.23544E+01
   9.10889E+00  7.80799E+00  4.66240E+00  2.02117E+00  3.18284E+00  3.03779E+00  1.17028E+00 -1.38042E+00  1.12401E+00 -1.19943E+00
   3.04349E+00  2.45064E+00  9.70843E-01 -2.68894E+00  1.62180E+00  2.09432E+00  1.47692E+00  1.20507E+00  1.64363E+00  8.38095E-01
   2.77430E+00  5.05242E-01  3.82302E+00  1.17497E+00  1.60060E+00  2.02604E+00  4.86104E-01  1.55447E+00  4.04781E+00  1.72099E+00
   2.80120E+00  2.62078E+00  2.01609E+00  2.92900E+00  9.17097E-01  3.10560E+00 -2.28646E+00 -1.73976E+00 -7.12774E-01 -2.91013E+00
  -1.65741E+00 -4.19487E+00 -4.03064E+00 -5.32130E+00 -4.17471E+00 -3.73738E+00 -6.40778E+00 -4.30702E+00 -4.26221E+00 -3.68815E+00
  -3.19333E+00 -5.57192E+00 -2.72897E+00 -6.01842E+00 -4.05095E+00 -2.78527E+00 -3.10903E+00 -4.43129E+00 -4.50225E+00 -1.56016E+00
  -1.48845E+00 -2.75895E+00 -3.17829E+00 -2.31841E-01 -2.67587E+00 -5.04600E+00 -3.67315E+00 -5.66725E+00 -3.51134E+00 -4.38156E+00
  -9.43279E+00 -3.10218E+00 -1.75881E+00 -1.57070E-01 -4.49518E-01  2.56476E+00  2.32474E+00 -1.40369E+00 -6.61419E-01 -2.00812E+00
  -4.47161E+00 -2.30808E+00  2.26417E+00  1.02822E+00  5.11874E+00  6.74096E+00  9.42374E+00  9.84134E+00  5.18697E+00  1.20968E+00
  -1.15455E+00 -7.35236E-01 -2.10013E+00 -3.05693E+00 -2.47638E+00  3.51617E-01  3.44829E+00  7.55545E+00  3.06852E+00  4.54973E+00
   2.50005E+00  3.39896E+00  4.56962E+00  5.80725E+00  2.41835E+00  4.66182E+00  6.78539E+00  5.75625E+00  4.76597E+00  3.63811E+00
   5.79896E+00  1.16799E+00  1.43808E+00  2.60486E+00  3.04174E+00  4.42477E+00  8.96079E+00  8.16675E+00  7.79356E+00  7.95611E+00
   1.01616E+01  1.21408E+01  1.51929E+01  2.08771E+01  2.49745E+01  2.80438E+01  3.43828E+01  4.50021E+01  5.69608E+01  6.83092E+01
   6.86798E+01  6.31841E+01  5.29792E+01  3.46486E+01  2.45646E+01  1.32228E+01  5.77003E+00  5.13387E+00  4.29693E+00  9.86079E-01
   2.31997E+00  6.51853E-01 -2.22214E-01  3.36122E+00 -4.01770E-01  3.18130E+00  4.11244E+00  2.21222E+00  2.29418E+00  1.90542E+00
  -1.00549E+00  7.14263E-01  2.41157E+00 -4.13453E-01  2.32452E+00  1.80308E+00  1.42008E+00  5.49655E+00  5.13684E-01  2.96674E+00
   2.98613E+00  1.55745E+00  8.63596E-01  1.38214E+00  1.13956E+00 -1.93597E-01 -1.87724E-01  7.35141E-01  9.32122E-01  7.59625E-01
   4.06132E+00 -3.62686E-01  1.49047E+00  3.69115E+00  2.42573E+00  3.84034E+00  3.32262E+00  3.29286E+00  2.41024E+00  5.51817E+00
   2.33359E+00  6.10630E+00  2.27049E+00  2.20874E+00  1.80477E+00  8.33745E-01  2.41994E+00  1.31185E+00  4.91648E+00  3.50141E+00
   2.49740E+00  5.79438E+00  6.00511E+00  6.96473E+00  6.72351E+00  4.11911E+00  4.94119E+00  7.10541E+00  4.71733E+00  2.71239E+00
   4.52280E+00  7.03370E+00  7.08238E+00  6.49177E+00  7.23027E+00  9.15644E+00  8.26942E+00  1.16004E+01  1.55730E+01  1.26651E+01
   1.46789E+01  1.54355E+01  1.32090E+01  1.65897E+01  1.81638E+01  1.75712E+01  1.55923E+01  1.62358E+01  1.63051E+01  1.75231E+01
   1.52509E+01  1.54393E+01  1.67092E+01  1.80095E+01  1.41559E+01  1.92557E+01  1.65225E+01  1.87206E+01  1.86592E+01  1.91377E+01
   1.62551E+01  1.60273E+01  1.66047E+01  1.72686E+01  1.50982E+01  1.66744E+01  1.37206E+01  1.29849E+01  1.49428E+01  1.17356E+01
   1.06487E+01  1.39688E+01  7.35057E+00  1.00753E+01  1.00729E+01  8.84425E+00  8.26194E+00  9.12897E+00  6.80458E+00  6.68159E+00
   6.87317E+00  8.70682E+00  8.22593E+00  8.54012E+00  7.42515E+00  6.31295E+00  7.31554E+00  6.35211E+00  8.39146E+00  9.81345E+00
   1.18999E+01  1.30176E+01  1.00339E+01  1.24188E+01  1.27442E+01  6.89375E+00  1.28882E+01  1.43775E+01  1.42436E+01  1.09498E+01
   1.10643E+01  1.05235E+01  8.81720E+00  1.24650E+01  1.24375E+01  1.08896E+01  1.04460E+01  1.05979E+01  8.83912E+00  1.00485E+01
   8.76988E+00  6.86631E+00  7.91849E+00  8.10948E+00  7.13686E+00  7.08849E+00  5.28290E+00  5.04881E+00  7.94095E+00  3.19992E+00
   3.36061E+00  6.38820E+00  4.43413E+00  3.37937E+00  4.52848E+00  5.73144E+00  3.61017E+00  7.69925E+00  3.25231E+00  3.72810E+00
   4.23289E+00  8.00599E-01  4.53475E+00  3.73316E+00  2.53155E+00  5.34715E+00  2.68495E+00  2.56756E+00  4.07829E+00  3.27039E+00
   3.31147E+00  2.82303E+00  2.23233E+00  2.40100E+00  5.57105E+00  5.30325E+00  1.99145E+00  3.16796E+00  4.71439E+00  3.73013E+00
   1.81915E+00  1.88580E+00  1.73957E+00  3.55347E+00  3.59488E+00  2.22237E+00  4.14869E+00  1.28003E+00  1.73985E+00  2.18067E+00
   6.44429E-01  2.20766E+00  7.25210E-01  4.40314E-01  4.49783E+00  3.43873E+00 -3.15370E-01  1.07085E+00  1.41588E+00  2.08311E-01
   2.42383E+00  2.79039E+00  2.27876E+00  3.18302E+00  5.39395E-01  1.87411E+00  1.70971E+00  1.10252E+00  2.17791E-01  1.29887E+00
   1.43556E+00  2.17185E+00  2.07583E+00  8.76832E-01  1.27148E+00  1.11928E+00  2.24481E+00  2.28362E+00  2.76946E+00  1.48551E+00
   6.85333E-01  1.48612E+00 -3.14550E-01  6.30844E-02  5.50495E-01 -1.26143E+00  7.73321E-01 -9.37829E-01
 NY points of the fit to the data follow
  -2.12585E+00 -2.19879E+00 -2.21743E+00 -2.29782E+00 -2.00806E+00 -1.90366E+00 -2.23017E+00 -1.97846E+00 -1.45491E+00 -4.13821E-01
   7.09751E-01  1.11783E+00  1.24640E+00  5.35156E-01 -5.78443E-01 -1.23369E+00 -1.97780E+00 -2.30847E+00 -2.18266E+00 -1.96624E+00
  -1.73522E+00 -1.43958E+00 -1.22204E+00 -8.95843E-01 -6.74996E-01 -8.70763E-01 -1.26736E+00 -1.81204E+00 -2.23719E+00 -2.20558E+00
  -1.75385E+00 -6.17848E-01  5.51693E-01  1.25036E+00  1.45027E+00  6.97909E-01 -6.11967E-01 -1.86752E+00 -2.75469E+00 -2.93905E+00
  -2.66746E+00 -2.09047E+00 -1.49500E+00 -1.22190E+00 -9.55658E-01 -5.54347E-01 -1.06903E-01  2.70072E-01  3.11620E-01 -7.28848E-03
  -6.30447E-01 -1.34436E+00 -1.85011E+00 -2.08389E+00 -2.10504E+00 -1.95737E+00 -1.75540E+00 -1.55027E+00 -1.29760E+00 -1.05334E+00
  -8.73991E-01 -7.92372E-01 -9.11766E-01 -1.05518E+00 -1.21141E+00 -1.31134E+00 -1.25291E+00 -1.20502E+00 -1.14443E+00 -1.04954E+00
  -1.00262E+00 -9.47119E-01 -8.12173E-01 -5.42252E-01 -1.96666E-01  1.47614E-02 -1.15271E-02 -2.85744E-01 -7.99067E-01 -1.30103E+00
  -1.48553E+00 -1.52068E+00 -1.33614E+00 -8.73360E-01 -4.13972E-01 -1.21762E-01 -1.18587E-01 -4.07255E-01 -8.19458E-01 -1.22637E+00
  -1.44081E+00 -1.52030E+00 -1.60097E+00 -1.63741E+00 -1.73957E+00 -1.73518E+00 -1.49563E+00 -9.55857E-01 -9.37998E-02  1.70380E-01
   1.10388E+00  2.96051E+00  5.25061E+00  7.63900E+00  8.63806E+00  8.18260E+00  6.56217E+00  3.85658E+00  1.72855E+00  1.25583E-01
  -9.27503E-01 -1.16099E+00 -1.15592E+00 -1.19607E+00 -1.24515E+00 -1.24296E+00 -1.23964E+00 -1.25521E+00 -1.25808E+00 -1.24765E+00
  -1.18575E+00 -9.34006E-01 -2.88128E-01 -1.44404E-02  9.30427E-01  3.32350E+00  6.49043E+00  9.84844E+00  1.17023E+01  1.15547E+01
   9.83351E+00  6.54742E+00  3.60475E+00  1.46807E+00 -1.46301E-01 -6.56840E-01 -6.68021E-01 -6.45145E-01 -4.61706E-01 -1.97277E-01
   1.27937E-01  4.53560E-01  6.85648E-01  8.65788E-01  9.95625E-01  1.09243E+00  1.20878E+00  1.33538E+00  1.45620E+00  1.59767E+00
   1.72037E+00  1.77419E+00  1.78225E+00  1.75255E+00  1.67429E+00  1.72998E+00  1.91092E+00  1.91575E+00  1.71271E+00  1.16920E+00
   5.33745E-01  3.13628E-01  3.18036E-01  5.86769E-01  7.60135E-01  4.80935E-01 -3.07160E-02 -8.53504E-01 -1.70736E+00 -2.25328E+00
  -2.59515E+00 -2.60086E+00 -2.79537E+00 -3.23732E+00 -3.78300E+00 -4.15774E+00 -3.98035E+00 -3.74771E+00 -3.48120E+00 -3.35028E+00
  -3.59669E+00 -3.65714E+00 -3.51955E+00 -3.48392E+00 -3.26773E+00 -3.01575E+00 -2.53610E+00 -1.83365E+00 -1.05950E+00 -1.60382E-01
   6.02816E-01  8.62865E-01  8.83442E-01  7.99505E-01  5.50187E-01  3.00168E-01  5.57529E-02 -1.72079E-01 -4.02307E-01 -4.81124E-01
  -2.12544E-01  3.50792E-01  1.00554E+00  1.58710E+00  1.75579E+00  1.53111E+00  6.25164E-01 -5.65215E-01 -1.66718E+00 -2.87885E+00
  -3.44034E+00 -3.53107E+00 -2.88212E+00 -8.55052E-01  1.51731E+00  3.81886E+00  5.14732E+00  4.95259E+00  3.87109E+00  1.63221E+00
  -9.93843E-01 -2.85545E+00 -3.67913E+00 -2.86888E+00 -8.61346E-01  1.53084E+00  3.86376E+00  5.40245E+00  5.98641E+00  5.91236E+00
   5.24101E+00  4.60762E+00  4.29594E+00  4.24760E+00  4.44289E+00  4.67365E+00  4.86097E+00  4.88216E+00  4.78095E+00  4.43615E+00
   3.93341E+00  3.55578E+00  3.51883E+00  3.99909E+00  4.89903E+00  6.01635E+00  7.21011E+00  8.12126E+00  8.69285E+00  9.26911E+00
   1.01015E+01  1.04416E+01  1.25034E+01  1.74456E+01  2.46879E+01  2.85765E+01  3.53099E+01  4.54903E+01  5.66839E+01  6.65247E+01
   6.86636E+01  6.36492E+01  5.22566E+01  3.56797E+01  2.36548E+01  1.39468E+01  7.35448E+00  5.82239E+00  5.18953E+00  4.35849E+00
   3.62909E+00  3.15971E+00  2.92423E+00  2.82440E+00  2.76272E+00  2.66128E+00  2.47746E+00  2.19613E+00  1.87533E+00  1.58085E+00
   1.35556E+00  1.21804E+00  1.17022E+00  1.17615E+00  1.20630E+00  1.23547E+00  1.24802E+00  1.23828E+00  1.21824E+00  1.20669E+00
   1.24024E+00  1.32301E+00  1.42253E+00  1.53224E+00  1.64369E+00  1.71965E+00  1.77547E+00  1.81834E+00  1.85137E+00  1.90615E+00
   1.98210E+00  2.07543E+00  2.18453E+00  2.28743E+00  2.38250E+00  2.46661E+00  2.53332E+00  2.59164E+00  2.64524E+00  2.69650E+00
   2.74806E+00  2.80328E+00  2.86372E+00  2.93259E+00  3.01257E+00  3.10773E+00  3.22189E+00  3.36046E+00  3.52789E+00  3.73240E+00
   3.98902E+00  4.31702E+00  4.61133E+00  5.00875E+00  5.61755E+00  6.17987E+00  6.57475E+00  6.60630E+00  6.30433E+00  5.99198E+00
   5.67667E+00  5.52397E+00  5.86754E+00  6.59164E+00  7.81124E+00  9.28533E+00  1.05913E+01  1.17185E+01  1.25049E+01  1.29678E+01
   1.34226E+01  1.38466E+01  1.42485E+01  1.48816E+01  1.57225E+01  1.64857E+01  1.70402E+01  1.71634E+01  1.69161E+01  1.66061E+01
   1.61067E+01  1.58395E+01  1.60178E+01  1.64979E+01  1.73807E+01  1.82494E+01  1.88148E+01  1.90674E+01  1.88326E+01  1.83540E+01
   1.77643E+01  1.70699E+01  1.64379E+01  1.58564E+01  1.52583E+01  1.46457E+01  1.40246E+01  1.34026E+01  1.27864E+01  1.21835E+01
   1.16003E+01  1.10436E+01  1.05188E+01  1.00314E+01  9.58545E+00  9.18499E+00  8.83274E+00  8.53190E+00  8.28430E+00  8.09214E+00
   7.95609E+00  7.87717E+00  7.85507E+00  7.88973E+00  7.97939E+00  8.12209E+00  8.31386E+00  8.55045E+00  8.82563E+00  9.13281E+00
   9.46329E+00  9.80805E+00  1.01564E+01  1.04981E+01  1.08218E+01  1.11176E+01  1.13752E+01  1.15861E+01  1.17425E+01  1.18394E+01
   1.18732E+01  1.18427E+01  1.17483E+01  1.15929E+01  1.13805E+01  1.11171E+01  1.08093E+01  1.04649E+01  1.00912E+01  9.69613E+00
   9.28674E+00  8.87029E+00  8.45248E+00  8.03886E+00  7.63332E+00  7.23969E+00  6.86033E+00  6.49765E+00  6.15258E+00  5.82615E+00
   5.51825E+00  5.22920E+00  4.95841E+00  4.70578E+00  4.47023E+00  4.25127E+00  4.04766E+00  3.85894E+00  3.68392E+00  3.52210E+00
   3.37218E+00  3.23360E+00  3.10518E+00  2.98659E+00  2.87677E+00  2.77537E+00  2.68130E+00  2.59426E+00  2.51337E+00  2.43853E+00
   2.36895E+00  2.30448E+00  2.24430E+00  2.18837E+00  2.13608E+00  2.08753E+00  2.04209E+00  1.99976E+00  1.95994E+00  1.92277E+00
   1.88780E+00  1.85523E+00  1.82453E+00  1.79581E+00  1.76859E+00  1.74314E+00  1.71909E+00  1.69666E+00  1.67537E+00  1.65539E+00
   1.63636E+00  1.61858E+00  1.60172E+00  1.58599E+00  1.57096E+00  1.55686E+00  1.54338E+00  1.53085E+00  1.51892E+00  1.50781E+00
   1.49712E+00  1.48713E+00  1.47757E+00  1.46875E+00  1.46033E+00  1.45251E+00  1.44495E+00  1.43794E+00  1.43125E+00  1.42514E+00
   1.41927E+00  1.41385E+00  1.40858E+00  1.40378E+00  1.39920E+00  1.39509E+00  1.39110E+00  1.38746E+00  1.38390E+00  1.38075E+00
   1.37775E+00  1.37511E+00  1.37251E+00  1.37018E+00  1.36789E+00  1.36596E+00  1.36411E+00  1.36253E+00
 NY background values follow
    -2.921E+00   -2.914E+00   -2.907E+00   -2.900E+00   -2.893E+00   -2.886E+00   -2.879E+00   -2.872E+00   -2.865E+00   -2.858E+00
    -2.851E+00   -2.844E+00   -2.837E+00   -2.830E+00   -2.822E+00   -2.815E+00   -2.808E+00   -2.801E+00   -2.794E+00   -2.787E+00
    -2.780E+00   -2.773E+00   -2.766E+00   -2.759E+00   -2.752E+00   -2.745E+00   -2.738E+00   -2.731E+00   -2.724E+00   -2.717E+00
    -2.710E+00   -2.702E+00   -2.695E+00   -2.688E+00   -2.681E+00   -2.674E+00   -2.667E+00   -2.660E+00   -2.653E+00   -2.646E+00
    -2.639E+00   -2.632E+00   -2.625E+00   -2.618E+00   -2.611E+00   -2.604E+00   -2.596E+00   -2.589E+00   -2.582E+00   -2.575E+00
    -2.568E+00   -2.561E+00   -2.554E+00   -2.547E+00   -2.540E+00   -2.533E+00   -2.526E+00   -2.519E+00   -2.512E+00   -2.504E+00
    -2.497E+00   -2.490E+00   -2.483E+00   -2.476E+00   -2.469E+00   -2.462E+00   -2.455E+00   -2.448E+00   -2.441E+00   -2.434E+00
    -2.427E+00   -2.419E+00   -2.412E+00   -2.405E+00   -2.398E+00   -2.391E+00   -2.384E+00   -2.377E+00   -2.370E+00   -2.363E+00
    -2.356E+00   -2.349E+00   -2.342E+00   -2.334E+00   -2.327E+00   -2.320E+00   -2.313E+00   -2.306E+00   -2.299E+00   -2.292E+00
    -2.285E+00   -2.278E+00   -2.271E+00   -2.263E+00   -2.256E+00   -2.249E+00   -2.242E+00   -2.235E+00   -2.228E+00   -2.221E+00
    -2.214E+00   -2.207E+00   -2.200E+00   -2.193E+00   -2.185E+00   -2.178E+00   -2.171E+00   -2.164E+00   -2.157E+00   -2.150E+00
    -2.143E+00   -2.136E+00   -2.129E+00   -2.122E+00   -2.114E+00   -2.107E+00   -2.100E+00   -2.093E+00   -2.086E+00   -2.079E+00
    -2.072E+00   -2.065E+00   -2.058E+00   -2.051E+00   -2.043E+00   -2.036E+00   -2.029E+00   -2.022E+00   -2.015E+00   -2.008E+00
    -2.001E+00   -1.994E+00   -1.987E+00   -1.979E+00   -1.972E+00   -1.965E+00   -1.958E+00   -1.951E+00   -1.944E+00   -1.937E+00
    -1.930E+00   -1.923E+00   -1.915E+00   -1.908E+00   -1.901E+00   -1.894E+00   -1.887E+00   -1.880E+00   -1.873E+00   -1.866E+00
    -1.859E+00   -1.851E+00   -1.844E+00   -1.837E+00   -1.830E+00   -1.823E+00   -1.816E+00   -1.809E+00   -1.802E+00   -1.795E+00
    -1.787E+00   -1.780E+00   -1.773E+00   -1.766E+00   -1.759E+00   -1.752E+00   -1.745E+00   -1.738E+00   -1.730E+00   -1.723E+00
    -1.716E+00   -1.709E+00   -1.702E+00   -1.695E+00   -1.688E+00   -1.681E+00   -1.674E+00   -1.666E+00   -1.659E+00   -1.652E+00
    -1.645E+00   -1.638E+00   -1.631E+00   -1.624E+00   -1.617E+00   -1.609E+00   -1.602E+00   -1.595E+00   -1.588E+00   -1.581E+00
    -1.574E+00   -1.567E+00   -1.560E+00   -1.552E+00   -1.545E+00   -1.538E+00   -1.531E+00   -1.524E+00   -1.517E+00   -1.510E+00
    -1.503E+00   -1.495E+00   -1.488E+00   -1.481E+00   -1.474E+00   -1.467E+00   -1.460E+00   -1.453E+00   -1.446E+00   -1.438E+00
    -1.431E+00   -1.424E+00   -1.417E+00   -1.410E+00   -1.403E+00   -1.396E+00   -1.389E+00   -1.381E+00   -1.374E+00   -1.367E+00
    -1.360E+00   -1.353E+00   -1.346E+00   -1.339E+00   -1.331E+00   -1.324E+00   -1.317E+00   -1.310E+00   -1.303E+00   -1.296E+00
    -1.289E+00   -1.282E+00   -1.274E+00   -1.267E+00   -1.260E+00   -1.253E+00   -1.246E+00   -1.239E+00   -1.232E+00   -1.225E+00
    -1.217E+00   -1.210E+00   -1.203E+00   -1.196E+00   -1.189E+00   -1.182E+00   -1.175E+00   -1.167E+00   -1.160E+00   -1.153E+00
    -1.146E+00   -1.139E+00   -1.132E+00   -1.125E+00   -1.118E+00   -1.110E+00   -1.103E+00   -1.096E+00   -1.089E+00   -1.082E+00
    -1.075E+00   -1.068E+00   -1.060E+00   -1.053E+00   -1.046E+00   -1.039E+00   -1.032E+00   -1.025E+00   -1.018E+00   -1.011E+00
    -1.003E+00   -9.963E-01   -9.891E-01   -9.820E-01   -9.749E-01   -9.677E-01   -9.606E-01   -9.535E-01   -9.463E-01   -9.392E-01
    -9.321E-01   -9.249E-01   -9.178E-01   -9.107E-01   -9.035E-01   -8.964E-01   -8.893E-01   -8.821E-01   -8.750E-01   -8.679E-01
    -8.607E-01   -8.536E-01   -8.465E-01   -8.393E-01   -8.322E-01   -8.251E-01   -8.179E-01   -8.108E-01   -8.037E-01   -7.965E-01
    -7.894E-01   -7.823E-01   -7.751E-01   -7.680E-01   -7.609E-01   -7.537E-01   -7.466E-01   -7.395E-01   -7.323E-01   -7.252E-01
    -7.181E-01   -7.109E-01   -7.038E-01   -6.967E-01   -6.895E-01   -6.824E-01   -6.753E-01   -6.681E-01   -6.610E-01   -6.539E-01
    -6.467E-01   -6.396E-01   -6.325E-01   -6.253E-01   -6.182E-01   -6.111E-01   -6.040E-01   -5.968E-01   -5.897E-01   -5.826E-01
    -5.754E-01   -5.683E-01   -5.612E-01   -5.540E-01   -5.469E-01   -5.398E-01   -5.327E-01   -5.255E-01   -5.184E-01   -5.113E-01
    -5.041E-01   -4.970E-01   -4.899E-01   -4.828E-01   -4.756E-01   -4.685E-01   -4.614E-01   -4.542E-01   -4.471E-01   -4.400E-01
    -4.329E-01   -4.257E-01   -4.186E-01   -4.115E-01   -4.043E-01   -3.972E-01   -3.901E-01   -3.830E-01   -3.758E-01   -3.687E-01
    -3.616E-01   -3.545E-01   -3.473E-01   -3.402E-01   -3.331E-01   -3.260E-01   -3.188E-01   -3.117E-01   -3.046E-01   -2.975E-01
    -2.904E-01   -2.832E-01   -2.761E-01   -2.690E-01   -2.619E-01   -2.547E-01   -2.476E-01   -2.405E-01   -2.334E-01   -2.263E-01
    -2.191E-01   -2.120E-01   -2.049E-01   -1.978E-01   -1.907E-01   -1.835E-01   -1.764E-01   -1.693E-01   -1.622E-01   -1.551E-01
    -1.480E-01   -1.408E-01   -1.337E-01   -1.266E-01   -1.195E-01   -1.124E-01   -1.053E-01   -9.814E-02   -9.103E-02   -8.391E-02
    -7.680E-02   -6.968E-02   -6.257E-02   -5.546E-02   -4.834E-02   -4.123E-02   -3.412E-02   -2.701E-02   -1.990E-02   -1.278E-02
    -5.673E-03    1.437E-03    8.547E-03    1.566E-02    2.277E-02    2.988E-02    3.698E-02    4.409E-02    5.120E-02    5.831E-02
     6.541E-02    7.252E-02    7.963E-02    8.673E-02    9.384E-02    1.009E-01    1.080E-01    1.152E-01    1.223E-01    1.294E-01
     1.365E-01    1.436E-01    1.507E-01    1.578E-01    1.649E-01    1.720E-01    1.791E-01    1.862E-01    1.933E-01    2.004E-01
     2.075E-01    2.146E-01    2.217E-01    2.288E-01    2.359E-01    2.430E-01    2.501E-01    2.572E-01    2.642E-01    2.713E-01
     2.784E-01    2.855E-01    2.926E-01    2.997E-01    3.068E-01    3.139E-01    3.210E-01    3.281E-01    3.352E-01    3.423E-01
     3.494E-01    3.564E-01    3.635E-01    3.706E-01    3.777E-01    3.848E-01    3.919E-01    3.990E-01    4.061E-01    4.131E-01
     4.202E-01    4.273E-01    4.344E-01    4.415E-01    4.486E-01    4.556E-01    4.627E-01    4.698E-01    4.769E-01    4.840E-01
     4.910E-01    4.981E-01    5.052E-01    5.123E-01    5.194E-01    5.264E-01    5.335E-01    5.406E-01    5.477E-01    5.547E-01
     5.618E-01    5.689E-01    5.759E-01    5.830E-01    5.901E-01    5.972E-01    6.042E-01    6.113E-01
 Ala      Conc. = 1.07E+02
