 LCModel (Version 6.3-1L) Copyright: S.W. Provencher.          Ref.: Magn. Reson. Med. 30:672-679 (1993).                
 Slice#2 Row#8 Col#13  K_02_press_1_raw_act
 36 lines in following concentration table = NCONC+1
    Conc.  %SD /Cr+PCr  Metabolite                                         
   13.062 382%   0.000 Ala                                                 
   54.306  88%   0.000 Asp                                                 
    0.000 999%   0.000 Cr                                                  
    0.000 999%   0.000 PCr                                                 
    8.742 335%   0.000 GABA                                                
    8.841 327%   0.000 Glc                                                 
    0.000 999%   0.000 Gln                                                 
  428.504  26%   0.000 Glu                                                 
    0.000 999%   0.000 GPC                                                 
    0.000 999%   0.000 PCh                                                 
   10.706 279%   0.000 GSH                                                 
    0.000 999%   0.000 Ins                                                 
    0.362 999%   0.000 Lac                                                 
  851.604   4%   0.000 NAA                                                 
    0.000 999%   0.000 NAAG                                                
    0.000 999%   0.000 Scyllo                                              
   37.340 118%   0.000 Tau                                                 
    3.203 179%   0.000 -CrCH2                                              
    0.000 999%   0.000 GPC+PCh                                             
  851.604   4%   0.000 NAA+NAAG                                            
    0.000 999%   0.000 Cr+PCr                                              
  428.504  26%   0.000 Glu+Gln                                             
 1.03E+04   8%   0.000 Lip13a                                              
    0.000 999%   0.000 Lip13b                                              
 2.38E+03  13%   0.000 Lip09                                               
   90.031 302%   0.000 MM09                                                
 2.09E+03  12%   0.000 Lip20                                               
  741.233  29%   0.000 MM20                                                
    0.000 999%   0.000 MM12                                                
 2.01E+03  22%   0.000 MM14                                                
 1.32E+03  19%   0.000 MM17                                                
 1.03E+04   8%   0.000 Lip13a+Lip13b                                       
 1.23E+04   5%   0.000 MM14+Lip13a+Lip13b+MM12                             
 2.47E+03  10%   0.000 MM09+Lip09                                          
 2.83E+03   9%   0.000 MM20+Lip20                                          
   6 lines in following misc. output table
  FWHM = 0.054 ppm    S/N =  12                                            
  Data shift =-0.023 ppm                                                   
  Ph: -56 deg     -20.8 deg/ppm                                            
  alphaB,S = 8.5E+01,   1.6E+02                                            
   14 spline knots.   Ns = 7(1)                                            
   2 inflections.     1 extrema                                            
  498 points on ppm-axis = NY
      4.000000     3.992357     3.984714     3.977070     3.969427     3.961784     3.954141     3.946497     3.938854     3.931211
      3.923568     3.915925     3.908281     3.900638     3.892995     3.885352     3.877708     3.870065     3.862422     3.854779
      3.847136     3.839492     3.831849     3.824206     3.816563     3.808919     3.801276     3.793633     3.785990     3.778347
      3.770703     3.763060     3.755417     3.747774     3.740130     3.732487     3.724844     3.717201     3.709558     3.701914
      3.694271     3.686628     3.678985     3.671341     3.663698     3.656055     3.648412     3.640769     3.633125     3.625482
      3.617839     3.610196     3.602552     3.594909     3.587266     3.579623     3.571980     3.564336     3.556693     3.549050
      3.541407     3.533763     3.526120     3.518477     3.510834     3.503191     3.495547     3.487904     3.480261     3.472618
      3.464974     3.457331     3.449688     3.442045     3.434402     3.426758     3.419115     3.411472     3.403829     3.396185
      3.388542     3.380899     3.373256     3.365613     3.357969     3.350326     3.342683     3.335040     3.327396     3.319753
      3.312110     3.304467     3.296824     3.289180     3.281537     3.273894     3.266251     3.258607     3.250964     3.243321
      3.235678     3.228034     3.220391     3.212748     3.205105     3.197462     3.189818     3.182175     3.174532     3.166889
      3.159245     3.151602     3.143959     3.136316     3.128673     3.121029     3.113386     3.105743     3.098100     3.090456
      3.082813     3.075170     3.067527     3.059884     3.052240     3.044597     3.036954     3.029311     3.021667     3.014024
      3.006381     2.998738     2.991095     2.983451     2.975808     2.968165     2.960522     2.952878     2.945235     2.937592
      2.929949     2.922306     2.914662     2.907019     2.899376     2.891733     2.884089     2.876446     2.868803     2.861160
      2.853517     2.845873     2.838230     2.830587     2.822944     2.815300     2.807657     2.800014     2.792371     2.784728
      2.777084     2.769441     2.761798     2.754155     2.746511     2.738868     2.731225     2.723582     2.715939     2.708295
      2.700652     2.693009     2.685366     2.677722     2.670079     2.662436     2.654793     2.647150     2.639506     2.631863
      2.624220     2.616577     2.608933     2.601290     2.593647     2.586004     2.578361     2.570717     2.563074     2.555431
      2.547788     2.540144     2.532501     2.524858     2.517215     2.509572     2.501928     2.494285     2.486642     2.478999
      2.471355     2.463712     2.456069     2.448426     2.440783     2.433139     2.425496     2.417853     2.410210     2.402566
      2.394923     2.387280     2.379637     2.371994     2.364350     2.356707     2.349064     2.341421     2.333777     2.326134
      2.318491     2.310848     2.303205     2.295561     2.287918     2.280275     2.272632     2.264988     2.257345     2.249702
      2.242059     2.234416     2.226772     2.219129     2.211486     2.203843     2.196199     2.188556     2.180913     2.173270
      2.165627     2.157983     2.150340     2.142697     2.135054     2.127410     2.119767     2.112124     2.104481     2.096838
      2.089194     2.081551     2.073908     2.066265     2.058621     2.050978     2.043335     2.035692     2.028049     2.020405
      2.012762     2.005119     1.997476     1.989833     1.982190     1.974546     1.966903     1.959260     1.951617     1.943974
      1.936331     1.928688     1.921045     1.913402     1.905759     1.898115     1.890472     1.882829     1.875186     1.867543
      1.859900     1.852257     1.844614     1.836971     1.829327     1.821684     1.814041     1.806398     1.798755     1.791112
      1.783469     1.775826     1.768183     1.760540     1.752896     1.745253     1.737610     1.729967     1.722324     1.714681
      1.707038     1.699395     1.691752     1.684108     1.676465     1.668822     1.661179     1.653536     1.645893     1.638250
      1.630607     1.622964     1.615321     1.607677     1.600034     1.592391     1.584748     1.577105     1.569462     1.561819
      1.554176     1.546533     1.538890     1.531246     1.523603     1.515960     1.508317     1.500674     1.493031     1.485388
      1.477745     1.470102     1.462458     1.454815     1.447172     1.439529     1.431886     1.424243     1.416600     1.408957
      1.401314     1.393671     1.386027     1.378384     1.370741     1.363098     1.355455     1.347812     1.340169     1.332526
      1.324883     1.317240     1.309596     1.301953     1.294310     1.286667     1.279024     1.271381     1.263738     1.256095
      1.248452     1.240808     1.233165     1.225522     1.217879     1.210236     1.202593     1.194950     1.187307     1.179664
      1.172021     1.164377     1.156734     1.149091     1.141448     1.133805     1.126162     1.118519     1.110876     1.103233
      1.095590     1.087946     1.080303     1.072660     1.065017     1.057374     1.049731     1.042088     1.034445     1.026802
      1.019158     1.011515     1.003872     0.996229     0.988586     0.980943     0.973300     0.965657     0.958014     0.950371
      0.942727     0.935084     0.927441     0.919798     0.912155     0.904512     0.896869     0.889226     0.881583     0.873940
      0.866296     0.858653     0.851010     0.843367     0.835724     0.828081     0.820438     0.812795     0.805152     0.797508
      0.789865     0.782222     0.774579     0.766936     0.759293     0.751650     0.744007     0.736364     0.728721     0.721077
      0.713434     0.705791     0.698148     0.690505     0.682862     0.675219     0.667576     0.659933     0.652290     0.644646
      0.637003     0.629360     0.621717     0.614074     0.606431     0.598788     0.591145     0.583502     0.575858     0.568215
      0.560572     0.552929     0.545286     0.537643     0.530000     0.522357     0.514714     0.507071     0.499427     0.491784
      0.484141     0.476498     0.468855     0.461212     0.453569     0.445925     0.438282     0.430639     0.422996     0.415353
      0.407710     0.400067     0.392424     0.384780     0.377137     0.369494     0.361851     0.354208     0.346565     0.338922
      0.331278     0.323635     0.315992     0.308349     0.300706     0.293063     0.285420     0.277777     0.270133     0.262490
      0.254847     0.247204     0.239561     0.231918     0.224275     0.216631     0.208988     0.201345
 NY phased data points follow
   7.16538E+00  6.42489E+00  8.34120E+00  6.33011E+00  6.84482E+00  5.09458E+00  6.30150E+00  7.70179E+00  1.05443E+01  7.17277E+00
   4.62546E+00  8.70941E+00  6.16370E+00  6.55370E+00  1.14492E+01  1.04823E+01  1.05680E+01  1.04852E+01  9.06191E+00  1.10104E+01
   8.55516E+00  1.17996E+01  9.43052E+00  8.45572E+00  8.20228E+00  1.14648E+01  8.51974E+00  1.02946E+01  8.12865E+00  9.14481E+00
   1.00308E+01  9.00073E+00  8.71005E+00  7.29867E+00  9.04586E+00  7.29852E+00  1.02354E+01  8.34176E+00  9.18106E+00  8.72053E+00
   8.19281E+00  1.02748E+01  1.05438E+01  8.61956E+00  7.37840E+00  9.72008E+00  8.60399E+00  6.62168E+00  8.81469E+00  1.03716E+01
   6.87070E+00  6.02316E+00  8.56287E+00  9.81847E+00  7.98614E+00  7.51579E+00  6.70991E+00  1.01698E+01  8.88834E+00  1.02964E+01
   7.48468E+00  8.65033E+00  9.53270E+00  7.98605E+00  9.57018E+00  9.15312E+00  8.78707E+00  9.62134E+00  8.34912E+00  7.13652E+00
   9.59492E+00  6.62443E+00  8.02214E+00  8.64278E+00  7.20528E+00  6.50390E+00  1.00119E+01  8.32561E+00  7.64583E+00  8.39872E+00
   9.51797E+00  8.76330E+00  4.74337E+00  8.15433E+00  7.28176E+00  7.39040E+00  8.44138E+00  6.10069E+00  7.86212E+00  8.47061E+00
   7.18036E+00  7.19417E+00  9.03247E+00  6.37287E+00  1.02775E+01  5.87288E+00  6.90174E+00  7.22888E+00  6.32507E+00  7.25250E+00
   6.80147E+00  6.55433E+00  6.09029E+00  5.11389E+00  7.47564E+00  9.01185E+00  9.63454E+00  8.20009E+00  1.05452E+01  1.10069E+01
   1.16768E+01  1.11475E+01  7.47540E+00  8.71335E+00  9.51378E+00  8.10603E+00  6.25045E+00  9.13311E+00  6.90689E+00  7.18622E+00
   8.45406E+00  8.73812E+00  9.21679E+00  7.33564E+00  8.90909E+00  8.58474E+00  1.01028E+01  7.73511E+00  7.29351E+00  7.82316E+00
   9.75611E+00  9.62785E+00  1.07049E+01  1.21261E+01  1.17938E+01  1.31825E+01  1.27692E+01  9.96640E+00  9.75643E+00  1.06581E+01
   1.14337E+01  8.31859E+00  1.12753E+01  1.09056E+01  1.04080E+01  1.01205E+01  1.08093E+01  9.94292E+00  1.08176E+01  1.11349E+01
   9.63802E+00  9.84330E+00  1.16436E+01  1.11563E+01  1.18618E+01  8.22285E+00  1.12643E+01  1.00172E+01  9.24871E+00  1.07864E+01
   9.88564E+00  9.20197E+00  9.13826E+00  8.97972E+00  9.84837E+00  1.02700E+01  8.23209E+00  9.45338E+00  9.24314E+00  1.15948E+01
   7.87533E+00  9.12880E+00  8.04004E+00  9.10201E+00  1.00288E+01  6.31871E+00  7.60361E+00  1.04608E+01  7.62862E+00  6.93002E+00
   6.63704E+00  4.91031E+00  7.72265E+00  1.08541E+01  7.73734E+00  6.52148E+00  5.95057E+00  8.94465E+00  9.59173E+00  6.82711E+00
   6.28269E+00  8.20984E+00  7.30103E+00  6.17430E+00  8.66923E+00  7.32333E+00  9.32513E+00  7.94161E+00  9.28837E+00  8.24975E+00
   8.30108E+00  6.41592E+00  9.44376E+00  7.88846E+00  7.64491E+00  1.01612E+01  5.68817E+00  8.05874E+00  1.09185E+01  1.00243E+01
   9.76687E+00  8.78663E+00  9.02141E+00  9.90378E+00  1.05965E+01  1.28236E+01  1.10690E+01  9.23207E+00  1.08620E+01  9.95866E+00
   9.11518E+00  7.36292E+00  8.03100E+00  6.04595E+00  9.98373E+00  9.00313E+00  9.63322E+00  7.50828E+00  1.20914E+01  1.11115E+01
   1.08860E+01  1.10732E+01  1.36249E+01  1.12802E+01  1.34624E+01  1.14929E+01  1.09721E+01  1.24822E+01  1.23540E+01  1.52780E+01
   1.07631E+01  1.39424E+01  1.33001E+01  1.38108E+01  1.45935E+01  1.40415E+01  1.19748E+01  1.62779E+01  1.62226E+01  1.45399E+01
   1.47371E+01  1.44319E+01  1.72936E+01  1.93391E+01  2.20551E+01  2.19023E+01  2.31478E+01  2.64925E+01  3.54612E+01  4.23737E+01
   4.66308E+01  4.55869E+01  3.99777E+01  3.39471E+01  2.52485E+01  2.13644E+01  1.99887E+01  2.06826E+01  1.85291E+01  1.40877E+01
   1.34958E+01  1.20697E+01  1.18592E+01  1.33304E+01  1.03965E+01  1.03925E+01  1.16267E+01  1.26032E+01  1.11226E+01  1.17772E+01
   9.56242E+00  1.11075E+01  1.05508E+01  1.06868E+01  1.17811E+01  1.17077E+01  1.20158E+01  1.20718E+01  1.36238E+01  1.49942E+01
   1.38015E+01  1.33448E+01  1.39197E+01  1.39714E+01  1.29328E+01  1.50252E+01  1.52141E+01  1.43414E+01  1.53306E+01  1.70189E+01
   1.58833E+01  1.63410E+01  1.91618E+01  1.81409E+01  1.94083E+01  1.80626E+01  1.73361E+01  1.98216E+01  1.76653E+01  1.80320E+01
   1.71737E+01  1.71323E+01  1.69323E+01  2.05907E+01  1.64412E+01  1.76461E+01  1.99957E+01  1.98162E+01  1.97076E+01  1.84870E+01
   1.91127E+01  1.96595E+01  2.22341E+01  2.23132E+01  2.40889E+01  2.28732E+01  2.44153E+01  2.52775E+01  2.71364E+01  2.52891E+01
   2.59406E+01  2.90900E+01  2.86945E+01  2.89177E+01  2.81540E+01  2.98747E+01  3.22390E+01  2.99379E+01  3.14849E+01  3.00702E+01
   3.25403E+01  3.31619E+01  3.30566E+01  3.43480E+01  3.29088E+01  3.53557E+01  3.42090E+01  3.28358E+01  3.33966E+01  3.25558E+01
   3.13172E+01  3.32619E+01  3.26143E+01  3.16985E+01  3.18150E+01  3.52360E+01  3.09530E+01  3.07682E+01  2.94786E+01  2.71398E+01
   3.02136E+01  2.62560E+01  2.76612E+01  3.03255E+01  2.74438E+01  2.62421E+01  2.59877E+01  2.76148E+01  2.73525E+01  2.53720E+01
   2.55098E+01  2.44558E+01  2.32213E+01  2.34767E+01  2.34748E+01  2.30598E+01  2.32182E+01  2.13031E+01  2.09446E+01  2.25219E+01
   2.04287E+01  2.11583E+01  1.79997E+01  1.82881E+01  1.93004E+01  1.81579E+01  1.87294E+01  1.83615E+01  1.88507E+01  1.97783E+01
   2.10572E+01  1.81301E+01  1.80086E+01  1.89418E+01  1.84072E+01  1.93734E+01  2.01101E+01  2.00621E+01  2.11408E+01  1.80279E+01
   2.01844E+01  1.87626E+01  2.03511E+01  1.77722E+01  1.91245E+01  1.86172E+01  1.97734E+01  1.99380E+01  1.97117E+01  1.85437E+01
   1.49153E+01  1.78092E+01  1.68229E+01  1.74499E+01  1.64820E+01  1.48385E+01  1.13996E+01  1.57333E+01  1.21654E+01  1.38165E+01
   1.34099E+01  1.10589E+01  1.02316E+01  1.06558E+01  1.21699E+01  8.99997E+00  1.16512E+01  1.29530E+01  1.16569E+01  1.00511E+01
   7.95524E+00  9.13757E+00  8.52263E+00  8.07601E+00  7.96195E+00  7.33836E+00  8.23791E+00  6.36796E+00  7.75583E+00  6.61993E+00
   4.05329E+00  7.22331E+00  6.70395E+00  7.30434E+00  5.76054E+00  6.66867E+00  5.59929E+00  5.62150E+00  4.31789E+00  4.49974E+00
   5.86629E+00  3.97364E+00  3.23811E+00  3.84382E+00  5.49940E+00  5.12663E+00  3.26506E+00  3.54010E+00  2.20719E+00  3.52723E+00
   3.66291E+00  3.04363E+00  3.81876E+00  3.52326E+00  4.64304E+00  4.78829E+00  2.55795E+00  8.50353E-01  5.43684E+00  2.25989E+00
   1.79897E+00  4.70268E+00  1.66059E+00  2.38268E+00  2.17990E+00  3.24731E+00  4.36758E+00  4.52022E+00  9.83420E-01  3.82248E+00
   2.44010E+00  3.74731E+00  3.15597E+00  2.38897E+00  1.17234E+00  1.95384E+00  3.59863E+00  2.15377E+00  2.58209E+00  2.47846E+00
   1.92170E+00  2.10702E+00  3.04524E+00  1.83488E+00  1.73869E+00  1.88747E+00  2.06669E+00  2.60134E+00
 NY points of the fit to the data follow
   9.10822E+00  9.09843E+00  9.08397E+00  9.06571E+00  9.04162E+00  9.00790E+00  8.96183E+00  8.91155E+00  8.87377E+00  8.86273E+00
   8.87680E+00  8.90170E+00  8.92351E+00  8.93407E+00  8.93657E+00  8.93722E+00  8.93608E+00  8.93163E+00  8.93449E+00  8.96402E+00
   9.02917E+00  9.10217E+00  9.16535E+00  9.21106E+00  9.20880E+00  9.13537E+00  9.00920E+00  8.88121E+00  8.81676E+00  8.86317E+00
   9.04535E+00  9.31681E+00  9.55839E+00  9.65965E+00  9.56332E+00  9.29550E+00  8.95277E+00  8.63948E+00  8.45859E+00  8.44295E+00
   8.52921E+00  8.63370E+00  8.71177E+00  8.75105E+00  8.75899E+00  8.74403E+00  8.72078E+00  8.68309E+00  8.62364E+00  8.56578E+00
   8.52052E+00  8.48317E+00  8.45097E+00  8.42299E+00  8.39872E+00  8.37727E+00  8.35783E+00  8.34068E+00  8.32682E+00  8.31734E+00
   8.31220E+00  8.30935E+00  8.30980E+00  8.31184E+00  8.31230E+00  8.30910E+00  8.29936E+00  8.28011E+00  8.25692E+00  8.23818E+00
   8.22588E+00  8.22386E+00  8.23600E+00  8.25777E+00  8.27639E+00  8.27817E+00  8.25268E+00  8.20013E+00  8.13801E+00  8.08558E+00
   8.05580E+00  8.04937E+00  8.05344E+00  8.05332E+00  8.04852E+00  8.04432E+00  8.03856E+00  8.03084E+00  8.02244E+00  8.01084E+00
   7.99193E+00  7.96694E+00  7.93992E+00  7.91276E+00  7.89613E+00  7.90474E+00  7.94023E+00  7.98875E+00  8.03106E+00  8.05110E+00
   8.04556E+00  8.02672E+00  8.00706E+00  7.99530E+00  7.99589E+00  8.00591E+00  8.01916E+00  8.03450E+00  8.05220E+00  8.06594E+00
   8.07571E+00  8.08605E+00  8.09767E+00  8.11079E+00  8.12801E+00  8.14881E+00  8.17138E+00  8.19733E+00  8.22643E+00  8.25885E+00
   8.29540E+00  8.33687E+00  8.38382E+00  8.43690E+00  8.49585E+00  8.55919E+00  8.62581E+00  8.69459E+00  8.76253E+00  8.82806E+00
   8.89101E+00  8.94977E+00  9.00221E+00  9.04795E+00  9.08900E+00  9.12945E+00  9.17604E+00  9.23578E+00  9.30928E+00  9.39247E+00
   9.47762E+00  9.56048E+00  9.64540E+00  9.73607E+00  9.82826E+00  9.91406E+00  9.98549E+00  1.00397E+01  1.00820E+01  1.01215E+01
   1.01639E+01  1.02079E+01  1.02487E+01  1.02784E+01  1.02734E+01  1.02357E+01  1.01709E+01  1.00651E+01  9.91934E+00  9.73821E+00
   9.56660E+00  9.47823E+00  9.50137E+00  9.58730E+00  9.64146E+00  9.58425E+00  9.39716E+00  9.12712E+00  8.84460E+00  8.57724E+00
   8.30532E+00  8.04151E+00  7.77376E+00  7.49941E+00  7.25557E+00  7.08402E+00  7.01904E+00  7.03709E+00  7.06688E+00  7.04829E+00
   6.96548E+00  6.87499E+00  6.84395E+00  6.87276E+00  6.92730E+00  6.98067E+00  7.06559E+00  7.25978E+00  7.56135E+00  7.90447E+00
   8.20003E+00  8.39160E+00  8.50244E+00  8.59108E+00  8.68988E+00  8.76028E+00  8.74119E+00  8.65418E+00  8.54113E+00  8.45135E+00
   8.45025E+00  8.57192E+00  8.78953E+00  8.99953E+00  9.10445E+00  9.06381E+00  8.88211E+00  8.60598E+00  8.32487E+00  8.13778E+00
   8.07774E+00  8.16359E+00  8.47818E+00  9.06093E+00  9.76668E+00  1.03347E+01  1.05388E+01  1.03265E+01  9.79689E+00  9.09165E+00
   8.43442E+00  8.04329E+00  8.02685E+00  8.40540E+00  9.09983E+00  9.97383E+00  1.08265E+01  1.14869E+01  1.19249E+01  1.22010E+01
   1.23864E+01  1.24999E+01  1.25598E+01  1.26247E+01  1.27291E+01  1.28517E+01  1.29558E+01  1.30296E+01  1.30816E+01  1.31298E+01
   1.31944E+01  1.33208E+01  1.35519E+01  1.38802E+01  1.42598E+01  1.46353E+01  1.49630E+01  1.52093E+01  1.53683E+01  1.54706E+01
   1.55774E+01  1.57519E+01  1.60966E+01  1.71646E+01  1.92732E+01  2.19183E+01  2.53361E+01  3.00656E+01  3.58019E+01  4.10534E+01
   4.39691E+01  4.34650E+01  3.98029E+01  3.43208E+01  2.86863E+01  2.40868E+01  2.07062E+01  1.79431E+01  1.53791E+01  1.35759E+01
   1.28466E+01  1.24507E+01  1.21692E+01  1.19653E+01  1.18065E+01  1.16618E+01  1.15256E+01  1.13963E+01  1.12797E+01  1.11872E+01
   1.11285E+01  1.11072E+01  1.11288E+01  1.11992E+01  1.13175E+01  1.14796E+01  1.16825E+01  1.19249E+01  1.22059E+01  1.25229E+01
   1.28715E+01  1.32490E+01  1.36510E+01  1.40714E+01  1.45030E+01  1.49384E+01  1.53692E+01  1.57869E+01  1.61829E+01  1.65499E+01
   1.68810E+01  1.71709E+01  1.74163E+01  1.76155E+01  1.77689E+01  1.78791E+01  1.79509E+01  1.79912E+01  1.80088E+01  1.80137E+01
   1.80166E+01  1.80283E+01  1.80601E+01  1.81229E+01  1.82265E+01  1.83798E+01  1.85899E+01  1.88624E+01  1.92014E+01  1.96100E+01
   2.00899E+01  2.06359E+01  2.12400E+01  2.18975E+01  2.25986E+01  2.33255E+01  2.40584E+01  2.47833E+01  2.55004E+01  2.62167E+01
   2.69335E+01  2.76500E+01  2.83629E+01  2.90628E+01  2.97340E+01  3.03593E+01  3.09241E+01  3.14132E+01  3.18200E+01  3.21523E+01
   3.24221E+01  3.26386E+01  3.28046E+01  3.29211E+01  3.29951E+01  3.30346E+01  3.30406E+01  3.30142E+01  3.29573E+01  3.28715E+01
   3.27577E+01  3.26165E+01  3.24478E+01  3.22511E+01  3.20253E+01  3.17691E+01  3.14816E+01  3.11621E+01  3.08105E+01  3.04275E+01
   3.00142E+01  2.95722E+01  2.91034E+01  2.86103E+01  2.80961E+01  2.75643E+01  2.70187E+01  2.64632E+01  2.59021E+01  2.53395E+01
   2.47801E+01  2.42279E+01  2.36870E+01  2.31614E+01  2.26548E+01  2.21707E+01  2.17123E+01  2.12823E+01  2.08832E+01  2.05171E+01
   2.01859E+01  1.98909E+01  1.96333E+01  1.94136E+01  1.92319E+01  1.90881E+01  1.89813E+01  1.89103E+01  1.88733E+01  1.88678E+01
   1.88907E+01  1.89385E+01  1.90069E+01  1.90913E+01  1.91862E+01  1.92859E+01  1.93844E+01  1.94753E+01  1.95526E+01  1.96099E+01
   1.96413E+01  1.96416E+01  1.96060E+01  1.95306E+01  1.94125E+01  1.92498E+01  1.90415E+01  1.87880E+01  1.84906E+01  1.81516E+01
   1.77742E+01  1.73624E+01  1.69207E+01  1.64539E+01  1.59673E+01  1.54661E+01  1.49554E+01  1.44401E+01  1.39247E+01  1.34135E+01
   1.29101E+01  1.24177E+01  1.19389E+01  1.14757E+01  1.10297E+01  1.06021E+01  1.01937E+01  9.80473E+00  9.43530E+00  9.08513E+00
   8.75383E+00  8.44084E+00  8.14545E+00  7.86683E+00  7.60410E+00  7.35638E+00  7.12280E+00  6.90251E+00  6.69463E+00  6.49830E+00
   6.31271E+00  6.13713E+00  5.97088E+00  5.81331E+00  5.66378E+00  5.52168E+00  5.38649E+00  5.25773E+00  5.13499E+00  5.01784E+00
   4.90586E+00  4.79868E+00  4.69599E+00  4.59753E+00  4.50302E+00  4.41219E+00  4.32478E+00  4.24057E+00  4.15939E+00  4.08106E+00
   4.00543E+00  3.93230E+00  3.86152E+00  3.79294E+00  3.72649E+00  3.66205E+00  3.59949E+00  3.53870E+00  3.47957E+00  3.42203E+00
   3.36603E+00  3.31149E+00  3.25831E+00  3.20641E+00  3.15573E+00  3.10624E+00  3.05789E+00  3.01063E+00  2.96438E+00  2.91907E+00
   2.87470E+00  2.83123E+00  2.78864E+00  2.74687E+00  2.70586E+00  2.66558E+00  2.62603E+00  2.58719E+00  2.54903E+00  2.51150E+00
   2.47456E+00  2.43819E+00  2.40241E+00  2.36720E+00  2.33253E+00  2.29834E+00  2.26462E+00  2.23139E+00
 NY background values follow
     8.858E+00    8.842E+00    8.827E+00    8.811E+00    8.796E+00    8.780E+00    8.765E+00    8.749E+00    8.734E+00    8.718E+00
     8.703E+00    8.687E+00    8.672E+00    8.656E+00    8.641E+00    8.625E+00    8.610E+00    8.594E+00    8.579E+00    8.563E+00
     8.548E+00    8.532E+00    8.517E+00    8.501E+00    8.485E+00    8.470E+00    8.454E+00    8.439E+00    8.423E+00    8.408E+00
     8.392E+00    8.377E+00    8.361E+00    8.346E+00    8.330E+00    8.315E+00    8.299E+00    8.284E+00    8.268E+00    8.253E+00
     8.237E+00    8.222E+00    8.206E+00    8.191E+00    8.175E+00    8.160E+00    8.144E+00    8.129E+00    8.113E+00    8.098E+00
     8.082E+00    8.067E+00    8.051E+00    8.036E+00    8.020E+00    8.005E+00    7.989E+00    7.974E+00    7.958E+00    7.943E+00
     7.927E+00    7.912E+00    7.896E+00    7.881E+00    7.865E+00    7.850E+00    7.834E+00    7.819E+00    7.803E+00    7.788E+00
     7.772E+00    7.756E+00    7.741E+00    7.725E+00    7.710E+00    7.694E+00    7.679E+00    7.663E+00    7.648E+00    7.632E+00
     7.617E+00    7.601E+00    7.586E+00    7.570E+00    7.555E+00    7.539E+00    7.524E+00    7.508E+00    7.493E+00    7.477E+00
     7.462E+00    7.446E+00    7.431E+00    7.415E+00    7.400E+00    7.384E+00    7.369E+00    7.353E+00    7.338E+00    7.322E+00
     7.307E+00    7.291E+00    7.276E+00    7.260E+00    7.245E+00    7.229E+00    7.214E+00    7.198E+00    7.182E+00    7.167E+00
     7.151E+00    7.136E+00    7.120E+00    7.105E+00    7.089E+00    7.074E+00    7.058E+00    7.043E+00    7.027E+00    7.012E+00
     6.996E+00    6.981E+00    6.965E+00    6.950E+00    6.934E+00    6.919E+00    6.903E+00    6.888E+00    6.872E+00    6.857E+00
     6.841E+00    6.826E+00    6.810E+00    6.795E+00    6.779E+00    6.764E+00    6.748E+00    6.732E+00    6.717E+00    6.701E+00
     6.686E+00    6.670E+00    6.655E+00    6.639E+00    6.624E+00    6.608E+00    6.593E+00    6.577E+00    6.562E+00    6.546E+00
     6.531E+00    6.515E+00    6.500E+00    6.484E+00    6.469E+00    6.453E+00    6.438E+00    6.422E+00    6.407E+00    6.391E+00
     6.375E+00    6.360E+00    6.344E+00    6.329E+00    6.313E+00    6.298E+00    6.282E+00    6.267E+00    6.251E+00    6.236E+00
     6.220E+00    6.205E+00    6.189E+00    6.174E+00    6.158E+00    6.143E+00    6.127E+00    6.112E+00    6.096E+00    6.080E+00
     6.065E+00    6.049E+00    6.034E+00    6.018E+00    6.003E+00    5.987E+00    5.972E+00    5.956E+00    5.941E+00    5.925E+00
     5.910E+00    5.894E+00    5.879E+00    5.863E+00    5.848E+00    5.832E+00    5.816E+00    5.801E+00    5.785E+00    5.770E+00
     5.754E+00    5.739E+00    5.723E+00    5.708E+00    5.692E+00    5.677E+00    5.661E+00    5.646E+00    5.630E+00    5.615E+00
     5.599E+00    5.584E+00    5.568E+00    5.552E+00    5.537E+00    5.521E+00    5.506E+00    5.490E+00    5.475E+00    5.459E+00
     5.444E+00    5.428E+00    5.413E+00    5.397E+00    5.382E+00    5.366E+00    5.351E+00    5.335E+00    5.319E+00    5.304E+00
     5.288E+00    5.273E+00    5.257E+00    5.242E+00    5.226E+00    5.211E+00    5.195E+00    5.180E+00    5.164E+00    5.149E+00
     5.133E+00    5.118E+00    5.102E+00    5.086E+00    5.071E+00    5.055E+00    5.040E+00    5.024E+00    5.009E+00    4.993E+00
     4.978E+00    4.962E+00    4.947E+00    4.931E+00    4.916E+00    4.900E+00    4.884E+00    4.869E+00    4.853E+00    4.838E+00
     4.822E+00    4.807E+00    4.791E+00    4.776E+00    4.760E+00    4.745E+00    4.729E+00    4.714E+00    4.698E+00    4.683E+00
     4.667E+00    4.651E+00    4.636E+00    4.620E+00    4.605E+00    4.589E+00    4.574E+00    4.558E+00    4.543E+00    4.527E+00
     4.512E+00    4.496E+00    4.481E+00    4.465E+00    4.449E+00    4.434E+00    4.418E+00    4.403E+00    4.387E+00    4.372E+00
     4.356E+00    4.341E+00    4.325E+00    4.310E+00    4.294E+00    4.279E+00    4.263E+00    4.247E+00    4.232E+00    4.216E+00
     4.201E+00    4.185E+00    4.170E+00    4.154E+00    4.139E+00    4.123E+00    4.108E+00    4.092E+00    4.076E+00    4.061E+00
     4.045E+00    4.030E+00    4.014E+00    3.999E+00    3.983E+00    3.968E+00    3.952E+00    3.937E+00    3.921E+00    3.906E+00
     3.890E+00    3.874E+00    3.859E+00    3.843E+00    3.828E+00    3.812E+00    3.797E+00    3.781E+00    3.766E+00    3.750E+00
     3.735E+00    3.719E+00    3.703E+00    3.688E+00    3.672E+00    3.657E+00    3.641E+00    3.626E+00    3.610E+00    3.595E+00
     3.579E+00    3.564E+00    3.548E+00    3.533E+00    3.517E+00    3.501E+00    3.486E+00    3.470E+00    3.455E+00    3.439E+00
     3.424E+00    3.408E+00    3.393E+00    3.377E+00    3.362E+00    3.346E+00    3.330E+00    3.315E+00    3.299E+00    3.284E+00
     3.268E+00    3.253E+00    3.237E+00    3.222E+00    3.206E+00    3.191E+00    3.175E+00    3.159E+00    3.144E+00    3.128E+00
     3.113E+00    3.097E+00    3.082E+00    3.066E+00    3.051E+00    3.035E+00    3.020E+00    3.004E+00    2.988E+00    2.973E+00
     2.957E+00    2.942E+00    2.926E+00    2.911E+00    2.895E+00    2.880E+00    2.864E+00    2.849E+00    2.833E+00    2.817E+00
     2.802E+00    2.786E+00    2.771E+00    2.755E+00    2.740E+00    2.724E+00    2.709E+00    2.693E+00    2.678E+00    2.662E+00
     2.646E+00    2.631E+00    2.615E+00    2.600E+00    2.584E+00    2.569E+00    2.553E+00    2.538E+00    2.522E+00    2.507E+00
     2.491E+00    2.475E+00    2.460E+00    2.444E+00    2.429E+00    2.413E+00    2.398E+00    2.382E+00    2.367E+00    2.351E+00
     2.335E+00    2.320E+00    2.304E+00    2.289E+00    2.273E+00    2.258E+00    2.242E+00    2.227E+00    2.211E+00    2.196E+00
     2.180E+00    2.164E+00    2.149E+00    2.133E+00    2.118E+00    2.102E+00    2.087E+00    2.071E+00    2.056E+00    2.040E+00
     2.025E+00    2.009E+00    1.993E+00    1.978E+00    1.962E+00    1.947E+00    1.931E+00    1.916E+00    1.900E+00    1.885E+00
     1.869E+00    1.854E+00    1.838E+00    1.822E+00    1.807E+00    1.791E+00    1.776E+00    1.760E+00    1.745E+00    1.729E+00
     1.714E+00    1.698E+00    1.683E+00    1.667E+00    1.651E+00    1.636E+00    1.620E+00    1.605E+00    1.589E+00    1.574E+00
     1.558E+00    1.543E+00    1.527E+00    1.511E+00    1.496E+00    1.480E+00    1.465E+00    1.449E+00    1.434E+00    1.418E+00
     1.403E+00    1.387E+00    1.372E+00    1.356E+00    1.340E+00    1.325E+00    1.309E+00    1.294E+00    1.278E+00    1.263E+00
     1.247E+00    1.232E+00    1.216E+00    1.201E+00    1.185E+00    1.169E+00    1.154E+00    1.138E+00
 Ala      Conc. = 1.31E+01
