 LCModel (Version 6.3-1L) Copyright: S.W. Provencher.          Ref.: Magn. Reson. Med. 30:672-679 (1993).                
 Slice#2 Row#7 Col#4  K_02_press_1_raw_act
 36 lines in following concentration table = NCONC+1
    Conc.  %SD /Cr+PCr  Metabolite                                         
   73.167 160% 3.8E-02 Ala                                                 
    0.000 999%   0.000 Asp                                                 
  532.940  45%   0.276 Cr                                                  
 1.40E+03  18%   0.724 PCr                                                 
   70.747 288% 3.7E-02 GABA                                                
    0.000 999%   0.000 Glc                                                 
  417.677  59%   0.216 Gln                                                 
 1.73E+03  17%   0.896 Glu                                                 
  810.332   4%   0.419 GPC                                                 
    0.000 999%   0.000 PCh                                                 
  674.913  12%   0.349 GSH                                                 
 1.81E+03  18%   0.935 Ins                                                 
    0.000 999%   0.000 Lac                                                 
 3.28E+03   5%   1.695 NAA                                                 
  867.238  17%   0.449 NAAG                                                
  158.493  22% 8.2E-02 Scyllo                                              
    0.000 999%   0.000 Tau                                                 
    0.000 999%   0.000 -CrCH2                                              
  810.332   4%   0.419 GPC+PCh                                             
 4.15E+03   2%   2.144 NAA+NAAG                                            
 1.93E+03   3%   1.000 Cr+PCr                                              
 2.15E+03  19%   1.112 Glu+Gln                                             
  876.635  54%   0.453 Lip13a                                              
    0.000 999%   0.000 Lip13b                                              
   36.420 573% 1.9E-02 Lip09                                               
 1.49E+03  20%   0.770 MM09                                                
  198.160  68%   0.102 Lip20                                               
 3.07E+03  15%   1.587 MM20                                                
  457.164  31%   0.236 MM12                                                
  726.342  50%   0.376 MM14                                                
  569.959  42%   0.295 MM17                                                
  876.635  54%   0.453 Lip13a+Lip13b                                       
 2.06E+03  26%   1.065 MM14+Lip13a+Lip13b+MM12                             
 1.52E+03  18%   0.789 MM09+Lip09                                          
 3.27E+03  14%   1.690 MM20+Lip20                                          
   6 lines in following misc. output table
  FWHM = 0.046 ppm    S/N =  17                                            
  Data shift = 0.008 ppm                                                   
  Ph: -40 deg     -10.4 deg/ppm                                            
  alphaB,S = 5.8E-01,   1.4E+02                                            
   14 spline knots.   Ns = 7(1)                                            
  (11) 4 infls.   ( 9) 1 extrs.                                            
  498 points on ppm-axis = NY
      4.000000     3.992357     3.984714     3.977070     3.969427     3.961784     3.954141     3.946497     3.938854     3.931211
      3.923568     3.915925     3.908281     3.900638     3.892995     3.885352     3.877708     3.870065     3.862422     3.854779
      3.847136     3.839492     3.831849     3.824206     3.816563     3.808919     3.801276     3.793633     3.785990     3.778347
      3.770703     3.763060     3.755417     3.747774     3.740130     3.732487     3.724844     3.717201     3.709558     3.701914
      3.694271     3.686628     3.678985     3.671341     3.663698     3.656055     3.648412     3.640769     3.633125     3.625482
      3.617839     3.610196     3.602552     3.594909     3.587266     3.579623     3.571980     3.564336     3.556693     3.549050
      3.541407     3.533763     3.526120     3.518477     3.510834     3.503191     3.495547     3.487904     3.480261     3.472618
      3.464974     3.457331     3.449688     3.442045     3.434402     3.426758     3.419115     3.411472     3.403829     3.396185
      3.388542     3.380899     3.373256     3.365613     3.357969     3.350326     3.342683     3.335040     3.327396     3.319753
      3.312110     3.304467     3.296824     3.289180     3.281537     3.273894     3.266251     3.258607     3.250964     3.243321
      3.235678     3.228034     3.220391     3.212748     3.205105     3.197462     3.189818     3.182175     3.174532     3.166889
      3.159245     3.151602     3.143959     3.136316     3.128673     3.121029     3.113386     3.105743     3.098100     3.090456
      3.082813     3.075170     3.067527     3.059884     3.052240     3.044597     3.036954     3.029311     3.021667     3.014024
      3.006381     2.998738     2.991095     2.983451     2.975808     2.968165     2.960522     2.952878     2.945235     2.937592
      2.929949     2.922306     2.914662     2.907019     2.899376     2.891733     2.884089     2.876446     2.868803     2.861160
      2.853517     2.845873     2.838230     2.830587     2.822944     2.815300     2.807657     2.800014     2.792371     2.784728
      2.777084     2.769441     2.761798     2.754155     2.746511     2.738868     2.731225     2.723582     2.715939     2.708295
      2.700652     2.693009     2.685366     2.677722     2.670079     2.662436     2.654793     2.647150     2.639506     2.631863
      2.624220     2.616577     2.608933     2.601290     2.593647     2.586004     2.578361     2.570717     2.563074     2.555431
      2.547788     2.540144     2.532501     2.524858     2.517215     2.509572     2.501928     2.494285     2.486642     2.478999
      2.471355     2.463712     2.456069     2.448426     2.440783     2.433139     2.425496     2.417853     2.410210     2.402566
      2.394923     2.387280     2.379637     2.371994     2.364350     2.356707     2.349064     2.341421     2.333777     2.326134
      2.318491     2.310848     2.303205     2.295561     2.287918     2.280275     2.272632     2.264988     2.257345     2.249702
      2.242059     2.234416     2.226772     2.219129     2.211486     2.203843     2.196199     2.188556     2.180913     2.173270
      2.165627     2.157983     2.150340     2.142697     2.135054     2.127410     2.119767     2.112124     2.104481     2.096838
      2.089194     2.081551     2.073908     2.066265     2.058621     2.050978     2.043335     2.035692     2.028049     2.020405
      2.012762     2.005119     1.997476     1.989833     1.982190     1.974546     1.966903     1.959260     1.951617     1.943974
      1.936331     1.928688     1.921045     1.913402     1.905759     1.898115     1.890472     1.882829     1.875186     1.867543
      1.859900     1.852257     1.844614     1.836971     1.829327     1.821684     1.814041     1.806398     1.798755     1.791112
      1.783469     1.775826     1.768183     1.760540     1.752896     1.745253     1.737610     1.729967     1.722324     1.714681
      1.707038     1.699395     1.691752     1.684108     1.676465     1.668822     1.661179     1.653536     1.645893     1.638250
      1.630607     1.622964     1.615321     1.607677     1.600034     1.592391     1.584748     1.577105     1.569462     1.561819
      1.554176     1.546533     1.538890     1.531246     1.523603     1.515960     1.508317     1.500674     1.493031     1.485388
      1.477745     1.470102     1.462458     1.454815     1.447172     1.439529     1.431886     1.424243     1.416600     1.408957
      1.401314     1.393671     1.386027     1.378384     1.370741     1.363098     1.355455     1.347812     1.340169     1.332526
      1.324883     1.317240     1.309596     1.301953     1.294310     1.286667     1.279024     1.271381     1.263738     1.256095
      1.248452     1.240808     1.233165     1.225522     1.217879     1.210236     1.202593     1.194950     1.187307     1.179664
      1.172021     1.164377     1.156734     1.149091     1.141448     1.133805     1.126162     1.118519     1.110876     1.103233
      1.095590     1.087946     1.080303     1.072660     1.065017     1.057374     1.049731     1.042088     1.034445     1.026802
      1.019158     1.011515     1.003872     0.996229     0.988586     0.980943     0.973300     0.965657     0.958014     0.950371
      0.942727     0.935084     0.927441     0.919798     0.912155     0.904512     0.896869     0.889226     0.881583     0.873940
      0.866296     0.858653     0.851010     0.843367     0.835724     0.828081     0.820438     0.812795     0.805152     0.797508
      0.789865     0.782222     0.774579     0.766936     0.759293     0.751650     0.744007     0.736364     0.728721     0.721077
      0.713434     0.705791     0.698148     0.690505     0.682862     0.675219     0.667576     0.659933     0.652290     0.644646
      0.637003     0.629360     0.621717     0.614074     0.606431     0.598788     0.591145     0.583502     0.575858     0.568215
      0.560572     0.552929     0.545286     0.537643     0.530000     0.522357     0.514714     0.507071     0.499427     0.491784
      0.484141     0.476498     0.468855     0.461212     0.453569     0.445925     0.438282     0.430639     0.422996     0.415353
      0.407710     0.400067     0.392424     0.384780     0.377137     0.369494     0.361851     0.354208     0.346565     0.338922
      0.331278     0.323635     0.315992     0.308349     0.300706     0.293063     0.285420     0.277777     0.270133     0.262490
      0.254847     0.247204     0.239561     0.231918     0.224275     0.216631     0.208988     0.201345
 NY phased data points follow
  -7.59926E+01 -6.78159E+01 -6.70286E+01 -6.86165E+01 -6.13663E+01 -5.17453E+01 -4.33876E+01 -3.56457E+01 -3.23042E+01 -2.50982E+01
  -2.01108E+01 -2.42029E+01 -2.69106E+01 -3.94152E+01 -4.46265E+01 -5.27090E+01 -5.87828E+01 -6.50604E+01 -6.34219E+01 -6.53165E+01
  -6.04027E+01 -5.95303E+01 -5.59690E+01 -5.64341E+01 -5.18487E+01 -5.09620E+01 -5.12431E+01 -4.74599E+01 -4.31872E+01 -4.46880E+01
  -4.51313E+01 -4.22269E+01 -4.45256E+01 -4.57372E+01 -4.49538E+01 -4.98616E+01 -4.90733E+01 -5.00794E+01 -4.61487E+01 -4.52347E+01
  -5.00673E+01 -4.57189E+01 -4.08688E+01 -4.16645E+01 -3.66997E+01 -3.67580E+01 -3.05827E+01 -3.08625E+01 -3.10244E+01 -3.78854E+01
  -3.70242E+01 -3.69896E+01 -4.01748E+01 -4.44874E+01 -4.15985E+01 -4.15515E+01 -3.69485E+01 -4.00814E+01 -3.44640E+01 -4.07515E+01
  -4.44695E+01 -4.12957E+01 -4.73835E+01 -4.43767E+01 -4.60393E+01 -4.72347E+01 -4.79679E+01 -4.76061E+01 -4.77766E+01 -4.28739E+01
  -3.91381E+01 -4.44716E+01 -4.07656E+01 -3.50810E+01 -3.82131E+01 -3.92038E+01 -4.00473E+01 -3.65359E+01 -4.01149E+01 -3.76876E+01
  -3.90106E+01 -4.17875E+01 -3.50847E+01 -3.42611E+01 -3.35737E+01 -3.36452E+01 -2.99805E+01 -3.12024E+01 -3.02709E+01 -2.94173E+01
  -2.64859E+01 -2.65033E+01 -2.76706E+01 -2.43913E+01 -2.44740E+01 -1.71555E+01 -2.31830E+01 -1.43567E+01 -6.24580E+00 -2.07431E+00
   1.51103E+01  2.75177E+01  4.40372E+01  4.14283E+01  3.84997E+01  2.22973E+01  1.29296E+01 -2.46145E-01 -1.05852E+01 -1.84567E+01
  -2.06220E+01 -2.19098E+01 -2.66292E+01 -2.73327E+01 -2.27153E+01 -2.23561E+01 -2.25465E+01 -1.97503E+01 -1.90674E+01 -1.66159E+01
  -1.46421E+01 -1.11960E+01 -4.23992E+00  1.18792E-01  1.01941E+01  1.74070E+01  3.54611E+01  4.55727E+01  3.54036E+01  3.05187E+01
   1.68304E+01 -2.17207E+00 -4.42991E+00 -1.53059E+01 -1.74059E+01 -1.96941E+01 -2.17181E+01 -2.83384E+01 -2.56409E+01 -2.33387E+01
  -2.14544E+01 -2.19984E+01 -2.27418E+01 -1.50298E+01 -2.36735E+01 -2.10712E+01 -2.38234E+01 -1.75328E+01 -2.06874E+01 -2.10861E+01
  -2.51477E+01 -2.27110E+01 -2.12124E+01 -2.74018E+01 -2.11560E+01 -2.50497E+01 -2.32127E+01 -2.45254E+01 -2.18431E+01 -1.97725E+01
  -1.94988E+01 -2.65241E+01 -2.78222E+01 -3.03401E+01 -2.49077E+01 -2.31908E+01 -1.99111E+01 -2.30623E+01 -2.69721E+01 -3.81406E+01
  -3.75026E+01 -2.88405E+01 -3.90321E+01 -3.63897E+01 -3.56146E+01 -3.42586E+01 -4.01372E+01 -3.80211E+01 -3.52477E+01 -3.11056E+01
  -3.32596E+01 -3.10480E+01 -4.00156E+01 -3.87065E+01 -3.25227E+01 -2.84318E+01 -2.65713E+01 -2.48364E+01 -2.40238E+01 -1.54666E+01
  -9.90398E+00 -8.27701E+00 -7.07212E+00 -1.35771E+01 -1.49462E+01 -1.48786E+01 -1.52427E+01 -1.65789E+01 -2.01604E+01 -2.06995E+01
  -2.06081E+01 -2.15065E+01 -1.49997E+01 -1.58639E+01 -1.76908E+01 -1.34226E+01 -1.44956E+01 -1.73066E+01 -2.06757E+01 -1.87852E+01
  -1.65244E+01 -2.14433E+01 -1.25315E+01 -1.10547E+01 -8.81510E+00 -5.57327E+00 -7.45565E+00  1.23626E+00 -5.07158E+00 -9.95598E+00
  -1.66766E+01 -1.73280E+01 -1.45813E+01 -1.62449E+01 -1.30668E+01 -5.72592E+00 -7.53129E+00 -2.52999E+00 -2.24453E-01  2.70614E+00
  -2.39081E+00 -8.07506E-01 -7.80103E-01 -2.37616E+00 -1.20403E+00 -1.21074E+00  6.06618E-01  1.45201E+00  2.97002E+00 -2.66476E+00
  -2.08987E+00 -1.64870E+00 -3.88025E+00 -7.47303E+00 -6.62213E+00  2.69895E+00  2.36026E+00  6.12493E+00  8.45965E+00  1.12504E+01
   1.42569E+01  1.75297E+01  2.13451E+01  3.25962E+01  4.41512E+01  6.57271E+01  7.00290E+01  7.61095E+01  8.80350E+01  1.00454E+02
   1.22802E+02  1.27390E+02  1.08345E+02  8.68057E+01  5.76402E+01  3.43908E+01  2.16691E+01  1.23641E+01  6.78656E+00  1.70018E+00
   1.75293E-02  7.13934E-01 -4.38606E-02 -1.79123E+00  1.55218E-01 -1.80359E+00  3.01506E+00 -1.81048E+00 -6.22450E-01 -1.75708E+00
  -2.10331E-01 -4.44126E+00 -6.33698E+00 -4.27116E+00 -4.68675E+00 -8.43012E+00 -6.83012E+00 -6.05685E+00 -7.10650E+00 -6.92780E+00
  -6.54176E+00 -2.33694E+00 -5.28041E+00 -5.12119E+00 -4.10407E+00 -4.27725E+00 -3.26886E+00 -3.60031E+00 -4.01979E+00 -8.86536E+00
  -5.64698E+00 -4.11453E+00 -2.60627E+00 -6.99065E+00 -6.73390E-01 -1.55978E+00  5.51774E-01 -9.18520E-01 -4.91944E+00 -2.99452E+00
   3.66946E+00  2.54996E+00 -3.89972E+00 -6.78907E+00 -5.33281E+00 -2.91934E-01 -2.16605E+00 -7.74096E+00 -2.07817E+00 -2.86940E+00
  -8.59620E+00 -6.79491E+00 -7.55521E+00 -8.94200E+00 -7.29531E+00  7.65556E-01 -4.55825E+00 -2.27554E+00 -3.94901E+00 -4.29918E+00
  -8.84410E-01 -6.39312E+00 -4.38348E+00 -8.12346E+00 -6.12249E+00 -4.92335E+00 -2.49684E+00 -5.12913E+00 -4.36661E+00 -5.98332E-01
  -4.28208E+00 -5.46514E+00 -8.17816E-01  6.69024E+00  5.05006E+00  5.89504E+00  5.38695E+00  4.93562E+00  3.56217E+00  5.92275E+00
   2.59269E+00 -4.62475E-01 -1.80389E+00  1.79687E+00  1.96002E+00  3.14994E+00 -2.09891E+00  2.58086E+00 -2.71318E-01 -4.03834E+00
  -3.44689E+00 -3.09290E+00 -4.41009E+00 -1.59697E+00 -2.28304E+00 -1.66163E+00 -2.18589E+00 -2.99576E+00  8.59279E-01 -4.00110E+00
   6.05144E-01  8.85716E-01  4.50123E+00 -1.32942E+00  4.69723E+00  1.94143E+00  9.76938E-01  2.94954E+00 -4.21799E-01 -2.61586E+00
  -1.30096E+00 -2.67203E+00  1.28769E-01 -3.42894E+00  1.64943E-01 -5.67096E+00 -3.99137E+00  2.05644E+00  1.07619E+00 -4.31541E+00
  -2.39553E+00 -3.56476E+00 -1.30839E+00  5.24422E+00  1.84205E+00  4.08921E+00  1.12610E+00  3.45999E+00  4.33783E+00  2.66987E+00
   4.15584E+00  6.25436E+00  1.71263E+00  9.62317E-01  8.35966E+00  6.84194E+00  6.23950E+00  5.29574E+00  6.56880E+00  9.32524E+00
   7.13375E+00  4.78009E+00  7.37899E+00  5.22423E+00  3.66597E+00  2.29881E+00  3.84055E+00  4.90390E+00 -8.89624E-01  1.53264E+00
  -3.61682E+00 -8.76384E-01 -3.40405E+00  1.93139E+00 -2.28362E-01  5.69544E-02  1.63748E+00 -3.33247E+00 -5.11375E+00 -7.90016E-01
  -1.01196E+00 -5.59069E-01 -2.27554E+00 -6.78990E-01 -1.29945E+00 -6.46695E-01  3.45566E+00  8.97965E-02  4.67560E+00  5.12324E+00
  -3.59865E+00  6.83608E-01 -2.18089E+00  1.96578E+00  5.20213E+00 -1.01645E+00  3.31356E+00  3.53560E+00 -5.66968E-01 -8.22886E-01
   2.26751E+00  1.60978E+00 -4.14441E+00 -4.14651E-02  5.84204E+00  9.47430E-01  3.40013E-01  1.09785E+00  2.72316E-01  1.11852E+00
   1.30505E-01  3.13338E+00  4.45136E+00  6.35148E+00  4.89089E+00 -1.50884E+00  2.49503E+00  2.18130E+00 -7.05314E-01  4.08268E+00
   3.16524E+00  1.52530E+00  4.19676E+00  4.25127E+00 -2.76263E+00  2.67357E+00  1.77677E+00  8.51981E+00  5.53131E+00  1.04931E+00
   3.59551E+00  2.94152E+00  3.01925E+00  4.23308E+00  5.50707E+00  5.66917E+00  5.16351E-01 -8.08069E-01 -2.12457E+00  2.62680E+00
   4.88702E+00  2.57053E+00  4.10570E+00  1.79210E+00  3.78196E+00  6.51442E+00  7.38147E+00  3.07653E+00
 NY points of the fit to the data follow
  -7.05493E+01 -6.94931E+01 -6.65574E+01 -6.24076E+01 -5.76766E+01 -5.24823E+01 -4.62784E+01 -3.86889E+01 -3.05946E+01 -2.43423E+01
  -2.22594E+01 -2.50191E+01 -3.13592E+01 -3.89397E+01 -4.56944E+01 -5.07575E+01 -5.43241E+01 -5.68257E+01 -5.82313E+01 -5.88966E+01
  -5.91104E+01 -5.92002E+01 -5.88383E+01 -5.76755E+01 -5.63281E+01 -5.49085E+01 -5.30287E+01 -5.02774E+01 -4.67121E+01 -4.30956E+01
  -4.04612E+01 -3.95084E+01 -4.01846E+01 -4.19295E+01 -4.41133E+01 -4.62677E+01 -4.82220E+01 -5.00243E+01 -5.12119E+01 -5.10491E+01
  -4.96075E+01 -4.74981E+01 -4.52826E+01 -4.30059E+01 -4.04501E+01 -3.76455E+01 -3.52258E+01 -3.41990E+01 -3.50674E+01 -3.74541E+01
  -4.04770E+01 -4.30998E+01 -4.46835E+01 -4.53204E+01 -4.52869E+01 -4.47636E+01 -4.38332E+01 -4.26478E+01 -4.14298E+01 -4.04450E+01
  -3.99805E+01 -4.01883E+01 -4.09463E+01 -4.18786E+01 -4.24665E+01 -4.24773E+01 -4.19851E+01 -4.11541E+01 -4.01308E+01 -3.90628E+01
  -3.80704E+01 -3.73121E+01 -3.68984E+01 -3.68115E+01 -3.69274E+01 -3.70779E+01 -3.71317E+01 -3.70525E+01 -3.68791E+01 -3.66697E+01
  -3.61225E+01 -3.53046E+01 -3.45833E+01 -3.39610E+01 -3.31949E+01 -3.20895E+01 -3.07311E+01 -2.95855E+01 -2.91296E+01 -2.93902E+01
  -3.00551E+01 -3.06646E+01 -3.08496E+01 -3.04924E+01 -2.94140E+01 -2.61366E+01 -1.97678E+01 -1.29660E+01 -6.44651E+00  1.69545E+00
   1.33713E+01  2.76677E+01  4.00480E+01  4.47693E+01  3.95065E+01  2.67588E+01  1.13376E+01 -2.42249E+00 -1.25510E+01 -1.94686E+01
  -2.42328E+01 -2.69893E+01 -2.77794E+01 -2.78356E+01 -2.76761E+01 -2.74034E+01 -2.70404E+01 -2.65461E+01 -2.57135E+01 -2.33826E+01
  -1.78672E+01 -1.13665E+01 -5.30568E+00  1.51222E+00  1.10258E+01  2.32787E+01  3.51479E+01  4.13813E+01  3.87925E+01  2.88444E+01
   1.57040E+01  3.42191E+00 -5.91241E+00 -1.27217E+01 -1.81308E+01 -2.23100E+01 -2.45113E+01 -2.52801E+01 -2.50107E+01 -2.39870E+01
  -2.26939E+01 -2.15999E+01 -2.09758E+01 -2.08943E+01 -2.12346E+01 -2.17536E+01 -2.22799E+01 -2.27805E+01 -2.32113E+01 -2.35643E+01
  -2.38392E+01 -2.40662E+01 -2.42778E+01 -2.44874E+01 -2.47325E+01 -2.49063E+01 -2.48748E+01 -2.47187E+01 -2.46254E+01 -2.49192E+01
  -2.56751E+01 -2.64718E+01 -2.68244E+01 -2.66152E+01 -2.60929E+01 -2.57596E+01 -2.59946E+01 -2.67516E+01 -2.77192E+01 -2.85892E+01
  -2.91936E+01 -2.93921E+01 -2.94290E+01 -2.96619E+01 -3.02469E+01 -3.09538E+01 -3.12127E+01 -3.07430E+01 -2.98992E+01 -2.92424E+01
  -2.90872E+01 -2.91444E+01 -2.87949E+01 -2.78750E+01 -2.66528E+01 -2.54121E+01 -2.41943E+01 -2.26359E+01 -2.04780E+01 -1.79822E+01
  -1.58136E+01 -1.45988E+01 -1.44493E+01 -1.51208E+01 -1.61786E+01 -1.71843E+01 -1.78177E+01 -1.77539E+01 -1.69825E+01 -1.57698E+01
  -1.44150E+01 -1.30924E+01 -1.19165E+01 -1.11450E+01 -1.09093E+01 -1.13939E+01 -1.27990E+01 -1.48574E+01 -1.68476E+01 -1.80045E+01
  -1.82140E+01 -1.76803E+01 -1.63799E+01 -1.41560E+01 -1.12746E+01 -8.67550E+00 -7.39991E+00 -7.80617E+00 -9.61257E+00 -1.24067E+01
  -1.54316E+01 -1.78185E+01 -1.88117E+01 -1.79573E+01 -1.54853E+01 -1.20769E+01 -8.65795E+00 -6.01444E+00 -4.46455E+00 -3.89751E+00
  -3.83473E+00 -3.86219E+00 -3.65603E+00 -2.97195E+00 -1.87178E+00 -7.54653E-01 -9.54036E-02 -4.46298E-02 -5.01687E-01 -1.32191E+00
  -2.33555E+00 -3.11329E+00 -3.17011E+00 -2.26111E+00 -5.13450E-01  1.64729E+00  3.78365E+00  5.62267E+00  7.64592E+00  1.04283E+01
   1.31989E+01  1.59850E+01  2.01610E+01  2.95088E+01  4.53591E+01  6.06570E+01  7.17500E+01  8.08476E+01  9.23167E+01  1.06957E+02
   1.19491E+02  1.21511E+02  1.09254E+02  8.64827E+01  6.08156E+01  3.89729E+01  2.32899E+01  1.25279E+01  4.79336E+00 -3.33495E-03
  -1.64741E+00 -2.25874E+00 -2.53552E+00 -2.63028E+00 -2.70277E+00 -2.87872E+00 -3.16210E+00 -3.52457E+00 -3.90827E+00 -4.25354E+00
  -4.52016E+00 -4.70293E+00 -4.80955E+00 -4.86354E+00 -4.88999E+00 -4.91091E+00 -4.94277E+00 -4.98262E+00 -5.00994E+00 -4.99945E+00
  -4.93068E+00 -4.79847E+00 -4.62295E+00 -4.43534E+00 -4.26182E+00 -4.11495E+00 -3.99485E+00 -3.89216E+00 -3.79252E+00 -3.68280E+00
  -3.55370E+00 -3.40712E+00 -3.25851E+00 -3.12659E+00 -3.02491E+00 -2.95856E+00 -2.92752E+00 -2.93107E+00 -2.96683E+00 -3.02739E+00
  -3.10786E+00 -3.20405E+00 -3.31095E+00 -3.42270E+00 -3.53299E+00 -3.63556E+00 -3.72453E+00 -3.79384E+00 -3.83605E+00 -3.83939E+00
  -3.78559E+00 -3.70266E+00 -3.63687E+00 -3.56898E+00 -3.47090E+00 -3.35498E+00 -3.28404E+00 -3.33377E+00 -3.49424E+00 -3.65496E+00
  -3.74453E+00 -3.72313E+00 -3.56242E+00 -3.24480E+00 -2.77515E+00 -2.19960E+00 -1.61399E+00 -1.13025E+00 -8.07476E-01 -6.20452E-01
  -5.08147E-01 -4.16177E-01 -3.23425E-01 -2.32624E-01 -1.38311E-01 -2.64320E-02  9.22124E-02  2.09253E-01  3.20406E-01  4.22406E-01
   5.12410E-01  5.88113E-01  6.47744E-01  6.89768E-01  7.12574E-01  7.14565E-01  6.94572E-01  6.52186E-01  5.87698E-01  5.01763E-01
   3.95190E-01  2.69131E-01  1.25389E-01 -3.34879E-02 -2.04527E-01 -3.84737E-01 -5.71223E-01 -7.60961E-01 -9.50588E-01 -1.13652E+00
  -1.31532E+00 -1.48396E+00 -1.63971E+00 -1.77986E+00 -1.90156E+00 -2.00203E+00 -2.07880E+00 -2.12986E+00 -2.15330E+00 -2.14710E+00
  -2.10906E+00 -2.03713E+00 -1.92959E+00 -1.78503E+00 -1.60213E+00 -1.37952E+00 -1.11608E+00 -8.11298E-01 -4.65558E-01 -8.00751E-02
   3.43180E-01  8.01373E-01  1.29044E+00  1.80478E+00  2.33724E+00  2.87941E+00  3.42196E+00  3.95469E+00  4.46663E+00  4.94625E+00
   5.38206E+00  5.76337E+00  6.08076E+00  6.32643E+00  6.49433E+00  6.58048E+00  6.58342E+00  6.50442E+00  6.34738E+00  6.11833E+00
   5.82507E+00  5.47687E+00  5.08423E+00  4.65846E+00  4.21104E+00  3.75299E+00  3.29435E+00  2.84412E+00  2.41022E+00  1.99928E+00
   1.61645E+00  1.26522E+00  9.47654E-01  6.64686E-01  4.16443E-01  2.02298E-01  2.08422E-02 -1.29987E-01 -2.52586E-01 -3.49360E-01
  -4.22595E-01 -4.74557E-01 -5.07585E-01 -5.24013E-01 -5.25947E-01 -5.15122E-01 -4.92988E-01 -4.60916E-01 -4.20289E-01 -3.72390E-01
  -3.18235E-01 -2.58545E-01 -1.93921E-01 -1.25029E-01 -5.25961E-02  2.27495E-02  1.00609E-01  1.80749E-01  2.62906E-01  3.46682E-01
   4.31636E-01  5.17461E-01  6.04040E-01  6.91333E-01  7.79237E-01  8.67524E-01  9.55979E-01  1.04455E+00  1.13333E+00  1.22235E+00
   1.31150E+00  1.40060E+00  1.48954E+00  1.57838E+00  1.66726E+00  1.75617E+00  1.84500E+00  1.93359E+00  2.02194E+00  2.11016E+00
   2.19837E+00  2.28654E+00  2.37451E+00  2.46220E+00  2.54970E+00  2.63715E+00  2.72460E+00  2.81197E+00  2.89912E+00  2.98605E+00
   3.07289E+00  3.15977E+00  3.24669E+00  3.33354E+00  3.42022E+00  3.50681E+00  3.59346E+00  3.68026E+00  3.76717E+00  3.85405E+00
   3.94090E+00  4.02784E+00  4.11503E+00  4.20251E+00  4.29019E+00  4.37799E+00  4.46598E+00  4.55433E+00
 NY background values follow
    -7.644E+01   -7.593E+01   -7.543E+01   -7.492E+01   -7.441E+01   -7.391E+01   -7.340E+01   -7.290E+01   -7.239E+01   -7.189E+01
    -7.138E+01   -7.088E+01   -7.038E+01   -6.987E+01   -6.937E+01   -6.887E+01   -6.837E+01   -6.787E+01   -6.737E+01   -6.687E+01
    -6.638E+01   -6.588E+01   -6.539E+01   -6.489E+01   -6.440E+01   -6.391E+01   -6.342E+01   -6.293E+01   -6.244E+01   -6.196E+01
    -6.147E+01   -6.099E+01   -6.051E+01   -6.003E+01   -5.955E+01   -5.908E+01   -5.860E+01   -5.813E+01   -5.766E+01   -5.719E+01
    -5.673E+01   -5.626E+01   -5.580E+01   -5.534E+01   -5.488E+01   -5.443E+01   -5.398E+01   -5.352E+01   -5.308E+01   -5.263E+01
    -5.219E+01   -5.175E+01   -5.131E+01   -5.087E+01   -5.044E+01   -5.001E+01   -4.958E+01   -4.916E+01   -4.874E+01   -4.832E+01
    -4.790E+01   -4.749E+01   -4.708E+01   -4.667E+01   -4.626E+01   -4.586E+01   -4.546E+01   -4.507E+01   -4.467E+01   -4.429E+01
    -4.390E+01   -4.352E+01   -4.314E+01   -4.276E+01   -4.238E+01   -4.201E+01   -4.165E+01   -4.128E+01   -4.092E+01   -4.057E+01
    -4.021E+01   -3.986E+01   -3.952E+01   -3.918E+01   -3.884E+01   -3.850E+01   -3.817E+01   -3.784E+01   -3.752E+01   -3.720E+01
    -3.688E+01   -3.657E+01   -3.626E+01   -3.595E+01   -3.565E+01   -3.535E+01   -3.506E+01   -3.477E+01   -3.448E+01   -3.420E+01
    -3.393E+01   -3.365E+01   -3.338E+01   -3.312E+01   -3.286E+01   -3.260E+01   -3.235E+01   -3.210E+01   -3.185E+01   -3.161E+01
    -3.137E+01   -3.114E+01   -3.091E+01   -3.069E+01   -3.047E+01   -3.026E+01   -3.004E+01   -2.984E+01   -2.964E+01   -2.944E+01
    -2.924E+01   -2.906E+01   -2.887E+01   -2.869E+01   -2.852E+01   -2.834E+01   -2.818E+01   -2.802E+01   -2.786E+01   -2.770E+01
    -2.756E+01   -2.741E+01   -2.727E+01   -2.714E+01   -2.701E+01   -2.688E+01   -2.676E+01   -2.665E+01   -2.654E+01   -2.643E+01
    -2.632E+01   -2.622E+01   -2.613E+01   -2.604E+01   -2.595E+01   -2.586E+01   -2.577E+01   -2.569E+01   -2.561E+01   -2.553E+01
    -2.546E+01   -2.538E+01   -2.531E+01   -2.524E+01   -2.517E+01   -2.510E+01   -2.503E+01   -2.496E+01   -2.489E+01   -2.482E+01
    -2.475E+01   -2.467E+01   -2.460E+01   -2.453E+01   -2.445E+01   -2.438E+01   -2.430E+01   -2.422E+01   -2.414E+01   -2.405E+01
    -2.396E+01   -2.387E+01   -2.378E+01   -2.368E+01   -2.358E+01   -2.348E+01   -2.337E+01   -2.326E+01   -2.314E+01   -2.302E+01
    -2.289E+01   -2.276E+01   -2.263E+01   -2.248E+01   -2.234E+01   -2.219E+01   -2.203E+01   -2.187E+01   -2.171E+01   -2.154E+01
    -2.137E+01   -2.119E+01   -2.101E+01   -2.083E+01   -2.065E+01   -2.046E+01   -2.027E+01   -2.007E+01   -1.988E+01   -1.968E+01
    -1.948E+01   -1.928E+01   -1.908E+01   -1.887E+01   -1.867E+01   -1.846E+01   -1.825E+01   -1.804E+01   -1.784E+01   -1.763E+01
    -1.742E+01   -1.721E+01   -1.700E+01   -1.679E+01   -1.658E+01   -1.638E+01   -1.617E+01   -1.596E+01   -1.576E+01   -1.556E+01
    -1.536E+01   -1.516E+01   -1.496E+01   -1.476E+01   -1.457E+01   -1.438E+01   -1.419E+01   -1.401E+01   -1.383E+01   -1.365E+01
    -1.347E+01   -1.330E+01   -1.313E+01   -1.296E+01   -1.280E+01   -1.264E+01   -1.248E+01   -1.232E+01   -1.217E+01   -1.202E+01
    -1.187E+01   -1.173E+01   -1.158E+01   -1.145E+01   -1.131E+01   -1.118E+01   -1.105E+01   -1.092E+01   -1.079E+01   -1.067E+01
    -1.055E+01   -1.044E+01   -1.032E+01   -1.021E+01   -1.011E+01   -1.000E+01   -9.899E+00   -9.799E+00   -9.703E+00   -9.610E+00
    -9.519E+00   -9.431E+00   -9.346E+00   -9.264E+00   -9.184E+00   -9.108E+00   -9.034E+00   -8.963E+00   -8.895E+00   -8.829E+00
    -8.767E+00   -8.707E+00   -8.650E+00   -8.595E+00   -8.544E+00   -8.495E+00   -8.448E+00   -8.404E+00   -8.362E+00   -8.323E+00
    -8.285E+00   -8.250E+00   -8.217E+00   -8.186E+00   -8.157E+00   -8.129E+00   -8.104E+00   -8.080E+00   -8.057E+00   -8.037E+00
    -8.017E+00   -7.999E+00   -7.983E+00   -7.967E+00   -7.953E+00   -7.940E+00   -7.928E+00   -7.917E+00   -7.906E+00   -7.897E+00
    -7.888E+00   -7.880E+00   -7.872E+00   -7.865E+00   -7.858E+00   -7.852E+00   -7.846E+00   -7.840E+00   -7.834E+00   -7.829E+00
    -7.823E+00   -7.817E+00   -7.811E+00   -7.805E+00   -7.798E+00   -7.791E+00   -7.784E+00   -7.776E+00   -7.767E+00   -7.758E+00
    -7.749E+00   -7.738E+00   -7.728E+00   -7.716E+00   -7.704E+00   -7.692E+00   -7.679E+00   -7.665E+00   -7.651E+00   -7.637E+00
    -7.621E+00   -7.606E+00   -7.589E+00   -7.573E+00   -7.555E+00   -7.538E+00   -7.519E+00   -7.500E+00   -7.481E+00   -7.461E+00
    -7.441E+00   -7.420E+00   -7.398E+00   -7.376E+00   -7.354E+00   -7.331E+00   -7.307E+00   -7.283E+00   -7.258E+00   -7.233E+00
    -7.208E+00   -7.182E+00   -7.155E+00   -7.128E+00   -7.101E+00   -7.073E+00   -7.044E+00   -7.015E+00   -6.986E+00   -6.956E+00
    -6.926E+00   -6.895E+00   -6.863E+00   -6.832E+00   -6.799E+00   -6.766E+00   -6.733E+00   -6.699E+00   -6.664E+00   -6.629E+00
    -6.592E+00   -6.556E+00   -6.518E+00   -6.480E+00   -6.440E+00   -6.400E+00   -6.359E+00   -6.317E+00   -6.274E+00   -6.230E+00
    -6.185E+00   -6.139E+00   -6.092E+00   -6.044E+00   -5.994E+00   -5.944E+00   -5.892E+00   -5.839E+00   -5.784E+00   -5.729E+00
    -5.672E+00   -5.613E+00   -5.554E+00   -5.492E+00   -5.430E+00   -5.365E+00   -5.300E+00   -5.232E+00   -5.164E+00   -5.093E+00
    -5.021E+00   -4.947E+00   -4.871E+00   -4.794E+00   -4.715E+00   -4.634E+00   -4.551E+00   -4.466E+00   -4.380E+00   -4.292E+00
    -4.201E+00   -4.110E+00   -4.016E+00   -3.921E+00   -3.825E+00   -3.727E+00   -3.627E+00   -3.527E+00   -3.425E+00   -3.321E+00
    -3.217E+00   -3.112E+00   -3.005E+00   -2.898E+00   -2.790E+00   -2.681E+00   -2.571E+00   -2.460E+00   -2.349E+00   -2.238E+00
    -2.125E+00   -2.013E+00   -1.899E+00   -1.786E+00   -1.672E+00   -1.558E+00   -1.444E+00   -1.330E+00   -1.216E+00   -1.102E+00
    -9.876E-01   -8.737E-01   -7.600E-01   -6.466E-01   -5.335E-01   -4.208E-01   -3.086E-01   -1.969E-01   -8.587E-02    2.456E-02
     1.343E-01    2.432E-01    3.513E-01    4.585E-01    5.649E-01    6.704E-01    7.751E-01    8.790E-01    9.821E-01    1.084E+00
     1.186E+00    1.287E+00    1.387E+00    1.487E+00    1.585E+00    1.684E+00    1.781E+00    1.878E+00    1.975E+00    2.070E+00
     2.166E+00    2.261E+00    2.355E+00    2.449E+00    2.542E+00    2.635E+00    2.728E+00    2.820E+00    2.911E+00    3.003E+00
     3.094E+00    3.185E+00    3.275E+00    3.365E+00    3.455E+00    3.545E+00    3.634E+00    3.724E+00    3.813E+00    3.902E+00
     3.990E+00    4.079E+00    4.168E+00    4.256E+00    4.345E+00    4.433E+00    4.522E+00    4.610E+00
 Ala      Conc. = 7.32E+01
