 LCModel (Version 6.3-1L) Copyright: S.W. Provencher.          Ref.: Magn. Reson. Med. 30:672-679 (1993).                
 Slice#1 Row#3 Col#8  K_02_press_1_raw_act
 36 lines in following concentration table = NCONC+1
    Conc.  %SD /Cr+PCr  Metabolite                                         
  244.589  46%   0.179 Ala                                                 
   14.598 999% 1.1E-02 Asp                                                 
  402.029  65%   0.294 Cr                                                  
  967.300  28%   0.706 PCr                                                 
   45.122 301% 3.3E-02 GABA                                                
   15.173 914% 1.1E-02 Glc                                                 
   46.590 464% 3.4E-02 Gln                                                 
 1.33E+03  19%   0.975 Glu                                                 
  423.460   6%   0.309 GPC                                                 
    0.000 999%   0.000 PCh                                                 
  320.207  24%   0.234 GSH                                                 
 1.13E+03  22%   0.828 Ins                                                 
  438.125  28%   0.320 Lac                                                 
 1.78E+03   7%   1.297 NAA                                                 
  152.307  87%   0.111 NAAG                                                
   33.583  81% 2.5E-02 Scyllo                                              
  158.245 122%   0.116 Tau                                                 
  654.802  19%   0.478 -CrCH2                                              
  423.460   6%   0.309 GPC+PCh                                             
 1.93E+03   5%   1.409 NAA+NAAG                                            
 1.37E+03   5%   1.000 Cr+PCr                                              
 1.38E+03  24%   1.009 Glu+Gln                                             
 7.58E+03  20%   5.532 Lip13a                                              
    0.000 999%   0.000 Lip13b                                              
 1.96E+03  29%   1.435 Lip09                                               
 2.11E+03  29%   1.544 MM09                                                
 1.55E+03  19%   1.135 Lip20                                               
 2.06E+03  25%   1.505 MM20                                                
  858.252  63%   0.627 MM12                                                
 2.42E+03  30%   1.765 MM14                                                
 1.18E+03  29%   0.862 MM17                                                
 7.58E+03  20%   5.532 Lip13a+Lip13b                                       
 1.09E+04   8%   7.924 MM14+Lip13a+Lip13b+MM12                             
 4.08E+03   9%   2.979 MM09+Lip09                                          
 3.62E+03  12%   2.640 MM20+Lip20                                          
   6 lines in following misc. output table
  FWHM = 0.046 ppm    S/N =  10                                            
  Data shift = 0.008 ppm                                                   
  Ph:  31 deg      13.0 deg/ppm                                            
  alphaB,S = 1.6E+00,   8.7E+01                                            
   14 spline knots.   Ns = 6(1)                                            
  (11) 2 infls.   ( 3) 1 extrs.                                            
  498 points on ppm-axis = NY
      4.000000     3.992357     3.984714     3.977070     3.969427     3.961784     3.954141     3.946497     3.938854     3.931211
      3.923568     3.915925     3.908281     3.900638     3.892995     3.885352     3.877708     3.870065     3.862422     3.854779
      3.847136     3.839492     3.831849     3.824206     3.816563     3.808919     3.801276     3.793633     3.785990     3.778347
      3.770703     3.763060     3.755417     3.747774     3.740130     3.732487     3.724844     3.717201     3.709558     3.701914
      3.694271     3.686628     3.678985     3.671341     3.663698     3.656055     3.648412     3.640769     3.633125     3.625482
      3.617839     3.610196     3.602552     3.594909     3.587266     3.579623     3.571980     3.564336     3.556693     3.549050
      3.541407     3.533763     3.526120     3.518477     3.510834     3.503191     3.495547     3.487904     3.480261     3.472618
      3.464974     3.457331     3.449688     3.442045     3.434402     3.426758     3.419115     3.411472     3.403829     3.396185
      3.388542     3.380899     3.373256     3.365613     3.357969     3.350326     3.342683     3.335040     3.327396     3.319753
      3.312110     3.304467     3.296824     3.289180     3.281537     3.273894     3.266251     3.258607     3.250964     3.243321
      3.235678     3.228034     3.220391     3.212748     3.205105     3.197462     3.189818     3.182175     3.174532     3.166889
      3.159245     3.151602     3.143959     3.136316     3.128673     3.121029     3.113386     3.105743     3.098100     3.090456
      3.082813     3.075170     3.067527     3.059884     3.052240     3.044597     3.036954     3.029311     3.021667     3.014024
      3.006381     2.998738     2.991095     2.983451     2.975808     2.968165     2.960522     2.952878     2.945235     2.937592
      2.929949     2.922306     2.914662     2.907019     2.899376     2.891733     2.884089     2.876446     2.868803     2.861160
      2.853517     2.845873     2.838230     2.830587     2.822944     2.815300     2.807657     2.800014     2.792371     2.784728
      2.777084     2.769441     2.761798     2.754155     2.746511     2.738868     2.731225     2.723582     2.715939     2.708295
      2.700652     2.693009     2.685366     2.677722     2.670079     2.662436     2.654793     2.647150     2.639506     2.631863
      2.624220     2.616577     2.608933     2.601290     2.593647     2.586004     2.578361     2.570717     2.563074     2.555431
      2.547788     2.540144     2.532501     2.524858     2.517215     2.509572     2.501928     2.494285     2.486642     2.478999
      2.471355     2.463712     2.456069     2.448426     2.440783     2.433139     2.425496     2.417853     2.410210     2.402566
      2.394923     2.387280     2.379637     2.371994     2.364350     2.356707     2.349064     2.341421     2.333777     2.326134
      2.318491     2.310848     2.303205     2.295561     2.287918     2.280275     2.272632     2.264988     2.257345     2.249702
      2.242059     2.234416     2.226772     2.219129     2.211486     2.203843     2.196199     2.188556     2.180913     2.173270
      2.165627     2.157983     2.150340     2.142697     2.135054     2.127410     2.119767     2.112124     2.104481     2.096838
      2.089194     2.081551     2.073908     2.066265     2.058621     2.050978     2.043335     2.035692     2.028049     2.020405
      2.012762     2.005119     1.997476     1.989833     1.982190     1.974546     1.966903     1.959260     1.951617     1.943974
      1.936331     1.928688     1.921045     1.913402     1.905759     1.898115     1.890472     1.882829     1.875186     1.867543
      1.859900     1.852257     1.844614     1.836971     1.829327     1.821684     1.814041     1.806398     1.798755     1.791112
      1.783469     1.775826     1.768183     1.760540     1.752896     1.745253     1.737610     1.729967     1.722324     1.714681
      1.707038     1.699395     1.691752     1.684108     1.676465     1.668822     1.661179     1.653536     1.645893     1.638250
      1.630607     1.622964     1.615321     1.607677     1.600034     1.592391     1.584748     1.577105     1.569462     1.561819
      1.554176     1.546533     1.538890     1.531246     1.523603     1.515960     1.508317     1.500674     1.493031     1.485388
      1.477745     1.470102     1.462458     1.454815     1.447172     1.439529     1.431886     1.424243     1.416600     1.408957
      1.401314     1.393671     1.386027     1.378384     1.370741     1.363098     1.355455     1.347812     1.340169     1.332526
      1.324883     1.317240     1.309596     1.301953     1.294310     1.286667     1.279024     1.271381     1.263738     1.256095
      1.248452     1.240808     1.233165     1.225522     1.217879     1.210236     1.202593     1.194950     1.187307     1.179664
      1.172021     1.164377     1.156734     1.149091     1.141448     1.133805     1.126162     1.118519     1.110876     1.103233
      1.095590     1.087946     1.080303     1.072660     1.065017     1.057374     1.049731     1.042088     1.034445     1.026802
      1.019158     1.011515     1.003872     0.996229     0.988586     0.980943     0.973300     0.965657     0.958014     0.950371
      0.942727     0.935084     0.927441     0.919798     0.912155     0.904512     0.896869     0.889226     0.881583     0.873940
      0.866296     0.858653     0.851010     0.843367     0.835724     0.828081     0.820438     0.812795     0.805152     0.797508
      0.789865     0.782222     0.774579     0.766936     0.759293     0.751650     0.744007     0.736364     0.728721     0.721077
      0.713434     0.705791     0.698148     0.690505     0.682862     0.675219     0.667576     0.659933     0.652290     0.644646
      0.637003     0.629360     0.621717     0.614074     0.606431     0.598788     0.591145     0.583502     0.575858     0.568215
      0.560572     0.552929     0.545286     0.537643     0.530000     0.522357     0.514714     0.507071     0.499427     0.491784
      0.484141     0.476498     0.468855     0.461212     0.453569     0.445925     0.438282     0.430639     0.422996     0.415353
      0.407710     0.400067     0.392424     0.384780     0.377137     0.369494     0.361851     0.354208     0.346565     0.338922
      0.331278     0.323635     0.315992     0.308349     0.300706     0.293063     0.285420     0.277777     0.270133     0.262490
      0.254847     0.247204     0.239561     0.231918     0.224275     0.216631     0.208988     0.201345
 NY phased data points follow
  -1.16414E+01 -4.05962E+00 -5.84449E+00 -1.00788E+01 -9.19316E+00 -2.94318E+00 -1.11679E+00  1.86528E+00  5.79849E+00  1.17801E+01
   1.22026E+01  1.52690E+01  1.39655E+01  1.14836E+01  7.86908E+00  1.19753E+00  8.39726E-01 -2.12377E+00 -4.33422E+00 -1.44396E+00
  -1.53721E-02 -8.00085E+00 -6.43762E+00 -8.25317E+00 -3.78072E+00 -3.68016E-01 -3.07749E+00  9.59351E-01 -5.89767E+00  9.35694E-01
   3.34398E+00 -3.25711E+00  2.99830E+00  1.37458E+00  3.62016E+00 -9.05632E-01 -3.70534E+00 -2.24588E+00 -2.30112E+00 -8.22990E+00
  -2.39621E+00 -8.32622E+00 -4.64421E+00  4.39275E+00 -8.83103E-01 -1.30650E-01  6.05418E+00  9.84981E+00  9.86366E+00  3.54766E+00
   4.25820E+00  5.00126E-01  2.94395E-01 -1.99345E+00 -1.86571E+00  1.69436E+00  5.91975E+00 -3.52491E-02 -4.44178E+00 -1.48991E+00
  -4.93523E+00  9.77000E-01 -1.67566E+00 -8.01560E+00 -3.00787E+00 -2.47446E+00 -8.88536E+00 -5.49139E+00 -1.03812E+01 -8.03956E+00
  -5.97053E+00 -5.56151E+00 -5.50689E+00 -7.26366E+00 -4.69419E+00 -8.27395E+00 -4.77474E+00 -4.68803E+00  8.88630E-01 -4.33568E+00
  -1.23818E+01 -4.34789E+00 -5.53756E+00 -7.95830E+00 -3.27349E+00 -5.05319E+00 -1.00913E+01 -9.83685E+00 -7.26763E+00 -4.16896E-01
  -1.82493E+00 -4.10159E+00 -2.44835E+00  1.21766E+00  4.43688E-01 -7.26386E+00 -2.19534E+00 -2.37465E+00  1.16345E+00  4.90465E+00
   1.48555E+01  1.79428E+01  3.07295E+01  4.14565E+01  4.04474E+01  3.11827E+01  2.24560E+01  1.29489E+01  6.18419E-01  5.73121E+00
  -2.83416E+00  9.36000E-01 -5.25414E+00 -3.46365E+00  4.22307E-01 -1.77688E+00 -3.80680E+00 -3.89290E+00  2.38209E+00 -5.01965E-03
   3.31101E+00  3.92927E+00  5.30404E+00  1.14110E+01  1.93645E+01  2.67241E+01  3.74617E+01  4.17601E+01  5.20421E+01  2.96556E+01
   2.71318E+01  1.88375E+01  1.30358E+01  9.01976E+00  9.62266E+00  3.40717E+00 -9.30611E-01  3.05577E+00  5.94840E-02  4.00015E+00
  -2.03446E+00 -2.11985E+00  3.87933E+00 -1.48003E-01 -5.49073E+00 -7.59047E-01  1.36025E+00 -4.37609E+00 -2.20312E+00 -4.46154E+00
  -3.23305E+00 -1.85748E+00 -4.42141E+00 -2.21214E+00  2.26297E+00 -3.18364E+00  1.28618E+00 -2.57604E+00 -5.36449E+00 -1.50106E+00
  -4.08187E+00 -1.77329E-01 -4.98173E+00 -3.79424E+00 -5.48050E+00 -3.54666E+00 -6.68242E+00 -5.45806E+00  2.50627E+00 -8.07286E+00
  -1.51338E+01 -6.53827E+00 -1.24026E+01 -1.26364E+01 -1.10447E+01 -1.17818E+01 -1.44754E+01 -1.71489E+01 -1.88117E+01 -1.71726E+01
  -1.07631E+01 -1.73986E+01 -1.25696E+01 -1.55430E+01 -8.82223E+00 -1.17304E+01 -9.69989E+00 -1.39935E+01 -6.21484E+00 -8.58429E+00
  -5.83484E+00 -8.59542E+00 -7.98774E+00 -3.91979E+00 -1.47551E+01 -4.90756E+00 -1.30113E+01 -1.53182E+01 -1.51148E+01 -1.74733E+01
  -4.95150E+00 -1.20239E+01 -8.71981E+00 -6.69557E-01 -5.89900E+00 -5.47010E+00 -1.05045E+01 -1.86298E+00 -6.62954E+00 -4.95339E+00
  -5.50249E+00 -6.64882E+00 -4.76213E+00  3.03976E+00  1.03223E+01  8.00177E+00  2.37993E+00  5.35609E+00 -2.42204E+00 -2.89731E-02
  -9.03432E+00 -1.48667E+01 -1.21382E+01 -8.18866E+00 -1.34583E+00  1.31057E+00  3.47611E+00  3.16783E+00 -2.38053E+00 -2.11119E+00
  -1.85621E+00  6.28034E-01  9.68042E-01 -1.49382E+00  3.18292E+00  3.40107E+00 -1.81039E+00  7.15194E+00  2.05648E+00  3.70475E+00
  -3.17156E-02  1.15882E+00 -3.52223E+00 -4.65555E+00  2.60112E+00  3.79731E+00  9.35883E+00  7.65745E+00  1.32369E+01  9.24857E+00
   9.58027E+00  1.67848E+01  2.16693E+01  1.12363E+01  2.82970E+01  2.92636E+01  3.62645E+01  5.13994E+01  6.98803E+01  8.05689E+01
   8.41401E+01  7.30514E+01  5.44258E+01  3.79728E+01  2.15741E+01  1.27343E+01  7.79711E+00  1.64742E+00  7.20536E-01 -3.63869E+00
  -4.05501E+00 -1.26184E+01  8.56052E-01 -4.99205E+00 -2.68444E+00 -3.23953E+00 -3.83961E+00 -3.64271E-01 -3.23335E+00 -1.27233E+00
  -4.92607E+00 -6.44139E+00 -1.79415E+00 -1.05888E+00 -9.37164E+00 -1.48648E-01 -4.85845E+00 -1.72153E-01 -2.85385E-01 -2.71368E+00
  -3.63677E+00 -3.55864E+00 -6.86235E+00  1.59571E+00 -4.34502E+00 -9.17444E+00 -1.75254E+00 -1.89628E+00  9.63676E-01 -2.22284E+00
   7.09309E+00  2.50503E-01  1.59185E+00  5.30215E+00  2.67219E+00  5.74201E+00  5.10487E+00  1.22214E+01  2.55684E+00  1.15824E+01
   8.85339E+00  5.69052E+00  6.80072E+00  9.66890E+00  5.97036E+00  3.38528E+00  6.56089E+00  1.05528E+01  1.13018E+01  9.94448E+00
   8.50935E+00  3.62342E+00  8.65856E+00  9.27339E+00  8.84293E+00  1.12081E+01  1.10961E+01  1.01847E+01  9.44090E+00  8.37920E+00
   1.11470E+01  1.24235E+01  9.87477E+00  1.36348E+01  1.33042E+01  1.40787E+01  2.02904E+01  2.23925E+01  2.32101E+01  2.01831E+01
   3.18643E+01  2.76557E+01  2.97276E+01  3.47251E+01  3.61921E+01  3.69145E+01  3.57967E+01  3.52627E+01  3.13636E+01  2.70424E+01
   2.17453E+01  1.92422E+01  2.25605E+01  2.71118E+01  2.70624E+01  3.23495E+01  2.68245E+01  3.18570E+01  2.28310E+01  2.23628E+01
   2.87657E+01  1.95995E+01  2.43567E+01  2.28315E+01  2.59341E+01  2.88455E+01  2.65547E+01  2.30915E+01  2.58756E+01  2.60540E+01
   2.55150E+01  2.58881E+01  2.49087E+01  1.96624E+01  1.43059E+01  1.91861E+01  2.40522E+01  1.59308E+01  2.10177E+01  1.95316E+01
   1.88025E+01  2.11514E+01  2.10542E+01  2.11326E+01  1.75492E+01  1.38784E+01  2.12364E+01  1.81647E+01  1.51623E+01  2.16321E+01
   2.33303E+01  2.09627E+01  2.97974E+01  1.72210E+01  2.57058E+01  2.77811E+01  2.43004E+01  2.25698E+01  2.61579E+01  2.76932E+01
   2.27069E+01  2.74375E+01  2.61744E+01  2.77748E+01  2.97114E+01  2.37917E+01  1.98225E+01  2.04544E+01  2.95432E+01  2.37055E+01
   2.05941E+01  2.06153E+01  1.84118E+01  1.34981E+01  1.64694E+01  1.45200E+01  1.27794E+01  1.48066E+01  1.26315E+01  1.29818E+01
   9.79040E+00  9.83185E+00  7.78771E+00  1.05889E+01  1.11811E+01  6.56184E+00  5.25804E+00  1.04742E+01  7.55304E+00  5.55197E+00
   1.01113E+01  4.91664E+00  2.38752E+00  5.63572E+00  2.62400E+00  3.71558E+00  1.15044E+01  1.11980E+00  8.00367E+00  5.53047E+00
   3.61291E+00  1.00945E+00  7.59729E+00  6.19019E+00  5.67487E-01  2.28480E+00  2.95976E+00  4.43023E+00  2.58641E+00  6.02626E+00
   4.79229E-01  3.66533E-01  1.49024E+00  5.26208E+00  3.90838E+00  1.67849E-01  4.94924E+00  2.91763E+00  4.00721E+00  4.72302E-01
   6.39238E+00  3.73733E+00  4.38373E+00  6.46277E-01  1.01113E+00  2.05111E+00  3.05452E+00  1.73136E+00  7.57097E+00 -1.13849E+00
  -1.45336E+00 -1.02585E+00  1.47609E+00  5.87547E+00  5.62421E-01 -1.65354E-01  4.96393E+00  1.34266E+00  9.26974E+00 -1.63527E+00
   3.16631E+00  3.38955E+00  1.17498E+00 -2.08272E-01  4.13490E+00  1.21919E+00  6.78666E+00  5.17219E+00  3.22973E+00  4.91608E+00
   2.25842E+00  2.94640E+00 -2.63594E+00  2.75117E+00  6.37210E+00 -1.59144E-01  9.45906E-01  1.59154E+00
 NY points of the fit to the data follow
  -4.92546E+00 -5.09880E+00 -5.21650E+00 -5.37159E+00 -4.74210E+00 -3.45571E+00 -1.53774E+00  1.37109E+00  5.64439E+00  1.06683E+01
   1.46989E+01  1.59648E+01  1.41472E+01  1.03457E+01  6.17639E+00  2.88120E+00  5.57104E-01 -1.20512E+00 -2.26786E+00 -2.82017E+00
  -2.98169E+00 -3.03626E+00 -3.19796E+00 -3.42600E+00 -3.46695E+00 -3.37840E+00 -3.17252E+00 -2.43125E+00 -8.02021E-01  1.39684E+00
   3.35729E+00  4.42959E+00  4.39360E+00  3.36008E+00  1.74547E+00 -1.08692E-01 -1.96250E+00 -3.46480E+00 -4.25733E+00 -4.46509E+00
  -4.30170E+00 -3.65577E+00 -2.46836E+00 -9.39427E-01  8.11059E-01  2.77730E+00  4.52408E+00  5.24905E+00  4.49472E+00  2.46637E+00
  -8.16464E-02 -2.36130E+00 -3.94002E+00 -4.79069E+00 -5.07438E+00 -4.87600E+00 -4.26456E+00 -3.46296E+00 -2.67364E+00 -2.08534E+00
  -1.93263E+00 -2.31461E+00 -3.13621E+00 -4.09630E+00 -4.86225E+00 -5.24293E+00 -5.20083E+00 -4.86054E+00 -4.39758E+00 -3.91242E+00
  -3.43993E+00 -3.07976E+00 -2.89973E+00 -2.92032E+00 -3.11262E+00 -3.43031E+00 -3.84448E+00 -4.29741E+00 -4.72568E+00 -5.03912E+00
  -5.10974E+00 -4.99423E+00 -4.86678E+00 -4.81499E+00 -4.88235E+00 -5.17685E+00 -5.74963E+00 -6.48673E+00 -7.11871E+00 -7.39321E+00
  -7.21918E+00 -6.74313E+00 -6.20670E+00 -5.74924E+00 -5.39075E+00 -5.08558E+00 -4.64901E+00 -3.11637E+00  6.58498E-01  6.06785E+00
   1.33650E+01  2.27183E+01  3.23579E+01  3.86889E+01  3.86904E+01  3.23323E+01  2.26456E+01  1.31140E+01  5.78288E+00  9.42603E-01
  -2.35374E+00 -4.50507E+00 -5.26596E+00 -5.47147E+00 -5.53848E+00 -5.55415E+00 -5.52563E+00 -5.45816E+00 -5.32549E+00 -5.03628E+00
  -4.29663E+00 -1.96059E+00  2.86328E+00  9.49594E+00  1.81666E+01  2.87615E+01  3.90738E+01  4.53067E+01  4.46096E+01  3.73851E+01
   2.70152E+01  1.70426E+01  9.34809E+00  3.93921E+00 -2.09594E-01 -3.23266E+00 -4.68795E+00 -5.18508E+00 -5.00803E+00 -4.34864E+00
  -3.50962E+00 -2.77776E+00 -2.30350E+00 -2.13386E+00 -2.18652E+00 -2.32220E+00 -2.45427E+00 -2.54217E+00 -2.58872E+00 -2.63350E+00
  -2.66813E+00 -2.70378E+00 -2.73768E+00 -2.75068E+00 -2.77662E+00 -2.86678E+00 -3.00720E+00 -3.25827E+00 -3.64806E+00 -4.11068E+00
  -4.52424E+00 -4.66597E+00 -4.50557E+00 -4.30255E+00 -4.38078E+00 -4.88303E+00 -5.68174E+00 -6.49721E+00 -7.18015E+00 -7.75934E+00
  -8.30849E+00 -8.82011E+00 -9.29987E+00 -9.77221E+00 -1.02234E+01 -1.05058E+01 -1.04524E+01 -1.01924E+01 -1.00177E+01 -1.00936E+01
  -1.03522E+01 -1.05949E+01 -1.06075E+01 -1.04923E+01 -1.03818E+01 -1.01097E+01 -9.42606E+00 -8.24594E+00 -6.78336E+00 -5.41350E+00
  -4.36982E+00 -3.83598E+00 -3.88028E+00 -4.29114E+00 -4.89712E+00 -5.64576E+00 -6.39212E+00 -6.89982E+00 -6.97060E+00 -6.54346E+00
  -5.69127E+00 -4.65209E+00 -3.70164E+00 -3.10477E+00 -3.07876E+00 -3.62755E+00 -4.69960E+00 -6.07004E+00 -7.33702E+00 -8.21406E+00
  -8.31044E+00 -7.48267E+00 -5.71313E+00 -3.14209E+00 -3.73377E-01  1.51384E+00  1.58480E+00 -2.73482E-01 -3.31827E+00 -6.56879E+00
  -9.32755E+00 -1.08959E+01 -1.07039E+01 -8.71711E+00 -5.44687E+00 -2.03342E+00  5.92863E-01  2.13822E+00  2.69988E+00  2.57096E+00
   2.05348E+00  1.52903E+00  1.41620E+00  1.81238E+00  2.45570E+00  3.06466E+00  3.36844E+00  3.11574E+00  2.34890E+00  1.32053E+00
   4.33579E-01  1.00159E-01  6.14308E-01  1.97599E+00  3.86053E+00  5.80306E+00  7.42414E+00  8.52424E+00  9.07380E+00  9.33625E+00
   9.82238E+00  1.07595E+01  1.22984E+01  1.53738E+01  2.20696E+01  3.08599E+01  4.11880E+01  5.38948E+01  6.77571E+01  7.81676E+01
   7.98796E+01  7.13613E+01  5.63129E+01  4.02176E+01  2.69571E+01  1.77009E+01  1.11018E+01  6.06702E+00  3.40247E+00  2.00687E+00
   1.01719E+00  3.16676E-01 -1.09803E-01 -3.53928E-01 -5.54332E-01 -7.96217E-01 -1.11183E+00 -1.48257E+00 -1.86785E+00 -2.22818E+00
  -2.53825E+00 -2.77588E+00 -2.93061E+00 -3.01637E+00 -3.05642E+00 -3.07101E+00 -3.06719E+00 -3.04085E+00 -2.98471E+00 -2.89017E+00
  -2.74496E+00 -2.54204E+00 -2.28224E+00 -1.97101E+00 -1.60804E+00 -1.19117E+00 -7.20220E-01 -1.94252E-01  3.86674E-01  1.01916E+00
   1.69735E+00  2.40899E+00  3.13561E+00  3.85674E+00  4.55227E+00  5.20466E+00  5.79852E+00  6.31972E+00  6.75770E+00  7.10568E+00
   7.36092E+00  7.52613E+00  7.60869E+00  7.62058E+00  7.57834E+00  7.50284E+00  7.41846E+00  7.35240E+00  7.33447E+00  7.39944E+00
   7.59646E+00  8.01053E+00  8.63809E+00  9.34612E+00  1.01205E+01  1.08643E+01  1.13298E+01  1.12906E+01  1.07645E+01  1.01347E+01
   9.97276E+00  1.04835E+01  1.16863E+01  1.35698E+01  1.60286E+01  1.88211E+01  2.15079E+01  2.36290E+01  2.51227E+01  2.61969E+01
   2.71561E+01  2.83100E+01  2.95657E+01  3.06842E+01  3.17163E+01  3.23974E+01  3.21989E+01  3.07313E+01  2.81631E+01  2.54631E+01
   2.35241E+01  2.26793E+01  2.30638E+01  2.46038E+01  2.69071E+01  2.93613E+01  3.11587E+01  3.18042E+01  3.14888E+01  3.06471E+01
   2.96745E+01  2.87272E+01  2.77550E+01  2.68533E+01  2.60747E+01  2.53450E+01  2.46309E+01  2.39211E+01  2.32133E+01  2.25094E+01
   2.18146E+01  2.11359E+01  2.04820E+01  1.98624E+01  1.92863E+01  1.87634E+01  1.83030E+01  1.79144E+01  1.76063E+01  1.73862E+01
   1.72604E+01  1.72336E+01  1.73092E+01  1.74888E+01  1.77717E+01  1.81549E+01  1.86324E+01  1.91958E+01  1.98340E+01  2.05334E+01
   2.12778E+01  2.20486E+01  2.28254E+01  2.35869E+01  2.43113E+01  2.49775E+01  2.55647E+01  2.60544E+01  2.64303E+01  2.66797E+01
   2.67933E+01  2.67661E+01  2.65965E+01  2.62871E+01  2.58441E+01  2.52772E+01  2.45987E+01  2.38229E+01  2.29652E+01  2.20419E+01
   2.10695E+01  2.00642E+01  1.90411E+01  1.80140E+01  1.69949E+01  1.59944E+01  1.50215E+01  1.40833E+01  1.31854E+01  1.23316E+01
   1.15243E+01  1.07649E+01  1.00539E+01  9.39108E+00  8.77514E+00  8.20445E+00  7.67683E+00  7.19020E+00  6.74219E+00  6.33043E+00
   5.95224E+00  5.60513E+00  5.28662E+00  4.99463E+00  4.72699E+00  4.48175E+00  4.25683E+00  4.05049E+00  3.86109E+00  3.68737E+00
   3.52796E+00  3.38166E+00  3.24715E+00  3.12351E+00  3.00981E+00  2.90544E+00  2.80953E+00  2.72142E+00  2.64031E+00  2.56578E+00
   2.49733E+00  2.43468E+00  2.37724E+00  2.32466E+00  2.27643E+00  2.23244E+00  2.19238E+00  2.15612E+00  2.12322E+00  2.09348E+00
   2.06659E+00  2.04258E+00  2.02125E+00  2.00250E+00  1.98599E+00  1.97163E+00  1.95925E+00  1.94894E+00  1.94050E+00  1.93388E+00
   1.92878E+00  1.92522E+00  1.92310E+00  1.92253E+00  1.92331E+00  1.92539E+00  1.92852E+00  1.93282E+00  1.93820E+00  1.94476E+00
   1.95227E+00  1.96072E+00  1.96992E+00  1.98004E+00  1.99099E+00  2.00285E+00  2.01538E+00  2.02858E+00  2.04235E+00  2.05686E+00
   2.07200E+00  2.08782E+00  2.10408E+00  2.12084E+00  2.13803E+00  2.15582E+00  2.17407E+00  2.19280E+00
 NY background values follow
    -8.002E+00   -7.998E+00   -7.995E+00   -7.992E+00   -7.988E+00   -7.985E+00   -7.982E+00   -7.978E+00   -7.975E+00   -7.972E+00
    -7.969E+00   -7.965E+00   -7.962E+00   -7.959E+00   -7.955E+00   -7.952E+00   -7.949E+00   -7.946E+00   -7.942E+00   -7.939E+00
    -7.936E+00   -7.933E+00   -7.929E+00   -7.926E+00   -7.923E+00   -7.920E+00   -7.917E+00   -7.914E+00   -7.910E+00   -7.907E+00
    -7.904E+00   -7.901E+00   -7.898E+00   -7.895E+00   -7.892E+00   -7.889E+00   -7.886E+00   -7.883E+00   -7.881E+00   -7.878E+00
    -7.875E+00   -7.872E+00   -7.869E+00   -7.867E+00   -7.864E+00   -7.861E+00   -7.859E+00   -7.856E+00   -7.854E+00   -7.851E+00
    -7.849E+00   -7.846E+00   -7.844E+00   -7.841E+00   -7.839E+00   -7.837E+00   -7.835E+00   -7.832E+00   -7.830E+00   -7.828E+00
    -7.826E+00   -7.824E+00   -7.822E+00   -7.820E+00   -7.818E+00   -7.817E+00   -7.815E+00   -7.813E+00   -7.811E+00   -7.810E+00
    -7.808E+00   -7.807E+00   -7.805E+00   -7.804E+00   -7.802E+00   -7.801E+00   -7.800E+00   -7.799E+00   -7.798E+00   -7.797E+00
    -7.796E+00   -7.795E+00   -7.794E+00   -7.793E+00   -7.792E+00   -7.791E+00   -7.791E+00   -7.790E+00   -7.790E+00   -7.789E+00
    -7.789E+00   -7.789E+00   -7.788E+00   -7.788E+00   -7.788E+00   -7.788E+00   -7.788E+00   -7.788E+00   -7.788E+00   -7.788E+00
    -7.789E+00   -7.789E+00   -7.790E+00   -7.790E+00   -7.791E+00   -7.791E+00   -7.792E+00   -7.793E+00   -7.793E+00   -7.794E+00
    -7.795E+00   -7.796E+00   -7.797E+00   -7.798E+00   -7.799E+00   -7.800E+00   -7.802E+00   -7.803E+00   -7.804E+00   -7.806E+00
    -7.807E+00   -7.809E+00   -7.811E+00   -7.812E+00   -7.814E+00   -7.816E+00   -7.818E+00   -7.820E+00   -7.822E+00   -7.824E+00
    -7.826E+00   -7.828E+00   -7.830E+00   -7.832E+00   -7.834E+00   -7.837E+00   -7.839E+00   -7.842E+00   -7.844E+00   -7.847E+00
    -7.849E+00   -7.852E+00   -7.854E+00   -7.857E+00   -7.860E+00   -7.863E+00   -7.865E+00   -7.868E+00   -7.871E+00   -7.873E+00
    -7.876E+00   -7.879E+00   -7.882E+00   -7.884E+00   -7.887E+00   -7.890E+00   -7.892E+00   -7.895E+00   -7.897E+00   -7.900E+00
    -7.902E+00   -7.904E+00   -7.907E+00   -7.909E+00   -7.911E+00   -7.913E+00   -7.915E+00   -7.917E+00   -7.919E+00   -7.921E+00
    -7.923E+00   -7.924E+00   -7.926E+00   -7.927E+00   -7.928E+00   -7.929E+00   -7.930E+00   -7.931E+00   -7.932E+00   -7.933E+00
    -7.933E+00   -7.934E+00   -7.934E+00   -7.934E+00   -7.934E+00   -7.934E+00   -7.933E+00   -7.933E+00   -7.932E+00   -7.931E+00
    -7.930E+00   -7.929E+00   -7.928E+00   -7.927E+00   -7.925E+00   -7.923E+00   -7.921E+00   -7.919E+00   -7.917E+00   -7.915E+00
    -7.912E+00   -7.909E+00   -7.906E+00   -7.903E+00   -7.900E+00   -7.897E+00   -7.893E+00   -7.889E+00   -7.885E+00   -7.881E+00
    -7.877E+00   -7.873E+00   -7.868E+00   -7.863E+00   -7.858E+00   -7.853E+00   -7.848E+00   -7.842E+00   -7.837E+00   -7.831E+00
    -7.825E+00   -7.818E+00   -7.812E+00   -7.805E+00   -7.798E+00   -7.791E+00   -7.784E+00   -7.777E+00   -7.769E+00   -7.761E+00
    -7.753E+00   -7.745E+00   -7.737E+00   -7.728E+00   -7.720E+00   -7.711E+00   -7.701E+00   -7.692E+00   -7.682E+00   -7.673E+00
    -7.663E+00   -7.652E+00   -7.642E+00   -7.631E+00   -7.621E+00   -7.609E+00   -7.598E+00   -7.587E+00   -7.575E+00   -7.563E+00
    -7.551E+00   -7.539E+00   -7.526E+00   -7.513E+00   -7.500E+00   -7.487E+00   -7.474E+00   -7.460E+00   -7.446E+00   -7.432E+00
    -7.418E+00   -7.403E+00   -7.388E+00   -7.373E+00   -7.358E+00   -7.342E+00   -7.326E+00   -7.311E+00   -7.294E+00   -7.278E+00
    -7.261E+00   -7.244E+00   -7.227E+00   -7.210E+00   -7.192E+00   -7.174E+00   -7.156E+00   -7.137E+00   -7.119E+00   -7.100E+00
    -7.081E+00   -7.062E+00   -7.042E+00   -7.022E+00   -7.002E+00   -6.982E+00   -6.962E+00   -6.941E+00   -6.920E+00   -6.899E+00
    -6.878E+00   -6.856E+00   -6.834E+00   -6.812E+00   -6.790E+00   -6.767E+00   -6.745E+00   -6.722E+00   -6.699E+00   -6.675E+00
    -6.652E+00   -6.628E+00   -6.604E+00   -6.580E+00   -6.556E+00   -6.531E+00   -6.506E+00   -6.481E+00   -6.456E+00   -6.431E+00
    -6.405E+00   -6.379E+00   -6.353E+00   -6.327E+00   -6.301E+00   -6.274E+00   -6.247E+00   -6.220E+00   -6.193E+00   -6.166E+00
    -6.138E+00   -6.111E+00   -6.083E+00   -6.054E+00   -6.026E+00   -5.998E+00   -5.969E+00   -5.940E+00   -5.911E+00   -5.882E+00
    -5.853E+00   -5.823E+00   -5.793E+00   -5.763E+00   -5.733E+00   -5.703E+00   -5.673E+00   -5.642E+00   -5.611E+00   -5.581E+00
    -5.549E+00   -5.518E+00   -5.487E+00   -5.455E+00   -5.424E+00   -5.392E+00   -5.360E+00   -5.328E+00   -5.296E+00   -5.263E+00
    -5.231E+00   -5.198E+00   -5.165E+00   -5.132E+00   -5.099E+00   -5.066E+00   -5.032E+00   -4.999E+00   -4.965E+00   -4.931E+00
    -4.897E+00   -4.863E+00   -4.829E+00   -4.795E+00   -4.761E+00   -4.726E+00   -4.691E+00   -4.657E+00   -4.622E+00   -4.587E+00
    -4.552E+00   -4.516E+00   -4.481E+00   -4.445E+00   -4.410E+00   -4.374E+00   -4.338E+00   -4.303E+00   -4.267E+00   -4.230E+00
    -4.194E+00   -4.158E+00   -4.121E+00   -4.085E+00   -4.048E+00   -4.012E+00   -3.975E+00   -3.938E+00   -3.901E+00   -3.864E+00
    -3.827E+00   -3.790E+00   -3.752E+00   -3.715E+00   -3.677E+00   -3.640E+00   -3.602E+00   -3.564E+00   -3.526E+00   -3.488E+00
    -3.450E+00   -3.412E+00   -3.374E+00   -3.336E+00   -3.298E+00   -3.259E+00   -3.221E+00   -3.182E+00   -3.144E+00   -3.105E+00
    -3.067E+00   -3.028E+00   -2.989E+00   -2.950E+00   -2.911E+00   -2.872E+00   -2.833E+00   -2.794E+00   -2.755E+00   -2.716E+00
    -2.676E+00   -2.637E+00   -2.598E+00   -2.558E+00   -2.519E+00   -2.479E+00   -2.440E+00   -2.400E+00   -2.360E+00   -2.321E+00
    -2.281E+00   -2.241E+00   -2.201E+00   -2.162E+00   -2.122E+00   -2.082E+00   -2.042E+00   -2.002E+00   -1.962E+00   -1.922E+00
    -1.882E+00   -1.842E+00   -1.801E+00   -1.761E+00   -1.721E+00   -1.681E+00   -1.641E+00   -1.600E+00   -1.560E+00   -1.520E+00
    -1.480E+00   -1.439E+00   -1.399E+00   -1.359E+00   -1.318E+00   -1.278E+00   -1.237E+00   -1.197E+00   -1.157E+00   -1.116E+00
    -1.076E+00   -1.035E+00   -9.950E-01   -9.545E-01   -9.141E-01   -8.736E-01   -8.331E-01   -7.926E-01   -7.522E-01   -7.117E-01
    -6.712E-01   -6.307E-01   -5.901E-01   -5.496E-01   -5.091E-01   -4.686E-01   -4.281E-01   -3.875E-01   -3.470E-01   -3.065E-01
    -2.659E-01   -2.254E-01   -1.848E-01   -1.443E-01   -1.038E-01   -6.324E-02   -2.270E-02    1.783E-02    5.836E-02    9.889E-02
     1.394E-01    1.799E-01    2.205E-01    2.610E-01    3.015E-01    3.420E-01    3.825E-01    4.230E-01
 Ala      Conc. = 2.45E+02
