 LCModel (Version 6.3-1L) Copyright: S.W. Provencher.          Ref.: Magn. Reson. Med. 30:672-679 (1993).                
 Slice#3 Row#14 Col#5  K_02_press_1_raw_act
 36 lines in following concentration table = NCONC+1
    Conc.  %SD /Cr+PCr  Metabolite                                         
  369.692 104%   5.205 Ala                                                 
    3.549  74% 5.0E-02 Asp                                                 
    0.000 999%   0.000 Cr                                                  
   71.023  54%   1.000 PCr                                                 
    2.125  75% 3.0E-02 GABA                                                
    2.090  76% 2.9E-02 Glc                                                 
    0.000 999%   0.000 Gln                                                 
  123.859 398%   1.744 Glu                                                 
    0.000 999%   0.000 GPC                                                 
    0.000 999%   0.000 PCh                                                 
  202.338  36%   2.849 GSH                                                 
 1.21E+03  13%  16.974 Ins                                                 
 1.69E+03  29%  23.766 Lac                                                 
    0.000 999%   0.000 NAA                                                 
    0.000 999%   0.000 NAAG                                                
    0.690  77% 9.7E-03 Scyllo                                              
    3.406  78% 4.8E-02 Tau                                                 
    4.280 234% 6.0E-02 -CrCH2                                              
    0.000 999%   0.000 GPC+PCh                                             
    0.000 999%   0.000 NAA+NAAG                                            
   71.023  54%   1.000 Cr+PCr                                              
  123.859 398%   1.744 Glu+Gln                                             
 1.78E+03  26%  25.129 Lip13a                                              
    0.000 999%   0.000 Lip13b                                              
  557.127  28%   7.844 Lip09                                               
   16.896 423%   0.238 MM09                                                
  244.598  46%   3.444 Lip20                                               
    0.000 999%   0.000 MM20                                                
    8.278 518%   0.117 MM12                                                
  530.816  23%   7.474 MM14                                                
    0.000 999%   0.000 MM17                                                
 1.78E+03  26%  25.129 Lip13a+Lip13b                                       
 2.32E+03  21%  32.719 MM14+Lip13a+Lip13b+MM12                             
  574.023  25%   8.082 MM09+Lip09                                          
  244.598  46%   3.444 MM20+Lip20                                          
   6 lines in following misc. output table
  FWHM = 0.168 ppm    S/N =   3                                            
  Data shift = 0.229 ppm                                                   
  Ph:-155 deg      32.8 deg/ppm                                            
  alphaB,S = 2.1E+00,   3.9E+02                                            
    7 spline knots.   Ns = 9(2)                                            
  (17) 2 infls.   (13) 1 extrs.                                            
  498 points on ppm-axis = NY
      4.000000     3.992357     3.984714     3.977070     3.969427     3.961784     3.954141     3.946497     3.938854     3.931211
      3.923568     3.915925     3.908281     3.900638     3.892995     3.885352     3.877708     3.870065     3.862422     3.854779
      3.847136     3.839492     3.831849     3.824206     3.816563     3.808919     3.801276     3.793633     3.785990     3.778347
      3.770703     3.763060     3.755417     3.747774     3.740130     3.732487     3.724844     3.717201     3.709558     3.701914
      3.694271     3.686628     3.678985     3.671341     3.663698     3.656055     3.648412     3.640769     3.633125     3.625482
      3.617839     3.610196     3.602552     3.594909     3.587266     3.579623     3.571980     3.564336     3.556693     3.549050
      3.541407     3.533763     3.526120     3.518477     3.510834     3.503191     3.495547     3.487904     3.480261     3.472618
      3.464974     3.457331     3.449688     3.442045     3.434402     3.426758     3.419115     3.411472     3.403829     3.396185
      3.388542     3.380899     3.373256     3.365613     3.357969     3.350326     3.342683     3.335040     3.327396     3.319753
      3.312110     3.304467     3.296824     3.289180     3.281537     3.273894     3.266251     3.258607     3.250964     3.243321
      3.235678     3.228034     3.220391     3.212748     3.205105     3.197462     3.189818     3.182175     3.174532     3.166889
      3.159245     3.151602     3.143959     3.136316     3.128673     3.121029     3.113386     3.105743     3.098100     3.090456
      3.082813     3.075170     3.067527     3.059884     3.052240     3.044597     3.036954     3.029311     3.021667     3.014024
      3.006381     2.998738     2.991095     2.983451     2.975808     2.968165     2.960522     2.952878     2.945235     2.937592
      2.929949     2.922306     2.914662     2.907019     2.899376     2.891733     2.884089     2.876446     2.868803     2.861160
      2.853517     2.845873     2.838230     2.830587     2.822944     2.815300     2.807657     2.800014     2.792371     2.784728
      2.777084     2.769441     2.761798     2.754155     2.746511     2.738868     2.731225     2.723582     2.715939     2.708295
      2.700652     2.693009     2.685366     2.677722     2.670079     2.662436     2.654793     2.647150     2.639506     2.631863
      2.624220     2.616577     2.608933     2.601290     2.593647     2.586004     2.578361     2.570717     2.563074     2.555431
      2.547788     2.540144     2.532501     2.524858     2.517215     2.509572     2.501928     2.494285     2.486642     2.478999
      2.471355     2.463712     2.456069     2.448426     2.440783     2.433139     2.425496     2.417853     2.410210     2.402566
      2.394923     2.387280     2.379637     2.371994     2.364350     2.356707     2.349064     2.341421     2.333777     2.326134
      2.318491     2.310848     2.303205     2.295561     2.287918     2.280275     2.272632     2.264988     2.257345     2.249702
      2.242059     2.234416     2.226772     2.219129     2.211486     2.203843     2.196199     2.188556     2.180913     2.173270
      2.165627     2.157983     2.150340     2.142697     2.135054     2.127410     2.119767     2.112124     2.104481     2.096838
      2.089194     2.081551     2.073908     2.066265     2.058621     2.050978     2.043335     2.035692     2.028049     2.020405
      2.012762     2.005119     1.997476     1.989833     1.982190     1.974546     1.966903     1.959260     1.951617     1.943974
      1.936331     1.928688     1.921045     1.913402     1.905759     1.898115     1.890472     1.882829     1.875186     1.867543
      1.859900     1.852257     1.844614     1.836971     1.829327     1.821684     1.814041     1.806398     1.798755     1.791112
      1.783469     1.775826     1.768183     1.760540     1.752896     1.745253     1.737610     1.729967     1.722324     1.714681
      1.707038     1.699395     1.691752     1.684108     1.676465     1.668822     1.661179     1.653536     1.645893     1.638250
      1.630607     1.622964     1.615321     1.607677     1.600034     1.592391     1.584748     1.577105     1.569462     1.561819
      1.554176     1.546533     1.538890     1.531246     1.523603     1.515960     1.508317     1.500674     1.493031     1.485388
      1.477745     1.470102     1.462458     1.454815     1.447172     1.439529     1.431886     1.424243     1.416600     1.408957
      1.401314     1.393671     1.386027     1.378384     1.370741     1.363098     1.355455     1.347812     1.340169     1.332526
      1.324883     1.317240     1.309596     1.301953     1.294310     1.286667     1.279024     1.271381     1.263738     1.256095
      1.248452     1.240808     1.233165     1.225522     1.217879     1.210236     1.202593     1.194950     1.187307     1.179664
      1.172021     1.164377     1.156734     1.149091     1.141448     1.133805     1.126162     1.118519     1.110876     1.103233
      1.095590     1.087946     1.080303     1.072660     1.065017     1.057374     1.049731     1.042088     1.034445     1.026802
      1.019158     1.011515     1.003872     0.996229     0.988586     0.980943     0.973300     0.965657     0.958014     0.950371
      0.942727     0.935084     0.927441     0.919798     0.912155     0.904512     0.896869     0.889226     0.881583     0.873940
      0.866296     0.858653     0.851010     0.843367     0.835724     0.828081     0.820438     0.812795     0.805152     0.797508
      0.789865     0.782222     0.774579     0.766936     0.759293     0.751650     0.744007     0.736364     0.728721     0.721077
      0.713434     0.705791     0.698148     0.690505     0.682862     0.675219     0.667576     0.659933     0.652290     0.644646
      0.637003     0.629360     0.621717     0.614074     0.606431     0.598788     0.591145     0.583502     0.575858     0.568215
      0.560572     0.552929     0.545286     0.537643     0.530000     0.522357     0.514714     0.507071     0.499427     0.491784
      0.484141     0.476498     0.468855     0.461212     0.453569     0.445925     0.438282     0.430639     0.422996     0.415353
      0.407710     0.400067     0.392424     0.384780     0.377137     0.369494     0.361851     0.354208     0.346565     0.338922
      0.331278     0.323635     0.315992     0.308349     0.300706     0.293063     0.285420     0.277777     0.270133     0.262490
      0.254847     0.247204     0.239561     0.231918     0.224275     0.216631     0.208988     0.201345
 NY phased data points follow
   7.20696E+01  7.18322E+01  7.14572E+01  7.29890E+01  7.12431E+01  7.00173E+01  7.00983E+01  6.75277E+01  6.60114E+01  6.72733E+01
   6.68067E+01  6.32479E+01  6.54933E+01  6.42852E+01  6.18648E+01  6.34504E+01  6.30171E+01  6.13242E+01  6.18289E+01  6.12032E+01
   6.13345E+01  5.91387E+01  6.09711E+01  5.81461E+01  6.07215E+01  5.92191E+01  5.70824E+01  5.76851E+01  5.75991E+01  5.82984E+01
   5.74588E+01  5.87137E+01  5.72521E+01  5.81582E+01  5.89511E+01  5.56395E+01  5.71327E+01  5.74368E+01  5.55877E+01  5.85514E+01
   5.61349E+01  5.62473E+01  5.72067E+01  5.58753E+01  5.73886E+01  5.58961E+01  5.57754E+01  5.39976E+01  5.32538E+01  5.35020E+01
   5.34047E+01  5.35542E+01  5.36988E+01  5.14449E+01  5.46725E+01  5.19654E+01  5.05404E+01  5.11653E+01  5.03160E+01  4.76122E+01
   5.21600E+01  4.77750E+01  4.93765E+01  4.83181E+01  4.88564E+01  4.78100E+01  5.10616E+01  4.76055E+01  4.75025E+01  4.81708E+01
   4.48819E+01  4.50036E+01  4.56284E+01  4.39129E+01  4.46093E+01  4.48860E+01  4.24272E+01  4.47232E+01  4.48968E+01  4.42915E+01
   4.31067E+01  4.34637E+01  4.37672E+01  4.49078E+01  4.31365E+01  4.31677E+01  4.50413E+01  4.49165E+01  4.30907E+01  4.13410E+01
   4.43489E+01  4.33712E+01  4.36784E+01  4.45697E+01  4.15152E+01  4.46061E+01  4.27609E+01  4.12171E+01  4.39981E+01  4.30646E+01
   4.35749E+01  4.07817E+01  4.03921E+01  4.13250E+01  3.95141E+01  3.97901E+01  4.36866E+01  4.25594E+01  4.15929E+01  4.13744E+01
   4.23053E+01  4.24047E+01  4.31922E+01  4.04650E+01  4.01899E+01  4.09109E+01  4.30411E+01  4.08589E+01  4.22760E+01  4.29710E+01
   4.28841E+01  4.26331E+01  4.02019E+01  4.31065E+01  4.24216E+01  4.14879E+01  4.22529E+01  4.26667E+01  3.95477E+01  4.32068E+01
   4.25481E+01  4.21593E+01  4.27425E+01  4.14323E+01  4.03538E+01  4.06063E+01  4.10251E+01  4.09899E+01  4.23386E+01  4.14243E+01
   4.18715E+01  4.17803E+01  4.14812E+01  3.97659E+01  4.05358E+01  4.02208E+01  4.12579E+01  3.94080E+01  3.87830E+01  4.00731E+01
   4.03446E+01  4.04287E+01  4.08553E+01  4.23700E+01  3.84390E+01  3.99645E+01  3.94867E+01  3.99815E+01  4.10138E+01  4.14390E+01
   3.91635E+01  3.81416E+01  3.97454E+01  3.73640E+01  3.96539E+01  3.97444E+01  3.90424E+01  3.84563E+01  3.75594E+01  3.77324E+01
   3.65304E+01  3.90786E+01  3.75969E+01  3.75704E+01  3.72358E+01  3.95826E+01  4.15890E+01  3.74134E+01  3.84787E+01  3.70174E+01
   3.95135E+01  3.86220E+01  3.94271E+01  3.67243E+01  3.52508E+01  3.68432E+01  3.69025E+01  3.76962E+01  3.69542E+01  3.75788E+01
   3.52425E+01  3.82184E+01  3.48617E+01  3.48730E+01  3.61594E+01  3.52299E+01  3.33977E+01  3.59276E+01  3.44833E+01  3.64773E+01
   3.78318E+01  3.52401E+01  3.43196E+01  3.44875E+01  3.54888E+01  3.29630E+01  3.42426E+01  3.55127E+01  3.53567E+01  3.67402E+01
   3.62909E+01  3.33316E+01  3.44384E+01  3.37894E+01  3.41228E+01  3.17615E+01  3.47215E+01  3.52321E+01  3.48509E+01  3.36435E+01
   3.18066E+01  3.28402E+01  3.11174E+01  3.23393E+01  3.19338E+01  3.20145E+01  3.32811E+01  3.24199E+01  3.05856E+01  2.98592E+01
   3.10193E+01  3.13403E+01  3.32499E+01  3.02115E+01  2.87396E+01  2.98075E+01  2.95588E+01  2.79362E+01  3.15955E+01  2.99975E+01
   3.01424E+01  3.19386E+01  2.87186E+01  2.98687E+01  3.04126E+01  2.94753E+01  3.05762E+01  2.92603E+01  3.08534E+01  2.95260E+01
   2.94587E+01  3.09415E+01  3.08056E+01  2.87862E+01  2.85851E+01  2.74749E+01  2.68532E+01  2.92212E+01  3.04710E+01  2.78785E+01
   2.89097E+01  2.67290E+01  2.55727E+01  2.66779E+01  2.65672E+01  2.66024E+01  2.54191E+01  2.74581E+01  2.58744E+01  2.67620E+01
   2.49334E+01  2.77034E+01  2.56551E+01  2.39939E+01  2.45778E+01  2.39496E+01  2.34487E+01  2.62625E+01  2.31099E+01  2.30294E+01
   2.51270E+01  2.42866E+01  2.43895E+01  2.40062E+01  2.44814E+01  2.52006E+01  2.27381E+01  2.56660E+01  2.45555E+01  2.32160E+01
   2.34022E+01  2.18232E+01  2.26728E+01  2.20730E+01  2.11526E+01  2.24857E+01  2.30322E+01  1.97561E+01  2.15039E+01  2.07671E+01
   2.19604E+01  2.26657E+01  2.23195E+01  2.26796E+01  2.25749E+01  2.13646E+01  2.11890E+01  2.29683E+01  2.41503E+01  2.17871E+01
   2.20506E+01  2.29961E+01  2.19392E+01  2.51998E+01  2.13497E+01  2.29191E+01  2.12333E+01  2.44296E+01  2.19114E+01  1.99478E+01
   2.59870E+01  2.38230E+01  2.55736E+01  2.58206E+01  2.75592E+01  2.51767E+01  2.63503E+01  2.80727E+01  2.71302E+01  2.40256E+01
   2.78341E+01  2.79161E+01  2.58782E+01  2.55093E+01  2.53021E+01  2.68954E+01  2.40222E+01  2.63274E+01  2.60671E+01  2.59950E+01
   2.55905E+01  2.54332E+01  2.51401E+01  2.38406E+01  2.55566E+01  2.59642E+01  2.49786E+01  2.44742E+01  2.23995E+01  2.28779E+01
   2.33236E+01  2.30182E+01  2.10193E+01  2.22531E+01  2.05374E+01  2.24777E+01  2.21180E+01  2.19476E+01  2.04988E+01  2.33560E+01
   2.13241E+01  2.09197E+01  2.10501E+01  2.02028E+01  2.10950E+01  1.88416E+01  2.12290E+01  2.04282E+01  2.24970E+01  2.15099E+01
   1.94563E+01  2.02718E+01  1.86279E+01  1.87240E+01  1.86660E+01  1.82177E+01  1.67277E+01  1.89443E+01  1.80979E+01  1.60881E+01
   1.75077E+01  1.52052E+01  1.53835E+01  1.62333E+01  1.39198E+01  1.75241E+01  1.65813E+01  1.72221E+01  1.56910E+01  1.74659E+01
   1.61924E+01  1.61039E+01  1.41137E+01  1.71163E+01  1.41106E+01  1.43222E+01  1.55000E+01  1.39997E+01  1.42436E+01  1.34734E+01
   1.21258E+01  1.33131E+01  1.38178E+01  1.49781E+01  1.13924E+01  1.44775E+01  1.46280E+01  1.60717E+01  1.35818E+01  1.29547E+01
   1.19420E+01  1.37047E+01  1.12008E+01  1.00700E+01  1.09113E+01  1.08759E+01  9.18588E+00  1.09667E+01  1.09224E+01  9.16099E+00
   1.20287E+01  9.91299E+00  1.08233E+01  1.13664E+01  1.29913E+01  1.10654E+01  9.73147E+00  9.19496E+00  1.06293E+01  1.00062E+01
   1.21806E+01  1.05768E+01  1.12176E+01  9.87052E+00  8.44124E+00  1.04030E+01  1.05382E+01  1.14413E+01  1.09221E+01  1.00394E+01
   1.13768E+01  9.97791E+00  9.77972E+00  8.32006E+00  1.12667E+01  8.77601E+00  1.04392E+01  9.44396E+00  8.23603E+00  8.51432E+00
   8.58354E+00  8.32680E+00  8.14801E+00  8.36480E+00  7.11128E+00  9.51226E+00  9.45990E+00  7.58686E+00  7.75006E+00  8.22333E+00
   8.26686E+00  7.83224E+00  6.54314E+00  6.89275E+00  7.55752E+00  7.40378E+00  6.71941E+00  7.54035E+00  6.68962E+00  6.20239E+00
   6.14026E+00  6.27340E+00  7.86821E+00  8.45102E+00  7.63825E+00  7.01368E+00  4.00915E+00  7.25281E+00  6.83586E+00  5.80748E+00
   6.78820E+00  9.99410E+00  9.08392E+00  7.79965E+00  7.83789E+00  6.43805E+00  7.61359E+00  8.62253E+00  8.07077E+00  9.49732E+00
   8.68913E+00  7.57556E+00  7.93131E+00  7.52712E+00  5.65064E+00  7.24726E+00  7.78780E+00  8.28477E+00
 NY points of the fit to the data follow
   7.23312E+01  7.14386E+01  7.09342E+01  7.01056E+01  6.95423E+01  6.87219E+01  6.80397E+01  6.72691E+01  6.65165E+01  6.58139E+01
   6.50727E+01  6.45063E+01  6.39597E+01  6.35301E+01  6.30733E+01  6.27656E+01  6.23408E+01  6.20768E+01  6.16858E+01  6.14234E+01
   6.10800E+01  6.07998E+01  6.04769E+01  6.01596E+01  5.98600E+01  5.95088E+01  5.92421E+01  5.88738E+01  5.86736E+01  5.83910E+01
   5.83096E+01  5.80640E+01  5.79872E+01  5.76954E+01  5.75751E+01  5.72228E+01  5.70529E+01  5.66587E+01  5.64632E+01  5.60489E+01
   5.58384E+01  5.54605E+01  5.52695E+01  5.49355E+01  5.47497E+01  5.44195E+01  5.42053E+01  5.38503E+01  5.35997E+01  5.32189E+01
   5.29692E+01  5.25983E+01  5.23934E+01  5.20312E+01  5.18462E+01  5.14977E+01  5.13544E+01  5.10016E+01  5.08849E+01  5.05129E+01
   5.04074E+01  4.99843E+01  4.98667E+01  4.94143E+01  4.93150E+01  4.88783E+01  4.88293E+01  4.84478E+01  4.84599E+01  4.81245E+01
   4.81588E+01  4.77645E+01  4.77394E+01  4.72826E+01  4.72220E+01  4.67403E+01  4.66690E+01  4.61934E+01  4.61339E+01  4.56826E+01
   4.56209E+01  4.51982E+01  4.51379E+01  4.47178E+01  4.46417E+01  4.42079E+01  4.41133E+01  4.36937E+01  4.36052E+01  4.32314E+01
   4.31710E+01  4.28531E+01  4.28260E+01  4.25606E+01  4.25697E+01  4.23436E+01  4.23645E+01  4.21719E+01  4.21971E+01  4.20412E+01
   4.20699E+01  4.19541E+01  4.19847E+01  4.19076E+01  4.19377E+01  4.18886E+01  4.19114E+01  4.18773E+01  4.19003E+01  4.18933E+01
   4.18981E+01  4.19223E+01  4.19182E+01  4.19821E+01  4.19778E+01  4.20897E+01  4.20911E+01  4.22207E+01  4.21962E+01  4.23214E+01
   4.22419E+01  4.23629E+01  4.22467E+01  4.23713E+01  4.22396E+01  4.23547E+01  4.22127E+01  4.23049E+01  4.21582E+01  4.22115E+01
   4.20655E+01  4.20743E+01  4.19358E+01  4.18956E+01  4.17730E+01  4.16856E+01  4.15840E+01  4.14534E+01  4.13760E+01  4.12074E+01
   4.11526E+01  4.09511E+01  4.09173E+01  4.06928E+01  4.06805E+01  4.04496E+01  4.04548E+01  4.02382E+01  4.02526E+01  4.00695E+01
   4.00662E+01  3.99017E+01  3.98808E+01  3.97359E+01  3.96972E+01  3.95683E+01  3.95062E+01  3.93756E+01  3.92794E+01  3.91534E+01
   3.90376E+01  3.89233E+01  3.88072E+01  3.87012E+01  3.85903E+01  3.84828E+01  3.83721E+01  3.82568E+01  3.81443E+01  3.80230E+01
   3.79095E+01  3.77877E+01  3.76819E+01  3.75669E+01  3.74729E+01  3.73614E+01  3.72703E+01  3.71564E+01  3.70612E+01  3.69368E+01
   3.68277E+01  3.67092E+01  3.65975E+01  3.64928E+01  3.63819E+01  3.62917E+01  3.61804E+01  3.61037E+01  3.59897E+01  3.59227E+01
   3.58046E+01  3.57455E+01  3.56183E+01  3.55658E+01  3.54295E+01  3.53845E+01  3.52438E+01  3.52083E+01  3.50763E+01  3.50425E+01
   3.49193E+01  3.48778E+01  3.47594E+01  3.46994E+01  3.45779E+01  3.44939E+01  3.43775E+01  3.42756E+01  3.41706E+01  3.40622E+01
   3.39757E+01  3.38652E+01  3.37980E+01  3.36742E+01  3.36070E+01  3.34661E+01  3.33900E+01  3.32388E+01  3.31564E+01  3.30121E+01
   3.29298E+01  3.27926E+01  3.27040E+01  3.25637E+01  3.24622E+01  3.23156E+01  3.22034E+01  3.20593E+01  3.19510E+01  3.18098E+01
   3.17061E+01  3.15659E+01  3.14626E+01  3.13200E+01  3.12193E+01  3.10739E+01  3.09809E+01  3.08311E+01  3.07485E+01  3.05865E+01
   3.05031E+01  3.03310E+01  3.02473E+01  3.00716E+01  2.99892E+01  2.98208E+01  2.97477E+01  2.95907E+01  2.95176E+01  2.93678E+01
   2.92841E+01  2.91364E+01  2.90335E+01  2.88871E+01  2.87642E+01  2.86318E+01  2.85010E+01  2.83824E+01  2.82438E+01  2.81299E+01
   2.79771E+01  2.78476E+01  2.76697E+01  2.75271E+01  2.73367E+01  2.71885E+01  2.69986E+01  2.68534E+01  2.66752E+01  2.65306E+01
   2.63598E+01  2.62130E+01  2.60469E+01  2.58976E+01  2.57359E+01  2.55866E+01  2.54301E+01  2.52829E+01  2.51313E+01  2.49868E+01
   2.48392E+01  2.46986E+01  2.45568E+01  2.44206E+01  2.42844E+01  2.41518E+01  2.40208E+01  2.38910E+01  2.37637E+01  2.36373E+01
   2.35135E+01  2.33907E+01  2.32707E+01  2.31523E+01  2.30371E+01  2.29247E+01  2.28162E+01  2.27112E+01  2.26107E+01  2.25151E+01
   2.24252E+01  2.23423E+01  2.22672E+01  2.22022E+01  2.21491E+01  2.21109E+01  2.20915E+01  2.20978E+01  2.21442E+01  2.22468E+01
   2.23046E+01  2.24280E+01  2.24823E+01  2.26009E+01  2.26565E+01  2.27631E+01  2.28133E+01  2.29794E+01  2.31167E+01  2.33287E+01
   2.35590E+01  2.37812E+01  2.40793E+01  2.42837E+01  2.46334E+01  2.48163E+01  2.52432E+01  2.54872E+01  2.61996E+01  2.63251E+01
   2.68699E+01  2.67913E+01  2.69957E+01  2.67172E+01  2.65392E+01  2.60811E+01  2.59668E+01  2.56389E+01  2.55655E+01  2.54063E+01
   2.52604E+01  2.52269E+01  2.49279E+01  2.50041E+01  2.45300E+01  2.47284E+01  2.40687E+01  2.43933E+01  2.35662E+01  2.40195E+01
   2.30492E+01  2.35649E+01  2.25241E+01  2.31294E+01  2.20947E+01  2.27703E+01  2.17618E+01  2.24619E+01  2.15197E+01  2.21445E+01
   2.12273E+01  2.17386E+01  2.09256E+01  2.13480E+01  2.07498E+01  2.11020E+01  2.07268E+01  2.09700E+01  2.06873E+01  2.06376E+01
   2.00396E+01  1.97247E+01  1.89911E+01  1.85157E+01  1.78354E+01  1.73472E+01  1.69821E+01  1.66834E+01  1.64299E+01  1.62116E+01
   1.60225E+01  1.58587E+01  1.57173E+01  1.55963E+01  1.54933E+01  1.54065E+01  1.53337E+01  1.52731E+01  1.52223E+01  1.51793E+01
   1.51414E+01  1.51064E+01  1.50715E+01  1.50346E+01  1.49931E+01  1.49448E+01  1.48876E+01  1.48199E+01  1.47400E+01  1.46472E+01
   1.45404E+01  1.44197E+01  1.42851E+01  1.41373E+01  1.39770E+01  1.38058E+01  1.36250E+01  1.34366E+01  1.32420E+01  1.30436E+01
   1.28429E+01  1.26420E+01  1.24424E+01  1.22458E+01  1.20534E+01  1.18664E+01  1.16855E+01  1.15116E+01  1.13450E+01  1.11862E+01
   1.10349E+01  1.08915E+01  1.07556E+01  1.06271E+01  1.05055E+01  1.03906E+01  1.02818E+01  1.01790E+01  1.00816E+01  9.98921E+00
   9.90137E+00  9.81792E+00  9.73828E+00  9.66237E+00  9.58965E+00  9.52007E+00  9.45317E+00  9.38895E+00  9.32697E+00  9.26728E+00
   9.20948E+00  9.15364E+00  9.09940E+00  9.04685E+00  8.99565E+00  8.94594E+00  8.89737E+00  8.85009E+00  8.80379E+00  8.75862E+00
   8.71429E+00  8.67096E+00  8.62833E+00  8.58659E+00  8.54545E+00  8.50509E+00  8.46524E+00  8.42608E+00  8.38733E+00  8.34920E+00
   8.31141E+00  8.27417E+00  8.23721E+00  8.20072E+00  8.16443E+00  8.12856E+00  8.09285E+00  8.05751E+00  8.02225E+00  7.98731E+00
   7.95242E+00  7.91778E+00  7.88316E+00  7.84874E+00  7.81429E+00  7.78000E+00  7.74562E+00  7.71138E+00  7.67702E+00  7.64274E+00
   7.60830E+00  7.57390E+00  7.53931E+00  7.50474E+00  7.46992E+00  7.43509E+00  7.39998E+00  7.36482E+00  7.32936E+00  7.29381E+00
   7.25793E+00  7.22192E+00  7.18556E+00  7.14905E+00  7.11216E+00  7.07510E+00  7.03765E+00  7.00003E+00
 NY background values follow
     6.835E+01    6.777E+01    6.721E+01    6.666E+01    6.611E+01    6.557E+01    6.504E+01    6.452E+01    6.401E+01    6.351E+01
     6.301E+01    6.253E+01    6.205E+01    6.158E+01    6.112E+01    6.066E+01    6.021E+01    5.978E+01    5.934E+01    5.892E+01
     5.850E+01    5.809E+01    5.769E+01    5.730E+01    5.691E+01    5.653E+01    5.616E+01    5.579E+01    5.543E+01    5.508E+01
     5.474E+01    5.440E+01    5.406E+01    5.374E+01    5.342E+01    5.310E+01    5.280E+01    5.250E+01    5.220E+01    5.191E+01
     5.163E+01    5.135E+01    5.108E+01    5.082E+01    5.056E+01    5.030E+01    5.006E+01    4.981E+01    4.958E+01    4.934E+01
     4.912E+01    4.889E+01    4.868E+01    4.846E+01    4.826E+01    4.805E+01    4.786E+01    4.766E+01    4.747E+01    4.729E+01
     4.711E+01    4.693E+01    4.676E+01    4.659E+01    4.643E+01    4.627E+01    4.612E+01    4.597E+01    4.582E+01    4.567E+01
     4.553E+01    4.540E+01    4.526E+01    4.513E+01    4.501E+01    4.488E+01    4.476E+01    4.465E+01    4.453E+01    4.442E+01
     4.431E+01    4.421E+01    4.410E+01    4.400E+01    4.391E+01    4.381E+01    4.372E+01    4.363E+01    4.354E+01    4.345E+01
     4.337E+01    4.328E+01    4.320E+01    4.312E+01    4.305E+01    4.297E+01    4.290E+01    4.283E+01    4.275E+01    4.268E+01
     4.262E+01    4.255E+01    4.248E+01    4.242E+01    4.235E+01    4.229E+01    4.223E+01    4.217E+01    4.210E+01    4.204E+01
     4.198E+01    4.192E+01    4.186E+01    4.180E+01    4.174E+01    4.168E+01    4.163E+01    4.157E+01    4.151E+01    4.145E+01
     4.139E+01    4.133E+01    4.127E+01    4.120E+01    4.114E+01    4.108E+01    4.101E+01    4.095E+01    4.088E+01    4.082E+01
     4.075E+01    4.068E+01    4.062E+01    4.055E+01    4.048E+01    4.041E+01    4.034E+01    4.026E+01    4.019E+01    4.012E+01
     4.004E+01    3.997E+01    3.989E+01    3.982E+01    3.974E+01    3.966E+01    3.958E+01    3.951E+01    3.943E+01    3.935E+01
     3.926E+01    3.918E+01    3.910E+01    3.902E+01    3.893E+01    3.885E+01    3.876E+01    3.868E+01    3.859E+01    3.850E+01
     3.842E+01    3.833E+01    3.824E+01    3.815E+01    3.806E+01    3.797E+01    3.788E+01    3.778E+01    3.769E+01    3.760E+01
     3.750E+01    3.741E+01    3.731E+01    3.721E+01    3.712E+01    3.702E+01    3.692E+01    3.682E+01    3.672E+01    3.662E+01
     3.652E+01    3.642E+01    3.632E+01    3.622E+01    3.611E+01    3.601E+01    3.591E+01    3.580E+01    3.570E+01    3.559E+01
     3.548E+01    3.538E+01    3.527E+01    3.516E+01    3.505E+01    3.494E+01    3.483E+01    3.472E+01    3.461E+01    3.450E+01
     3.439E+01    3.427E+01    3.416E+01    3.404E+01    3.393E+01    3.381E+01    3.370E+01    3.358E+01    3.347E+01    3.335E+01
     3.323E+01    3.311E+01    3.299E+01    3.287E+01    3.275E+01    3.263E+01    3.251E+01    3.239E+01    3.227E+01    3.215E+01
     3.202E+01    3.190E+01    3.178E+01    3.165E+01    3.153E+01    3.140E+01    3.127E+01    3.115E+01    3.102E+01    3.089E+01
     3.077E+01    3.064E+01    3.051E+01    3.038E+01    3.025E+01    3.012E+01    2.999E+01    2.986E+01    2.972E+01    2.959E+01
     2.946E+01    2.933E+01    2.919E+01    2.906E+01    2.892E+01    2.879E+01    2.865E+01    2.852E+01    2.838E+01    2.824E+01
     2.811E+01    2.797E+01    2.783E+01    2.769E+01    2.756E+01    2.742E+01    2.728E+01    2.714E+01    2.700E+01    2.686E+01
     2.672E+01    2.657E+01    2.643E+01    2.629E+01    2.615E+01    2.601E+01    2.587E+01    2.572E+01    2.558E+01    2.544E+01
     2.530E+01    2.515E+01    2.501E+01    2.487E+01    2.472E+01    2.458E+01    2.444E+01    2.429E+01    2.415E+01    2.401E+01
     2.386E+01    2.372E+01    2.358E+01    2.343E+01    2.329E+01    2.314E+01    2.300E+01    2.286E+01    2.271E+01    2.257E+01
     2.243E+01    2.229E+01    2.214E+01    2.200E+01    2.186E+01    2.171E+01    2.157E+01    2.143E+01    2.129E+01    2.115E+01
     2.101E+01    2.086E+01    2.072E+01    2.058E+01    2.044E+01    2.030E+01    2.016E+01    2.002E+01    1.989E+01    1.975E+01
     1.961E+01    1.947E+01    1.933E+01    1.920E+01    1.906E+01    1.893E+01    1.879E+01    1.865E+01    1.852E+01    1.839E+01
     1.825E+01    1.812E+01    1.799E+01    1.785E+01    1.772E+01    1.759E+01    1.746E+01    1.733E+01    1.720E+01    1.708E+01
     1.695E+01    1.682E+01    1.669E+01    1.657E+01    1.644E+01    1.632E+01    1.620E+01    1.607E+01    1.595E+01    1.583E+01
     1.571E+01    1.559E+01    1.547E+01    1.535E+01    1.524E+01    1.512E+01    1.500E+01    1.489E+01    1.478E+01    1.466E+01
     1.455E+01    1.444E+01    1.433E+01    1.422E+01    1.411E+01    1.401E+01    1.390E+01    1.379E+01    1.369E+01    1.359E+01
     1.349E+01    1.338E+01    1.328E+01    1.319E+01    1.309E+01    1.299E+01    1.290E+01    1.280E+01    1.271E+01    1.262E+01
     1.253E+01    1.244E+01    1.235E+01    1.226E+01    1.218E+01    1.209E+01    1.201E+01    1.192E+01    1.184E+01    1.176E+01
     1.169E+01    1.161E+01    1.153E+01    1.146E+01    1.138E+01    1.131E+01    1.124E+01    1.117E+01    1.110E+01    1.103E+01
     1.096E+01    1.089E+01    1.083E+01    1.076E+01    1.070E+01    1.063E+01    1.057E+01    1.051E+01    1.045E+01    1.039E+01
     1.033E+01    1.027E+01    1.022E+01    1.016E+01    1.011E+01    1.005E+01    9.999E+00    9.946E+00    9.895E+00    9.844E+00
     9.793E+00    9.744E+00    9.695E+00    9.647E+00    9.599E+00    9.553E+00    9.506E+00    9.461E+00    9.416E+00    9.372E+00
     9.329E+00    9.286E+00    9.244E+00    9.202E+00    9.161E+00    9.120E+00    9.080E+00    9.041E+00    9.002E+00    8.963E+00
     8.925E+00    8.888E+00    8.851E+00    8.814E+00    8.778E+00    8.742E+00    8.707E+00    8.672E+00    8.637E+00    8.603E+00
     8.569E+00    8.536E+00    8.503E+00    8.470E+00    8.437E+00    8.405E+00    8.373E+00    8.341E+00    8.310E+00    8.278E+00
     8.247E+00    8.217E+00    8.186E+00    8.156E+00    8.125E+00    8.095E+00    8.065E+00    8.036E+00    8.006E+00    7.976E+00
     7.947E+00    7.917E+00    7.888E+00    7.859E+00    7.829E+00    7.800E+00    7.771E+00    7.742E+00    7.712E+00    7.683E+00
     7.654E+00    7.624E+00    7.595E+00    7.565E+00    7.536E+00    7.506E+00    7.476E+00    7.446E+00    7.416E+00    7.385E+00
     7.355E+00    7.324E+00    7.293E+00    7.262E+00    7.231E+00    7.199E+00    7.167E+00    7.135E+00    7.103E+00    7.070E+00
     7.037E+00    7.004E+00    6.970E+00    6.936E+00    6.902E+00    6.867E+00    6.832E+00    6.796E+00
 Ala      Conc. = 3.70E+02
