 LCModel (Version 6.3-1L) Copyright: S.W. Provencher.          Ref.: Magn. Reson. Med. 30:672-679 (1993).                
 Slice#3 Row#12 Col#13  K_02_press_1_raw_act
 36 lines in following concentration table = NCONC+1
    Conc.  %SD /Cr+PCr  Metabolite                                         
 2.97E+03  23%  54.792 Ala                                                 
    8.549 116%   0.158 Asp                                                 
    0.000 999%   0.000 Cr                                                  
   54.243  89%   1.000 PCr                                                 
    5.431 109%   0.100 GABA                                                
    5.457 109%   0.101 Glc                                                 
 1.53E+03  22%  28.295 Gln                                                 
 1.42E+03  31%  26.240 Glu                                                 
    0.000 999%   0.000 GPC                                                 
   41.101  42%   0.758 PCh                                                 
    0.000 999%   0.000 GSH                                                 
  446.994  42%   8.241 Ins                                                 
    0.000 999%   0.000 Lac                                                 
    0.000 999%   0.000 NAA                                                 
    0.000 999%   0.000 NAAG                                                
    2.069  96% 3.8E-02 Scyllo                                              
    9.755 100%   0.180 Tau                                                 
    0.000 999%   0.000 -CrCH2                                              
   41.101  42%   0.758 GPC+PCh                                             
    0.000 999%   0.000 NAA+NAAG                                            
   54.243  89%   1.000 Cr+PCr                                              
 2.96E+03  20%  54.536 Glu+Gln                                             
 4.25E+04   4% 784.324 Lip13a                                              
    0.000 999%   0.000 Lip13b                                              
  591.390  41%  10.903-Lip09                                               
    0.000 999%   0.000 MM09                                                
  218.697 158%   4.032-Lip20                                               
  219.632 125%   4.049 MM20                                                
   88.701 193%   1.635 MM12                                                
 1.53E+03  31%  28.283 MM14                                                
 3.04E+03   7%  55.987+MM17                                                
 4.25E+04   4% 784.324 Lip13a+Lip13b                                       
 4.42E+04   3% 814.242 MM14+Lip13a+Lip13b+MM12                             
  591.390  41%  10.903 MM09+Lip09                                          
  438.330  39%   8.081 MM20+Lip20                                          
   6 lines in following misc. output table
  FWHM = 0.153 ppm    S/N =  21                                            
  Data shift = 0.122 ppm                                                   
  Ph: 147 deg     -83.6 deg/ppm                                            
  alphaB,S = 8.5E+01,   2.9E+02                                            
    6 spline knots.   Ns = 9(2)                                            
  (12) 2 infls.   ( 5) 1 extrs.                                            
  498 points on ppm-axis = NY
      4.000000     3.992357     3.984714     3.977070     3.969427     3.961784     3.954141     3.946497     3.938854     3.931211
      3.923568     3.915925     3.908281     3.900638     3.892995     3.885352     3.877708     3.870065     3.862422     3.854779
      3.847136     3.839492     3.831849     3.824206     3.816563     3.808919     3.801276     3.793633     3.785990     3.778347
      3.770703     3.763060     3.755417     3.747774     3.740130     3.732487     3.724844     3.717201     3.709558     3.701914
      3.694271     3.686628     3.678985     3.671341     3.663698     3.656055     3.648412     3.640769     3.633125     3.625482
      3.617839     3.610196     3.602552     3.594909     3.587266     3.579623     3.571980     3.564336     3.556693     3.549050
      3.541407     3.533763     3.526120     3.518477     3.510834     3.503191     3.495547     3.487904     3.480261     3.472618
      3.464974     3.457331     3.449688     3.442045     3.434402     3.426758     3.419115     3.411472     3.403829     3.396185
      3.388542     3.380899     3.373256     3.365613     3.357969     3.350326     3.342683     3.335040     3.327396     3.319753
      3.312110     3.304467     3.296824     3.289180     3.281537     3.273894     3.266251     3.258607     3.250964     3.243321
      3.235678     3.228034     3.220391     3.212748     3.205105     3.197462     3.189818     3.182175     3.174532     3.166889
      3.159245     3.151602     3.143959     3.136316     3.128673     3.121029     3.113386     3.105743     3.098100     3.090456
      3.082813     3.075170     3.067527     3.059884     3.052240     3.044597     3.036954     3.029311     3.021667     3.014024
      3.006381     2.998738     2.991095     2.983451     2.975808     2.968165     2.960522     2.952878     2.945235     2.937592
      2.929949     2.922306     2.914662     2.907019     2.899376     2.891733     2.884089     2.876446     2.868803     2.861160
      2.853517     2.845873     2.838230     2.830587     2.822944     2.815300     2.807657     2.800014     2.792371     2.784728
      2.777084     2.769441     2.761798     2.754155     2.746511     2.738868     2.731225     2.723582     2.715939     2.708295
      2.700652     2.693009     2.685366     2.677722     2.670079     2.662436     2.654793     2.647150     2.639506     2.631863
      2.624220     2.616577     2.608933     2.601290     2.593647     2.586004     2.578361     2.570717     2.563074     2.555431
      2.547788     2.540144     2.532501     2.524858     2.517215     2.509572     2.501928     2.494285     2.486642     2.478999
      2.471355     2.463712     2.456069     2.448426     2.440783     2.433139     2.425496     2.417853     2.410210     2.402566
      2.394923     2.387280     2.379637     2.371994     2.364350     2.356707     2.349064     2.341421     2.333777     2.326134
      2.318491     2.310848     2.303205     2.295561     2.287918     2.280275     2.272632     2.264988     2.257345     2.249702
      2.242059     2.234416     2.226772     2.219129     2.211486     2.203843     2.196199     2.188556     2.180913     2.173270
      2.165627     2.157983     2.150340     2.142697     2.135054     2.127410     2.119767     2.112124     2.104481     2.096838
      2.089194     2.081551     2.073908     2.066265     2.058621     2.050978     2.043335     2.035692     2.028049     2.020405
      2.012762     2.005119     1.997476     1.989833     1.982190     1.974546     1.966903     1.959260     1.951617     1.943974
      1.936331     1.928688     1.921045     1.913402     1.905759     1.898115     1.890472     1.882829     1.875186     1.867543
      1.859900     1.852257     1.844614     1.836971     1.829327     1.821684     1.814041     1.806398     1.798755     1.791112
      1.783469     1.775826     1.768183     1.760540     1.752896     1.745253     1.737610     1.729967     1.722324     1.714681
      1.707038     1.699395     1.691752     1.684108     1.676465     1.668822     1.661179     1.653536     1.645893     1.638250
      1.630607     1.622964     1.615321     1.607677     1.600034     1.592391     1.584748     1.577105     1.569462     1.561819
      1.554176     1.546533     1.538890     1.531246     1.523603     1.515960     1.508317     1.500674     1.493031     1.485388
      1.477745     1.470102     1.462458     1.454815     1.447172     1.439529     1.431886     1.424243     1.416600     1.408957
      1.401314     1.393671     1.386027     1.378384     1.370741     1.363098     1.355455     1.347812     1.340169     1.332526
      1.324883     1.317240     1.309596     1.301953     1.294310     1.286667     1.279024     1.271381     1.263738     1.256095
      1.248452     1.240808     1.233165     1.225522     1.217879     1.210236     1.202593     1.194950     1.187307     1.179664
      1.172021     1.164377     1.156734     1.149091     1.141448     1.133805     1.126162     1.118519     1.110876     1.103233
      1.095590     1.087946     1.080303     1.072660     1.065017     1.057374     1.049731     1.042088     1.034445     1.026802
      1.019158     1.011515     1.003872     0.996229     0.988586     0.980943     0.973300     0.965657     0.958014     0.950371
      0.942727     0.935084     0.927441     0.919798     0.912155     0.904512     0.896869     0.889226     0.881583     0.873940
      0.866296     0.858653     0.851010     0.843367     0.835724     0.828081     0.820438     0.812795     0.805152     0.797508
      0.789865     0.782222     0.774579     0.766936     0.759293     0.751650     0.744007     0.736364     0.728721     0.721077
      0.713434     0.705791     0.698148     0.690505     0.682862     0.675219     0.667576     0.659933     0.652290     0.644646
      0.637003     0.629360     0.621717     0.614074     0.606431     0.598788     0.591145     0.583502     0.575858     0.568215
      0.560572     0.552929     0.545286     0.537643     0.530000     0.522357     0.514714     0.507071     0.499427     0.491784
      0.484141     0.476498     0.468855     0.461212     0.453569     0.445925     0.438282     0.430639     0.422996     0.415353
      0.407710     0.400067     0.392424     0.384780     0.377137     0.369494     0.361851     0.354208     0.346565     0.338922
      0.331278     0.323635     0.315992     0.308349     0.300706     0.293063     0.285420     0.277777     0.270133     0.262490
      0.254847     0.247204     0.239561     0.231918     0.224275     0.216631     0.208988     0.201345
 NY phased data points follow
   1.13537E+00  3.48520E+00  3.39657E+00  3.11516E+00  5.05155E+00  5.16972E+00  4.39357E+00  4.29077E+00  3.28816E+00  4.39677E+00
   5.79662E+00  5.19605E+00  5.81438E+00  5.75606E+00  2.34739E+00  3.81669E+00  6.11543E+00  6.41418E+00  6.54132E+00  6.13343E+00
   5.30825E+00  5.11685E+00  7.08807E+00  6.62325E+00  6.71588E+00  5.69251E+00  7.43385E+00  7.93341E+00  5.90833E+00  6.19095E+00
   7.44195E+00  7.38456E+00  6.93365E+00  8.04944E+00  8.31675E+00  5.68982E+00  6.39668E+00  9.24131E+00  7.34799E+00  8.02462E+00
   7.11765E+00  9.34291E+00  9.76003E+00  7.67237E+00  6.84207E+00  8.85420E+00  1.03424E+01  9.92037E+00  9.91714E+00  1.01734E+01
   8.13746E+00  1.03779E+01  9.34230E+00  1.21552E+01  9.75697E+00  9.44315E+00  1.17824E+01  9.68132E+00  1.05852E+01  1.04745E+01
   1.10218E+01  1.03613E+01  1.12122E+01  1.04629E+01  1.12535E+01  1.23185E+01  1.22247E+01  1.13834E+01  1.08160E+01  1.10109E+01
   1.20696E+01  1.30349E+01  1.21971E+01  1.17066E+01  1.35264E+01  1.18155E+01  1.19142E+01  1.40161E+01  1.24622E+01  1.32027E+01
   1.34079E+01  1.19551E+01  1.23412E+01  1.26395E+01  1.34133E+01  1.36442E+01  1.45680E+01  1.50252E+01  1.45284E+01  1.47986E+01
   1.16946E+01  1.21999E+01  1.31432E+01  1.39477E+01  1.29170E+01  1.40715E+01  1.57863E+01  1.50390E+01  1.57542E+01  1.61405E+01
   1.41626E+01  1.33502E+01  1.67877E+01  1.51272E+01  1.59521E+01  1.45641E+01  1.59008E+01  1.58646E+01  1.70153E+01  1.70166E+01
   1.59517E+01  1.72532E+01  1.79523E+01  1.67520E+01  1.60052E+01  1.46747E+01  1.61773E+01  1.50749E+01  1.48303E+01  1.57947E+01
   1.53272E+01  1.82117E+01  1.63370E+01  1.64062E+01  1.81339E+01  1.85992E+01  1.85974E+01  1.81874E+01  1.87460E+01  1.82489E+01
   1.85346E+01  1.82545E+01  1.63055E+01  1.77664E+01  1.95470E+01  1.82125E+01  1.60734E+01  1.92335E+01  1.81592E+01  1.79788E+01
   1.92053E+01  1.85914E+01  1.96392E+01  1.99807E+01  1.78739E+01  1.87310E+01  2.04433E+01  1.99894E+01  1.95014E+01  1.91075E+01
   2.10640E+01  1.94861E+01  2.12529E+01  1.92494E+01  2.18647E+01  1.99475E+01  1.97524E+01  2.21624E+01  2.09088E+01  2.08442E+01
   2.21618E+01  1.93684E+01  2.19380E+01  2.03097E+01  1.99545E+01  1.98845E+01  2.28823E+01  1.98352E+01  2.44060E+01  2.23000E+01
   2.03710E+01  2.29395E+01  2.02919E+01  2.28818E+01  2.38983E+01  2.37406E+01  2.30864E+01  2.27394E+01  2.20412E+01  2.03592E+01
   2.19126E+01  2.23683E+01  2.12489E+01  2.25214E+01  2.18842E+01  2.30086E+01  2.19949E+01  2.20682E+01  2.34270E+01  2.25006E+01
   2.34783E+01  2.42369E+01  2.42035E+01  2.50882E+01  2.31396E+01  2.37748E+01  2.42661E+01  2.37887E+01  2.41598E+01  2.54608E+01
   2.41315E+01  2.65723E+01  2.50335E+01  2.59872E+01  2.26173E+01  2.50967E+01  2.51820E+01  2.66675E+01  2.45428E+01  2.54324E+01
   2.69402E+01  2.66662E+01  2.61334E+01  2.70449E+01  2.79193E+01  2.60325E+01  2.63322E+01  2.67328E+01  2.78961E+01  2.78965E+01
   2.81452E+01  2.73493E+01  2.97920E+01  3.03663E+01  3.00243E+01  3.24032E+01  3.01543E+01  2.92065E+01  3.09705E+01  3.14451E+01
   2.98389E+01  3.05048E+01  2.85329E+01  3.15576E+01  3.20465E+01  3.29845E+01  3.46413E+01  3.27552E+01  3.33666E+01  3.34076E+01
   3.52736E+01  3.32018E+01  3.49251E+01  3.24742E+01  3.50565E+01  3.77589E+01  3.91381E+01  3.79867E+01  3.35714E+01  3.42330E+01
   3.08753E+01  3.43590E+01  3.29122E+01  3.66865E+01  3.67467E+01  3.77710E+01  3.61031E+01  3.72325E+01  3.89287E+01  3.80600E+01
   3.78376E+01  3.85805E+01  3.84221E+01  3.85610E+01  4.09957E+01  4.05780E+01  4.17362E+01  4.16586E+01  4.03045E+01  4.15367E+01
   4.16984E+01  4.15832E+01  4.23595E+01  4.24683E+01  4.28323E+01  4.27152E+01  4.38450E+01  4.37428E+01  4.50777E+01  4.54305E+01
   4.43427E+01  4.63468E+01  4.58106E+01  4.67288E+01  4.82840E+01  4.73996E+01  4.78062E+01  4.85691E+01  4.89932E+01  4.89787E+01
   5.01850E+01  5.30382E+01  5.34589E+01  5.38312E+01  5.57375E+01  5.56603E+01  5.52348E+01  5.81147E+01  5.81188E+01  6.09141E+01
   6.30885E+01  6.46304E+01  6.73280E+01  7.02044E+01  7.24815E+01  7.57345E+01  7.95194E+01  8.12092E+01  8.53727E+01  8.96837E+01
   9.25877E+01  9.36727E+01  9.84360E+01  1.00332E+02  1.03523E+02  1.02867E+02  1.04707E+02  1.03626E+02  1.04104E+02  1.04353E+02
   1.01596E+02  1.03118E+02  1.03025E+02  9.90320E+01  9.59871E+01  9.64993E+01  9.61310E+01  9.51091E+01  9.53106E+01  9.26950E+01
   9.12045E+01  9.42310E+01  9.35171E+01  9.53485E+01  9.51761E+01  9.81987E+01  9.73920E+01  9.85711E+01  9.82440E+01  9.90736E+01
   1.00566E+02  1.01801E+02  1.03320E+02  1.04099E+02  1.04023E+02  1.05332E+02  1.03411E+02  1.03894E+02  1.06009E+02  1.04938E+02
   1.05141E+02  1.03038E+02  1.02206E+02  1.02647E+02  1.04439E+02  1.01975E+02  1.02497E+02  9.87394E+01  1.00047E+02  9.82488E+01
   9.86624E+01  9.74044E+01  9.74450E+01  9.61120E+01  9.40977E+01  9.31026E+01  9.27993E+01  9.13417E+01  8.98747E+01  8.82225E+01
   8.88049E+01  8.76738E+01  8.64085E+01  8.37201E+01  8.21278E+01  8.19839E+01  7.92515E+01  7.69737E+01  7.78754E+01  7.74873E+01
   7.59874E+01  7.36357E+01  7.09797E+01  6.91157E+01  6.76438E+01  6.61466E+01  6.54382E+01  6.42173E+01  6.28232E+01  6.02496E+01
   5.96050E+01  5.93567E+01  5.91229E+01  5.75437E+01  5.86019E+01  5.68417E+01  5.51078E+01  5.35173E+01  5.26080E+01  5.27141E+01
   4.92644E+01  5.28557E+01  4.99906E+01  5.03295E+01  4.87757E+01  4.52962E+01  4.63023E+01  4.64176E+01  4.43962E+01  4.56320E+01
   4.57757E+01  4.43364E+01  4.07269E+01  4.09436E+01  4.37346E+01  3.93467E+01  4.14053E+01  3.92732E+01  4.12196E+01  4.00503E+01
   3.85370E+01  3.95296E+01  3.97267E+01  3.93612E+01  3.71612E+01  3.61558E+01  3.58361E+01  3.62898E+01  3.66522E+01  3.47505E+01
   3.46186E+01  3.39506E+01  3.47462E+01  3.48943E+01  3.42396E+01  3.29218E+01  3.34415E+01  3.20992E+01  3.34829E+01  3.13469E+01
   3.14356E+01  3.14441E+01  3.14207E+01  3.05229E+01  2.94506E+01  3.05423E+01  2.87707E+01  3.08271E+01  2.95781E+01  3.12380E+01
   2.81190E+01  2.80404E+01  2.83205E+01  2.79761E+01  2.75225E+01  2.82931E+01  2.64707E+01  2.78101E+01  2.77980E+01  2.89560E+01
   2.71116E+01  2.47232E+01  2.64423E+01  2.63952E+01  2.73519E+01  2.66832E+01  2.65222E+01  2.69484E+01  2.60583E+01  2.62628E+01
   2.54136E+01  2.54382E+01  2.40197E+01  2.45942E+01  2.24361E+01  2.61272E+01  2.46518E+01  2.30412E+01  2.44306E+01  2.42123E+01
   2.52961E+01  2.31487E+01  2.40652E+01  2.29558E+01  2.57766E+01  2.46164E+01  2.29838E+01  2.26642E+01  2.18935E+01  2.25202E+01
   2.29333E+01  2.17722E+01  2.06586E+01  2.04502E+01  2.08459E+01  2.33990E+01  1.98493E+01  2.07375E+01
 NY points of the fit to the data follow
   3.15503E+00  3.29072E+00  3.39707E+00  3.48982E+00  3.55752E+00  3.62336E+00  3.70146E+00  3.86760E+00  4.00093E+00  4.19634E+00
   4.34109E+00  4.49688E+00  4.61728E+00  4.67547E+00  4.78720E+00  4.83777E+00  5.08720E+00  5.11735E+00  5.48187E+00  5.42769E+00
   5.83279E+00  5.65576E+00  6.09093E+00  5.76930E+00  6.27673E+00  5.85935E+00  6.46655E+00  6.00225E+00  6.70776E+00  6.27923E+00
   7.08725E+00  6.69213E+00  7.52137E+00  7.07763E+00  7.84233E+00  7.34850E+00  8.06306E+00  7.63227E+00  8.37646E+00  8.07870E+00
   8.80329E+00  8.60110E+00  9.24671E+00  9.08267E+00  9.60516E+00  9.46313E+00  9.91236E+00  9.87289E+00  1.02593E+01  1.02024E+01
   1.04795E+01  1.04097E+01  1.05977E+01  1.05117E+01  1.06643E+01  1.06371E+01  1.08381E+01  1.08505E+01  1.10333E+01  1.10356E+01
   1.11759E+01  1.11865E+01  1.13212E+01  1.13233E+01  1.14641E+01  1.14776E+01  1.16292E+01  1.16542E+01  1.18086E+01  1.18473E+01
   1.20101E+01  1.20606E+01  1.22065E+01  1.22478E+01  1.23711E+01  1.24033E+01  1.25081E+01  1.25324E+01  1.26160E+01  1.26356E+01
   1.26894E+01  1.27009E+01  1.27290E+01  1.27332E+01  1.27362E+01  1.27603E+01  1.27835E+01  1.28247E+01  1.28821E+01  1.29359E+01
   1.30403E+01  1.31005E+01  1.32590E+01  1.33238E+01  1.35589E+01  1.36184E+01  1.39280E+01  1.39695E+01  1.43463E+01  1.43603E+01
   1.47847E+01  1.47596E+01  1.51983E+01  1.51292E+01  1.55507E+01  1.54401E+01  1.58224E+01  1.56889E+01  1.60377E+01  1.59147E+01
   1.62215E+01  1.61105E+01  1.63574E+01  1.62723E+01  1.64516E+01  1.64153E+01  1.65436E+01  1.65758E+01  1.66676E+01  1.67710E+01
   1.68362E+01  1.69937E+01  1.70356E+01  1.72290E+01  1.72511E+01  1.74819E+01  1.75169E+01  1.77432E+01  1.77742E+01  1.79819E+01
   1.80098E+01  1.81995E+01  1.82270E+01  1.83964E+01  1.84245E+01  1.85667E+01  1.85967E+01  1.87102E+01  1.87467E+01  1.88419E+01
   1.88891E+01  1.89740E+01  1.90339E+01  1.91167E+01  1.91890E+01  1.92720E+01  1.93545E+01  1.94387E+01  1.95334E+01  1.96357E+01
   1.97378E+01  1.98445E+01  1.99487E+01  2.00572E+01  2.01620E+01  2.02711E+01  2.03756E+01  2.04847E+01  2.05888E+01  2.06974E+01
   2.08004E+01  2.09080E+01  2.10101E+01  2.11162E+01  2.12176E+01  2.13225E+01  2.14241E+01  2.15288E+01  2.16310E+01  2.17368E+01
   2.18411E+01  2.19481E+01  2.20560E+01  2.21659E+01  2.22803E+01  2.23922E+01  2.24976E+01  2.26115E+01  2.26814E+01  2.27863E+01
   2.28126E+01  2.29072E+01  2.28885E+01  2.30067E+01  2.29767E+01  2.31453E+01  2.31018E+01  2.33609E+01  2.33176E+01  2.36590E+01
   2.36005E+01  2.39857E+01  2.37902E+01  2.42445E+01  2.39454E+01  2.45011E+01  2.41236E+01  2.48001E+01  2.44161E+01  2.51678E+01
   2.47038E+01  2.54979E+01  2.49880E+01  2.57785E+01  2.52280E+01  2.59811E+01  2.55181E+01  2.62625E+01  2.59361E+01  2.66535E+01
   2.64598E+01  2.70924E+01  2.69774E+01  2.74596E+01  2.73734E+01  2.77525E+01  2.77116E+01  2.80558E+01  2.80629E+01  2.84433E+01
   2.85574E+01  2.90018E+01  2.91580E+01  2.97048E+01  2.98235E+01  3.03656E+01  3.03529E+01  3.09071E+01  3.08210E+01  3.13767E+01
   3.12839E+01  3.18158E+01  3.16676E+01  3.21729E+01  3.20897E+01  3.25074E+01  3.25139E+01  3.28261E+01  3.29741E+01  3.31257E+01
   3.33326E+01  3.33558E+01  3.36406E+01  3.36042E+01  3.39555E+01  3.39129E+01  3.43830E+01  3.43665E+01  3.48844E+01  3.48913E+01
   3.54280E+01  3.54842E+01  3.60139E+01  3.61452E+01  3.66423E+01  3.68569E+01  3.73215E+01  3.75958E+01  3.79747E+01  3.83185E+01
   3.86514E+01  3.90409E+01  3.93229E+01  3.97442E+01  3.99654E+01  4.03493E+01  4.05619E+01  4.09374E+01  4.11505E+01  4.15224E+01
   4.17524E+01  4.21165E+01  4.23603E+01  4.27297E+01  4.29986E+01  4.33818E+01  4.36871E+01  4.40808E+01  4.44177E+01  4.48193E+01
   4.51804E+01  4.55904E+01  4.59970E+01  4.64352E+01  4.68858E+01  4.73597E+01  4.78665E+01  4.83849E+01  4.89547E+01  4.95510E+01
   5.02119E+01  5.09206E+01  5.17137E+01  5.25842E+01  5.35667E+01  5.46694E+01  5.59197E+01  5.73298E+01  5.89222E+01  6.07100E+01
   6.27065E+01  6.49182E+01  6.73432E+01  6.99762E+01  7.27997E+01  7.57923E+01  7.89269E+01  8.21857E+01  8.55877E+01  8.90927E+01
   9.21642E+01  9.53729E+01  9.76979E+01  1.00276E+02  1.01545E+02  1.03245E+02  1.03291E+02  1.04497E+02  1.03502E+02  1.04167E+02
   1.02287E+02  1.02511E+02  1.00024E+02  9.99829E+01  9.72416E+01  9.72942E+01  9.48591E+01  9.51984E+01  9.34149E+01  9.41301E+01
   9.31941E+01  9.42846E+01  9.40728E+01  9.52466E+01  9.55133E+01  9.65116E+01  9.71660E+01  9.79412E+01  9.89571E+01  9.96958E+01
   1.00977E+02  1.01639E+02  1.03010E+02  1.03400E+02  1.04544E+02  1.04509E+02  1.05282E+02  1.04987E+02  1.05525E+02  1.05149E+02
   1.05136E+02  1.04507E+02  1.04174E+02  1.03405E+02  1.02832E+02  1.01928E+02  1.01177E+02  1.00502E+02  9.98229E+01  9.91085E+01
   9.83447E+01  9.75244E+01  9.66442E+01  9.57030E+01  9.47016E+01  9.36419E+01  9.25269E+01  9.13602E+01  9.01461E+01  8.88894E+01
   8.75951E+01  8.62685E+01  8.49150E+01  8.35399E+01  8.21487E+01  8.07467E+01  7.93389E+01  7.79302E+01  7.65251E+01  7.51280E+01
   7.37428E+01  7.23732E+01  7.10225E+01  6.96936E+01  6.83890E+01  6.71110E+01  6.58616E+01  6.46424E+01  6.34545E+01  6.22990E+01
   6.11765E+01  6.00875E+01  5.90321E+01  5.80101E+01  5.70212E+01  5.60648E+01  5.51400E+01  5.42459E+01  5.33812E+01  5.25446E+01
   5.17345E+01  5.09494E+01  5.01874E+01  4.94470E+01  4.87263E+01  4.80235E+01  4.73370E+01  4.66653E+01  4.60067E+01  4.53602E+01
   4.47245E+01  4.40987E+01  4.34823E+01  4.28746E+01  4.22756E+01  4.16852E+01  4.11035E+01  4.05309E+01  3.99678E+01  3.94148E+01
   3.88726E+01  3.83417E+01  3.78230E+01  3.73170E+01  3.68242E+01  3.63453E+01  3.58805E+01  3.54303E+01  3.49948E+01  3.45740E+01
   3.41679E+01  3.37764E+01  3.33993E+01  3.30362E+01  3.26868E+01  3.23506E+01  3.20271E+01  3.17159E+01  3.14164E+01  3.11280E+01
   3.08503E+01  3.05826E+01  3.03245E+01  3.00753E+01  2.98348E+01  2.96023E+01  2.93774E+01  2.91597E+01  2.89488E+01  2.87443E+01
   2.85458E+01  2.83531E+01  2.81659E+01  2.79837E+01  2.78064E+01  2.76337E+01  2.74654E+01  2.73012E+01  2.71409E+01  2.69844E+01
   2.68315E+01  2.66819E+01  2.65355E+01  2.63922E+01  2.62519E+01  2.61143E+01  2.59794E+01  2.58471E+01  2.57171E+01  2.55896E+01
   2.54642E+01  2.53410E+01  2.52198E+01  2.51006E+01  2.49833E+01  2.48678E+01  2.47541E+01  2.46420E+01  2.45316E+01  2.44227E+01
   2.43154E+01  2.42095E+01  2.41051E+01  2.40020E+01  2.39003E+01  2.38000E+01  2.37010E+01  2.36033E+01  2.35068E+01  2.34117E+01
   2.33179E+01  2.32254E+01  2.31343E+01  2.30445E+01  2.29563E+01  2.28696E+01  2.27847E+01  2.27016E+01
 NY background values follow
     1.238E+01    1.249E+01    1.259E+01    1.269E+01    1.279E+01    1.289E+01    1.299E+01    1.309E+01    1.319E+01    1.329E+01
     1.340E+01    1.350E+01    1.360E+01    1.370E+01    1.380E+01    1.390E+01    1.400E+01    1.410E+01    1.420E+01    1.430E+01
     1.440E+01    1.450E+01    1.460E+01    1.470E+01    1.480E+01    1.490E+01    1.500E+01    1.510E+01    1.520E+01    1.530E+01
     1.540E+01    1.550E+01    1.560E+01    1.570E+01    1.580E+01    1.590E+01    1.600E+01    1.610E+01    1.620E+01    1.630E+01
     1.640E+01    1.650E+01    1.660E+01    1.669E+01    1.679E+01    1.689E+01    1.699E+01    1.709E+01    1.719E+01    1.728E+01
     1.738E+01    1.748E+01    1.758E+01    1.768E+01    1.777E+01    1.787E+01    1.797E+01    1.807E+01    1.816E+01    1.826E+01
     1.836E+01    1.845E+01    1.855E+01    1.865E+01    1.874E+01    1.884E+01    1.893E+01    1.903E+01    1.913E+01    1.922E+01
     1.932E+01    1.941E+01    1.951E+01    1.960E+01    1.970E+01    1.979E+01    1.989E+01    1.998E+01    2.008E+01    2.017E+01
     2.027E+01    2.036E+01    2.045E+01    2.055E+01    2.064E+01    2.073E+01    2.083E+01    2.092E+01    2.101E+01    2.111E+01
     2.120E+01    2.129E+01    2.138E+01    2.147E+01    2.157E+01    2.166E+01    2.175E+01    2.184E+01    2.193E+01    2.202E+01
     2.211E+01    2.220E+01    2.229E+01    2.238E+01    2.247E+01    2.256E+01    2.265E+01    2.274E+01    2.283E+01    2.292E+01
     2.301E+01    2.310E+01    2.319E+01    2.327E+01    2.336E+01    2.345E+01    2.354E+01    2.363E+01    2.371E+01    2.380E+01
     2.389E+01    2.397E+01    2.406E+01    2.415E+01    2.423E+01    2.432E+01    2.440E+01    2.449E+01    2.457E+01    2.466E+01
     2.474E+01    2.483E+01    2.491E+01    2.499E+01    2.508E+01    2.516E+01    2.524E+01    2.533E+01    2.541E+01    2.549E+01
     2.557E+01    2.566E+01    2.574E+01    2.582E+01    2.590E+01    2.598E+01    2.606E+01    2.614E+01    2.622E+01    2.630E+01
     2.638E+01    2.646E+01    2.654E+01    2.662E+01    2.670E+01    2.678E+01    2.686E+01    2.693E+01    2.701E+01    2.709E+01
     2.717E+01    2.724E+01    2.732E+01    2.739E+01    2.747E+01    2.755E+01    2.762E+01    2.770E+01    2.777E+01    2.785E+01
     2.792E+01    2.799E+01    2.807E+01    2.814E+01    2.822E+01    2.829E+01    2.836E+01    2.843E+01    2.850E+01    2.858E+01
     2.865E+01    2.872E+01    2.879E+01    2.886E+01    2.893E+01    2.900E+01    2.907E+01    2.914E+01    2.921E+01    2.928E+01
     2.934E+01    2.941E+01    2.948E+01    2.955E+01    2.961E+01    2.968E+01    2.975E+01    2.981E+01    2.988E+01    2.994E+01
     3.001E+01    3.007E+01    3.014E+01    3.020E+01    3.027E+01    3.033E+01    3.039E+01    3.046E+01    3.052E+01    3.058E+01
     3.064E+01    3.070E+01    3.076E+01    3.082E+01    3.088E+01    3.094E+01    3.100E+01    3.106E+01    3.112E+01    3.118E+01
     3.124E+01    3.130E+01    3.135E+01    3.141E+01    3.147E+01    3.152E+01    3.158E+01    3.163E+01    3.169E+01    3.174E+01
     3.180E+01    3.185E+01    3.191E+01    3.196E+01    3.201E+01    3.206E+01    3.212E+01    3.217E+01    3.222E+01    3.227E+01
     3.232E+01    3.237E+01    3.242E+01    3.247E+01    3.252E+01    3.257E+01    3.262E+01    3.266E+01    3.271E+01    3.276E+01
     3.280E+01    3.285E+01    3.290E+01    3.294E+01    3.299E+01    3.303E+01    3.307E+01    3.312E+01    3.316E+01    3.320E+01
     3.325E+01    3.329E+01    3.333E+01    3.337E+01    3.341E+01    3.345E+01    3.349E+01    3.353E+01    3.357E+01    3.361E+01
     3.364E+01    3.368E+01    3.372E+01    3.376E+01    3.379E+01    3.383E+01    3.386E+01    3.390E+01    3.393E+01    3.397E+01
     3.400E+01    3.403E+01    3.407E+01    3.410E+01    3.413E+01    3.416E+01    3.419E+01    3.422E+01    3.425E+01    3.428E+01
     3.431E+01    3.434E+01    3.437E+01    3.439E+01    3.442E+01    3.445E+01    3.447E+01    3.450E+01    3.453E+01    3.455E+01
     3.457E+01    3.460E+01    3.462E+01    3.464E+01    3.467E+01    3.469E+01    3.471E+01    3.473E+01    3.475E+01    3.477E+01
     3.479E+01    3.481E+01    3.483E+01    3.485E+01    3.486E+01    3.488E+01    3.490E+01    3.491E+01    3.493E+01    3.494E+01
     3.496E+01    3.497E+01    3.499E+01    3.500E+01    3.501E+01    3.502E+01    3.504E+01    3.505E+01    3.506E+01    3.507E+01
     3.508E+01    3.509E+01    3.509E+01    3.510E+01    3.511E+01    3.512E+01    3.512E+01    3.513E+01    3.513E+01    3.514E+01
     3.514E+01    3.515E+01    3.515E+01    3.515E+01    3.516E+01    3.516E+01    3.516E+01    3.516E+01    3.516E+01    3.516E+01
     3.516E+01    3.516E+01    3.516E+01    3.515E+01    3.515E+01    3.515E+01    3.514E+01    3.514E+01    3.514E+01    3.513E+01
     3.512E+01    3.512E+01    3.511E+01    3.510E+01    3.510E+01    3.509E+01    3.508E+01    3.507E+01    3.506E+01    3.505E+01
     3.504E+01    3.502E+01    3.501E+01    3.500E+01    3.499E+01    3.497E+01    3.496E+01    3.494E+01    3.493E+01    3.491E+01
     3.489E+01    3.488E+01    3.486E+01    3.484E+01    3.482E+01    3.480E+01    3.478E+01    3.476E+01    3.474E+01    3.472E+01
     3.470E+01    3.468E+01    3.465E+01    3.463E+01    3.461E+01    3.458E+01    3.456E+01    3.453E+01    3.451E+01    3.448E+01
     3.445E+01    3.442E+01    3.440E+01    3.437E+01    3.434E+01    3.431E+01    3.428E+01    3.425E+01    3.421E+01    3.418E+01
     3.415E+01    3.412E+01    3.408E+01    3.405E+01    3.401E+01    3.398E+01    3.394E+01    3.391E+01    3.387E+01    3.383E+01
     3.379E+01    3.376E+01    3.372E+01    3.368E+01    3.364E+01    3.360E+01    3.355E+01    3.351E+01    3.347E+01    3.343E+01
     3.338E+01    3.334E+01    3.330E+01    3.325E+01    3.321E+01    3.316E+01    3.311E+01    3.307E+01    3.302E+01    3.297E+01
     3.292E+01    3.287E+01    3.282E+01    3.277E+01    3.272E+01    3.267E+01    3.262E+01    3.257E+01    3.251E+01    3.246E+01
     3.240E+01    3.235E+01    3.229E+01    3.224E+01    3.218E+01    3.213E+01    3.207E+01    3.201E+01    3.195E+01    3.189E+01
     3.183E+01    3.177E+01    3.171E+01    3.165E+01    3.159E+01    3.153E+01    3.147E+01    3.140E+01    3.134E+01    3.128E+01
     3.121E+01    3.115E+01    3.108E+01    3.101E+01    3.095E+01    3.088E+01    3.081E+01    3.074E+01    3.068E+01    3.061E+01
     3.054E+01    3.047E+01    3.040E+01    3.032E+01    3.025E+01    3.018E+01    3.011E+01    3.003E+01    2.996E+01    2.988E+01
     2.981E+01    2.973E+01    2.966E+01    2.958E+01    2.950E+01    2.943E+01    2.935E+01    2.927E+01
 Ala      Conc. = 2.97E+03
