 LCModel (Version 6.3-1L) Copyright: S.W. Provencher.          Ref.: Magn. Reson. Med. 30:672-679 (1993).                
 Slice#1 Row#9 Col#7  K_02_press_1_raw_act
 36 lines in following concentration table = NCONC+1
    Conc.  %SD /Cr+PCr  Metabolite                                         
   22.439 535% 2.1E-02 Ala                                                 
   29.537 742% 2.7E-02 Asp                                                 
  718.685  18%   0.660 Cr                                                  
  369.643  34%   0.340 PCr                                                 
    0.000 999%   0.000 GABA                                                
   50.775 275% 4.7E-02 Glc                                                 
  373.973  65%   0.344 Gln                                                 
 1.42E+03  19%   1.304 Glu                                                 
  313.908   7%   0.288 GPC                                                 
    0.000 999%   0.000 PCh                                                 
  334.267  25%   0.307 GSH                                                 
  982.367  28%   0.903 Ins                                                 
    0.000 999%   0.000 Lac                                                 
 2.05E+03   5%   1.884 NAA                                                 
  440.878  26%   0.405 NAAG                                                
    8.003 349% 7.4E-03 Scyllo                                              
    0.000 999%   0.000 Tau                                                 
    0.000 999%   0.000 -CrCH2                                              
  313.908   7%   0.288 GPC+PCh                                             
 2.49E+03   4%   2.289 NAA+NAAG                                            
 1.09E+03   6%   1.000 Cr+PCr                                              
 1.79E+03  21%   1.648 Glu+Gln                                             
 2.04E+03  29%   1.877 Lip13a                                              
    0.000 999%   0.000 Lip13b                                              
  565.250  58%   0.519 Lip09                                               
 1.86E+03  18%   1.710 MM09                                                
  330.907  70%   0.304 Lip20                                               
 2.67E+03  17%   2.457 MM20                                                
  527.133  56%   0.484 MM12                                                
 1.75E+03  23%   1.604 MM14                                                
  597.458  38%   0.549 MM17                                                
 2.04E+03  29%   1.877 Lip13a+Lip13b                                       
 4.31E+03   9%   3.965 MM14+Lip13a+Lip13b+MM12                             
 2.43E+03   9%   2.230 MM09+Lip09                                          
 3.01E+03  15%   2.761 MM20+Lip20                                          
   6 lines in following misc. output table
  FWHM = 0.046 ppm    S/N =  10                                            
  Data shift = 0.015 ppm                                                   
  Ph:   5 deg       4.1 deg/ppm                                            
  alphaB,S = 3.5E+00,   8.6E+01                                            
   14 spline knots.   Ns = 6(1)                                            
  ( 6) 3 infls.   ( 5) 1 extrs.                                            
  498 points on ppm-axis = NY
      4.000000     3.992357     3.984714     3.977070     3.969427     3.961784     3.954141     3.946497     3.938854     3.931211
      3.923568     3.915925     3.908281     3.900638     3.892995     3.885352     3.877708     3.870065     3.862422     3.854779
      3.847136     3.839492     3.831849     3.824206     3.816563     3.808919     3.801276     3.793633     3.785990     3.778347
      3.770703     3.763060     3.755417     3.747774     3.740130     3.732487     3.724844     3.717201     3.709558     3.701914
      3.694271     3.686628     3.678985     3.671341     3.663698     3.656055     3.648412     3.640769     3.633125     3.625482
      3.617839     3.610196     3.602552     3.594909     3.587266     3.579623     3.571980     3.564336     3.556693     3.549050
      3.541407     3.533763     3.526120     3.518477     3.510834     3.503191     3.495547     3.487904     3.480261     3.472618
      3.464974     3.457331     3.449688     3.442045     3.434402     3.426758     3.419115     3.411472     3.403829     3.396185
      3.388542     3.380899     3.373256     3.365613     3.357969     3.350326     3.342683     3.335040     3.327396     3.319753
      3.312110     3.304467     3.296824     3.289180     3.281537     3.273894     3.266251     3.258607     3.250964     3.243321
      3.235678     3.228034     3.220391     3.212748     3.205105     3.197462     3.189818     3.182175     3.174532     3.166889
      3.159245     3.151602     3.143959     3.136316     3.128673     3.121029     3.113386     3.105743     3.098100     3.090456
      3.082813     3.075170     3.067527     3.059884     3.052240     3.044597     3.036954     3.029311     3.021667     3.014024
      3.006381     2.998738     2.991095     2.983451     2.975808     2.968165     2.960522     2.952878     2.945235     2.937592
      2.929949     2.922306     2.914662     2.907019     2.899376     2.891733     2.884089     2.876446     2.868803     2.861160
      2.853517     2.845873     2.838230     2.830587     2.822944     2.815300     2.807657     2.800014     2.792371     2.784728
      2.777084     2.769441     2.761798     2.754155     2.746511     2.738868     2.731225     2.723582     2.715939     2.708295
      2.700652     2.693009     2.685366     2.677722     2.670079     2.662436     2.654793     2.647150     2.639506     2.631863
      2.624220     2.616577     2.608933     2.601290     2.593647     2.586004     2.578361     2.570717     2.563074     2.555431
      2.547788     2.540144     2.532501     2.524858     2.517215     2.509572     2.501928     2.494285     2.486642     2.478999
      2.471355     2.463712     2.456069     2.448426     2.440783     2.433139     2.425496     2.417853     2.410210     2.402566
      2.394923     2.387280     2.379637     2.371994     2.364350     2.356707     2.349064     2.341421     2.333777     2.326134
      2.318491     2.310848     2.303205     2.295561     2.287918     2.280275     2.272632     2.264988     2.257345     2.249702
      2.242059     2.234416     2.226772     2.219129     2.211486     2.203843     2.196199     2.188556     2.180913     2.173270
      2.165627     2.157983     2.150340     2.142697     2.135054     2.127410     2.119767     2.112124     2.104481     2.096838
      2.089194     2.081551     2.073908     2.066265     2.058621     2.050978     2.043335     2.035692     2.028049     2.020405
      2.012762     2.005119     1.997476     1.989833     1.982190     1.974546     1.966903     1.959260     1.951617     1.943974
      1.936331     1.928688     1.921045     1.913402     1.905759     1.898115     1.890472     1.882829     1.875186     1.867543
      1.859900     1.852257     1.844614     1.836971     1.829327     1.821684     1.814041     1.806398     1.798755     1.791112
      1.783469     1.775826     1.768183     1.760540     1.752896     1.745253     1.737610     1.729967     1.722324     1.714681
      1.707038     1.699395     1.691752     1.684108     1.676465     1.668822     1.661179     1.653536     1.645893     1.638250
      1.630607     1.622964     1.615321     1.607677     1.600034     1.592391     1.584748     1.577105     1.569462     1.561819
      1.554176     1.546533     1.538890     1.531246     1.523603     1.515960     1.508317     1.500674     1.493031     1.485388
      1.477745     1.470102     1.462458     1.454815     1.447172     1.439529     1.431886     1.424243     1.416600     1.408957
      1.401314     1.393671     1.386027     1.378384     1.370741     1.363098     1.355455     1.347812     1.340169     1.332526
      1.324883     1.317240     1.309596     1.301953     1.294310     1.286667     1.279024     1.271381     1.263738     1.256095
      1.248452     1.240808     1.233165     1.225522     1.217879     1.210236     1.202593     1.194950     1.187307     1.179664
      1.172021     1.164377     1.156734     1.149091     1.141448     1.133805     1.126162     1.118519     1.110876     1.103233
      1.095590     1.087946     1.080303     1.072660     1.065017     1.057374     1.049731     1.042088     1.034445     1.026802
      1.019158     1.011515     1.003872     0.996229     0.988586     0.980943     0.973300     0.965657     0.958014     0.950371
      0.942727     0.935084     0.927441     0.919798     0.912155     0.904512     0.896869     0.889226     0.881583     0.873940
      0.866296     0.858653     0.851010     0.843367     0.835724     0.828081     0.820438     0.812795     0.805152     0.797508
      0.789865     0.782222     0.774579     0.766936     0.759293     0.751650     0.744007     0.736364     0.728721     0.721077
      0.713434     0.705791     0.698148     0.690505     0.682862     0.675219     0.667576     0.659933     0.652290     0.644646
      0.637003     0.629360     0.621717     0.614074     0.606431     0.598788     0.591145     0.583502     0.575858     0.568215
      0.560572     0.552929     0.545286     0.537643     0.530000     0.522357     0.514714     0.507071     0.499427     0.491784
      0.484141     0.476498     0.468855     0.461212     0.453569     0.445925     0.438282     0.430639     0.422996     0.415353
      0.407710     0.400067     0.392424     0.384780     0.377137     0.369494     0.361851     0.354208     0.346565     0.338922
      0.331278     0.323635     0.315992     0.308349     0.300706     0.293063     0.285420     0.277777     0.270133     0.262490
      0.254847     0.247204     0.239561     0.231918     0.224275     0.216631     0.208988     0.201345
 NY phased data points follow
   3.59928E+01  3.29858E+01  4.29673E+01  4.20000E+01  3.25106E+01  4.29370E+01  4.62766E+01  4.74801E+01  4.87544E+01  6.06574E+01
   4.68953E+01  5.59425E+01  5.22752E+01  5.10165E+01  5.17143E+01  4.97740E+01  3.88039E+01  3.18360E+01  3.53820E+01  3.92700E+01
   2.91610E+01  3.92155E+01  3.06302E+01  3.61082E+01  3.66624E+01  3.07559E+01  3.14729E+01  3.01833E+01  3.73358E+01  3.79195E+01
   3.09032E+01  3.52555E+01  3.54616E+01  3.52310E+01  3.06331E+01  3.31076E+01  2.68521E+01  3.49238E+01  3.17638E+01  2.46721E+01
   3.08720E+01  3.06170E+01  3.38252E+01  3.35653E+01  3.22375E+01  3.30329E+01  3.23322E+01  3.87050E+01  3.46018E+01  2.88891E+01
   2.85013E+01  2.50124E+01  2.63748E+01  2.74105E+01  2.81187E+01  3.32635E+01  2.77831E+01  2.37435E+01  2.74977E+01  2.56880E+01
   2.54373E+01  2.84009E+01  2.23976E+01  2.22792E+01  2.46287E+01  2.05376E+01  1.97623E+01  2.55737E+01  2.12947E+01  1.98249E+01
   1.83969E+01  2.23163E+01  2.23765E+01  2.58684E+01  1.72401E+01  1.98115E+01  2.39213E+01  2.31038E+01  1.41277E+01  1.62679E+01
   2.76805E+01  1.76714E+01  2.13240E+01  2.15388E+01  2.13336E+01  1.66824E+01  2.25515E+01  1.72646E+01  1.47408E+01  1.61343E+01
   1.98356E+01  1.63334E+01  1.36439E+01  2.15008E+01  2.21738E+01  2.14216E+01  2.21868E+01  2.02560E+01  2.62564E+01  3.17120E+01
   3.76842E+01  4.40992E+01  5.32405E+01  5.14996E+01  4.53260E+01  3.65698E+01  3.33170E+01  2.73762E+01  2.41651E+01  2.38916E+01
   2.59734E+01  1.88344E+01  3.13271E+01  2.41235E+01  1.32434E+01  1.49552E+01  1.88987E+01  1.97194E+01  2.22449E+01  1.97017E+01
   2.12391E+01  2.41966E+01  1.76062E+01  2.84231E+01  4.21597E+01  4.54022E+01  5.34052E+01  5.63756E+01  5.34139E+01  4.36908E+01
   3.82927E+01  2.87564E+01  3.13182E+01  2.38381E+01  2.79863E+01  2.35302E+01  2.17838E+01  1.23199E+01  1.30283E+01  1.72761E+01
   1.17310E+01  9.16498E+00  1.96282E+01  1.46122E+01  2.41678E+01  1.76138E+01  1.29984E+01  1.67991E+01  1.37489E+01  1.90329E+01
   2.12352E+01  1.51980E+01  1.71924E+01  1.17651E+01  1.42071E+01  1.62254E+01  1.35006E+01  1.12501E+01  1.46060E+01  1.75496E+01
   1.34748E+01  1.53417E+01  1.51753E+01  1.17840E+01  1.82257E+01  1.34139E+01  1.54584E+01  9.05901E+00  1.32006E+01  1.00819E+01
   9.82938E+00  1.13773E+01  5.20329E+00 -2.45669E+00  4.46062E+00  1.64462E+00 -1.02599E+00 -2.19596E+00  2.08597E+00 -5.22654E+00
   1.29883E+00  6.15774E-01 -6.33829E-02  5.40148E+00  6.90527E+00  8.11531E+00  9.63895E+00  8.08279E+00  1.19359E+01  2.73820E+00
   1.03776E+01  3.67010E+00  1.02829E+01  9.09535E+00  5.18748E+00  3.94877E+00  3.53936E+00 -6.35121E+00  5.65865E-01 -1.57745E+00
   1.51143E+00  7.88738E+00  1.92117E+01  8.75715E+00  1.08087E+01  8.52152E+00  9.97665E+00  5.83888E+00  1.00044E+01  1.67220E+01
   7.92851E+00  1.24405E+01  6.90973E+00  1.66378E+01  1.46509E+01  3.44605E+01  2.08720E+01  2.05788E+01  1.29806E+01  1.25193E+01
   1.12027E+01  3.66221E+00  6.33534E+00  6.93469E+00  7.93811E+00  6.56791E+00  1.12419E+01  1.43145E+01  1.54788E+01  1.61507E+01
   1.01001E+01  1.70322E+01  1.47478E+01  1.96758E+01  1.47113E+01  1.25724E+01  1.18598E+01  1.12809E+01  1.50671E+01  1.04315E+01
   2.08751E+01  8.52227E+00  1.20286E+01  7.69402E+00  1.27210E+01  1.74707E+01  2.21879E+01  2.88859E+01  1.67572E+01  1.68048E+01
   2.43493E+01  2.13068E+01  2.81220E+01  3.11310E+01  3.94759E+01  4.88145E+01  5.13676E+01  6.49251E+01  7.92997E+01  9.33652E+01
   1.03008E+02  9.98405E+01  9.03859E+01  5.74697E+01  3.53687E+01  3.04138E+01  3.10027E+01  1.83428E+01  1.54732E+01  1.85987E+01
   1.37193E+01  1.28856E+01  5.52380E+00  1.25017E+01  5.98083E+00  6.26235E+00  1.30218E+01  6.80132E+00  7.32908E+00  4.86629E+00
   9.66271E+00  9.69567E+00  1.23560E+01  8.91415E+00  8.00981E+00  1.61929E+00  1.15733E+01  2.91239E+00  1.09239E+01  9.64088E+00
   1.33986E+01  9.91024E+00  6.70451E+00  3.98424E+00  7.13662E+00  9.24371E+00  9.30335E+00 -5.94496E-01  1.21850E+01  5.29964E+00
   1.08231E+01  1.06026E+01  1.41026E+01  1.69179E+01  1.03793E+01  1.37053E+00  1.01245E+01  1.57950E+01  9.03991E+00  8.39263E+00
   5.71584E+00  8.05231E+00  1.72345E+01  1.17969E+01  1.03461E+01  7.19261E+00  8.21747E+00  7.69887E+00  6.58575E+00  1.07833E+01
   3.96974E+00  7.77120E+00  1.03815E+01  4.72303E+00  7.47750E+00  6.17779E+00  8.21926E+00  1.51401E+01  8.45983E+00  9.26108E+00
   5.17414E+00  1.10293E+01  1.12361E+01  1.46844E+01  1.64790E+01  1.27914E+01  1.45727E+01  1.24404E+01  1.82790E+01  1.53343E+01
   9.66030E+00  1.85217E+01  1.62245E+01  2.12323E+01  1.93843E+01  2.65860E+01  2.41591E+01  2.59340E+01  2.60710E+01  2.46994E+01
   1.94123E+01  2.44119E+01  2.27951E+01  2.18216E+01  1.64464E+01  2.01649E+01  1.82776E+01  1.34436E+01  1.27700E+01  1.48049E+01
   1.52490E+01  1.88550E+01  1.11149E+01  1.11769E+01  1.79055E+01  1.42244E+01  1.46678E+01  1.56963E+01  7.65428E+00  1.77314E+01
   1.37194E+01  9.21426E+00  8.04673E+00  1.77008E+01  1.67980E+01  9.82164E+00  1.18856E+01  6.58967E+00  1.38153E+01  1.38326E+01
   1.00722E+01  1.85778E+01  1.01504E+01  1.46538E+01  1.05459E+01  1.23365E+01  1.03630E+01  1.46413E+01  9.33554E+00  1.25812E+01
   1.34748E+01  1.37724E+01  9.09044E+00  1.39006E+01  1.50719E+01  1.79796E+01  2.29788E+01  2.40127E+01  2.18434E+01  2.11255E+01
   1.96695E+01  2.02469E+01  1.46559E+01  2.13285E+01  2.70134E+01  2.06823E+01  1.65594E+01  2.32009E+01  1.96757E+01  1.89132E+01
   1.80300E+01  1.65986E+01  2.11922E+01  2.01733E+01  1.66814E+01  1.27164E+01  6.89266E+00  9.35226E+00  4.08677E+00  1.58636E+01
   1.30166E+01  1.06486E+01  9.69601E+00  1.23985E+01  7.17921E+00  1.18693E+01  8.49620E+00  1.43578E+01  4.85587E+00  5.34127E+00
   7.73536E+00  5.68899E+00  1.13131E+01  6.34546E+00  1.17763E+01  9.76427E+00  3.41682E+00  9.38070E+00  5.33773E+00 -1.06778E-01
   4.31522E+00  1.12611E+01  4.33286E+00  6.41738E+00  9.99403E+00  1.79398E+00  5.80118E+00  8.11098E+00  5.51558E+00  8.28169E+00
   6.77557E+00  7.90946E+00  8.11768E+00  8.21588E-01  6.50207E+00  4.40735E+00  5.19820E+00  2.34255E+00  4.85309E+00  2.75208E+00
   7.29160E+00  6.91200E+00  3.41043E+00  4.76885E+00  2.07649E+00 -7.26597E+00  2.51629E+00  9.74742E+00  5.93803E+00  4.50669E+00
   6.86645E+00  1.10871E+01 -1.87922E+00 -5.04801E+00  7.17933E+00  5.79912E+00  8.45636E+00  4.51716E+00  1.05323E+01  2.22663E+00
   5.11181E+00  2.80828E+00  9.62633E+00  4.89248E+00  4.06347E+00  6.76840E+00  1.47393E-01  7.90732E+00  4.09657E+00  6.98064E+00
   8.45804E+00  1.60221E+00  6.67226E+00  7.41569E+00 -2.76916E+00 -2.13629E+00 -1.74404E+00  4.20900E+00
 NY points of the fit to the data follow
   3.25518E+01  3.25132E+01  3.29385E+01  3.40085E+01  3.56607E+01  3.80064E+01  4.13663E+01  4.52221E+01  4.88411E+01  5.17540E+01
   5.34666E+01  5.35290E+01  5.17498E+01  4.83123E+01  4.37704E+01  3.91768E+01  3.57853E+01  3.39113E+01  3.25551E+01  3.12891E+01
   3.06256E+01  3.04449E+01  3.02548E+01  3.00132E+01  3.00428E+01  3.03749E+01  3.10964E+01  3.24101E+01  3.42517E+01  3.62700E+01
   3.78368E+01  3.84194E+01  3.77243E+01  3.59616E+01  3.37616E+01  3.15593E+01  2.94015E+01  2.76115E+01  2.67434E+01  2.66648E+01
   2.70994E+01  2.79850E+01  2.92063E+01  3.06173E+01  3.20790E+01  3.34950E+01  3.45141E+01  3.45951E+01  3.34804E+01  3.13753E+01
   2.89494E+01  2.69842E+01  2.57708E+01  2.51380E+01  2.48718E+01  2.49637E+01  2.54088E+01  2.60022E+01  2.65365E+01  2.68210E+01
   2.66970E+01  2.61103E+01  2.51772E+01  2.42085E+01  2.35067E+01  2.31942E+01  2.32292E+01  2.34906E+01  2.38481E+01  2.41906E+01
   2.44531E+01  2.45652E+01  2.44944E+01  2.42429E+01  2.38590E+01  2.34538E+01  2.31125E+01  2.28469E+01  2.25951E+01  2.23365E+01
   2.21047E+01  2.18356E+01  2.14732E+01  2.09828E+01  2.03564E+01  1.96150E+01  1.88503E+01  1.82360E+01  1.79569E+01  1.80945E+01
   1.85960E+01  1.92566E+01  1.98517E+01  2.02861E+01  2.05681E+01  2.07472E+01  2.12521E+01  2.32921E+01  2.70008E+01  3.23047E+01
   3.90678E+01  4.60024E+01  5.08692E+01  5.15957E+01  4.76360E+01  4.04254E+01  3.28238E+01  2.73096E+01  2.41366E+01  2.18239E+01
   1.96497E+01  1.85738E+01  1.83456E+01  1.82930E+01  1.82828E+01  1.82890E+01  1.83121E+01  1.83615E+01  1.84753E+01  1.87708E+01
   1.96690E+01  2.18570E+01  2.60114E+01  3.20221E+01  3.94773E+01  4.74523E+01  5.40463E+01  5.70744E+01  5.52606E+01  4.91404E+01
   4.10234E+01  3.36446E+01  2.83229E+01  2.44603E+01  2.10546E+01  1.81487E+01  1.65036E+01  1.59794E+01  1.61396E+01  1.66555E+01
   1.71721E+01  1.74817E+01  1.75272E+01  1.73035E+01  1.69099E+01  1.64862E+01  1.60927E+01  1.57331E+01  1.53742E+01  1.49955E+01
   1.46393E+01  1.42976E+01  1.39967E+01  1.37899E+01  1.36867E+01  1.35933E+01  1.34426E+01  1.31623E+01  1.26746E+01  1.20788E+01
   1.15397E+01  1.12673E+01  1.13704E+01  1.16906E+01  1.18708E+01  1.16093E+01  1.09069E+01  1.00722E+01  9.42974E+00  9.02234E+00
   8.70104E+00  8.29035E+00  7.78600E+00  7.26397E+00  6.78590E+00  6.44757E+00  6.41260E+00  6.67465E+00  6.98925E+00  7.08979E+00
   6.90127E+00  6.59275E+00  6.50993E+00  6.78198E+00  7.17221E+00  7.57270E+00  8.24316E+00  9.38794E+00  1.09472E+01  1.24964E+01
   1.35308E+01  1.38147E+01  1.33771E+01  1.25618E+01  1.16964E+01  1.09007E+01  1.03324E+01  1.01579E+01  1.04540E+01  1.11991E+01
   1.23254E+01  1.35810E+01  1.45668E+01  1.50192E+01  1.46875E+01  1.35467E+01  1.16569E+01  9.30487E+00  7.09757E+00  5.61504E+00
   5.29480E+00  6.32838E+00  8.51113E+00  1.14609E+01  1.45148E+01  1.67984E+01  1.74242E+01  1.59266E+01  1.25915E+01  8.56317E+00
   5.04821E+00  2.76168E+00  2.08107E+00  3.10149E+00  5.67083E+00  9.04777E+00  1.19545E+01  1.37034E+01  1.43654E+01  1.44315E+01
   1.42092E+01  1.38588E+01  1.37156E+01  1.40485E+01  1.47448E+01  1.54792E+01  1.59587E+01  1.59651E+01  1.55284E+01  1.47435E+01
   1.37960E+01  1.30594E+01  1.29451E+01  1.35928E+01  1.47663E+01  1.61242E+01  1.72919E+01  1.79714E+01  1.81974E+01  1.84958E+01
   1.96953E+01  2.17986E+01  2.48672E+01  2.90561E+01  3.56670E+01  4.53478E+01  5.62097E+01  6.85019E+01  8.19015E+01  9.37559E+01
   9.96019E+01  9.56365E+01  8.16514E+01  6.25802E+01  4.60252E+01  3.55503E+01  2.89013E+01  2.25196E+01  1.73431E+01  1.52594E+01
   1.42278E+01  1.35150E+01  1.30246E+01  1.26912E+01  1.23666E+01  1.19812E+01  1.15183E+01  1.10115E+01  1.05288E+01  1.01254E+01
   9.79741E+00  9.51732E+00  9.28804E+00  9.11299E+00  8.95752E+00  8.78687E+00  8.61052E+00  8.45921E+00  8.35546E+00  8.30123E+00
   8.30123E+00  8.36062E+00  8.46258E+00  8.57543E+00  8.68177E+00  8.77762E+00  8.87064E+00  8.96926E+00  9.07466E+00  9.18790E+00
   9.31340E+00  9.44388E+00  9.56429E+00  9.65989E+00  9.72348E+00  9.75501E+00  9.75406E+00  9.71825E+00  9.65242E+00  9.56169E+00
   9.45012E+00  9.32291E+00  9.18667E+00  9.04858E+00  8.91638E+00  8.79776E+00  8.70015E+00  8.63072E+00  8.59660E+00  8.60520E+00
   8.66540E+00  8.78819E+00  8.96976E+00  9.20099E+00  9.47594E+00  9.77822E+00  1.00876E+01  1.03935E+01  1.07048E+01  1.10583E+01
   1.14972E+01  1.20365E+01  1.26667E+01  1.33627E+01  1.41014E+01  1.48608E+01  1.55953E+01  1.62607E+01  1.68483E+01  1.73769E+01
   1.78695E+01  1.83275E+01  1.87339E+01  1.90872E+01  1.93961E+01  1.96554E+01  1.98617E+01  2.00140E+01  2.01123E+01  2.01572E+01
   2.01497E+01  2.00912E+01  1.99838E+01  1.98296E+01  1.96307E+01  1.93891E+01  1.91072E+01  1.87877E+01  1.84337E+01  1.80486E+01
   1.76357E+01  1.71987E+01  1.67416E+01  1.62690E+01  1.57857E+01  1.52965E+01  1.48061E+01  1.43194E+01  1.38413E+01  1.33768E+01
   1.29307E+01  1.25075E+01  1.21116E+01  1.17469E+01  1.14179E+01  1.11285E+01  1.08828E+01  1.06843E+01  1.05366E+01  1.04435E+01
   1.04087E+01  1.04358E+01  1.05279E+01  1.06878E+01  1.09176E+01  1.12190E+01  1.15929E+01  1.20384E+01  1.25531E+01  1.31329E+01
   1.37716E+01  1.44608E+01  1.51902E+01  1.59468E+01  1.67157E+01  1.74803E+01  1.82229E+01  1.89254E+01  1.95696E+01  2.01380E+01
   2.06146E+01  2.09859E+01  2.12413E+01  2.13736E+01  2.13791E+01  2.12581E+01  2.10142E+01  2.06548E+01  2.01903E+01  1.96337E+01
   1.89991E+01  1.83022E+01  1.75587E+01  1.67843E+01  1.59941E+01  1.52015E+01  1.44184E+01  1.36547E+01  1.29186E+01  1.22165E+01
   1.15530E+01  1.09308E+01  1.03514E+01  9.81466E+00  9.32006E+00  8.86615E+00  8.45087E+00  8.07169E+00  7.72586E+00  7.41066E+00
   7.12351E+00  6.86188E+00  6.62324E+00  6.40517E+00  6.20547E+00  6.02226E+00  5.85392E+00  5.69891E+00  5.55576E+00  5.42313E+00
   5.29991E+00  5.18522E+00  5.07832E+00  4.97842E+00  4.88475E+00  4.79665E+00  4.71363E+00  4.63533E+00  4.56141E+00  4.49141E+00
   4.42491E+00  4.36160E+00  4.30129E+00  4.24385E+00  4.18906E+00  4.13664E+00  4.08633E+00  4.03801E+00  3.99163E+00  3.94711E+00
   3.90430E+00  3.86296E+00  3.82299E+00  3.78434E+00  3.74704E+00  3.71102E+00  3.67612E+00  3.64219E+00  3.60917E+00  3.57711E+00
   3.54602E+00  3.51581E+00  3.48634E+00  3.45753E+00  3.42939E+00  3.40197E+00  3.37526E+00  3.34916E+00  3.32354E+00  3.29837E+00
   3.27371E+00  3.24959E+00  3.22598E+00  3.20276E+00  3.17984E+00  3.15724E+00  3.13503E+00  3.11323E+00  3.09175E+00  3.07048E+00
   3.04937E+00  3.02849E+00  3.00789E+00  2.98755E+00  2.96734E+00  2.94717E+00  2.92706E+00  2.90705E+00
 NY background values follow
     2.869E+01    2.858E+01    2.847E+01    2.836E+01    2.824E+01    2.813E+01    2.802E+01    2.791E+01    2.780E+01    2.768E+01
     2.757E+01    2.746E+01    2.735E+01    2.724E+01    2.713E+01    2.701E+01    2.690E+01    2.679E+01    2.668E+01    2.657E+01
     2.645E+01    2.634E+01    2.623E+01    2.612E+01    2.601E+01    2.590E+01    2.578E+01    2.567E+01    2.556E+01    2.545E+01
     2.534E+01    2.522E+01    2.511E+01    2.500E+01    2.489E+01    2.478E+01    2.467E+01    2.456E+01    2.444E+01    2.433E+01
     2.422E+01    2.411E+01    2.400E+01    2.389E+01    2.378E+01    2.367E+01    2.356E+01    2.345E+01    2.333E+01    2.322E+01
     2.311E+01    2.300E+01    2.289E+01    2.278E+01    2.267E+01    2.256E+01    2.245E+01    2.234E+01    2.223E+01    2.212E+01
     2.201E+01    2.190E+01    2.180E+01    2.169E+01    2.158E+01    2.147E+01    2.136E+01    2.125E+01    2.114E+01    2.103E+01
     2.093E+01    2.082E+01    2.071E+01    2.060E+01    2.050E+01    2.039E+01    2.028E+01    2.017E+01    2.007E+01    1.996E+01
     1.985E+01    1.975E+01    1.964E+01    1.953E+01    1.943E+01    1.932E+01    1.922E+01    1.911E+01    1.901E+01    1.890E+01
     1.880E+01    1.869E+01    1.859E+01    1.849E+01    1.838E+01    1.828E+01    1.818E+01    1.807E+01    1.797E+01    1.787E+01
     1.776E+01    1.766E+01    1.756E+01    1.746E+01    1.736E+01    1.726E+01    1.716E+01    1.705E+01    1.695E+01    1.685E+01
     1.675E+01    1.665E+01    1.655E+01    1.646E+01    1.636E+01    1.626E+01    1.616E+01    1.606E+01    1.596E+01    1.587E+01
     1.577E+01    1.567E+01    1.557E+01    1.548E+01    1.538E+01    1.529E+01    1.519E+01    1.509E+01    1.500E+01    1.490E+01
     1.481E+01    1.471E+01    1.462E+01    1.453E+01    1.443E+01    1.434E+01    1.425E+01    1.415E+01    1.406E+01    1.397E+01
     1.388E+01    1.379E+01    1.370E+01    1.360E+01    1.351E+01    1.342E+01    1.333E+01    1.324E+01    1.315E+01    1.307E+01
     1.298E+01    1.289E+01    1.280E+01    1.271E+01    1.263E+01    1.254E+01    1.245E+01    1.237E+01    1.228E+01    1.219E+01
     1.211E+01    1.202E+01    1.194E+01    1.186E+01    1.177E+01    1.169E+01    1.161E+01    1.152E+01    1.144E+01    1.136E+01
     1.128E+01    1.120E+01    1.112E+01    1.104E+01    1.096E+01    1.088E+01    1.080E+01    1.072E+01    1.064E+01    1.056E+01
     1.049E+01    1.041E+01    1.033E+01    1.026E+01    1.018E+01    1.010E+01    1.003E+01    9.955E+00    9.881E+00    9.807E+00
     9.734E+00    9.661E+00    9.588E+00    9.516E+00    9.445E+00    9.373E+00    9.303E+00    9.232E+00    9.162E+00    9.092E+00
     9.023E+00    8.954E+00    8.886E+00    8.818E+00    8.750E+00    8.683E+00    8.616E+00    8.550E+00    8.484E+00    8.418E+00
     8.353E+00    8.288E+00    8.223E+00    8.159E+00    8.096E+00    8.032E+00    7.969E+00    7.907E+00    7.845E+00    7.783E+00
     7.722E+00    7.661E+00    7.600E+00    7.540E+00    7.480E+00    7.420E+00    7.361E+00    7.303E+00    7.244E+00    7.186E+00
     7.129E+00    7.072E+00    7.015E+00    6.958E+00    6.902E+00    6.847E+00    6.791E+00    6.736E+00    6.682E+00    6.628E+00
     6.574E+00    6.521E+00    6.467E+00    6.415E+00    6.363E+00    6.311E+00    6.259E+00    6.208E+00    6.157E+00    6.107E+00
     6.056E+00    6.007E+00    5.957E+00    5.908E+00    5.860E+00    5.812E+00    5.764E+00    5.716E+00    5.669E+00    5.622E+00
     5.576E+00    5.530E+00    5.484E+00    5.439E+00    5.394E+00    5.350E+00    5.305E+00    5.261E+00    5.218E+00    5.175E+00
     5.132E+00    5.090E+00    5.048E+00    5.006E+00    4.965E+00    4.924E+00    4.883E+00    4.843E+00    4.803E+00    4.763E+00
     4.724E+00    4.685E+00    4.647E+00    4.609E+00    4.571E+00    4.534E+00    4.496E+00    4.460E+00    4.423E+00    4.387E+00
     4.351E+00    4.316E+00    4.281E+00    4.246E+00    4.212E+00    4.178E+00    4.144E+00    4.110E+00    4.077E+00    4.044E+00
     4.012E+00    3.980E+00    3.948E+00    3.917E+00    3.885E+00    3.854E+00    3.824E+00    3.794E+00    3.764E+00    3.734E+00
     3.705E+00    3.676E+00    3.647E+00    3.619E+00    3.591E+00    3.563E+00    3.535E+00    3.508E+00    3.481E+00    3.455E+00
     3.428E+00    3.402E+00    3.376E+00    3.351E+00    3.326E+00    3.301E+00    3.276E+00    3.252E+00    3.228E+00    3.204E+00
     3.181E+00    3.157E+00    3.135E+00    3.112E+00    3.089E+00    3.067E+00    3.045E+00    3.024E+00    3.002E+00    2.981E+00
     2.960E+00    2.940E+00    2.919E+00    2.899E+00    2.879E+00    2.860E+00    2.840E+00    2.821E+00    2.802E+00    2.783E+00
     2.765E+00    2.747E+00    2.728E+00    2.711E+00    2.693E+00    2.676E+00    2.659E+00    2.642E+00    2.625E+00    2.608E+00
     2.592E+00    2.576E+00    2.560E+00    2.545E+00    2.529E+00    2.514E+00    2.499E+00    2.484E+00    2.469E+00    2.455E+00
     2.441E+00    2.426E+00    2.413E+00    2.399E+00    2.385E+00    2.372E+00    2.359E+00    2.346E+00    2.333E+00    2.320E+00
     2.308E+00    2.295E+00    2.283E+00    2.271E+00    2.259E+00    2.248E+00    2.236E+00    2.225E+00    2.214E+00    2.203E+00
     2.192E+00    2.181E+00    2.170E+00    2.160E+00    2.150E+00    2.139E+00    2.129E+00    2.120E+00    2.110E+00    2.100E+00
     2.091E+00    2.081E+00    2.072E+00    2.063E+00    2.054E+00    2.045E+00    2.036E+00    2.028E+00    2.019E+00    2.011E+00
     2.002E+00    1.994E+00    1.986E+00    1.978E+00    1.970E+00    1.962E+00    1.955E+00    1.947E+00    1.940E+00    1.932E+00
     1.925E+00    1.918E+00    1.910E+00    1.903E+00    1.896E+00    1.889E+00    1.883E+00    1.876E+00    1.869E+00    1.863E+00
     1.856E+00    1.850E+00    1.843E+00    1.837E+00    1.831E+00    1.824E+00    1.818E+00    1.812E+00    1.806E+00    1.800E+00
     1.794E+00    1.788E+00    1.783E+00    1.777E+00    1.771E+00    1.765E+00    1.760E+00    1.754E+00    1.748E+00    1.743E+00
     1.737E+00    1.732E+00    1.726E+00    1.721E+00    1.715E+00    1.710E+00    1.705E+00    1.699E+00    1.694E+00    1.689E+00
     1.683E+00    1.678E+00    1.673E+00    1.667E+00    1.662E+00    1.657E+00    1.652E+00    1.647E+00    1.641E+00    1.636E+00
     1.631E+00    1.626E+00    1.621E+00    1.616E+00    1.611E+00    1.606E+00    1.601E+00    1.595E+00    1.590E+00    1.585E+00
     1.580E+00    1.575E+00    1.570E+00    1.565E+00    1.560E+00    1.555E+00    1.550E+00    1.545E+00    1.540E+00    1.535E+00
     1.530E+00    1.525E+00    1.520E+00    1.515E+00    1.510E+00    1.505E+00    1.500E+00    1.495E+00
 Ala      Conc. = 2.24E+01
