 LCModel (Version 6.3-1L) Copyright: S.W. Provencher.          Ref.: Magn. Reson. Med. 30:672-679 (1993).                
 Slice#3 Row#3 Col#8  K_02_press_1_raw_act
 36 lines in following concentration table = NCONC+1
    Conc.  %SD /Cr+PCr  Metabolite                                         
    0.000 999%   0.000 Ala                                                 
   58.136 390% 3.3E-02 Asp                                                 
  841.173  25%   0.478 Cr                                                  
  919.380  24%   0.522 PCr                                                 
    0.000 999%   0.000 GABA                                                
    0.000 999%   0.000 Glc                                                 
  705.304  29%   0.401 Gln                                                 
 1.60E+03  14%   0.910 Glu                                                 
  469.729   5%   0.267 GPC                                                 
    0.000 999%   0.000 PCh                                                 
  453.320  16%   0.257 GSH                                                 
 1.02E+03  23%   0.581 Ins                                                 
    0.000 999%   0.000 Lac                                                 
 2.21E+03   5%   1.253 NAA                                                 
  129.664  92% 7.4E-02 NAAG                                                
    0.000 999%   0.000 Scyllo                                              
    0.000 999%   0.000 Tau                                                 
  246.930  48%   0.140 -CrCH2                                              
  469.729   5%   0.267 GPC+PCh                                             
 2.34E+03   4%   1.326 NAA+NAAG                                            
 1.76E+03   4%   1.000 Cr+PCr                                              
 2.31E+03  14%   1.311 Glu+Gln                                             
 5.28E+03  23%   2.997 Lip13a                                              
    0.000 999%   0.000 Lip13b                                              
 1.48E+03  30%   0.843 Lip09                                               
 1.56E+03  28%   0.884 MM09                                                
  542.112  64%   0.308 Lip20                                               
 3.98E+03  14%   2.263 MM20                                                
  826.056  52%   0.469 MM12                                                
 4.57E+03  16%   2.594 MM14                                                
  785.470  51%   0.446 MM17                                                
 5.28E+03  23%   2.997 Lip13a+Lip13b                                       
 1.07E+04   9%   6.060 MM14+Lip13a+Lip13b+MM12                             
 3.04E+03  12%   1.727 MM09+Lip09                                          
 4.53E+03  11%   2.571 MM20+Lip20                                          
   6 lines in following misc. output table
  FWHM = 0.046 ppm    S/N =  13                                            
  Data shift = 0.023 ppm                                                   
  Ph:  22 deg      -1.4 deg/ppm                                            
  alphaB,S = 1.1E+00,   9.5E+01                                            
   14 spline knots.   Ns = 6(1)                                            
  ( 4) 2 infls.   ( 3) 1 extrs.                                            
  498 points on ppm-axis = NY
      4.000000     3.992357     3.984714     3.977070     3.969427     3.961784     3.954141     3.946497     3.938854     3.931211
      3.923568     3.915925     3.908281     3.900638     3.892995     3.885352     3.877708     3.870065     3.862422     3.854779
      3.847136     3.839492     3.831849     3.824206     3.816563     3.808919     3.801276     3.793633     3.785990     3.778347
      3.770703     3.763060     3.755417     3.747774     3.740130     3.732487     3.724844     3.717201     3.709558     3.701914
      3.694271     3.686628     3.678985     3.671341     3.663698     3.656055     3.648412     3.640769     3.633125     3.625482
      3.617839     3.610196     3.602552     3.594909     3.587266     3.579623     3.571980     3.564336     3.556693     3.549050
      3.541407     3.533763     3.526120     3.518477     3.510834     3.503191     3.495547     3.487904     3.480261     3.472618
      3.464974     3.457331     3.449688     3.442045     3.434402     3.426758     3.419115     3.411472     3.403829     3.396185
      3.388542     3.380899     3.373256     3.365613     3.357969     3.350326     3.342683     3.335040     3.327396     3.319753
      3.312110     3.304467     3.296824     3.289180     3.281537     3.273894     3.266251     3.258607     3.250964     3.243321
      3.235678     3.228034     3.220391     3.212748     3.205105     3.197462     3.189818     3.182175     3.174532     3.166889
      3.159245     3.151602     3.143959     3.136316     3.128673     3.121029     3.113386     3.105743     3.098100     3.090456
      3.082813     3.075170     3.067527     3.059884     3.052240     3.044597     3.036954     3.029311     3.021667     3.014024
      3.006381     2.998738     2.991095     2.983451     2.975808     2.968165     2.960522     2.952878     2.945235     2.937592
      2.929949     2.922306     2.914662     2.907019     2.899376     2.891733     2.884089     2.876446     2.868803     2.861160
      2.853517     2.845873     2.838230     2.830587     2.822944     2.815300     2.807657     2.800014     2.792371     2.784728
      2.777084     2.769441     2.761798     2.754155     2.746511     2.738868     2.731225     2.723582     2.715939     2.708295
      2.700652     2.693009     2.685366     2.677722     2.670079     2.662436     2.654793     2.647150     2.639506     2.631863
      2.624220     2.616577     2.608933     2.601290     2.593647     2.586004     2.578361     2.570717     2.563074     2.555431
      2.547788     2.540144     2.532501     2.524858     2.517215     2.509572     2.501928     2.494285     2.486642     2.478999
      2.471355     2.463712     2.456069     2.448426     2.440783     2.433139     2.425496     2.417853     2.410210     2.402566
      2.394923     2.387280     2.379637     2.371994     2.364350     2.356707     2.349064     2.341421     2.333777     2.326134
      2.318491     2.310848     2.303205     2.295561     2.287918     2.280275     2.272632     2.264988     2.257345     2.249702
      2.242059     2.234416     2.226772     2.219129     2.211486     2.203843     2.196199     2.188556     2.180913     2.173270
      2.165627     2.157983     2.150340     2.142697     2.135054     2.127410     2.119767     2.112124     2.104481     2.096838
      2.089194     2.081551     2.073908     2.066265     2.058621     2.050978     2.043335     2.035692     2.028049     2.020405
      2.012762     2.005119     1.997476     1.989833     1.982190     1.974546     1.966903     1.959260     1.951617     1.943974
      1.936331     1.928688     1.921045     1.913402     1.905759     1.898115     1.890472     1.882829     1.875186     1.867543
      1.859900     1.852257     1.844614     1.836971     1.829327     1.821684     1.814041     1.806398     1.798755     1.791112
      1.783469     1.775826     1.768183     1.760540     1.752896     1.745253     1.737610     1.729967     1.722324     1.714681
      1.707038     1.699395     1.691752     1.684108     1.676465     1.668822     1.661179     1.653536     1.645893     1.638250
      1.630607     1.622964     1.615321     1.607677     1.600034     1.592391     1.584748     1.577105     1.569462     1.561819
      1.554176     1.546533     1.538890     1.531246     1.523603     1.515960     1.508317     1.500674     1.493031     1.485388
      1.477745     1.470102     1.462458     1.454815     1.447172     1.439529     1.431886     1.424243     1.416600     1.408957
      1.401314     1.393671     1.386027     1.378384     1.370741     1.363098     1.355455     1.347812     1.340169     1.332526
      1.324883     1.317240     1.309596     1.301953     1.294310     1.286667     1.279024     1.271381     1.263738     1.256095
      1.248452     1.240808     1.233165     1.225522     1.217879     1.210236     1.202593     1.194950     1.187307     1.179664
      1.172021     1.164377     1.156734     1.149091     1.141448     1.133805     1.126162     1.118519     1.110876     1.103233
      1.095590     1.087946     1.080303     1.072660     1.065017     1.057374     1.049731     1.042088     1.034445     1.026802
      1.019158     1.011515     1.003872     0.996229     0.988586     0.980943     0.973300     0.965657     0.958014     0.950371
      0.942727     0.935084     0.927441     0.919798     0.912155     0.904512     0.896869     0.889226     0.881583     0.873940
      0.866296     0.858653     0.851010     0.843367     0.835724     0.828081     0.820438     0.812795     0.805152     0.797508
      0.789865     0.782222     0.774579     0.766936     0.759293     0.751650     0.744007     0.736364     0.728721     0.721077
      0.713434     0.705791     0.698148     0.690505     0.682862     0.675219     0.667576     0.659933     0.652290     0.644646
      0.637003     0.629360     0.621717     0.614074     0.606431     0.598788     0.591145     0.583502     0.575858     0.568215
      0.560572     0.552929     0.545286     0.537643     0.530000     0.522357     0.514714     0.507071     0.499427     0.491784
      0.484141     0.476498     0.468855     0.461212     0.453569     0.445925     0.438282     0.430639     0.422996     0.415353
      0.407710     0.400067     0.392424     0.384780     0.377137     0.369494     0.361851     0.354208     0.346565     0.338922
      0.331278     0.323635     0.315992     0.308349     0.300706     0.293063     0.285420     0.277777     0.270133     0.262490
      0.254847     0.247204     0.239561     0.231918     0.224275     0.216631     0.208988     0.201345
 NY phased data points follow
   1.48442E+01  1.27708E+01  1.55597E+01  1.90719E+01  2.01007E+01  2.19109E+01  2.67525E+01  4.01054E+01  3.86862E+01  4.66700E+01
   4.96582E+01  5.41325E+01  5.17655E+01  4.32309E+01  3.81477E+01  2.92280E+01  2.49304E+01  1.97634E+01  2.43058E+01  1.97571E+01
   1.44583E+01  2.27880E+01  2.03226E+01  2.41202E+01  1.70221E+01  1.79628E+01  1.99902E+01  1.69804E+01  2.51759E+01  2.86057E+01
   2.24836E+01  2.90583E+01  2.76524E+01  2.35955E+01  1.85808E+01  1.41255E+01  1.81116E+01  1.90585E+01  2.22140E+01  2.50442E+01
   2.05246E+01  2.08393E+01  2.03043E+01  1.99188E+01  1.96554E+01  2.58912E+01  2.33150E+01  2.94519E+01  2.67163E+01  2.04931E+01
   2.06922E+01  2.00988E+01  1.73170E+01  1.27731E+01  1.06691E+01  1.92508E+01  1.71908E+01  1.33790E+01  2.18290E+01  1.62891E+01
   1.56547E+01  6.66843E+00  9.50798E+00  3.65617E+00  1.57090E+00  5.83342E+00  6.34742E+00 -1.59929E+00  8.91680E+00  5.95604E+00
   1.13258E+01  4.11612E+00  4.72057E+00  5.23915E+00  6.84256E+00  7.86228E+00  4.45149E+00  5.67708E+00  4.83543E+00  4.50456E+00
   3.81340E-01  2.54958E+00  1.97462E+00  3.38461E+00  3.59917E+00  1.85744E+00  8.57793E+00 -3.04588E+00  2.59521E+00  3.42535E+00
   3.71307E+00  9.60654E+00  6.02077E+00  6.51700E+00  6.72020E+00  1.05701E+01  8.28712E+00  8.37512E+00  1.82973E+01  1.60309E+01
   2.44815E+01  3.57498E+01  4.53732E+01  5.55295E+01  5.14437E+01  4.59686E+01  3.50058E+01  2.20465E+01  2.25878E+01  1.81947E+01
   1.38978E+01  1.01135E+01  1.21188E+01  1.22210E+01  1.07819E+01  7.71193E+00  4.04445E+00  1.02083E+01  6.01610E+00  1.06144E+01
   1.31574E+01  1.58143E+01  1.55277E+01  2.35232E+01  3.18132E+01  5.17528E+01  6.49346E+01  6.87219E+01  7.01060E+01  5.89647E+01
   4.92732E+01  3.01416E+01  2.35302E+01  1.92326E+01  1.30102E+01  1.25569E+01  9.03499E+00  6.66008E+00  7.15264E+00  1.30916E+01
   3.36646E+00  4.48477E+00  1.48219E+00  3.55398E+00  5.95514E+00  3.34081E+00  4.01815E+00  7.99282E+00  7.30508E+00  1.61041E+00
   3.40698E+00  1.74752E+00  2.34025E+00 -1.07626E+00 -4.03085E-01 -1.70653E+00  5.55783E-01  2.82156E+00 -2.51024E+00 -1.85457E+00
  -3.07564E+00 -2.99708E+00 -4.08398E+00 -5.44942E+00 -2.20513E+00 -7.37210E+00  1.10418E+00 -2.73027E+00 -4.23365E+00 -2.49286E-01
  -5.68662E+00 -3.85744E+00 -7.36313E+00 -9.20307E+00 -1.15096E+01 -8.92504E+00 -1.12719E+01 -1.17415E+01 -7.18114E+00 -1.09714E+01
  -9.28278E+00 -1.08852E+01 -1.39628E+01 -1.29007E+01 -1.29691E+01 -9.55914E+00 -9.36127E+00 -9.29024E+00 -7.69632E+00 -4.78896E+00
  -6.17728E-01  1.81179E+00  7.83373E+00  4.28748E+00  4.21010E+00  1.01793E+00  4.35292E+00 -2.00989E+00 -2.06028E-01 -3.48674E+00
  -6.39564E+00 -2.88569E+00  2.11837E+00  3.19825E+00  1.19216E+00  4.36224E+00 -4.85909E+00 -6.24918E+00 -3.46489E+00 -7.55813E+00
  -8.31350E+00 -6.49380E+00 -2.26655E+00  1.33701E+00  1.65551E+01  1.73806E+01  1.49974E+01  8.84717E+00  9.40621E+00  3.57490E+00
  -7.92239E-01 -6.88668E+00 -6.82839E+00 -4.27892E+00 -2.76985E+00  7.92795E+00  3.68829E+00  5.42490E+00  7.03749E+00  9.10951E+00
   6.55544E+00  5.97922E+00  2.34046E+00  4.93436E+00  5.23589E+00  7.63280E+00  5.39055E+00  8.88457E+00  7.69034E+00  4.26769E+00
   2.90474E+00  6.05961E+00 -1.38863E-01  3.45652E+00  6.06071E+00  6.30280E+00  1.42845E+01  1.31337E+01  1.71346E+01  1.92224E+01
   1.55733E+01  2.05313E+01  1.94077E+01  2.11335E+01  2.93157E+01  3.31768E+01  4.17000E+01  5.70171E+01  7.05240E+01  9.20552E+01
   1.02573E+02  9.34252E+01  7.33468E+01  5.34600E+01  3.46892E+01  2.56958E+01  1.40049E+01  1.01047E+01  7.32383E+00  6.23988E+00
   4.59208E+00  3.54854E+00  6.37570E+00  6.05633E+00  5.21338E+00  8.29337E-01  1.57596E+00  1.75103E+00 -1.34147E-02  4.01724E+00
  -1.62677E+00  1.85705E+00  2.25884E+00 -3.59388E-01 -3.32601E+00 -2.38371E-01 -3.73816E+00 -1.43643E+00 -5.11767E+00 -1.52405E+00
  -8.94340E-01  1.54356E+00  9.16824E-01  2.21614E+00 -1.27147E+00  1.39398E+00  3.39444E+00 -2.97814E+00 -2.17966E+00  2.12287E+00
   5.90293E+00 -4.88374E-01  7.41660E+00  5.45859E+00  6.96421E-01  1.77617E+00  8.23468E+00  9.15001E+00  9.22579E+00  6.71668E+00
   1.10906E+01  8.77346E+00  1.55979E+01  1.19983E+01  1.41030E+01  1.26636E+01  1.11647E+01  1.47578E+01  1.49761E+01  1.83430E+01
   2.09475E+01  1.70598E+01  1.99709E+01  2.17063E+01  2.35610E+01  2.87229E+01  2.87249E+01  3.18011E+01  3.29656E+01  2.89618E+01
   2.96236E+01  3.29757E+01  3.54101E+01  3.65605E+01  3.70855E+01  3.79840E+01  3.55903E+01  3.73083E+01  3.32637E+01  2.83143E+01
   2.42758E+01  2.57963E+01  3.24856E+01  2.87675E+01  2.71403E+01  2.12727E+01  3.02680E+01  2.39984E+01  2.20935E+01  2.26154E+01
   2.34260E+01  2.71751E+01  2.58508E+01  2.32364E+01  2.26202E+01  2.68697E+01  2.51045E+01  2.21638E+01  2.87112E+01  1.76123E+01
   1.98297E+01  2.00927E+01  1.80555E+01  1.88375E+01  2.03972E+01  1.76808E+01  2.05397E+01  1.95416E+01  1.82410E+01  2.33682E+01
   1.93621E+01  2.38535E+01  1.79132E+01  1.99240E+01  1.62907E+01  1.97407E+01  1.45575E+01  1.40794E+01  2.16242E+01  1.72580E+01
   1.52464E+01  1.66931E+01  1.44498E+01  1.78968E+01  1.63631E+01  1.44015E+01  1.72020E+01  1.38450E+01  1.77005E+01  2.02124E+01
   1.84411E+01  1.98301E+01  2.18621E+01  1.37698E+01  1.82038E+01  2.01857E+01  1.40035E+01  2.00664E+01  1.77402E+01  1.92537E+01
   1.62718E+01  1.86389E+01  1.71715E+01  1.50492E+01  2.12852E+01  1.64986E+01  1.79058E+01  1.61806E+01  2.02302E+01  1.97723E+01
   1.80663E+01  1.97709E+01  1.23130E+01  1.86878E+01  1.91146E+01  1.38842E+01  1.60604E+01  1.88313E+01  1.02996E+01  1.23301E+01
   1.34699E+01  8.01582E+00  1.77912E+01  1.03834E+01  1.37604E+01  1.33298E+01  9.81592E+00  8.88114E+00  1.24319E+01  9.92088E+00
   1.18623E+01  1.32189E+01  9.83441E+00  5.67212E+00  1.11502E+01  6.73138E+00  7.51563E-01  8.56573E+00  1.23536E+01  5.09489E+00
   2.83069E+00  4.01738E+00  6.67384E+00  5.67685E+00  5.58851E+00  9.12317E+00  6.34400E+00  1.30814E+01  9.03972E+00  2.63695E+00
   9.70696E+00  6.15828E+00  9.66110E+00  6.79795E+00  5.18347E+00  7.17305E+00  6.27385E+00  1.57251E+00  7.55711E+00  8.05655E+00
   4.93646E+00  3.48598E+00  6.48937E+00  3.23246E+00  8.08907E+00  1.03667E+01  6.69216E+00  6.85713E+00  4.73550E+00  3.28277E+00
   5.58777E+00  9.54151E+00  1.08582E+01  4.34880E+00  2.64238E+00  1.95297E+00  9.33817E+00  9.66690E+00  6.44995E+00  5.72397E+00
   9.41151E+00  6.17053E+00  7.71595E+00  5.12213E+00  1.86710E+00  8.88589E+00  4.48370E+00  5.56325E+00  3.38241E+00  9.78139E+00
   3.03027E+00  3.99531E+00  1.77106E+00  4.72146E+00  7.24269E+00  6.53841E+00  3.21199E+00  4.70380E+00
 NY points of the fit to the data follow
   1.78260E+01  1.75516E+01  1.76243E+01  1.84696E+01  2.03538E+01  2.33159E+01  2.80626E+01  3.41951E+01  4.10602E+01  4.75236E+01
   5.18814E+01  5.26996E+01  4.96729E+01  4.39366E+01  3.73694E+01  3.14787E+01  2.69410E+01  2.38191E+01  2.16774E+01  2.01080E+01
   1.92500E+01  1.87134E+01  1.80492E+01  1.72853E+01  1.68927E+01  1.68991E+01  1.74533E+01  1.91037E+01  2.20572E+01  2.56521E+01
   2.85622E+01  2.97886E+01  2.89956E+01  2.64785E+01  2.31845E+01  1.99115E+01  1.69856E+01  1.48382E+01  1.39133E+01  1.39506E+01
   1.45550E+01  1.56031E+01  1.68745E+01  1.81898E+01  1.96306E+01  2.12509E+01  2.25455E+01  2.27665E+01  2.16642E+01  1.95511E+01
   1.71076E+01  1.50087E+01  1.35558E+01  1.26579E+01  1.21655E+01  1.21234E+01  1.24683E+01  1.29749E+01  1.34618E+01  1.37456E+01
   1.36151E+01  1.29984E+01  1.19997E+01  1.09219E+01  1.00612E+01  9.58801E+00  9.51026E+00  9.70519E+00  1.00321E+01  1.03876E+01
   1.06794E+01  1.08031E+01  1.06965E+01  1.03718E+01  9.91399E+00  9.44933E+00  9.05674E+00  8.75091E+00  8.48588E+00  8.24487E+00
   7.99608E+00  7.66994E+00  7.23190E+00  6.65276E+00  5.90912E+00  5.02458E+00  4.13499E+00  3.46775E+00  3.21319E+00  3.40767E+00
   3.96336E+00  4.66410E+00  5.32424E+00  5.85373E+00  6.19642E+00  6.34739E+00  6.59429E+00  8.25790E+00  1.21943E+01  1.77518E+01
   2.58131E+01  3.65227E+01  4.73325E+01  5.40618E+01  5.37645E+01  4.67929E+01  3.63214E+01  2.61495E+01  1.85000E+01  1.32346E+01
   9.32540E+00  6.81954E+00  5.91639E+00  5.60644E+00  5.46273E+00  5.39546E+00  5.38071E+00  5.41426E+00  5.52893E+00  5.84366E+00
   6.83947E+00  1.02573E+01  1.64872E+01  2.46820E+01  3.60016E+01  5.02049E+01  6.36225E+01  7.10050E+01  6.91832E+01  5.92813E+01
   4.57422E+01  3.32651E+01  2.39789E+01  1.70921E+01  1.12890E+01  7.09435E+00  4.95764E+00  3.97717E+00  3.87723E+00  4.39118E+00
   5.10164E+00  5.65512E+00  5.86438E+00  5.67695E+00  5.20135E+00  4.61306E+00  4.02410E+00  3.48373E+00  2.99240E+00  2.52806E+00
   2.11959E+00  1.74750E+00  1.41273E+00  1.14576E+00  9.37410E-01  6.96932E-01  4.42276E-01  1.10880E-01 -3.90495E-01 -9.88126E-01
  -1.56190E+00 -1.82149E+00 -1.62174E+00 -1.18906E+00 -9.36440E-01 -1.15266E+00 -1.79604E+00 -2.57842E+00 -3.25514E+00 -3.80673E+00
  -4.32274E+00 -4.83306E+00 -5.31381E+00 -5.81281E+00 -6.33551E+00 -6.72820E+00 -6.73190E+00 -6.39963E+00 -6.07070E+00 -6.03190E+00
  -6.27930E+00 -6.59720E+00 -6.67141E+00 -6.53072E+00 -6.39573E+00 -6.17049E+00 -5.50087E+00 -4.21957E+00 -2.48643E+00 -7.87569E-01
   3.99957E-01  8.06034E-01  3.54535E-01 -5.80910E-01 -1.62558E+00 -2.58284E+00 -3.21702E+00 -3.26582E+00 -2.51586E+00 -1.08564E+00
   7.24903E-01  2.47901E+00  3.71491E+00  4.05710E+00  3.28258E+00  1.55817E+00 -1.04995E+00 -4.09803E+00 -6.61076E+00 -7.82708E+00
  -7.33922E+00 -5.40155E+00 -2.43006E+00  1.26322E+00  5.01887E+00  7.75610E+00  8.35633E+00  6.43216E+00  2.69853E+00 -1.59397E+00
  -5.52995E+00 -8.25968E+00 -9.00091E+00 -7.50635E+00 -4.15855E+00 -1.77465E-01  3.16287E+00  5.34040E+00  6.33997E+00  6.38265E+00
   5.82957E+00  5.18202E+00  4.91477E+00  5.26765E+00  6.22803E+00  7.63122E+00  9.06070E+00  1.00237E+01  1.02212E+01  9.54094E+00
   8.23945E+00  6.93199E+00  6.32006E+00  6.73105E+00  8.06397E+00  9.92603E+00  1.17748E+01  1.32225E+01  1.41545E+01  1.47496E+01
   1.53582E+01  1.61548E+01  1.73426E+01  1.96752E+01  2.56610E+01  3.44396E+01  4.46595E+01  5.84729E+01  7.56399E+01  9.10118E+01
   9.75270E+01  9.16099E+01  7.56342E+01  5.59580E+01  3.88523E+01  2.67558E+01  1.81829E+01  1.14383E+01  7.50932E+00  5.96714E+00
   5.02982E+00  4.36592E+00  3.95707E+00  3.72308E+00  3.51056E+00  3.23896E+00  2.87707E+00  2.44574E+00  1.99251E+00  1.55960E+00
   1.16853E+00  8.43924E-01  6.04417E-01  4.39491E-01  3.19664E-01  2.21080E-01  1.41435E-01  9.02851E-02  7.47843E-02  9.75023E-02
   1.66760E-01  2.86750E-01  4.53621E-01  6.59116E-01  8.98911E-01  1.17083E+00  1.47347E+00  1.80824E+00  2.17753E+00  2.58265E+00
   3.02350E+00  3.49637E+00  3.99513E+00  4.51369E+00  5.04751E+00  5.59480E+00  6.15535E+00  6.73082E+00  7.32602E+00  7.94770E+00
   8.60330E+00  9.30185E+00  1.00530E+01  1.08673E+01  1.17550E+01  1.27260E+01  1.37876E+01  1.49440E+01  1.61954E+01  1.75378E+01
   1.89626E+01  2.04560E+01  2.19985E+01  2.35659E+01  2.51301E+01  2.66605E+01  2.81248E+01  2.94907E+01  3.07264E+01  3.18037E+01
   3.26984E+01  3.33925E+01  3.38744E+01  3.41396E+01  3.41907E+01  3.40376E+01  3.36971E+01  3.31921E+01  3.25496E+01  3.17997E+01
   3.09740E+01  3.01044E+01  2.92216E+01  2.83540E+01  2.75256E+01  2.67562E+01  2.60604E+01  2.54480E+01  2.49236E+01  2.44872E+01
   2.41339E+01  2.38555E+01  2.36407E+01  2.34767E+01  2.33493E+01  2.32440E+01  2.31461E+01  2.30421E+01  2.29199E+01  2.27697E+01
   2.25833E+01  2.23552E+01  2.20814E+01  2.17610E+01  2.13947E+01  2.09861E+01  2.05397E+01  2.00620E+01  1.95600E+01  1.90423E+01
   1.85180E+01  1.79967E+01  1.74877E+01  1.70003E+01  1.65429E+01  1.61241E+01  1.57515E+01  1.54317E+01  1.51702E+01  1.49713E+01
   1.48382E+01  1.47730E+01  1.47764E+01  1.48478E+01  1.49847E+01  1.51835E+01  1.54392E+01  1.57456E+01  1.60953E+01  1.64793E+01
   1.68880E+01  1.73110E+01  1.77374E+01  1.81567E+01  1.85581E+01  1.89313E+01  1.92668E+01  1.95565E+01  1.97934E+01  1.99723E+01
   2.00892E+01  2.01417E+01  2.01291E+01  2.00521E+01  1.99128E+01  1.97144E+01  1.94605E+01  1.91557E+01  1.88046E+01  1.84128E+01
   1.79854E+01  1.75279E+01  1.70451E+01  1.65420E+01  1.60235E+01  1.54944E+01  1.49591E+01  1.44217E+01  1.38860E+01  1.33559E+01
   1.28348E+01  1.23261E+01  1.18325E+01  1.13565E+01  1.09000E+01  1.04650E+01  1.00529E+01  9.66457E+00  9.30059E+00  8.96110E+00
   8.64584E+00  8.35460E+00  8.08672E+00  7.84143E+00  7.61752E+00  7.41385E+00  7.22915E+00  7.06235E+00  6.91218E+00  6.77744E+00
   6.65671E+00  6.54887E+00  6.45281E+00  6.36769E+00  6.29247E+00  6.22626E+00  6.16805E+00  6.11720E+00  6.07303E+00  6.03508E+00
   6.00267E+00  5.97527E+00  5.95227E+00  5.93342E+00  5.91836E+00  5.90688E+00  5.89852E+00  5.89301E+00  5.89000E+00  5.88945E+00
   5.89117E+00  5.89504E+00  5.90072E+00  5.90810E+00  5.91698E+00  5.92745E+00  5.93934E+00  5.95257E+00  5.96688E+00  5.98225E+00
   5.99861E+00  6.01605E+00  6.03443E+00  6.05370E+00  6.07363E+00  6.09432E+00  6.11571E+00  6.13791E+00  6.16074E+00  6.18417E+00
   6.20805E+00  6.23253E+00  6.25756E+00  6.28324E+00  6.30937E+00  6.33595E+00  6.36291E+00  6.39041E+00  6.41840E+00  6.44694E+00
   6.47584E+00  6.50515E+00  6.53484E+00  6.56510E+00  6.59585E+00  6.62713E+00  6.65878E+00  6.69091E+00
 NY background values follow
     1.588E+01    1.576E+01    1.564E+01    1.553E+01    1.541E+01    1.529E+01    1.517E+01    1.505E+01    1.493E+01    1.482E+01
     1.470E+01    1.458E+01    1.446E+01    1.434E+01    1.422E+01    1.410E+01    1.398E+01    1.386E+01    1.374E+01    1.362E+01
     1.350E+01    1.339E+01    1.327E+01    1.315E+01    1.303E+01    1.291E+01    1.279E+01    1.267E+01    1.255E+01    1.243E+01
     1.231E+01    1.218E+01    1.206E+01    1.194E+01    1.182E+01    1.170E+01    1.158E+01    1.146E+01    1.134E+01    1.122E+01
     1.110E+01    1.098E+01    1.086E+01    1.074E+01    1.062E+01    1.049E+01    1.037E+01    1.025E+01    1.013E+01    1.001E+01
     9.888E+00    9.767E+00    9.646E+00    9.525E+00    9.404E+00    9.283E+00    9.162E+00    9.041E+00    8.920E+00    8.800E+00
     8.679E+00    8.559E+00    8.439E+00    8.319E+00    8.199E+00    8.079E+00    7.960E+00    7.841E+00    7.722E+00    7.603E+00
     7.484E+00    7.366E+00    7.248E+00    7.130E+00    7.013E+00    6.895E+00    6.779E+00    6.662E+00    6.546E+00    6.430E+00
     6.315E+00    6.199E+00    6.085E+00    5.970E+00    5.856E+00    5.743E+00    5.630E+00    5.517E+00    5.405E+00    5.293E+00
     5.182E+00    5.072E+00    4.961E+00    4.852E+00    4.742E+00    4.634E+00    4.525E+00    4.417E+00    4.310E+00    4.203E+00
     4.097E+00    3.991E+00    3.885E+00    3.780E+00    3.675E+00    3.570E+00    3.466E+00    3.363E+00    3.259E+00    3.157E+00
     3.054E+00    2.952E+00    2.850E+00    2.749E+00    2.648E+00    2.547E+00    2.446E+00    2.346E+00    2.246E+00    2.147E+00
     2.048E+00    1.949E+00    1.850E+00    1.752E+00    1.654E+00    1.556E+00    1.458E+00    1.361E+00    1.264E+00    1.167E+00
     1.071E+00    9.744E-01    8.783E-01    7.823E-01    6.866E-01    5.911E-01    4.958E-01    4.006E-01    3.057E-01    2.110E-01
     1.166E-01    2.252E-02   -7.128E-02   -1.647E-01   -2.578E-01   -3.505E-01   -4.428E-01   -5.347E-01   -6.261E-01   -7.170E-01
    -8.075E-01   -8.973E-01   -9.867E-01   -1.075E+00   -1.164E+00   -1.251E+00   -1.338E+00   -1.424E+00   -1.510E+00   -1.595E+00
    -1.679E+00   -1.762E+00   -1.844E+00   -1.926E+00   -2.007E+00   -2.087E+00   -2.166E+00   -2.244E+00   -2.321E+00   -2.398E+00
    -2.473E+00   -2.547E+00   -2.620E+00   -2.693E+00   -2.764E+00   -2.834E+00   -2.903E+00   -2.971E+00   -3.037E+00   -3.103E+00
    -3.167E+00   -3.230E+00   -3.291E+00   -3.352E+00   -3.411E+00   -3.469E+00   -3.526E+00   -3.581E+00   -3.636E+00   -3.689E+00
    -3.741E+00   -3.792E+00   -3.842E+00   -3.891E+00   -3.939E+00   -3.986E+00   -4.031E+00   -4.076E+00   -4.120E+00   -4.163E+00
    -4.204E+00   -4.245E+00   -4.285E+00   -4.324E+00   -4.362E+00   -4.399E+00   -4.435E+00   -4.470E+00   -4.504E+00   -4.538E+00
    -4.571E+00   -4.603E+00   -4.634E+00   -4.664E+00   -4.694E+00   -4.723E+00   -4.751E+00   -4.779E+00   -4.805E+00   -4.831E+00
    -4.857E+00   -4.881E+00   -4.906E+00   -4.929E+00   -4.952E+00   -4.974E+00   -4.996E+00   -5.017E+00   -5.038E+00   -5.058E+00
    -5.077E+00   -5.096E+00   -5.114E+00   -5.132E+00   -5.148E+00   -5.165E+00   -5.180E+00   -5.195E+00   -5.209E+00   -5.223E+00
    -5.236E+00   -5.248E+00   -5.259E+00   -5.270E+00   -5.280E+00   -5.289E+00   -5.297E+00   -5.305E+00   -5.312E+00   -5.318E+00
    -5.323E+00   -5.327E+00   -5.331E+00   -5.333E+00   -5.335E+00   -5.336E+00   -5.336E+00   -5.335E+00   -5.333E+00   -5.330E+00
    -5.327E+00   -5.322E+00   -5.317E+00   -5.310E+00   -5.303E+00   -5.294E+00   -5.285E+00   -5.274E+00   -5.263E+00   -5.250E+00
    -5.236E+00   -5.222E+00   -5.206E+00   -5.189E+00   -5.172E+00   -5.153E+00   -5.133E+00   -5.112E+00   -5.090E+00   -5.067E+00
    -5.043E+00   -5.019E+00   -4.993E+00   -4.966E+00   -4.938E+00   -4.910E+00   -4.880E+00   -4.850E+00   -4.818E+00   -4.786E+00
    -4.753E+00   -4.719E+00   -4.684E+00   -4.648E+00   -4.612E+00   -4.574E+00   -4.536E+00   -4.497E+00   -4.457E+00   -4.416E+00
    -4.375E+00   -4.333E+00   -4.290E+00   -4.246E+00   -4.202E+00   -4.156E+00   -4.110E+00   -4.064E+00   -4.016E+00   -3.968E+00
    -3.920E+00   -3.870E+00   -3.820E+00   -3.770E+00   -3.718E+00   -3.666E+00   -3.614E+00   -3.560E+00   -3.507E+00   -3.452E+00
    -3.397E+00   -3.342E+00   -3.286E+00   -3.229E+00   -3.172E+00   -3.114E+00   -3.056E+00   -2.997E+00   -2.938E+00   -2.879E+00
    -2.819E+00   -2.758E+00   -2.697E+00   -2.636E+00   -2.574E+00   -2.512E+00   -2.450E+00   -2.387E+00   -2.324E+00   -2.260E+00
    -2.196E+00   -2.132E+00   -2.067E+00   -2.003E+00   -1.938E+00   -1.872E+00   -1.807E+00   -1.741E+00   -1.675E+00   -1.608E+00
    -1.542E+00   -1.475E+00   -1.408E+00   -1.341E+00   -1.274E+00   -1.207E+00   -1.139E+00   -1.072E+00   -1.004E+00   -9.360E-01
    -8.681E-01   -8.002E-01   -7.321E-01   -6.640E-01   -5.959E-01   -5.277E-01   -4.595E-01   -3.913E-01   -3.231E-01   -2.548E-01
    -1.866E-01   -1.183E-01   -5.009E-02    1.812E-02    8.630E-02    1.545E-01    2.226E-01    2.906E-01    3.586E-01    4.266E-01
     4.944E-01    5.622E-01    6.300E-01    6.976E-01    7.651E-01    8.325E-01    8.998E-01    9.670E-01    1.034E+00    1.101E+00
     1.168E+00    1.234E+00    1.301E+00    1.367E+00    1.433E+00    1.499E+00    1.565E+00    1.631E+00    1.696E+00    1.761E+00
     1.826E+00    1.891E+00    1.956E+00    2.020E+00    2.084E+00    2.148E+00    2.212E+00    2.275E+00    2.338E+00    2.401E+00
     2.463E+00    2.526E+00    2.588E+00    2.649E+00    2.711E+00    2.772E+00    2.833E+00    2.893E+00    2.953E+00    3.013E+00
     3.073E+00    3.132E+00    3.191E+00    3.250E+00    3.308E+00    3.366E+00    3.424E+00    3.481E+00    3.538E+00    3.595E+00
     3.651E+00    3.707E+00    3.763E+00    3.818E+00    3.873E+00    3.928E+00    3.982E+00    4.036E+00    4.089E+00    4.143E+00
     4.195E+00    4.248E+00    4.300E+00    4.351E+00    4.402E+00    4.453E+00    4.504E+00    4.554E+00    4.603E+00    4.652E+00
     4.701E+00    4.750E+00    4.798E+00    4.845E+00    4.892E+00    4.939E+00    4.985E+00    5.031E+00    5.077E+00    5.122E+00
     5.167E+00    5.211E+00    5.256E+00    5.299E+00    5.343E+00    5.386E+00    5.429E+00    5.472E+00    5.514E+00    5.557E+00
     5.599E+00    5.640E+00    5.682E+00    5.723E+00    5.764E+00    5.805E+00    5.845E+00    5.886E+00    5.926E+00    5.966E+00
     6.006E+00    6.046E+00    6.086E+00    6.126E+00    6.165E+00    6.204E+00    6.244E+00    6.283E+00    6.322E+00    6.361E+00
     6.400E+00    6.439E+00    6.478E+00    6.517E+00    6.556E+00    6.595E+00    6.634E+00    6.673E+00
 Asp      Conc. = 5.81E+01
