 LCModel (Version 6.3-1L) Copyright: S.W. Provencher.          Ref.: Magn. Reson. Med. 30:672-679 (1993).                
 Slice#3 Row#2 Col#3  K_02_press_1_raw_act
 36 lines in following concentration table = NCONC+1
    Conc.  %SD /Cr+PCr  Metabolite                                         
   86.348 148%   5.052 Ala                                                 
    2.662 127%   0.156 Asp                                                 
   17.093 226%   1.000 Cr                                                  
    0.000 999%   0.000 PCr                                                 
    1.595 127% 9.3E-02 GABA                                                
    1.592 127% 9.3E-02 Glc                                                 
  969.152  28%  56.700 Gln                                                 
 1.20E+03  26%  69.995 Glu                                                 
   12.022 119%   0.703 GPC                                                 
    0.000 999%   0.000 PCh                                                 
    0.000 999%   0.000 GSH                                                 
  254.215  79%  14.873 Ins                                                 
  448.292  49%  26.227 Lac                                                 
    0.000 999%   0.000 NAA                                                 
    0.000 999%   0.000 NAAG                                                
    0.533 127% 3.1E-02 Scyllo                                              
    2.670 126%   0.156 Tau                                                 
    1.842 379%   0.108 -CrCH2                                              
   12.022 119%   0.703 GPC+PCh                                             
    0.000 999%   0.000 NAA+NAAG                                            
   17.093 226%   1.000 Cr+PCr                                              
 2.17E+03  23% 126.695 Glu+Gln                                             
 5.61E+04   3% 3.3E+03 Lip13a                                              
 5.90E+03   4% 344.914 Lip13b                                              
 1.02E+03  39%  59.416 Lip09                                               
 1.79E+03  16% 104.798 MM09                                                
 4.37E+03  20% 255.493 Lip20                                               
 2.69E+03  16% 157.245 MM20                                                
  537.393  16%  31.440 MM12                                                
 1.34E+03  16%  78.631 MM14                                                
  670.879  16%  39.249 MM17                                                
 6.20E+04   3% 3.6E+03 Lip13a+Lip13b                                       
 6.39E+04   2% 3.7E+03 MM14+Lip13a+Lip13b+MM12                             
 2.81E+03  18% 164.214 MM09+Lip09                                          
 7.05E+03  11% 412.738 MM20+Lip20                                          
   6 lines in following misc. output table
  FWHM = 0.099 ppm    S/N =  56                                            
  Data shift =-0.038 ppm                                                   
  Ph: -50 deg     -34.0 deg/ppm                                            
  alphaB,S = 1.2E+00,   1.3E+01                                            
   14 spline knots.   Ns = 6(1)                                            
  (13) 6 infls.   (13) 5 extrs.                                            
  498 points on ppm-axis = NY
      4.000000     3.992357     3.984714     3.977070     3.969427     3.961784     3.954141     3.946497     3.938854     3.931211
      3.923568     3.915925     3.908281     3.900638     3.892995     3.885352     3.877708     3.870065     3.862422     3.854779
      3.847136     3.839492     3.831849     3.824206     3.816563     3.808919     3.801276     3.793633     3.785990     3.778347
      3.770703     3.763060     3.755417     3.747774     3.740130     3.732487     3.724844     3.717201     3.709558     3.701914
      3.694271     3.686628     3.678985     3.671341     3.663698     3.656055     3.648412     3.640769     3.633125     3.625482
      3.617839     3.610196     3.602552     3.594909     3.587266     3.579623     3.571980     3.564336     3.556693     3.549050
      3.541407     3.533763     3.526120     3.518477     3.510834     3.503191     3.495547     3.487904     3.480261     3.472618
      3.464974     3.457331     3.449688     3.442045     3.434402     3.426758     3.419115     3.411472     3.403829     3.396185
      3.388542     3.380899     3.373256     3.365613     3.357969     3.350326     3.342683     3.335040     3.327396     3.319753
      3.312110     3.304467     3.296824     3.289180     3.281537     3.273894     3.266251     3.258607     3.250964     3.243321
      3.235678     3.228034     3.220391     3.212748     3.205105     3.197462     3.189818     3.182175     3.174532     3.166889
      3.159245     3.151602     3.143959     3.136316     3.128673     3.121029     3.113386     3.105743     3.098100     3.090456
      3.082813     3.075170     3.067527     3.059884     3.052240     3.044597     3.036954     3.029311     3.021667     3.014024
      3.006381     2.998738     2.991095     2.983451     2.975808     2.968165     2.960522     2.952878     2.945235     2.937592
      2.929949     2.922306     2.914662     2.907019     2.899376     2.891733     2.884089     2.876446     2.868803     2.861160
      2.853517     2.845873     2.838230     2.830587     2.822944     2.815300     2.807657     2.800014     2.792371     2.784728
      2.777084     2.769441     2.761798     2.754155     2.746511     2.738868     2.731225     2.723582     2.715939     2.708295
      2.700652     2.693009     2.685366     2.677722     2.670079     2.662436     2.654793     2.647150     2.639506     2.631863
      2.624220     2.616577     2.608933     2.601290     2.593647     2.586004     2.578361     2.570717     2.563074     2.555431
      2.547788     2.540144     2.532501     2.524858     2.517215     2.509572     2.501928     2.494285     2.486642     2.478999
      2.471355     2.463712     2.456069     2.448426     2.440783     2.433139     2.425496     2.417853     2.410210     2.402566
      2.394923     2.387280     2.379637     2.371994     2.364350     2.356707     2.349064     2.341421     2.333777     2.326134
      2.318491     2.310848     2.303205     2.295561     2.287918     2.280275     2.272632     2.264988     2.257345     2.249702
      2.242059     2.234416     2.226772     2.219129     2.211486     2.203843     2.196199     2.188556     2.180913     2.173270
      2.165627     2.157983     2.150340     2.142697     2.135054     2.127410     2.119767     2.112124     2.104481     2.096838
      2.089194     2.081551     2.073908     2.066265     2.058621     2.050978     2.043335     2.035692     2.028049     2.020405
      2.012762     2.005119     1.997476     1.989833     1.982190     1.974546     1.966903     1.959260     1.951617     1.943974
      1.936331     1.928688     1.921045     1.913402     1.905759     1.898115     1.890472     1.882829     1.875186     1.867543
      1.859900     1.852257     1.844614     1.836971     1.829327     1.821684     1.814041     1.806398     1.798755     1.791112
      1.783469     1.775826     1.768183     1.760540     1.752896     1.745253     1.737610     1.729967     1.722324     1.714681
      1.707038     1.699395     1.691752     1.684108     1.676465     1.668822     1.661179     1.653536     1.645893     1.638250
      1.630607     1.622964     1.615321     1.607677     1.600034     1.592391     1.584748     1.577105     1.569462     1.561819
      1.554176     1.546533     1.538890     1.531246     1.523603     1.515960     1.508317     1.500674     1.493031     1.485388
      1.477745     1.470102     1.462458     1.454815     1.447172     1.439529     1.431886     1.424243     1.416600     1.408957
      1.401314     1.393671     1.386027     1.378384     1.370741     1.363098     1.355455     1.347812     1.340169     1.332526
      1.324883     1.317240     1.309596     1.301953     1.294310     1.286667     1.279024     1.271381     1.263738     1.256095
      1.248452     1.240808     1.233165     1.225522     1.217879     1.210236     1.202593     1.194950     1.187307     1.179664
      1.172021     1.164377     1.156734     1.149091     1.141448     1.133805     1.126162     1.118519     1.110876     1.103233
      1.095590     1.087946     1.080303     1.072660     1.065017     1.057374     1.049731     1.042088     1.034445     1.026802
      1.019158     1.011515     1.003872     0.996229     0.988586     0.980943     0.973300     0.965657     0.958014     0.950371
      0.942727     0.935084     0.927441     0.919798     0.912155     0.904512     0.896869     0.889226     0.881583     0.873940
      0.866296     0.858653     0.851010     0.843367     0.835724     0.828081     0.820438     0.812795     0.805152     0.797508
      0.789865     0.782222     0.774579     0.766936     0.759293     0.751650     0.744007     0.736364     0.728721     0.721077
      0.713434     0.705791     0.698148     0.690505     0.682862     0.675219     0.667576     0.659933     0.652290     0.644646
      0.637003     0.629360     0.621717     0.614074     0.606431     0.598788     0.591145     0.583502     0.575858     0.568215
      0.560572     0.552929     0.545286     0.537643     0.530000     0.522357     0.514714     0.507071     0.499427     0.491784
      0.484141     0.476498     0.468855     0.461212     0.453569     0.445925     0.438282     0.430639     0.422996     0.415353
      0.407710     0.400067     0.392424     0.384780     0.377137     0.369494     0.361851     0.354208     0.346565     0.338922
      0.331278     0.323635     0.315992     0.308349     0.300706     0.293063     0.285420     0.277777     0.270133     0.262490
      0.254847     0.247204     0.239561     0.231918     0.224275     0.216631     0.208988     0.201345
 NY phased data points follow
  -1.92856E+00 -3.09237E+00 -4.48564E+00 -4.42054E+00 -2.73322E+00 -3.04886E+00 -2.86676E+00 -2.92199E-01 -3.09324E+00  3.43534E+00
   1.47595E+00  7.87878E-02  1.83748E+00  3.98308E-01  5.64757E-01  1.96549E+00  3.00581E-01  2.14411E+00  1.68445E+00  6.10434E+00
   4.96388E+00  1.84822E+00  4.03212E+00  1.68005E+00  3.79232E+00  6.27415E+00  3.06957E+00  5.64935E+00  8.15985E+00  2.77736E+00
   4.71920E+00  6.37374E+00  3.08216E+00  3.11149E+00  3.35548E+00  7.64925E+00  5.16889E+00  5.72312E+00  7.92690E+00  5.72330E+00
   6.49606E+00  6.45599E+00  8.15196E+00  7.61269E+00  8.00368E+00  5.36491E+00  1.62935E+00  9.22982E+00  9.23338E+00  1.08487E+01
   1.11756E+01  4.24892E+00  8.63546E+00  8.53269E+00  1.28994E+01  9.37835E+00  1.22021E+01  9.04188E+00  7.45208E+00  9.55932E+00
   9.27641E+00  7.17531E+00  1.30812E+01  1.03923E+01  8.86641E+00  7.46135E+00  1.39213E+01  1.18602E+01  1.18012E+01  1.29017E+01
   1.57639E+01  9.94882E+00  7.95486E+00  1.33511E+01  1.00928E+01  1.21007E+01  8.52850E+00  1.11911E+01  6.82266E+00  1.02493E+01
   1.39909E+01  8.91613E+00  9.43552E+00  9.22745E+00  1.20252E+01  1.21408E+01  1.28452E+01  1.32380E+01  1.22375E+01  1.52019E+01
   1.52148E+01  1.16322E+01  1.09615E+01  1.26188E+01  1.28030E+01  1.21163E+01  1.65860E+01  1.41751E+01  1.49064E+01  1.08752E+01
   1.21863E+01  1.52716E+01  1.19163E+01  1.44625E+01  1.53666E+01  1.32025E+01  1.71980E+01  1.44041E+01  1.32425E+01  1.25143E+01
   1.35621E+01  1.56053E+01  1.76166E+01  1.75661E+01  1.85743E+01  1.56758E+01  1.48262E+01  1.78299E+01  1.56476E+01  1.51935E+01
   1.66179E+01  1.64697E+01  1.88378E+01  1.60283E+01  1.83530E+01  1.49621E+01  1.81491E+01  1.70920E+01  1.59715E+01  1.74635E+01
   1.54059E+01  1.89741E+01  1.56261E+01  2.31079E+01  2.01655E+01  1.87603E+01  2.01058E+01  2.01150E+01  1.66152E+01  2.20091E+01
   1.83922E+01  2.09875E+01  2.03044E+01  1.80530E+01  2.30481E+01  2.12218E+01  1.96429E+01  1.85145E+01  1.78347E+01  1.70860E+01
   1.91826E+01  1.98030E+01  2.32722E+01  2.02983E+01  2.37675E+01  2.17307E+01  2.01151E+01  1.98253E+01  2.28143E+01  2.21866E+01
   1.77111E+01  2.01461E+01  2.16371E+01  1.98017E+01  1.97244E+01  2.13653E+01  1.67465E+01  2.17622E+01  1.97735E+01  2.09664E+01
   1.99893E+01  1.86423E+01  2.05940E+01  2.05372E+01  1.70633E+01  2.07383E+01  2.10815E+01  2.23539E+01  1.84702E+01  2.01915E+01
   2.21394E+01  2.02615E+01  1.97902E+01  1.82674E+01  2.05040E+01  1.89371E+01  1.81896E+01  1.73719E+01  2.03179E+01  1.83834E+01
   1.92014E+01  2.19367E+01  2.06390E+01  1.36242E+01  2.02807E+01  1.92020E+01  2.28207E+01  2.11423E+01  1.85463E+01  2.35435E+01
   2.41482E+01  2.01675E+01  2.56867E+01  2.32308E+01  2.30324E+01  2.24116E+01  2.33620E+01  2.48824E+01  2.72514E+01  2.71980E+01
   2.67886E+01  2.68586E+01  2.82580E+01  2.80667E+01  2.94704E+01  2.88756E+01  3.17500E+01  3.10167E+01  2.78506E+01  2.83957E+01
   3.19934E+01  3.42456E+01  3.41056E+01  3.22744E+01  3.27541E+01  3.36087E+01  3.73271E+01  3.81405E+01  4.02553E+01  3.98029E+01
   3.80673E+01  4.12222E+01  4.03613E+01  4.28895E+01  4.24481E+01  4.15275E+01  4.60101E+01  4.40344E+01  4.53896E+01  4.83574E+01
   4.82504E+01  4.69121E+01  4.86192E+01  4.67785E+01  4.88771E+01  5.10552E+01  4.83812E+01  4.79319E+01  4.96059E+01  4.53043E+01
   4.93412E+01  4.70778E+01  4.52746E+01  5.09249E+01  5.20516E+01  5.30669E+01  5.00943E+01  4.54515E+01  5.10674E+01  5.34981E+01
   5.09435E+01  5.27258E+01  5.14258E+01  5.51069E+01  5.51290E+01  5.28210E+01  5.38406E+01  5.54882E+01  5.39154E+01  5.35204E+01
   5.53613E+01  5.33036E+01  5.42661E+01  5.20783E+01  5.42000E+01  5.25461E+01  5.22377E+01  4.90225E+01  4.98013E+01  5.00147E+01
   5.11690E+01  4.82255E+01  5.17523E+01  4.67781E+01  4.96360E+01  4.97403E+01  4.75518E+01  5.10457E+01  4.77069E+01  4.95520E+01
   4.71579E+01  5.16081E+01  4.98416E+01  4.89017E+01  5.58440E+01  5.14613E+01  5.25752E+01  5.39684E+01  5.01292E+01  5.87829E+01
   5.18052E+01  5.51446E+01  5.21996E+01  5.96449E+01  5.77992E+01  5.89167E+01  6.16723E+01  6.38139E+01  6.19411E+01  6.11949E+01
   6.18963E+01  6.37785E+01  6.48905E+01  6.64296E+01  6.84174E+01  6.98700E+01  7.20103E+01  7.47699E+01  7.34285E+01  7.25411E+01
   8.07706E+01  8.29828E+01  8.47416E+01  8.66068E+01  8.74781E+01  9.37541E+01  9.22081E+01  9.71927E+01  1.00791E+02  1.06169E+02
   1.10511E+02  1.15716E+02  1.20349E+02  1.23876E+02  1.35508E+02  1.38734E+02  1.45485E+02  1.52949E+02  1.58083E+02  1.66309E+02
   1.72388E+02  1.76296E+02  1.80333E+02  1.89260E+02  1.93647E+02  2.03762E+02  2.07954E+02  2.18724E+02  2.27384E+02  2.36063E+02
   2.48636E+02  2.60884E+02  2.72330E+02  2.83515E+02  2.92072E+02  3.05038E+02  3.09505E+02  3.11988E+02  3.07259E+02  3.00400E+02
   2.89816E+02  2.79859E+02  2.62225E+02  2.41829E+02  2.25563E+02  2.13500E+02  1.97767E+02  1.86151E+02  1.75290E+02  1.64072E+02
   1.57831E+02  1.50165E+02  1.38881E+02  1.34315E+02  1.29310E+02  1.23184E+02  1.20235E+02  1.16809E+02  1.12708E+02  1.09153E+02
   1.04727E+02  1.01335E+02  9.86890E+01  9.57688E+01  9.38836E+01  8.93785E+01  8.82401E+01  8.65679E+01  8.80927E+01  8.24167E+01
   8.03698E+01  7.71143E+01  7.77739E+01  7.50136E+01  7.36629E+01  7.06012E+01  6.98644E+01  7.04503E+01  6.21046E+01  6.16885E+01
   6.07773E+01  5.89800E+01  5.98049E+01  5.75112E+01  5.44460E+01  5.71880E+01  5.36499E+01  5.04422E+01  5.43185E+01  5.52750E+01
   5.08568E+01  5.18752E+01  5.16075E+01  5.16139E+01  4.78251E+01  4.79320E+01  4.73427E+01  4.63780E+01  4.53091E+01  4.37915E+01
   4.66858E+01  4.32490E+01  4.55309E+01  4.47148E+01  4.28542E+01  4.06946E+01  4.41406E+01  4.31033E+01  4.41562E+01  3.83300E+01
   4.21244E+01  3.87014E+01  3.91245E+01  3.76540E+01  3.95762E+01  3.86375E+01  3.73691E+01  3.55865E+01  3.67035E+01  3.47962E+01
   3.67638E+01  3.60393E+01  3.15832E+01  3.81126E+01  3.31018E+01  3.41248E+01  3.44441E+01  3.69788E+01  3.20514E+01  3.18986E+01
   3.29868E+01  3.46846E+01  2.98809E+01  3.11809E+01  3.18219E+01  2.88031E+01  2.94235E+01  3.27841E+01  2.81492E+01  3.02623E+01
   3.18514E+01  2.88962E+01  3.13173E+01  2.97240E+01  3.26963E+01  2.83382E+01  2.57024E+01  2.88868E+01  2.89141E+01  2.82950E+01
   2.76973E+01  2.90081E+01  3.03771E+01  3.02259E+01  2.52199E+01  2.79824E+01  3.10385E+01  3.13334E+01  3.01191E+01  3.03565E+01
   3.15569E+01  3.07944E+01  2.72424E+01  2.64488E+01  2.23501E+01  2.81996E+01  2.62142E+01  2.52986E+01  2.12892E+01  2.43754E+01
   2.61340E+01  2.38309E+01  2.85296E+01  2.62899E+01  2.58092E+01  2.59493E+01  2.67942E+01  2.32984E+01
 NY points of the fit to the data follow
  -1.85955E+00 -1.75040E+00 -1.67701E+00 -1.68805E+00 -1.49343E+00 -1.12439E+00 -7.77401E-01 -5.39393E-01 -3.71028E-01 -1.88193E-01
   5.43546E-02  3.46013E-01  6.13166E-01  8.31570E-01  1.03617E+00  1.29869E+00  1.66143E+00  2.08730E+00  2.54972E+00  3.21280E+00
   3.84538E+00  3.64766E+00  2.59446E+00  1.80781E+00  1.80933E+00  2.36462E+00  3.68289E+00  5.48102E+00  6.00386E+00  5.52913E+00
   4.97780E+00  4.85995E+00  4.82753E+00  5.17349E+00  6.25335E+00  6.93757E+00  6.67506E+00  6.46354E+00  6.74531E+00  6.66023E+00
   6.27248E+00  6.59801E+00  7.03110E+00  7.17601E+00  7.21542E+00  7.82001E+00  8.62683E+00  8.93234E+00  9.07875E+00  9.02007E+00
   8.70481E+00  8.42674E+00  8.42435E+00  8.66213E+00  8.78824E+00  8.66773E+00  8.60725E+00  8.66364E+00  8.76180E+00  8.91138E+00
   9.13368E+00  9.36890E+00  9.53173E+00  9.60802E+00  9.67647E+00  9.80922E+00  9.99390E+00  1.01366E+01  1.02290E+01  1.02834E+01
   1.03917E+01  1.05463E+01  1.07432E+01  1.09356E+01  1.10513E+01  1.11189E+01  1.11960E+01  1.13095E+01  1.14172E+01  1.14588E+01
   1.14959E+01  1.14743E+01  1.14172E+01  1.13804E+01  1.14268E+01  1.15254E+01  1.16101E+01  1.16470E+01  1.16834E+01  1.17612E+01
   1.19237E+01  1.21019E+01  1.21782E+01  1.22046E+01  1.23100E+01  1.24930E+01  1.27868E+01  1.32620E+01  1.35270E+01  1.35129E+01
   1.34815E+01  1.35750E+01  1.38005E+01  1.40589E+01  1.41889E+01  1.41620E+01  1.41289E+01  1.42459E+01  1.44753E+01  1.45923E+01
   1.44825E+01  1.44858E+01  1.46048E+01  1.47355E+01  1.48810E+01  1.50329E+01  1.51925E+01  1.53559E+01  1.55229E+01  1.56962E+01
   1.59022E+01  1.62272E+01  1.65547E+01  1.67412E+01  1.68638E+01  1.70245E+01  1.72518E+01  1.75262E+01  1.77622E+01  1.78837E+01
   1.79496E+01  1.80666E+01  1.82580E+01  1.84333E+01  1.84876E+01  1.85351E+01  1.86589E+01  1.88011E+01  1.89472E+01  1.90954E+01
   1.92449E+01  1.93933E+01  1.95383E+01  1.96800E+01  1.98220E+01  1.99642E+01  2.01032E+01  2.02375E+01  2.03662E+01  2.04890E+01
   2.06062E+01  2.07172E+01  2.08205E+01  2.09133E+01  2.09946E+01  2.10656E+01  2.11264E+01  2.11775E+01  2.12175E+01  2.12432E+01
   2.12546E+01  2.12552E+01  2.12464E+01  2.12289E+01  2.12017E+01  2.11602E+01  2.11085E+01  2.10567E+01  2.10031E+01  2.09467E+01
   2.08839E+01  2.08144E+01  2.07433E+01  2.06748E+01  2.06151E+01  2.05630E+01  2.05170E+01  2.04777E+01  2.04515E+01  2.04399E+01
   2.04327E+01  2.04364E+01  2.04700E+01  2.05134E+01  2.05562E+01  2.06128E+01  2.06928E+01  2.07732E+01  2.07244E+01  2.05716E+01
   2.04407E+01  2.01769E+01  2.00897E+01  2.02063E+01  2.03551E+01  2.06591E+01  2.14953E+01  2.24728E+01  2.31007E+01  2.37238E+01
   2.46276E+01  2.52294E+01  2.54446E+01  2.53145E+01  2.38718E+01  2.21991E+01  2.28340E+01  2.45124E+01  2.54330E+01  2.54972E+01
   2.62691E+01  2.71638E+01  2.78551E+01  2.87275E+01  2.96721E+01  2.99151E+01  2.96074E+01  3.00830E+01  3.11312E+01  3.19323E+01
   3.26328E+01  3.30596E+01  3.26117E+01  3.14390E+01  3.19413E+01  3.39034E+01  3.53543E+01  3.59597E+01  3.67456E+01  3.84811E+01
   3.98246E+01  4.00076E+01  4.03717E+01  4.15055E+01  4.25153E+01  4.32081E+01  4.36567E+01  4.30210E+01  4.31161E+01  4.44502E+01
   4.56436E+01  4.58990E+01  4.61217E+01  4.66633E+01  4.69691E+01  4.72898E+01  4.81276E+01  4.90498E+01  4.95176E+01  4.97692E+01
   5.06908E+01  5.12612E+01  5.15106E+01  5.20738E+01  5.29242E+01  5.35042E+01  5.37524E+01  5.39215E+01  5.39602E+01  5.37875E+01
   5.34920E+01  5.34166E+01  5.32800E+01  5.28836E+01  5.24368E+01  5.21855E+01  5.19207E+01  5.16121E+01  5.13430E+01  5.10871E+01
   5.06670E+01  5.00964E+01  4.97065E+01  4.95661E+01  4.93941E+01  4.92130E+01  4.90151E+01  4.88291E+01  4.87322E+01  4.87425E+01
   4.87195E+01  4.86296E+01  4.85856E+01  4.86320E+01  4.87387E+01  4.88750E+01  4.90439E+01  4.92812E+01  4.95853E+01  4.99118E+01
   5.02716E+01  5.06695E+01  5.10993E+01  5.15577E+01  5.20465E+01  5.25694E+01  5.31209E+01  5.36941E+01  5.42914E+01  5.49111E+01
   5.55488E+01  5.62069E+01  5.68873E+01  5.75911E+01  5.83199E+01  5.90756E+01  5.98632E+01  6.06897E+01  6.15625E+01  6.24878E+01
   6.34714E+01  6.45238E+01  6.56569E+01  6.68804E+01  6.82053E+01  6.96440E+01  7.12094E+01  7.29170E+01  7.47860E+01  7.68464E+01
   7.91626E+01  8.17322E+01  8.41252E+01  8.64715E+01  8.91548E+01  9.22574E+01  9.56446E+01  9.91530E+01  1.02668E+02  1.06641E+02
   1.11215E+02  1.16060E+02  1.20981E+02  1.25934E+02  1.31137E+02  1.37083E+02  1.43484E+02  1.49895E+02  1.56343E+02  1.63201E+02
   1.71007E+02  1.78856E+02  1.84262E+02  1.89087E+02  1.95179E+02  2.02537E+02  2.10398E+02  2.18061E+02  2.26291E+02  2.36810E+02
   2.48620E+02  2.60861E+02  2.72637E+02  2.83191E+02  2.93298E+02  3.03485E+02  3.10027E+02  3.11186E+02  3.07665E+02  3.00794E+02
   2.91049E+02  2.77555E+02  2.60942E+02  2.43992E+02  2.27546E+02  2.12091E+02  1.98000E+02  1.85435E+02  1.74377E+02  1.64683E+02
   1.56154E+02  1.48580E+02  1.41778E+02  1.35602E+02  1.29947E+02  1.24746E+02  1.19953E+02  1.15537E+02  1.11475E+02  1.07744E+02
   1.04322E+02  1.01183E+02  9.82985E+01  9.56370E+01  9.31655E+01  9.08510E+01  8.86622E+01  8.65700E+01  8.45486E+01  8.25764E+01
   8.06367E+01  7.87183E+01  7.68152E+01  7.49269E+01  7.30565E+01  7.12106E+01  6.93986E+01  6.76315E+01  6.59210E+01  6.42782E+01
   6.27126E+01  6.12317E+01  5.98408E+01  5.85425E+01  5.73371E+01  5.62217E+01  5.51913E+01  5.42388E+01  5.33560E+01  5.25339E+01
   5.17628E+01  5.10333E+01  5.03359E+01  4.96623E+01  4.90054E+01  4.83593E+01  4.77195E+01  4.70826E+01  4.64464E+01  4.58103E+01
   4.51746E+01  4.45408E+01  4.39106E+01  4.32861E+01  4.26698E+01  4.20644E+01  4.14725E+01  4.08966E+01  4.03385E+01  3.97997E+01
   3.92815E+01  3.87847E+01  3.83099E+01  3.78571E+01  3.74258E+01  3.70154E+01  3.66252E+01  3.62544E+01  3.59018E+01  3.55664E+01
   3.52467E+01  3.49417E+01  3.46502E+01  3.43712E+01  3.41038E+01  3.38467E+01  3.35990E+01  3.33600E+01  3.31288E+01  3.29050E+01
   3.26877E+01  3.24764E+01  3.22704E+01  3.20694E+01  3.18730E+01  3.16809E+01  3.14927E+01  3.13081E+01  3.11267E+01  3.09484E+01
   3.07731E+01  3.06005E+01  3.04303E+01  3.02625E+01  3.00968E+01  2.99332E+01  2.97717E+01  2.96120E+01  2.94540E+01  2.92976E+01
   2.91428E+01  2.89895E+01  2.88378E+01  2.86873E+01  2.85381E+01  2.83902E+01  2.82435E+01  2.80980E+01  2.79537E+01  2.78104E+01
   2.76681E+01  2.75269E+01  2.73868E+01  2.72477E+01  2.71095E+01  2.69723E+01  2.68359E+01  2.67006E+01  2.65662E+01  2.64328E+01
   2.63002E+01  2.61685E+01  2.60377E+01  2.59078E+01  2.57790E+01  2.56510E+01  2.55240E+01  2.53978E+01
 NY background values follow
     3.610E-01    5.475E-01    7.340E-01    9.206E-01    1.107E+00    1.294E+00    1.480E+00    1.667E+00    1.853E+00    2.039E+00
     2.225E+00    2.410E+00    2.596E+00    2.781E+00    2.966E+00    3.150E+00    3.334E+00    3.518E+00    3.701E+00    3.884E+00
     4.066E+00    4.247E+00    4.428E+00    4.609E+00    4.789E+00    4.968E+00    5.146E+00    5.324E+00    5.501E+00    5.677E+00
     5.852E+00    6.027E+00    6.200E+00    6.373E+00    6.545E+00    6.715E+00    6.885E+00    7.053E+00    7.221E+00    7.387E+00
     7.552E+00    7.717E+00    7.879E+00    8.041E+00    8.201E+00    8.360E+00    8.518E+00    8.674E+00    8.829E+00    8.982E+00
     9.134E+00    9.285E+00    9.434E+00    9.581E+00    9.727E+00    9.872E+00    1.001E+01    1.016E+01    1.030E+01    1.043E+01
     1.057E+01    1.070E+01    1.084E+01    1.097E+01    1.110E+01    1.123E+01    1.135E+01    1.147E+01    1.160E+01    1.172E+01
     1.184E+01    1.195E+01    1.207E+01    1.218E+01    1.229E+01    1.240E+01    1.250E+01    1.261E+01    1.271E+01    1.281E+01
     1.291E+01    1.300E+01    1.310E+01    1.319E+01    1.328E+01    1.336E+01    1.345E+01    1.353E+01    1.361E+01    1.368E+01
     1.376E+01    1.383E+01    1.390E+01    1.397E+01    1.404E+01    1.410E+01    1.416E+01    1.422E+01    1.427E+01    1.433E+01
     1.438E+01    1.443E+01    1.448E+01    1.453E+01    1.457E+01    1.462E+01    1.466E+01    1.470E+01    1.474E+01    1.478E+01
     1.481E+01    1.484E+01    1.488E+01    1.491E+01    1.494E+01    1.497E+01    1.500E+01    1.502E+01    1.505E+01    1.507E+01
     1.510E+01    1.512E+01    1.514E+01    1.516E+01    1.518E+01    1.520E+01    1.522E+01    1.524E+01    1.525E+01    1.527E+01
     1.529E+01    1.530E+01    1.532E+01    1.533E+01    1.535E+01    1.536E+01    1.538E+01    1.539E+01    1.541E+01    1.542E+01
     1.544E+01    1.545E+01    1.547E+01    1.548E+01    1.550E+01    1.551E+01    1.553E+01    1.555E+01    1.557E+01    1.559E+01
     1.561E+01    1.563E+01    1.565E+01    1.568E+01    1.570E+01    1.573E+01    1.576E+01    1.579E+01    1.582E+01    1.585E+01
     1.588E+01    1.592E+01    1.596E+01    1.600E+01    1.604E+01    1.608E+01    1.613E+01    1.618E+01    1.623E+01    1.628E+01
     1.634E+01    1.640E+01    1.646E+01    1.652E+01    1.659E+01    1.666E+01    1.674E+01    1.681E+01    1.689E+01    1.697E+01
     1.706E+01    1.715E+01    1.724E+01    1.734E+01    1.744E+01    1.754E+01    1.765E+01    1.776E+01    1.787E+01    1.799E+01
     1.810E+01    1.822E+01    1.835E+01    1.847E+01    1.860E+01    1.874E+01    1.887E+01    1.901E+01    1.915E+01    1.929E+01
     1.943E+01    1.957E+01    1.972E+01    1.987E+01    2.002E+01    2.018E+01    2.033E+01    2.049E+01    2.065E+01    2.080E+01
     2.097E+01    2.113E+01    2.129E+01    2.146E+01    2.162E+01    2.179E+01    2.196E+01    2.213E+01    2.230E+01    2.247E+01
     2.264E+01    2.281E+01    2.299E+01    2.316E+01    2.333E+01    2.351E+01    2.368E+01    2.386E+01    2.403E+01    2.420E+01
     2.438E+01    2.455E+01    2.473E+01    2.490E+01    2.508E+01    2.525E+01    2.543E+01    2.560E+01    2.577E+01    2.595E+01
     2.612E+01    2.629E+01    2.646E+01    2.663E+01    2.680E+01    2.697E+01    2.714E+01    2.730E+01    2.747E+01    2.763E+01
     2.780E+01    2.796E+01    2.812E+01    2.828E+01    2.844E+01    2.860E+01    2.876E+01    2.891E+01    2.906E+01    2.921E+01
     2.936E+01    2.951E+01    2.966E+01    2.980E+01    2.995E+01    3.009E+01    3.023E+01    3.036E+01    3.050E+01    3.063E+01
     3.076E+01    3.089E+01    3.101E+01    3.114E+01    3.126E+01    3.138E+01    3.149E+01    3.161E+01    3.172E+01    3.183E+01
     3.194E+01    3.204E+01    3.214E+01    3.225E+01    3.235E+01    3.244E+01    3.254E+01    3.263E+01    3.272E+01    3.281E+01
     3.290E+01    3.299E+01    3.307E+01    3.315E+01    3.323E+01    3.331E+01    3.339E+01    3.346E+01    3.354E+01    3.361E+01
     3.368E+01    3.375E+01    3.381E+01    3.388E+01    3.394E+01    3.401E+01    3.407E+01    3.413E+01    3.418E+01    3.424E+01
     3.430E+01    3.435E+01    3.440E+01    3.445E+01    3.450E+01    3.455E+01    3.460E+01    3.465E+01    3.469E+01    3.474E+01
     3.478E+01    3.482E+01    3.486E+01    3.490E+01    3.494E+01    3.498E+01    3.501E+01    3.505E+01    3.508E+01    3.511E+01
     3.514E+01    3.517E+01    3.520E+01    3.523E+01    3.526E+01    3.528E+01    3.531E+01    3.533E+01    3.535E+01    3.537E+01
     3.539E+01    3.541E+01    3.543E+01    3.545E+01    3.546E+01    3.548E+01    3.549E+01    3.550E+01    3.551E+01    3.552E+01
     3.553E+01    3.554E+01    3.555E+01    3.555E+01    3.556E+01    3.556E+01    3.556E+01    3.556E+01    3.557E+01    3.556E+01
     3.556E+01    3.556E+01    3.556E+01    3.555E+01    3.555E+01    3.554E+01    3.553E+01    3.552E+01    3.551E+01    3.550E+01
     3.549E+01    3.548E+01    3.546E+01    3.545E+01    3.543E+01    3.541E+01    3.539E+01    3.538E+01    3.536E+01    3.533E+01
     3.531E+01    3.529E+01    3.526E+01    3.524E+01    3.521E+01    3.519E+01    3.516E+01    3.513E+01    3.510E+01    3.507E+01
     3.503E+01    3.500E+01    3.497E+01    3.493E+01    3.490E+01    3.486E+01    3.482E+01    3.478E+01    3.474E+01    3.470E+01
     3.466E+01    3.462E+01    3.457E+01    3.453E+01    3.448E+01    3.444E+01    3.439E+01    3.434E+01    3.429E+01    3.424E+01
     3.419E+01    3.414E+01    3.408E+01    3.403E+01    3.397E+01    3.392E+01    3.386E+01    3.380E+01    3.374E+01    3.368E+01
     3.362E+01    3.356E+01    3.350E+01    3.343E+01    3.337E+01    3.330E+01    3.324E+01    3.317E+01    3.310E+01    3.303E+01
     3.296E+01    3.289E+01    3.282E+01    3.275E+01    3.267E+01    3.260E+01    3.252E+01    3.245E+01    3.237E+01    3.229E+01
     3.221E+01    3.213E+01    3.205E+01    3.197E+01    3.188E+01    3.180E+01    3.172E+01    3.163E+01    3.154E+01    3.146E+01
     3.137E+01    3.128E+01    3.119E+01    3.110E+01    3.101E+01    3.091E+01    3.082E+01    3.073E+01    3.063E+01    3.053E+01
     3.044E+01    3.034E+01    3.024E+01    3.014E+01    3.004E+01    2.994E+01    2.984E+01    2.974E+01    2.964E+01    2.954E+01
     2.944E+01    2.933E+01    2.923E+01    2.913E+01    2.902E+01    2.892E+01    2.881E+01    2.871E+01    2.860E+01    2.850E+01
     2.839E+01    2.828E+01    2.818E+01    2.807E+01    2.796E+01    2.786E+01    2.775E+01    2.764E+01    2.754E+01    2.743E+01
     2.732E+01    2.721E+01    2.711E+01    2.700E+01    2.689E+01    2.679E+01    2.668E+01    2.657E+01
 Ala      Conc. = 8.63E+01
