 LCModel (Version 6.3-1L) Copyright: S.W. Provencher.          Ref.: Magn. Reson. Med. 30:672-679 (1993).                
 Slice#1 Row#5 Col#10  K_02_press_1_raw_act
 36 lines in following concentration table = NCONC+1
    Conc.  %SD /Cr+PCr  Metabolite                                         
  157.293  88%   0.133 Ala                                                 
    0.000 999%   0.000 Asp                                                 
  164.362 189%   0.139 Cr                                                  
 1.02E+03  32%   0.861 PCr                                                 
    0.000 999%   0.000 GABA                                                
    0.000 999%   0.000 Glc                                                 
    0.000 999%   0.000 Gln                                                 
  746.408  41%   0.631 Glu                                                 
  509.177   5%   0.430 GPC                                                 
    0.000 999%   0.000 PCh                                                 
  327.627  26%   0.277 GSH                                                 
 1.04E+03  27%   0.876 Ins                                                 
  266.928  57%   0.226 Lac                                                 
 1.72E+03  11%   1.453 NAA                                                 
  612.445  31%   0.518 NAAG                                                
    0.000 999%   0.000 Scyllo                                              
    0.000 999%   0.000 Tau                                                 
  522.825  24%   0.442 -CrCH2                                              
  509.177   5%   0.430 GPC+PCh                                             
 2.33E+03   4%   1.971 NAA+NAAG                                            
 1.18E+03   6%   1.000 Cr+PCr                                              
  746.408  41%   0.631 Glu+Gln                                             
    0.000 999%   0.000 Lip13a                                              
    0.000 999%   0.000 Lip13b                                              
    5.434 999% 4.6E-03 Lip09                                               
 2.83E+03  12%   2.395 MM09                                                
   98.920 186% 8.4E-02 Lip20                                               
 2.56E+03  17%   2.161 MM20                                                
 1.50E+03  15%   1.264 MM12                                                
    0.000 999%   0.000 MM14                                                
 1.70E+03  16%   1.435 MM17                                                
    0.000 999%   0.000 Lip13a+Lip13b                                       
 1.50E+03  15%   1.264 MM14+Lip13a+Lip13b+MM12                             
 2.84E+03   9%   2.400 MM09+Lip09                                          
 2.66E+03  15%   2.245 MM20+Lip20                                          
   6 lines in following misc. output table
  FWHM = 0.054 ppm    S/N =   9                                            
  Data shift = 0.015 ppm                                                   
  Ph:  43 deg      22.6 deg/ppm                                            
  alphaB,S = 1.1E+00,   1.0E+02                                            
   14 spline knots.   Ns = 8(1)                                            
  (11) 2 infls.   ( 3) 1 extrs.                                            
  498 points on ppm-axis = NY
      4.000000     3.992357     3.984714     3.977070     3.969427     3.961784     3.954141     3.946497     3.938854     3.931211
      3.923568     3.915925     3.908281     3.900638     3.892995     3.885352     3.877708     3.870065     3.862422     3.854779
      3.847136     3.839492     3.831849     3.824206     3.816563     3.808919     3.801276     3.793633     3.785990     3.778347
      3.770703     3.763060     3.755417     3.747774     3.740130     3.732487     3.724844     3.717201     3.709558     3.701914
      3.694271     3.686628     3.678985     3.671341     3.663698     3.656055     3.648412     3.640769     3.633125     3.625482
      3.617839     3.610196     3.602552     3.594909     3.587266     3.579623     3.571980     3.564336     3.556693     3.549050
      3.541407     3.533763     3.526120     3.518477     3.510834     3.503191     3.495547     3.487904     3.480261     3.472618
      3.464974     3.457331     3.449688     3.442045     3.434402     3.426758     3.419115     3.411472     3.403829     3.396185
      3.388542     3.380899     3.373256     3.365613     3.357969     3.350326     3.342683     3.335040     3.327396     3.319753
      3.312110     3.304467     3.296824     3.289180     3.281537     3.273894     3.266251     3.258607     3.250964     3.243321
      3.235678     3.228034     3.220391     3.212748     3.205105     3.197462     3.189818     3.182175     3.174532     3.166889
      3.159245     3.151602     3.143959     3.136316     3.128673     3.121029     3.113386     3.105743     3.098100     3.090456
      3.082813     3.075170     3.067527     3.059884     3.052240     3.044597     3.036954     3.029311     3.021667     3.014024
      3.006381     2.998738     2.991095     2.983451     2.975808     2.968165     2.960522     2.952878     2.945235     2.937592
      2.929949     2.922306     2.914662     2.907019     2.899376     2.891733     2.884089     2.876446     2.868803     2.861160
      2.853517     2.845873     2.838230     2.830587     2.822944     2.815300     2.807657     2.800014     2.792371     2.784728
      2.777084     2.769441     2.761798     2.754155     2.746511     2.738868     2.731225     2.723582     2.715939     2.708295
      2.700652     2.693009     2.685366     2.677722     2.670079     2.662436     2.654793     2.647150     2.639506     2.631863
      2.624220     2.616577     2.608933     2.601290     2.593647     2.586004     2.578361     2.570717     2.563074     2.555431
      2.547788     2.540144     2.532501     2.524858     2.517215     2.509572     2.501928     2.494285     2.486642     2.478999
      2.471355     2.463712     2.456069     2.448426     2.440783     2.433139     2.425496     2.417853     2.410210     2.402566
      2.394923     2.387280     2.379637     2.371994     2.364350     2.356707     2.349064     2.341421     2.333777     2.326134
      2.318491     2.310848     2.303205     2.295561     2.287918     2.280275     2.272632     2.264988     2.257345     2.249702
      2.242059     2.234416     2.226772     2.219129     2.211486     2.203843     2.196199     2.188556     2.180913     2.173270
      2.165627     2.157983     2.150340     2.142697     2.135054     2.127410     2.119767     2.112124     2.104481     2.096838
      2.089194     2.081551     2.073908     2.066265     2.058621     2.050978     2.043335     2.035692     2.028049     2.020405
      2.012762     2.005119     1.997476     1.989833     1.982190     1.974546     1.966903     1.959260     1.951617     1.943974
      1.936331     1.928688     1.921045     1.913402     1.905759     1.898115     1.890472     1.882829     1.875186     1.867543
      1.859900     1.852257     1.844614     1.836971     1.829327     1.821684     1.814041     1.806398     1.798755     1.791112
      1.783469     1.775826     1.768183     1.760540     1.752896     1.745253     1.737610     1.729967     1.722324     1.714681
      1.707038     1.699395     1.691752     1.684108     1.676465     1.668822     1.661179     1.653536     1.645893     1.638250
      1.630607     1.622964     1.615321     1.607677     1.600034     1.592391     1.584748     1.577105     1.569462     1.561819
      1.554176     1.546533     1.538890     1.531246     1.523603     1.515960     1.508317     1.500674     1.493031     1.485388
      1.477745     1.470102     1.462458     1.454815     1.447172     1.439529     1.431886     1.424243     1.416600     1.408957
      1.401314     1.393671     1.386027     1.378384     1.370741     1.363098     1.355455     1.347812     1.340169     1.332526
      1.324883     1.317240     1.309596     1.301953     1.294310     1.286667     1.279024     1.271381     1.263738     1.256095
      1.248452     1.240808     1.233165     1.225522     1.217879     1.210236     1.202593     1.194950     1.187307     1.179664
      1.172021     1.164377     1.156734     1.149091     1.141448     1.133805     1.126162     1.118519     1.110876     1.103233
      1.095590     1.087946     1.080303     1.072660     1.065017     1.057374     1.049731     1.042088     1.034445     1.026802
      1.019158     1.011515     1.003872     0.996229     0.988586     0.980943     0.973300     0.965657     0.958014     0.950371
      0.942727     0.935084     0.927441     0.919798     0.912155     0.904512     0.896869     0.889226     0.881583     0.873940
      0.866296     0.858653     0.851010     0.843367     0.835724     0.828081     0.820438     0.812795     0.805152     0.797508
      0.789865     0.782222     0.774579     0.766936     0.759293     0.751650     0.744007     0.736364     0.728721     0.721077
      0.713434     0.705791     0.698148     0.690505     0.682862     0.675219     0.667576     0.659933     0.652290     0.644646
      0.637003     0.629360     0.621717     0.614074     0.606431     0.598788     0.591145     0.583502     0.575858     0.568215
      0.560572     0.552929     0.545286     0.537643     0.530000     0.522357     0.514714     0.507071     0.499427     0.491784
      0.484141     0.476498     0.468855     0.461212     0.453569     0.445925     0.438282     0.430639     0.422996     0.415353
      0.407710     0.400067     0.392424     0.384780     0.377137     0.369494     0.361851     0.354208     0.346565     0.338922
      0.331278     0.323635     0.315992     0.308349     0.300706     0.293063     0.285420     0.277777     0.270133     0.262490
      0.254847     0.247204     0.239561     0.231918     0.224275     0.216631     0.208988     0.201345
 NY phased data points follow
   2.46428E+01  2.26342E+01  1.98204E+01  2.03027E+01  1.99672E+01  2.33404E+01  2.04598E+01  1.94668E+01  2.61325E+01  3.10931E+01
   3.20380E+01  2.84117E+01  3.44814E+01  3.77760E+01  2.84709E+01  2.59962E+01  2.46853E+01  2.82250E+01  2.31424E+01  2.55942E+01
   2.16819E+01  2.02349E+01  1.82590E+01  2.47880E+01  2.40761E+01  1.93859E+01  1.89490E+01  2.21380E+01  2.15680E+01  2.08735E+01
   1.72558E+01  2.03840E+01  1.75097E+01  1.77710E+01  2.23471E+01  2.43119E+01  1.82094E+01  1.75223E+01  1.81441E+01  2.09184E+01
   1.61671E+01  1.96158E+01  1.64383E+01  2.01091E+01  1.71468E+01  1.62902E+01  2.20276E+01  1.97485E+01  2.54570E+01  2.04396E+01
   2.92699E+01  2.41333E+01  1.68455E+01  2.10033E+01  2.18689E+01  2.18107E+01  2.16324E+01  2.07872E+01  1.95981E+01  2.02642E+01
   1.67354E+01  1.49986E+01  1.08435E+01  1.11903E+01  9.45176E+00  1.29897E+01  8.33034E+00  1.17286E+01  1.12638E+01  1.14884E+01
   7.54375E+00  1.19428E+01  6.82347E+00  8.90038E+00  8.68791E+00  1.27823E+01  5.34330E+00  1.08797E+01  7.62523E+00  5.38815E+00
   6.89868E+00  9.37131E+00  5.37902E+00  1.09408E+00  4.73428E+00  7.51020E+00  1.12864E+00  1.10277E+01  5.29421E+00  6.90379E+00
   5.75252E+00  3.67598E+00  5.13708E+00  9.65257E+00  9.85210E+00  6.47730E+00  5.76271E+00  6.46307E+00  1.19368E+01  1.32292E+01
   2.31114E+01  3.49493E+01  4.66977E+01  4.68138E+01  5.03130E+01  4.87038E+01  3.91434E+01  3.68599E+01  2.80558E+01  2.56423E+01
   2.22333E+01  1.70723E+01  1.41947E+01  1.23291E+01  1.12703E+01  4.95710E+00  7.46012E+00  1.26367E+01  9.46007E+00  9.54430E+00
   4.55559E+00  6.14846E+00  1.04468E+01  1.46073E+01  2.02180E+01  2.79493E+01  3.19028E+01  4.14362E+01  4.27009E+01  4.00798E+01
   3.97319E+01  3.02898E+01  2.48675E+01  2.68348E+01  1.98578E+01  1.34624E+01  1.62615E+01  7.45650E+00  1.06273E+01  1.34855E+01
   9.57228E+00  9.64353E+00  4.51968E+00  5.80149E+00  8.61409E+00  7.66099E+00  5.54223E+00  7.53521E+00  5.73373E+00  7.09257E+00
   5.71809E+00  6.09060E+00  4.25973E+00  1.10323E+01  6.36377E+00  8.75430E+00  7.91955E+00  7.77522E+00 -2.11801E+00  3.99174E+00
   1.86519E+00  1.11275E+00  1.89655E+00  4.29890E+00  6.06612E+00  5.20920E+00 -1.59751E+00  4.56687E+00 -3.08193E-01 -6.62943E+00
  -3.62246E+00 -7.15687E+00 -9.73949E+00 -1.22264E+01 -1.28529E+01 -1.06881E+01 -1.34390E+01 -1.10199E+01 -1.44509E+01 -6.79561E+00
  -1.12897E+01 -1.27339E+01 -7.82194E+00 -1.01852E+01 -4.00913E+00 -8.99014E+00 -5.84365E+00 -5.82630E+00 -6.88145E+00 -1.69076E-01
  -2.85577E+00  1.63886E+00 -3.68590E+00 -6.15976E+00 -6.85656E+00 -5.18984E+00 -4.75351E+00 -8.39195E+00 -1.05474E+01 -8.43326E+00
  -8.74632E+00 -4.12602E+00 -7.04402E+00 -8.71641E+00 -9.97561E-01  2.12966E+00 -3.61570E+00 -3.43263E+00 -5.18815E-01 -1.50617E+00
   1.77155E+00  2.70852E+00  3.03048E+00 -4.78554E+00  9.09735E-01  5.01768E+00  2.62075E+00  6.41440E+00  9.89953E-01  4.58494E+00
   4.76876E+00 -6.95231E+00 -5.72133E+00 -6.63100E+00 -2.09755E+00 -2.39660E+00  1.85680E+00 -8.20291E-01 -6.61873E-01  5.08353E+00
   1.01371E+01  1.23797E+00  3.51519E-01  1.47844E+00  7.78412E-01  5.51815E+00  3.91700E+00 -1.90626E+00 -2.12314E+00  2.26484E+00
  -2.26494E+00  2.83503E+00 -1.78592E+00 -3.25779E+00 -2.50891E+00  4.69996E+00  4.43854E+00  4.20130E+00  7.44165E+00  1.15673E+01
   1.03957E+01  1.55642E+01  1.56089E+01  1.87918E+01  2.47312E+01  3.39268E+01  4.17443E+01  5.33579E+01  5.90187E+01  6.95297E+01
   6.77693E+01  5.79925E+01  5.58388E+01  4.41170E+01  3.30830E+01  2.25916E+01  9.81583E+00  6.34155E+00  3.19348E+00 -2.54667E+00
  -4.64872E+00 -5.72735E+00 -1.14942E+01 -1.04339E+01 -8.14876E+00 -8.93603E+00 -5.95458E+00 -8.17545E+00 -1.01899E+01 -1.25663E+01
  -5.82571E+00 -6.37459E+00 -9.60231E+00 -7.53222E+00 -5.37329E+00 -1.04106E+01 -8.95994E+00 -6.21100E+00 -5.65421E+00 -5.75289E+00
  -4.18055E-01 -2.20758E+00 -1.73278E+00 -1.74396E+00  1.18496E-01 -1.64253E-01 -5.61046E-01  1.00802E+00 -5.83839E+00 -9.74944E-01
   8.25842E-01  1.91474E+00  4.99355E+00  3.01617E+00  5.29204E+00  3.03626E+00  3.22699E+00  2.95033E+00  5.31806E+00  5.10262E+00
   5.25358E+00  1.49397E+00  4.67196E+00  5.44748E+00  2.78092E+00  9.29663E-01  8.93148E+00  6.39153E+00  1.83684E-01  1.74166E+00
  -1.84006E+00 -1.99480E+00 -3.24024E+00 -4.20370E+00 -1.97968E+00 -4.06387E+00 -5.12134E+00 -5.19472E+00 -8.56891E+00 -5.73041E+00
  -8.87337E+00 -1.21611E+01 -9.23075E+00 -8.24566E+00 -8.54171E+00 -1.13283E+01 -9.55777E+00 -9.66265E+00 -6.67123E+00 -7.76904E+00
  -1.20717E+01 -7.57844E+00 -1.02949E+00 -4.52627E+00 -1.14614E+00 -5.90193E+00 -6.60789E+00 -8.50481E+00 -1.09953E+01 -1.17967E+01
  -1.43416E+01 -1.05619E+01 -1.02480E+01 -5.75751E+00 -5.79287E+00 -3.74563E+00 -1.11991E+00  2.18003E+00 -6.46309E+00 -4.55738E-01
  -3.11120E-01  6.74141E-01  2.46180E+00  1.02774E+01  6.56880E+00  5.79912E+00  6.46685E+00  7.27761E+00  7.84716E+00  8.13906E+00
   1.29684E+01  8.47694E+00  7.54599E+00  7.02051E+00  9.34808E+00  6.33077E+00  8.92402E+00  6.86781E+00  6.47789E+00  4.66816E+00
   6.06260E+00  6.15942E+00  4.51021E+00 -6.23946E-01  4.90408E+00  1.75477E+00  2.60396E+00  1.91319E+00  5.59958E-01  5.78604E+00
   5.89050E+00  7.55947E+00  6.19912E+00  1.05092E+01  1.15220E+01  8.87898E+00  1.20863E+01  1.47006E+01  9.24376E+00  1.18176E+01
   1.08620E+01  9.57523E+00  1.27434E+01  9.12707E+00  1.40168E+01  1.40333E+01  1.32663E+01  8.89065E+00  8.17897E+00  9.55637E+00
   9.21070E+00  7.95650E+00  1.47882E+00  3.44373E+00  1.12458E-01  2.19224E+00  5.16316E+00 -3.08319E+00 -1.30377E+00  4.58203E-01
  -3.30967E+00 -5.40299E+00  3.60311E+00  1.53769E-01 -1.26729E+00 -2.08971E+00 -8.60083E-01 -4.98419E+00 -5.11568E+00 -2.87064E+00
  -3.65760E+00 -5.51598E+00 -2.66158E+00  1.59740E+00 -2.48014E+00  2.12837E-01 -6.01615E-01 -2.24726E+00  3.31171E+00  4.38819E-01
  -2.10475E+00 -4.10057E+00 -3.35730E+00 -6.91584E+00 -2.20226E+00 -5.33791E+00 -1.53078E+00 -2.84524E+00 -6.71839E+00 -1.46154E+00
  -3.72332E+00  6.95433E-01  3.08885E+00 -6.07400E+00  9.36799E-01 -4.83281E+00 -1.78451E+00 -5.05395E+00 -2.51683E+00 -5.15103E+00
  -7.18136E+00 -2.73405E+00 -7.83312E+00 -5.81467E+00 -1.75440E+00 -5.64881E+00 -6.50621E+00 -3.50214E+00 -6.45112E+00  8.31268E-01
  -2.67944E+00  1.49818E-01 -9.12636E+00 -4.05672E+00 -8.70176E-01 -3.20265E+00 -5.64020E+00 -5.70957E+00 -5.12698E+00 -9.11085E+00
  -1.65086E+00 -2.05610E+00 -4.04985E+00 -4.85525E+00 -6.28598E+00 -3.85157E+00 -2.39456E+00 -4.95760E+00 -2.31132E+00 -2.65568E+00
  -6.42827E+00 -4.28484E+00 -3.96074E+00 -8.51756E+00  2.29062E+00 -3.89061E+00 -9.07988E+00 -5.78610E-01
 NY points of the fit to the data follow
   2.02391E+01  1.95077E+01  1.89636E+01  1.87050E+01  1.88125E+01  1.94166E+01  2.07850E+01  2.31339E+01  2.62894E+01  2.95780E+01
   3.21144E+01  3.33979E+01  3.34222E+01  3.23597E+01  3.05784E+01  2.85957E+01  2.67599E+01  2.51489E+01  2.35840E+01  2.18720E+01
   2.05203E+01  1.96348E+01  1.90132E+01  1.85782E+01  1.83622E+01  1.84412E+01  1.89099E+01  1.97984E+01  2.09124E+01  2.19230E+01
   2.25890E+01  2.28720E+01  2.27970E+01  2.23680E+01  2.16773E+01  2.08983E+01  2.00969E+01  1.92470E+01  1.83135E+01  1.74558E+01
   1.69662E+01  1.68196E+01  1.69927E+01  1.75661E+01  1.85807E+01  1.99111E+01  2.11834E+01  2.20163E+01  2.22045E+01  2.17327E+01
   2.07328E+01  1.94020E+01  1.79910E+01  1.67706E+01  1.58637E+01  1.51957E+01  1.47429E+01  1.46003E+01  1.47571E+01  1.49905E+01
   1.50635E+01  1.48805E+01  1.44366E+01  1.38088E+01  1.31300E+01  1.25421E+01  1.21445E+01  1.19513E+01  1.19026E+01  1.19560E+01
   1.20777E+01  1.21896E+01  1.22317E+01  1.21632E+01  1.19851E+01  1.17199E+01  1.13963E+01  1.10580E+01  1.07365E+01  1.04290E+01
   1.01152E+01  9.75897E+00  9.35377E+00  8.86146E+00  8.23671E+00  7.48504E+00  6.67867E+00  5.93887E+00  5.37972E+00  5.07147E+00
   5.02183E+00  5.18644E+00  5.47529E+00  5.78402E+00  6.04712E+00  6.39119E+00  7.14684E+00  8.72931E+00  1.18743E+01  1.71968E+01
   2.49172E+01  3.42006E+01  4.29293E+01  4.87527E+01  5.04818E+01  4.84400E+01  4.35916E+01  3.71610E+01  3.05827E+01  2.48241E+01
   1.99901E+01  1.57306E+01  1.18252E+01  8.98576E+00  7.80364E+00  7.26473E+00  6.90663E+00  6.63356E+00  6.43995E+00  6.43286E+00
   6.87475E+00  8.05589E+00  1.04575E+01  1.45131E+01  2.03948E+01  2.76150E+01  3.47251E+01  3.99092E+01  4.20341E+01  4.11348E+01
   3.78613E+01  3.30338E+01  2.76577E+01  2.25640E+01  1.80362E+01  1.39996E+01  1.03738E+01  7.62262E+00  6.40783E+00  6.08921E+00
   6.03121E+00  5.99070E+00  5.86958E+00  5.67760E+00  5.43705E+00  5.13522E+00  4.78965E+00  4.41515E+00  4.00480E+00  3.57103E+00
   3.12759E+00  2.70259E+00  2.32739E+00  2.01500E+00  1.77929E+00  1.59240E+00  1.39525E+00  1.12512E+00  7.54688E-01  3.42510E-01
  -1.12827E-02 -2.34555E-01 -3.50677E-01 -4.54070E-01 -6.57250E-01 -1.02092E+00 -1.51117E+00 -2.05699E+00 -2.56877E+00 -2.96388E+00
  -3.28796E+00 -3.66094E+00 -4.10870E+00 -4.59555E+00 -4.99958E+00 -5.21692E+00 -5.29187E+00 -5.31529E+00 -5.35816E+00 -5.44009E+00
  -5.54365E+00 -5.62221E+00 -5.62217E+00 -5.50175E+00 -5.21038E+00 -4.71921E+00 -4.03131E+00 -3.12071E+00 -2.04795E+00 -9.77674E-01
  -1.15889E-01  3.56948E-01  4.18683E-01  1.61967E-01 -2.74852E-01 -7.88547E-01 -1.28105E+00 -1.66030E+00 -1.81147E+00 -1.73350E+00
  -1.46383E+00 -1.05090E+00 -6.18321E-01 -3.37922E-01 -3.20568E-01 -5.82744E-01 -1.08353E+00 -1.78594E+00 -2.61548E+00 -3.37907E+00
  -3.90032E+00 -4.03896E+00 -3.72011E+00 -2.95984E+00 -1.97848E+00 -1.14599E+00 -7.48737E-01 -9.29277E-01 -1.66691E+00 -2.77651E+00
  -3.97288E+00 -4.89360E+00 -5.28994E+00 -5.14210E+00 -4.53894E+00 -3.66386E+00 -2.67498E+00 -1.75916E+00 -1.11164E+00 -7.03322E-01
  -3.72014E-01  3.99151E-02  5.66035E-01  1.13544E+00  1.69279E+00  2.14625E+00  2.33621E+00  2.19015E+00  1.77763E+00  1.27838E+00
   9.07579E-01  8.24432E-01  1.13387E+00  1.83289E+00  2.77166E+00  3.75645E+00  4.63460E+00  5.36577E+00  6.04878E+00  6.86205E+00
   8.18231E+00  1.04366E+01  1.41335E+01  1.93947E+01  2.61370E+01  3.41055E+01  4.30455E+01  5.25105E+01  6.09124E+01  6.58641E+01
   6.58692E+01  6.12875E+01  5.33747E+01  4.34026E+01  3.29338E+01  2.36560E+01  1.64518E+01  1.06960E+01  5.57219E+00  1.27016E+00
  -9.24307E-01 -1.70561E+00 -2.17333E+00 -2.55559E+00 -2.91887E+00 -3.28864E+00 -3.67020E+00 -4.03598E+00 -4.36727E+00 -4.64851E+00
  -4.86874E+00 -5.03042E+00 -5.15327E+00 -5.25521E+00 -5.33591E+00 -5.39006E+00 -5.42115E+00 -5.42699E+00 -5.38383E+00 -5.26531E+00
  -5.05995E+00 -4.77158E+00 -4.40617E+00 -3.96559E+00 -3.45587E+00 -2.88780E+00 -2.26337E+00 -1.58040E+00 -8.38230E-01 -4.36739E-02
   7.84462E-01  1.62356E+00  2.45298E+00  3.24280E+00  3.96054E+00  4.57788E+00  5.07112E+00  5.42159E+00  5.61376E+00  5.63635E+00
   5.48981E+00  5.18141E+00  4.72339E+00  4.13426E+00  3.43710E+00  2.65856E+00  1.82753E+00  9.74596E-01  1.31918E-01 -6.65204E-01
  -1.38988E+00 -2.02164E+00 -2.55454E+00 -3.01448E+00 -3.46200E+00 -3.99120E+00 -4.68204E+00 -5.53038E+00 -6.44308E+00 -7.29941E+00
  -7.98559E+00 -8.39723E+00 -8.45667E+00 -8.17434E+00 -7.66195E+00 -7.07292E+00 -6.51225E+00 -6.00408E+00 -5.59596E+00 -5.30396E+00
  -5.05549E+00 -4.77284E+00 -4.44433E+00 -4.14081E+00 -4.00173E+00 -4.15364E+00 -4.65015E+00 -5.45049E+00 -6.37136E+00 -7.17519E+00
  -7.64877E+00 -7.59803E+00 -6.92829E+00 -5.74755E+00 -4.30719E+00 -2.85015E+00 -1.47213E+00 -1.81784E-01  9.10268E-01  1.80424E+00
   2.61015E+00  3.38795E+00  4.13066E+00  4.78729E+00  5.35251E+00  5.91832E+00  6.45335E+00  6.89458E+00  7.21031E+00  7.38455E+00
   7.41163E+00  7.29508E+00  7.04634E+00  6.68399E+00  6.23209E+00  5.71892E+00  5.17495E+00  4.63148E+00  4.11859E+00  3.66411E+00
   3.29202E+00  3.02199E+00  2.86855E+00  2.84116E+00  2.94398E+00  3.17641E+00  3.53315E+00  4.00503E+00  4.57917E+00  5.23985E+00
   5.96866E+00  6.74533E+00  7.54789E+00  8.35357E+00  9.13906E+00  9.88136E+00  1.05582E+01  1.11489E+01  1.16349E+01  1.20008E+01
   1.22342E+01  1.23270E+01  1.22751E+01  1.20789E+01  1.17429E+01  1.12758E+01  1.06896E+01  9.99952E+00  9.22270E+00  8.37786E+00
   7.48413E+00  6.56061E+00  5.62532E+00  4.69492E+00  3.78397E+00  2.90495E+00  2.06774E+00  1.28000E+00  5.46860E-01 -1.28532E-01
  -7.45072E-01 -1.30309E+00 -1.80434E+00 -2.25139E+00 -2.64768E+00 -2.99694E+00 -3.30325E+00 -3.57059E+00 -3.80302E+00 -4.00422E+00
  -4.17782E+00 -4.32699E+00 -4.45475E+00 -4.56363E+00 -4.65604E+00 -4.73396E+00 -4.79926E+00 -4.85343E+00 -4.89790E+00 -4.93377E+00
  -4.96213E+00 -4.98378E+00 -4.99959E+00 -5.01013E+00 -5.01607E+00 -5.01781E+00 -5.01588E+00 -5.01059E+00 -5.00236E+00 -4.99142E+00
  -4.97810E+00 -4.96255E+00 -4.94505E+00 -4.92573E+00 -4.90481E+00 -4.88237E+00 -4.85859E+00 -4.83352E+00 -4.80734E+00 -4.78008E+00
  -4.75189E+00 -4.72277E+00 -4.69285E+00 -4.66213E+00 -4.63074E+00 -4.59867E+00 -4.56602E+00 -4.53277E+00 -4.49901E+00 -4.46472E+00
  -4.43001E+00 -4.39483E+00 -4.35927E+00 -4.32329E+00 -4.28697E+00 -4.25026E+00 -4.21327E+00 -4.17594E+00 -4.13834E+00 -4.10041E+00
  -4.06224E+00 -4.02378E+00 -3.98510E+00 -3.94614E+00 -3.90696E+00 -3.86751E+00 -3.82785E+00 -3.78793E+00 -3.74782E+00 -3.70743E+00
  -3.66682E+00 -3.62594E+00 -3.58485E+00 -3.54347E+00 -3.50185E+00 -3.45990E+00 -3.41768E+00 -3.37509E+00
 NY background values follow
     1.846E+01    1.835E+01    1.823E+01    1.811E+01    1.799E+01    1.787E+01    1.775E+01    1.763E+01    1.751E+01    1.739E+01
     1.727E+01    1.715E+01    1.703E+01    1.692E+01    1.680E+01    1.668E+01    1.656E+01    1.644E+01    1.632E+01    1.620E+01
     1.608E+01    1.596E+01    1.584E+01    1.572E+01    1.560E+01    1.548E+01    1.536E+01    1.524E+01    1.512E+01    1.500E+01
     1.488E+01    1.476E+01    1.464E+01    1.452E+01    1.440E+01    1.428E+01    1.416E+01    1.404E+01    1.392E+01    1.380E+01
     1.368E+01    1.356E+01    1.344E+01    1.332E+01    1.320E+01    1.308E+01    1.296E+01    1.284E+01    1.272E+01    1.260E+01
     1.248E+01    1.236E+01    1.225E+01    1.213E+01    1.201E+01    1.189E+01    1.177E+01    1.165E+01    1.153E+01    1.141E+01
     1.129E+01    1.117E+01    1.105E+01    1.093E+01    1.081E+01    1.069E+01    1.058E+01    1.046E+01    1.034E+01    1.022E+01
     1.010E+01    9.984E+00    9.866E+00    9.747E+00    9.630E+00    9.512E+00    9.394E+00    9.276E+00    9.159E+00    9.042E+00
     8.925E+00    8.808E+00    8.691E+00    8.574E+00    8.457E+00    8.341E+00    8.225E+00    8.108E+00    7.993E+00    7.877E+00
     7.761E+00    7.646E+00    7.530E+00    7.415E+00    7.300E+00    7.186E+00    7.071E+00    6.957E+00    6.843E+00    6.729E+00
     6.615E+00    6.501E+00    6.388E+00    6.274E+00    6.161E+00    6.048E+00    5.936E+00    5.823E+00    5.711E+00    5.598E+00
     5.486E+00    5.374E+00    5.263E+00    5.151E+00    5.040E+00    4.929E+00    4.818E+00    4.707E+00    4.596E+00    4.486E+00
     4.376E+00    4.266E+00    4.156E+00    4.046E+00    3.937E+00    3.827E+00    3.718E+00    3.609E+00    3.500E+00    3.392E+00
     3.283E+00    3.175E+00    3.067E+00    2.959E+00    2.852E+00    2.744E+00    2.637E+00    2.530E+00    2.423E+00    2.316E+00
     2.210E+00    2.103E+00    1.997E+00    1.891E+00    1.786E+00    1.680E+00    1.575E+00    1.470E+00    1.366E+00    1.262E+00
     1.158E+00    1.054E+00    9.507E-01    8.476E-01    7.449E-01    6.425E-01    5.405E-01    4.388E-01    3.374E-01    2.365E-01
     1.359E-01    3.563E-02   -6.420E-02   -1.636E-01   -2.627E-01   -3.613E-01   -4.595E-01   -5.573E-01   -6.546E-01   -7.515E-01
    -8.479E-01   -9.439E-01   -1.039E+00   -1.134E+00   -1.229E+00   -1.323E+00   -1.417E+00   -1.510E+00   -1.602E+00   -1.694E+00
    -1.785E+00   -1.876E+00   -1.967E+00   -2.057E+00   -2.146E+00   -2.235E+00   -2.323E+00   -2.410E+00   -2.497E+00   -2.584E+00
    -2.670E+00   -2.755E+00   -2.840E+00   -2.924E+00   -3.008E+00   -3.091E+00   -3.174E+00   -3.256E+00   -3.337E+00   -3.418E+00
    -3.498E+00   -3.578E+00   -3.657E+00   -3.735E+00   -3.813E+00   -3.891E+00   -3.968E+00   -4.044E+00   -4.120E+00   -4.195E+00
    -4.269E+00   -4.343E+00   -4.417E+00   -4.489E+00   -4.562E+00   -4.633E+00   -4.704E+00   -4.775E+00   -4.844E+00   -4.914E+00
    -4.982E+00   -5.050E+00   -5.118E+00   -5.185E+00   -5.251E+00   -5.317E+00   -5.382E+00   -5.446E+00   -5.510E+00   -5.573E+00
    -5.636E+00   -5.698E+00   -5.759E+00   -5.820E+00   -5.880E+00   -5.940E+00   -5.999E+00   -6.057E+00   -6.115E+00   -6.172E+00
    -6.228E+00   -6.284E+00   -6.339E+00   -6.393E+00   -6.447E+00   -6.500E+00   -6.552E+00   -6.604E+00   -6.655E+00   -6.705E+00
    -6.755E+00   -6.804E+00   -6.852E+00   -6.900E+00   -6.946E+00   -6.993E+00   -7.038E+00   -7.083E+00   -7.127E+00   -7.170E+00
    -7.213E+00   -7.255E+00   -7.296E+00   -7.336E+00   -7.376E+00   -7.415E+00   -7.453E+00   -7.491E+00   -7.527E+00   -7.563E+00
    -7.599E+00   -7.633E+00   -7.667E+00   -7.700E+00   -7.732E+00   -7.763E+00   -7.794E+00   -7.824E+00   -7.853E+00   -7.881E+00
    -7.909E+00   -7.936E+00   -7.962E+00   -7.988E+00   -8.012E+00   -8.036E+00   -8.059E+00   -8.082E+00   -8.104E+00   -8.125E+00
    -8.145E+00   -8.165E+00   -8.183E+00   -8.201E+00   -8.219E+00   -8.236E+00   -8.252E+00   -8.267E+00   -8.281E+00   -8.295E+00
    -8.308E+00   -8.321E+00   -8.333E+00   -8.344E+00   -8.354E+00   -8.364E+00   -8.373E+00   -8.381E+00   -8.388E+00   -8.395E+00
    -8.401E+00   -8.407E+00   -8.412E+00   -8.416E+00   -8.419E+00   -8.422E+00   -8.424E+00   -8.426E+00   -8.427E+00   -8.427E+00
    -8.426E+00   -8.425E+00   -8.423E+00   -8.421E+00   -8.418E+00   -8.414E+00   -8.410E+00   -8.405E+00   -8.399E+00   -8.393E+00
    -8.386E+00   -8.378E+00   -8.370E+00   -8.362E+00   -8.352E+00   -8.343E+00   -8.332E+00   -8.321E+00   -8.309E+00   -8.297E+00
    -8.284E+00   -8.271E+00   -8.257E+00   -8.243E+00   -8.228E+00   -8.212E+00   -8.196E+00   -8.179E+00   -8.162E+00   -8.145E+00
    -8.126E+00   -8.108E+00   -8.088E+00   -8.069E+00   -8.048E+00   -8.027E+00   -8.006E+00   -7.984E+00   -7.962E+00   -7.939E+00
    -7.916E+00   -7.892E+00   -7.868E+00   -7.843E+00   -7.818E+00   -7.792E+00   -7.766E+00   -7.740E+00   -7.713E+00   -7.685E+00
    -7.658E+00   -7.629E+00   -7.601E+00   -7.572E+00   -7.542E+00   -7.512E+00   -7.482E+00   -7.452E+00   -7.421E+00   -7.389E+00
    -7.358E+00   -7.326E+00   -7.293E+00   -7.261E+00   -7.228E+00   -7.194E+00   -7.161E+00   -7.127E+00   -7.093E+00   -7.058E+00
    -7.023E+00   -6.988E+00   -6.953E+00   -6.917E+00   -6.881E+00   -6.845E+00   -6.808E+00   -6.772E+00   -6.735E+00   -6.698E+00
    -6.661E+00   -6.623E+00   -6.585E+00   -6.547E+00   -6.509E+00   -6.471E+00   -6.432E+00   -6.394E+00   -6.355E+00   -6.316E+00
    -6.277E+00   -6.237E+00   -6.198E+00   -6.158E+00   -6.119E+00   -6.079E+00   -6.039E+00   -5.999E+00   -5.958E+00   -5.918E+00
    -5.877E+00   -5.837E+00   -5.796E+00   -5.755E+00   -5.714E+00   -5.674E+00   -5.632E+00   -5.591E+00   -5.550E+00   -5.509E+00
    -5.468E+00   -5.426E+00   -5.385E+00   -5.343E+00   -5.302E+00   -5.260E+00   -5.218E+00   -5.177E+00   -5.135E+00   -5.093E+00
    -5.052E+00   -5.010E+00   -4.968E+00   -4.926E+00   -4.884E+00   -4.843E+00   -4.801E+00   -4.759E+00   -4.717E+00   -4.676E+00
    -4.634E+00   -4.592E+00   -4.551E+00   -4.509E+00   -4.467E+00   -4.426E+00   -4.384E+00   -4.343E+00   -4.301E+00   -4.260E+00
    -4.219E+00   -4.177E+00   -4.136E+00   -4.095E+00   -4.053E+00   -4.012E+00   -3.971E+00   -3.930E+00   -3.889E+00   -3.848E+00
    -3.806E+00   -3.765E+00   -3.724E+00   -3.683E+00   -3.642E+00   -3.601E+00   -3.560E+00   -3.519E+00   -3.478E+00   -3.438E+00
    -3.397E+00   -3.356E+00   -3.315E+00   -3.274E+00   -3.233E+00   -3.192E+00   -3.152E+00   -3.111E+00   -3.070E+00   -3.029E+00
    -2.988E+00   -2.948E+00   -2.907E+00   -2.866E+00   -2.825E+00   -2.785E+00   -2.744E+00   -2.703E+00
 Ala      Conc. = 1.57E+02
