 LCModel (Version 6.3-1L) Copyright: S.W. Provencher.          Ref.: Magn. Reson. Med. 30:672-679 (1993).                
 Slice#2 Row#13 Col#14  K_02_press_1_raw_act
 36 lines in following concentration table = NCONC+1
    Conc.  %SD /Cr+PCr  Metabolite                                         
   99.197  52%   4.161 Ala                                                 
    3.839  44%   0.161 Asp                                                 
    9.963 559%   0.418 Cr                                                  
   13.875 404%   0.582 PCr                                                 
    2.294  44% 9.6E-02 GABA                                                
    2.293  44% 9.6E-02 Glc                                                 
   23.630 343%   0.991 Gln                                                 
  102.440  90%   4.297 Glu                                                 
    0.000 999%   0.000 GPC                                                 
    0.000 999%   0.000 PCh                                                 
    0.000 999%   0.000 GSH                                                 
   67.928 104%   2.850 Ins                                                 
    0.000 999%   0.000 Lac                                                 
   52.734  36%   2.212 NAA                                                 
    0.000 999%   0.000 NAAG                                                
    0.765  44% 3.2E-02 Scyllo                                              
    3.824  44%   0.160 Tau                                                 
    2.240  96% 9.4E-02 -CrCH2                                              
    0.000 999%   0.000 GPC+PCh                                             
   52.734  36%   2.212 NAA+NAAG                                            
   23.838  65%   1.000 Cr+PCr                                              
  126.071 107%   5.289 Glu+Gln                                             
 1.63E+03  30%  68.323 Lip13a                                              
    6.259 999%   0.263 Lip13b                                              
 1.60E+03  19%  67.176 Lip09                                               
 2.65E+03  12% 111.331 MM09                                                
  146.741 103%   6.156 Lip20                                               
    0.000 999%   0.000-MM20                                                
 1.68E+03  15%  70.369 MM12                                                
 3.11E+03   3% 130.359 MM14                                                
 1.05E+03  22%  44.080 MM17                                                
 1.63E+03  28%  68.586 Lip13a+Lip13b                                       
 6.42E+03   7% 269.314 MM14+Lip13a+Lip13b+MM12                             
 4.26E+03   7% 178.507 MM09+Lip09                                          
  146.741 103%   6.156 MM20+Lip20                                          
   6 lines in following misc. output table
  FWHM = 0.069 ppm    S/N =  11                                            
  Data shift = 0.008 ppm                                                   
  Ph:  92 deg      21.0 deg/ppm                                            
  alphaB,S = 8.5E+01,   1.0E+02                                            
   14 spline knots.   Ns = 9(1)                                            
   2 inflections.     1 extrema                                            
  498 points on ppm-axis = NY
      4.000000     3.992357     3.984714     3.977070     3.969427     3.961784     3.954141     3.946497     3.938854     3.931211
      3.923568     3.915925     3.908281     3.900638     3.892995     3.885352     3.877708     3.870065     3.862422     3.854779
      3.847136     3.839492     3.831849     3.824206     3.816563     3.808919     3.801276     3.793633     3.785990     3.778347
      3.770703     3.763060     3.755417     3.747774     3.740130     3.732487     3.724844     3.717201     3.709558     3.701914
      3.694271     3.686628     3.678985     3.671341     3.663698     3.656055     3.648412     3.640769     3.633125     3.625482
      3.617839     3.610196     3.602552     3.594909     3.587266     3.579623     3.571980     3.564336     3.556693     3.549050
      3.541407     3.533763     3.526120     3.518477     3.510834     3.503191     3.495547     3.487904     3.480261     3.472618
      3.464974     3.457331     3.449688     3.442045     3.434402     3.426758     3.419115     3.411472     3.403829     3.396185
      3.388542     3.380899     3.373256     3.365613     3.357969     3.350326     3.342683     3.335040     3.327396     3.319753
      3.312110     3.304467     3.296824     3.289180     3.281537     3.273894     3.266251     3.258607     3.250964     3.243321
      3.235678     3.228034     3.220391     3.212748     3.205105     3.197462     3.189818     3.182175     3.174532     3.166889
      3.159245     3.151602     3.143959     3.136316     3.128673     3.121029     3.113386     3.105743     3.098100     3.090456
      3.082813     3.075170     3.067527     3.059884     3.052240     3.044597     3.036954     3.029311     3.021667     3.014024
      3.006381     2.998738     2.991095     2.983451     2.975808     2.968165     2.960522     2.952878     2.945235     2.937592
      2.929949     2.922306     2.914662     2.907019     2.899376     2.891733     2.884089     2.876446     2.868803     2.861160
      2.853517     2.845873     2.838230     2.830587     2.822944     2.815300     2.807657     2.800014     2.792371     2.784728
      2.777084     2.769441     2.761798     2.754155     2.746511     2.738868     2.731225     2.723582     2.715939     2.708295
      2.700652     2.693009     2.685366     2.677722     2.670079     2.662436     2.654793     2.647150     2.639506     2.631863
      2.624220     2.616577     2.608933     2.601290     2.593647     2.586004     2.578361     2.570717     2.563074     2.555431
      2.547788     2.540144     2.532501     2.524858     2.517215     2.509572     2.501928     2.494285     2.486642     2.478999
      2.471355     2.463712     2.456069     2.448426     2.440783     2.433139     2.425496     2.417853     2.410210     2.402566
      2.394923     2.387280     2.379637     2.371994     2.364350     2.356707     2.349064     2.341421     2.333777     2.326134
      2.318491     2.310848     2.303205     2.295561     2.287918     2.280275     2.272632     2.264988     2.257345     2.249702
      2.242059     2.234416     2.226772     2.219129     2.211486     2.203843     2.196199     2.188556     2.180913     2.173270
      2.165627     2.157983     2.150340     2.142697     2.135054     2.127410     2.119767     2.112124     2.104481     2.096838
      2.089194     2.081551     2.073908     2.066265     2.058621     2.050978     2.043335     2.035692     2.028049     2.020405
      2.012762     2.005119     1.997476     1.989833     1.982190     1.974546     1.966903     1.959260     1.951617     1.943974
      1.936331     1.928688     1.921045     1.913402     1.905759     1.898115     1.890472     1.882829     1.875186     1.867543
      1.859900     1.852257     1.844614     1.836971     1.829327     1.821684     1.814041     1.806398     1.798755     1.791112
      1.783469     1.775826     1.768183     1.760540     1.752896     1.745253     1.737610     1.729967     1.722324     1.714681
      1.707038     1.699395     1.691752     1.684108     1.676465     1.668822     1.661179     1.653536     1.645893     1.638250
      1.630607     1.622964     1.615321     1.607677     1.600034     1.592391     1.584748     1.577105     1.569462     1.561819
      1.554176     1.546533     1.538890     1.531246     1.523603     1.515960     1.508317     1.500674     1.493031     1.485388
      1.477745     1.470102     1.462458     1.454815     1.447172     1.439529     1.431886     1.424243     1.416600     1.408957
      1.401314     1.393671     1.386027     1.378384     1.370741     1.363098     1.355455     1.347812     1.340169     1.332526
      1.324883     1.317240     1.309596     1.301953     1.294310     1.286667     1.279024     1.271381     1.263738     1.256095
      1.248452     1.240808     1.233165     1.225522     1.217879     1.210236     1.202593     1.194950     1.187307     1.179664
      1.172021     1.164377     1.156734     1.149091     1.141448     1.133805     1.126162     1.118519     1.110876     1.103233
      1.095590     1.087946     1.080303     1.072660     1.065017     1.057374     1.049731     1.042088     1.034445     1.026802
      1.019158     1.011515     1.003872     0.996229     0.988586     0.980943     0.973300     0.965657     0.958014     0.950371
      0.942727     0.935084     0.927441     0.919798     0.912155     0.904512     0.896869     0.889226     0.881583     0.873940
      0.866296     0.858653     0.851010     0.843367     0.835724     0.828081     0.820438     0.812795     0.805152     0.797508
      0.789865     0.782222     0.774579     0.766936     0.759293     0.751650     0.744007     0.736364     0.728721     0.721077
      0.713434     0.705791     0.698148     0.690505     0.682862     0.675219     0.667576     0.659933     0.652290     0.644646
      0.637003     0.629360     0.621717     0.614074     0.606431     0.598788     0.591145     0.583502     0.575858     0.568215
      0.560572     0.552929     0.545286     0.537643     0.530000     0.522357     0.514714     0.507071     0.499427     0.491784
      0.484141     0.476498     0.468855     0.461212     0.453569     0.445925     0.438282     0.430639     0.422996     0.415353
      0.407710     0.400067     0.392424     0.384780     0.377137     0.369494     0.361851     0.354208     0.346565     0.338922
      0.331278     0.323635     0.315992     0.308349     0.300706     0.293063     0.285420     0.277777     0.270133     0.262490
      0.254847     0.247204     0.239561     0.231918     0.224275     0.216631     0.208988     0.201345
 NY phased data points follow
   1.18291E+00  6.99304E-03 -5.65751E-01  1.32918E+00  2.95023E-01  7.35398E-01  4.55399E-01  1.49931E+00  6.77051E-01  8.09171E-01
   6.59840E-01  2.60342E+00  1.43553E+00  9.54035E-01  1.30859E+00  4.38762E-01  2.29301E+00 -3.70378E-01  1.19050E-01 -8.29544E-01
   2.09918E+00 -9.17825E-01 -4.59448E-01 -2.58912E-01  4.83383E-01  8.37974E-01 -1.16722E+00 -1.02057E+00 -9.37247E-01  3.47860E-01
   6.22676E-01 -7.07727E-01 -4.24376E-01  4.21182E-01  1.56485E+00 -9.22882E-01 -3.08344E-01  2.77547E-01 -1.48115E+00 -1.58529E+00
  -6.75045E-01  1.15903E+00  2.27692E-01 -3.74677E-01 -2.28355E-01 -4.56736E-01  1.29246E+00  5.13354E-01  9.25197E-01  1.04197E+00
   1.16107E+00 -6.95337E-01 -1.23929E-01 -9.84961E-01 -4.43164E-01  5.89932E-01 -2.23819E-01 -5.29451E-01  3.30495E-01  7.03434E-02
  -6.54839E-01 -1.43758E+00 -1.54142E+00 -1.04725E-01  3.91143E-01  1.57791E-02  3.46389E-01  8.45313E-01  9.28876E-01  5.72665E-01
  -3.33696E-01 -3.77714E-01  1.59777E-01  1.83881E+00  1.20565E+00 -8.45077E-02  2.27008E+00 -5.37620E-01 -2.63885E-01  1.13116E+00
  -5.46903E-01 -4.68853E-01 -3.95777E-01  5.16915E-01 -2.08718E-01  1.89083E-01 -4.35965E-01 -1.08653E-01 -8.83012E-01  1.58274E+00
   2.51978E-01 -1.84789E+00 -1.37350E+00 -2.64709E-01 -5.75628E-01  4.23950E-01 -6.82644E-01 -7.82119E-01  2.04801E-01  1.28043E+00
  -1.72489E+00 -8.81287E-02 -1.84413E-01 -2.95658E-01  5.07820E-01 -8.35296E-01 -1.26841E+00 -1.43296E+00 -3.13480E-01 -8.92842E-02
  -1.39009E+00  1.07914E-01 -1.67533E+00 -2.72617E+00 -1.32450E+00  3.05480E-01 -2.10495E-01  9.57491E-01  1.25218E-01 -1.54422E+00
   4.04002E-02 -3.03623E-01  9.70379E-01 -1.51921E+00 -1.49990E+00  1.34348E+00 -2.94531E-01 -2.52510E-01  1.28403E-01  2.66874E-01
   1.18951E+00 -5.34645E-01 -1.19913E+00 -1.36333E+00 -2.06569E-01  6.60314E-01 -1.19436E+00  6.47440E-01  1.16940E+00 -4.14818E-01
  -8.74799E-01  9.09343E-01 -4.01364E-01  8.20781E-02  9.84272E-01 -1.20598E+00 -7.35885E-01 -2.33867E+00 -2.23879E-01  1.18521E+00
   2.03973E+00  3.57256E-02  1.19070E-01  1.15087E-01  5.82140E-01  7.42624E-01 -1.16317E+00  9.35996E-01  1.51729E+00 -1.60961E+00
  -8.56168E-01 -1.95617E+00 -1.39092E+00 -1.29425E+00 -7.07522E-01  9.97553E-02  3.51741E-01  3.06710E-01  1.22273E-01 -4.69031E-01
  -8.42358E-01  1.29702E-01 -1.30676E+00  1.02267E+00 -4.61784E-01  8.42237E-01  1.31286E+00  3.96576E-01 -4.42045E-01  1.72365E+00
  -1.15403E+00 -9.49751E-01 -1.80471E+00  1.56255E-01 -5.47657E-02 -9.46603E-01  6.76670E-01  6.93795E-01 -9.56737E-01  7.22320E-01
  -3.34125E-02 -4.90274E-01  1.18239E-01 -4.05181E-01 -2.57097E-01 -1.46489E-01  1.66222E-01 -4.71105E-01 -1.21272E+00 -3.99391E-01
   1.54478E-01 -1.86587E-01  9.80840E-01 -7.29428E-01 -8.26320E-01  8.24250E-01  1.36089E-01 -6.67835E-01 -3.85587E-01 -1.25125E+00
  -1.42768E+00 -9.07356E-01  1.04951E+00 -1.25908E+00  1.61723E+00 -1.33834E-01  5.34412E-01  6.05425E-01  4.12171E-01  2.46999E-01
  -7.36238E-01 -7.04945E-01 -6.18093E-01 -5.33613E-01 -5.15558E-01  8.24740E-01 -1.02305E+00  5.65431E-02 -9.41385E-01  4.27401E-01
   5.46966E-01 -1.76789E+00 -7.65947E-01 -1.50799E+00  1.11340E-01 -7.87771E-02 -5.21674E-03  3.68133E-01 -1.16737E+00  1.63737E+00
   5.90608E-01 -1.43457E-01 -1.41535E+00 -1.92708E+00 -5.74079E-01  2.54936E-01  1.24511E+00  6.34617E-01  2.65852E-01  4.70600E-01
  -7.11315E-01 -9.63771E-01  6.15083E-01 -2.58715E+00 -1.96933E+00 -7.58583E-01 -1.40500E+00  4.33571E-01  7.36121E-01  2.20890E+00
   2.92932E+00  3.30622E+00  3.54846E+00  1.10435E+00 -7.85947E-01 -8.74278E-01 -9.20613E-01  1.37193E+00  4.35061E-02  6.73874E-01
  -7.97301E-01  1.13890E+00  7.13136E-01  1.43736E+00  6.11978E-01  1.38890E+00  1.08423E+00  1.90684E+00  2.70969E+00  2.03902E+00
   1.11635E+00  1.81656E+00  2.54420E+00  1.89803E+00  2.86004E+00  2.43571E+00  2.38376E+00  2.23406E+00  3.17576E+00  3.66390E+00
   3.84906E+00  2.51773E+00  3.86781E+00  3.85318E+00  3.78973E+00  5.54984E+00  4.54870E+00  5.51802E+00  4.17231E+00  2.83205E+00
   6.45412E+00  5.21964E+00  4.22967E+00  6.74260E+00  6.18118E+00  5.94994E+00  6.59844E+00  7.27211E+00  7.05891E+00  8.30478E+00
   1.10007E+01  1.06734E+01  1.03659E+01  1.28062E+01  1.37347E+01  1.52397E+01  1.44971E+01  1.76268E+01  1.85508E+01  1.90307E+01
   2.07852E+01  2.16658E+01  2.42222E+01  2.54988E+01  2.59469E+01  2.72870E+01  2.70315E+01  2.50720E+01  2.25209E+01  2.31373E+01
   2.22888E+01  2.18681E+01  1.76856E+01  1.65464E+01  1.60231E+01  1.47187E+01  1.46205E+01  1.37311E+01  1.18157E+01  9.95355E+00
   9.94324E+00  8.41241E+00  8.50686E+00  1.01214E+01  7.50994E+00  7.70681E+00  9.45478E+00  8.50946E+00  8.39275E+00  9.46781E+00
   8.34597E+00  1.06206E+01  1.04319E+01  1.20277E+01  1.18786E+01  1.25471E+01  1.52685E+01  1.34113E+01  1.52576E+01  1.71253E+01
   1.71074E+01  1.86042E+01  1.86483E+01  2.15144E+01  2.31328E+01  2.35512E+01  2.53194E+01  2.29588E+01  2.46591E+01  2.61912E+01
   2.64081E+01  2.46135E+01  2.45037E+01  2.40059E+01  2.70086E+01  2.71805E+01  2.60401E+01  2.70891E+01  2.55421E+01  2.64550E+01
   2.42661E+01  2.44556E+01  2.42422E+01  2.30419E+01  2.40616E+01  2.15016E+01  2.15908E+01  2.18739E+01  2.14636E+01  2.06287E+01
   2.01285E+01  1.88426E+01  1.83137E+01  1.84344E+01  1.82890E+01  1.82956E+01  1.64421E+01  1.64642E+01  1.65810E+01  1.45977E+01
   1.35739E+01  1.39021E+01  1.40140E+01  1.34834E+01  1.35512E+01  1.12495E+01  1.15263E+01  1.11544E+01  1.14272E+01  1.02078E+01
   1.03824E+01  1.03055E+01  8.46388E+00  9.30997E+00  9.47225E+00  8.05229E+00  8.19127E+00  7.06101E+00  7.82467E+00  6.40552E+00
   6.98995E+00  7.50619E+00  7.23969E+00  5.98438E+00  3.91323E+00  6.57946E+00  2.38189E+00  3.14066E+00  4.78852E+00  5.86263E+00
   2.85143E+00  3.94244E+00  4.22579E+00  2.59704E+00  2.81799E+00  2.95622E+00  2.86318E+00  3.56059E+00  1.86056E+00 -4.14018E-01
   3.00396E+00 -3.80619E-01  1.25468E+00  1.47579E+00  2.92061E-01 -4.21723E-01  1.79275E+00  8.48285E-01  2.18211E-01  1.65830E-01
   2.57650E-01 -2.22044E-01 -9.58970E-01  8.23549E-01 -3.13897E-01 -1.26662E-01  8.53397E-02  8.01984E-01  1.06544E-01 -8.62915E-01
  -1.69678E-01 -2.07159E+00 -9.93269E-01  2.03057E-01  2.50605E-01 -6.39493E-01 -1.35503E+00 -9.33149E-02 -9.49277E-01  8.09294E-02
  -1.48470E+00 -1.73064E+00 -1.19523E+00 -2.75319E+00 -5.63447E-01 -2.24654E+00 -2.83798E+00 -9.23989E-01 -1.85518E+00 -1.93129E+00
  -1.33867E+00 -1.99715E+00 -1.95915E+00 -2.16943E+00 -3.57242E-01 -2.36807E+00 -8.69258E-01 -2.06611E+00 -2.16330E+00 -1.81594E+00
  -1.49981E+00 -2.36814E+00 -3.30595E+00 -2.83482E+00 -1.36503E+00 -2.04554E+00 -1.35603E+00 -1.51089E+00
 NY points of the fit to the data follow
   4.44128E-01  3.89797E-01  3.43929E-01  3.16092E-01  3.16040E-01  3.43626E-01  3.95250E-01  4.63285E-01  5.33917E-01  5.94108E-01
   6.31635E-01  6.37039E-01  6.08622E-01  5.52277E-01  4.78506E-01  3.98429E-01  3.21316E-01  2.61298E-01  2.36379E-01  2.55519E-01
   3.11430E-01  3.81494E-01  4.40373E-01  4.61779E-01  4.24465E-01  3.25724E-01  1.91697E-01  6.31214E-02 -2.47897E-02 -5.15331E-02
  -1.24153E-02  7.74624E-02  1.89598E-01  2.91409E-01  3.60047E-01  3.89464E-01  3.85735E-01  3.53748E-01  2.96008E-01  2.23522E-01
   1.57957E-01  1.19195E-01  1.17726E-01  1.56530E-01  2.31636E-01  3.28935E-01  4.19814E-01  4.78830E-01  4.93575E-01  4.64549E-01
   4.01222E-01  3.19028E-01  2.33770E-01  1.61131E-01  1.10619E-01  8.34112E-02  7.64485E-02  8.69644E-02  1.12331E-01  1.44095E-01
   1.67531E-01  1.73222E-01  1.61625E-01  1.37597E-01  1.09052E-01  8.43369E-02  6.86266E-02  6.29184E-02  6.52454E-02  7.29624E-02
   8.47411E-02  9.83025E-02  1.09900E-01  1.16503E-01  1.15596E-01  1.07036E-01  9.21489E-02  7.32354E-02  5.47443E-02  3.95837E-02
   2.74259E-02  1.45948E-02 -2.57987E-03 -2.60613E-02 -5.78119E-02 -9.70940E-02 -1.39314E-01 -1.78557E-01 -2.09098E-01 -2.26244E-01
  -2.28884E-01 -2.19544E-01 -2.03315E-01 -1.86080E-01 -1.72698E-01 -1.66025E-01 -1.67198E-01 -1.76361E-01 -1.93399E-01 -2.16167E-01
  -2.40672E-01 -2.62643E-01 -2.79385E-01 -2.89877E-01 -2.94404E-01 -2.93829E-01 -2.89444E-01 -2.82307E-01 -2.74160E-01 -2.66806E-01
  -2.60736E-01 -2.56174E-01 -2.53215E-01 -2.52162E-01 -2.53280E-01 -2.56381E-01 -2.61168E-01 -2.70438E-01 -2.91975E-01 -3.14168E-01
  -3.13075E-01 -2.72042E-01 -1.86769E-01 -6.35876E-02  8.22261E-02  2.27209E-01  3.44699E-01  4.14050E-01  4.27278E-01  3.89428E-01
   3.14669E-01  2.20734E-01  1.23558E-01  3.28294E-02 -4.94800E-02 -1.24347E-01 -1.88947E-01 -2.34332E-01 -2.52476E-01 -2.55118E-01
  -2.53503E-01 -2.49977E-01 -2.45234E-01 -2.39823E-01 -2.34254E-01 -2.28977E-01 -2.24279E-01 -2.20246E-01 -2.16956E-01 -2.14298E-01
  -2.11984E-01 -2.09662E-01 -2.06759E-01 -2.04122E-01 -2.03583E-01 -2.06698E-01 -2.14406E-01 -2.25454E-01 -2.37769E-01 -2.49563E-01
  -2.59358E-01 -2.66432E-01 -2.71154E-01 -2.75014E-01 -2.80025E-01 -2.87777E-01 -2.98842E-01 -3.12444E-01 -3.27864E-01 -3.45676E-01
  -3.65903E-01 -3.87993E-01 -4.10715E-01 -4.32341E-01 -4.51674E-01 -4.67648E-01 -4.79669E-01 -4.88710E-01 -4.95425E-01 -5.01278E-01
  -5.07935E-01 -5.15337E-01 -5.22300E-01 -5.27320E-01 -5.29088E-01 -5.26912E-01 -5.21345E-01 -5.13614E-01 -5.04538E-01 -4.94046E-01
  -4.83753E-01 -4.75918E-01 -4.72647E-01 -4.73719E-01 -4.77220E-01 -4.81211E-01 -4.83554E-01 -4.81637E-01 -4.70780E-01 -4.47507E-01
  -4.12367E-01 -3.68222E-01 -3.26304E-01 -3.01969E-01 -3.06240E-01 -3.44736E-01 -4.15391E-01 -5.09888E-01 -6.00772E-01 -6.55718E-01
  -6.54021E-01 -5.91044E-01 -4.76015E-01 -3.29017E-01 -1.84834E-01 -8.78359E-02 -7.00283E-02 -1.35455E-01 -2.67115E-01 -4.32835E-01
  -5.95900E-01 -7.23626E-01 -7.89516E-01 -7.87671E-01 -7.31119E-01 -6.37284E-01 -5.23414E-01 -4.04540E-01 -3.02702E-01 -2.28045E-01
  -1.78155E-01 -1.48128E-01 -1.36652E-01 -1.43008E-01 -1.56138E-01 -1.65649E-01 -1.70755E-01 -1.75540E-01 -1.80442E-01 -1.86556E-01
  -1.93217E-01 -1.96924E-01 -1.94912E-01 -1.86741E-01 -1.74973E-01 -1.63330E-01 -1.54580E-01 -1.48928E-01 -1.42492E-01 -1.29826E-01
  -1.11671E-01 -1.08077E-01 -1.21876E-01 -1.08975E-01 -2.81568E-02  1.42433E-01  4.00857E-01  7.25051E-01  1.07278E+00  1.38788E+00
   1.61491E+00  1.71979E+00  1.69992E+00  1.57990E+00  1.39844E+00  1.19418E+00  9.96149E-01  8.16698E-01  6.56187E-01  5.17950E-01
   4.21511E-01  3.95144E-01  4.32700E-01  4.99054E-01  5.82891E-01  6.80736E-01  7.89476E-01  9.08282E-01  1.03888E+00  1.18250E+00
   1.34023E+00  1.51261E+00  1.69950E+00  1.90037E+00  2.11474E+00  2.34125E+00  2.57707E+00  2.81885E+00  3.06304E+00  3.30584E+00
   3.54326E+00  3.77131E+00  3.98647E+00  4.18609E+00  4.36819E+00  4.53188E+00  4.67770E+00  4.80785E+00  4.92626E+00  5.03887E+00
   5.15365E+00  5.28059E+00  5.43141E+00  5.61936E+00  5.85876E+00  6.16445E+00  6.55111E+00  7.03241E+00  7.62022E+00  8.32363E+00
   9.14806E+00  1.00944E+01  1.11585E+01  1.23304E+01  1.35942E+01  1.49281E+01  1.63044E+01  1.76893E+01  1.90425E+01  2.03460E+01
   2.16035E+01  2.27868E+01  2.38368E+01  2.46834E+01  2.52590E+01  2.55064E+01  2.53719E+01  2.48208E+01  2.39000E+01  2.27148E+01
   2.13869E+01  2.00247E+01  1.87095E+01  1.74866E+01  1.63608E+01  1.53101E+01  1.43133E+01  1.33641E+01  1.24667E+01  1.16123E+01
   1.08007E+01  1.00690E+01  9.44807E+00  8.94860E+00  8.56952E+00  8.31385E+00  8.20473E+00  8.26332E+00  8.46871E+00  8.80094E+00
   9.24677E+00  9.79553E+00  1.04380E+01  1.11655E+01  1.19702E+01  1.28439E+01  1.37781E+01  1.47634E+01  1.57894E+01  1.68437E+01
   1.79123E+01  1.89792E+01  2.00269E+01  2.10367E+01  2.19896E+01  2.28672E+01  2.36531E+01  2.43332E+01  2.48977E+01  2.53410E+01
   2.56623E+01  2.58660E+01  2.59605E+01  2.59580E+01  2.58733E+01  2.57223E+01  2.55209E+01  2.52839E+01  2.50232E+01  2.47481E+01
   2.44640E+01  2.41727E+01  2.38730E+01  2.35608E+01  2.32303E+01  2.28749E+01  2.24881E+01  2.20645E+01  2.16003E+01  2.10941E+01
   2.05470E+01  1.99624E+01  1.93462E+01  1.87059E+01  1.80505E+01  1.73893E+01  1.67321E+01  1.60878E+01  1.54643E+01  1.48681E+01
   1.43041E+01  1.37751E+01  1.32823E+01  1.28252E+01  1.24016E+01  1.20083E+01  1.16410E+01  1.12948E+01  1.09647E+01  1.06456E+01
   1.03325E+01  1.00211E+01  9.70773E+00  9.38939E+00  9.06397E+00  8.73014E+00  8.38740E+00  8.03597E+00  7.67673E+00  7.31107E+00
   6.94080E+00  6.56802E+00  6.19499E+00  5.82403E+00  5.45742E+00  5.09729E+00  4.74560E+00  4.40405E+00  4.07409E+00  3.75687E+00
   3.45325E+00  3.16384E+00  2.88897E+00  2.62874E+00  2.38308E+00  2.15170E+00  1.93422E+00  1.73013E+00  1.53885E+00  1.35973E+00
   1.19211E+00  1.03528E+00  8.88576E-01  7.51309E-01  6.22828E-01  5.02504E-01  3.89741E-01  2.83978E-01  1.84690E-01  9.13863E-02
   3.61532E-03 -7.90445E-02 -1.56979E-01 -2.30544E-01 -3.00067E-01 -3.65845E-01 -4.28156E-01 -4.87251E-01 -5.43362E-01 -5.96699E-01
  -6.47458E-01 -6.95815E-01 -7.41935E-01 -7.85969E-01 -8.28053E-01 -8.68316E-01 -9.06874E-01 -9.43836E-01 -9.79300E-01 -1.01336E+00
  -1.04610E+00 -1.07760E+00 -1.10793E+00 -1.13716E+00 -1.16535E+00 -1.19257E+00 -1.21885E+00 -1.24427E+00 -1.26886E+00 -1.29266E+00
  -1.31572E+00 -1.33808E+00 -1.35977E+00 -1.38083E+00 -1.40128E+00 -1.42116E+00 -1.44050E+00 -1.45932E+00 -1.47764E+00 -1.49549E+00
  -1.51289E+00 -1.52986E+00 -1.54642E+00 -1.56259E+00 -1.57838E+00 -1.59382E+00 -1.60891E+00 -1.62367E+00
 NY background values follow
     1.667E-01    1.621E-01    1.575E-01    1.529E-01    1.483E-01    1.437E-01    1.391E-01    1.345E-01    1.300E-01    1.254E-01
     1.208E-01    1.162E-01    1.116E-01    1.070E-01    1.024E-01    9.777E-02    9.318E-02    8.858E-02    8.398E-02    7.939E-02
     7.479E-02    7.019E-02    6.559E-02    6.100E-02    5.640E-02    5.180E-02    4.721E-02    4.261E-02    3.801E-02    3.342E-02
     2.882E-02    2.422E-02    1.963E-02    1.503E-02    1.043E-02    5.835E-03    1.239E-03   -3.358E-03   -7.955E-03   -1.255E-02
    -1.715E-02   -2.175E-02   -2.634E-02   -3.094E-02   -3.554E-02   -4.013E-02   -4.473E-02   -4.933E-02   -5.392E-02   -5.852E-02
    -6.312E-02   -6.771E-02   -7.231E-02   -7.691E-02   -8.150E-02   -8.610E-02   -9.070E-02   -9.529E-02   -9.989E-02   -1.045E-01
    -1.091E-01   -1.137E-01   -1.183E-01   -1.229E-01   -1.275E-01   -1.321E-01   -1.367E-01   -1.413E-01   -1.459E-01   -1.505E-01
    -1.550E-01   -1.596E-01   -1.642E-01   -1.688E-01   -1.734E-01   -1.780E-01   -1.826E-01   -1.872E-01   -1.918E-01   -1.964E-01
    -2.010E-01   -2.056E-01   -2.102E-01   -2.148E-01   -2.194E-01   -2.240E-01   -2.286E-01   -2.332E-01   -2.378E-01   -2.424E-01
    -2.470E-01   -2.516E-01   -2.562E-01   -2.608E-01   -2.654E-01   -2.700E-01   -2.746E-01   -2.792E-01   -2.838E-01   -2.884E-01
    -2.929E-01   -2.975E-01   -3.021E-01   -3.067E-01   -3.113E-01   -3.159E-01   -3.205E-01   -3.251E-01   -3.297E-01   -3.343E-01
    -3.389E-01   -3.435E-01   -3.481E-01   -3.527E-01   -3.573E-01   -3.619E-01   -3.665E-01   -3.711E-01   -3.757E-01   -3.803E-01
    -3.849E-01   -3.895E-01   -3.941E-01   -3.987E-01   -4.033E-01   -4.079E-01   -4.125E-01   -4.171E-01   -4.217E-01   -4.263E-01
    -4.309E-01   -4.354E-01   -4.400E-01   -4.446E-01   -4.492E-01   -4.538E-01   -4.584E-01   -4.630E-01   -4.676E-01   -4.722E-01
    -4.768E-01   -4.814E-01   -4.860E-01   -4.906E-01   -4.952E-01   -4.998E-01   -5.044E-01   -5.090E-01   -5.136E-01   -5.182E-01
    -5.228E-01   -5.274E-01   -5.320E-01   -5.366E-01   -5.412E-01   -5.458E-01   -5.504E-01   -5.550E-01   -5.596E-01   -5.642E-01
    -5.688E-01   -5.734E-01   -5.780E-01   -5.826E-01   -5.872E-01   -5.918E-01   -5.964E-01   -6.010E-01   -6.056E-01   -6.102E-01
    -6.148E-01   -6.194E-01   -6.240E-01   -6.285E-01   -6.331E-01   -6.377E-01   -6.423E-01   -6.469E-01   -6.515E-01   -6.561E-01
    -6.607E-01   -6.653E-01   -6.699E-01   -6.745E-01   -6.791E-01   -6.837E-01   -6.883E-01   -6.929E-01   -6.975E-01   -7.021E-01
    -7.067E-01   -7.113E-01   -7.159E-01   -7.205E-01   -7.251E-01   -7.297E-01   -7.343E-01   -7.389E-01   -7.435E-01   -7.481E-01
    -7.527E-01   -7.573E-01   -7.619E-01   -7.665E-01   -7.711E-01   -7.757E-01   -7.803E-01   -7.849E-01   -7.895E-01   -7.941E-01
    -7.987E-01   -8.033E-01   -8.079E-01   -8.125E-01   -8.171E-01   -8.217E-01   -8.263E-01   -8.309E-01   -8.355E-01   -8.401E-01
    -8.447E-01   -8.493E-01   -8.539E-01   -8.585E-01   -8.631E-01   -8.677E-01   -8.723E-01   -8.769E-01   -8.815E-01   -8.861E-01
    -8.907E-01   -8.953E-01   -8.999E-01   -9.045E-01   -9.091E-01   -9.138E-01   -9.184E-01   -9.230E-01   -9.276E-01   -9.322E-01
    -9.368E-01   -9.414E-01   -9.460E-01   -9.506E-01   -9.552E-01   -9.598E-01   -9.644E-01   -9.690E-01   -9.736E-01   -9.782E-01
    -9.828E-01   -9.874E-01   -9.920E-01   -9.966E-01   -1.001E+00   -1.006E+00   -1.010E+00   -1.015E+00   -1.020E+00   -1.024E+00
    -1.029E+00   -1.033E+00   -1.038E+00   -1.043E+00   -1.047E+00   -1.052E+00   -1.056E+00   -1.061E+00   -1.066E+00   -1.070E+00
    -1.075E+00   -1.079E+00   -1.084E+00   -1.089E+00   -1.093E+00   -1.098E+00   -1.102E+00   -1.107E+00   -1.112E+00   -1.116E+00
    -1.121E+00   -1.125E+00   -1.130E+00   -1.135E+00   -1.139E+00   -1.144E+00   -1.148E+00   -1.153E+00   -1.158E+00   -1.162E+00
    -1.167E+00   -1.172E+00   -1.176E+00   -1.181E+00   -1.185E+00   -1.190E+00   -1.195E+00   -1.199E+00   -1.204E+00   -1.208E+00
    -1.213E+00   -1.218E+00   -1.222E+00   -1.227E+00   -1.231E+00   -1.236E+00   -1.241E+00   -1.245E+00   -1.250E+00   -1.254E+00
    -1.259E+00   -1.264E+00   -1.268E+00   -1.273E+00   -1.277E+00   -1.282E+00   -1.287E+00   -1.291E+00   -1.296E+00   -1.300E+00
    -1.305E+00   -1.310E+00   -1.314E+00   -1.319E+00   -1.323E+00   -1.328E+00   -1.333E+00   -1.337E+00   -1.342E+00   -1.346E+00
    -1.351E+00   -1.356E+00   -1.360E+00   -1.365E+00   -1.369E+00   -1.374E+00   -1.379E+00   -1.383E+00   -1.388E+00   -1.393E+00
    -1.397E+00   -1.402E+00   -1.406E+00   -1.411E+00   -1.416E+00   -1.420E+00   -1.425E+00   -1.429E+00   -1.434E+00   -1.439E+00
    -1.443E+00   -1.448E+00   -1.452E+00   -1.457E+00   -1.462E+00   -1.466E+00   -1.471E+00   -1.475E+00   -1.480E+00   -1.485E+00
    -1.489E+00   -1.494E+00   -1.498E+00   -1.503E+00   -1.508E+00   -1.512E+00   -1.517E+00   -1.521E+00   -1.526E+00   -1.531E+00
    -1.535E+00   -1.540E+00   -1.545E+00   -1.549E+00   -1.554E+00   -1.558E+00   -1.563E+00   -1.568E+00   -1.572E+00   -1.577E+00
    -1.581E+00   -1.586E+00   -1.591E+00   -1.595E+00   -1.600E+00   -1.604E+00   -1.609E+00   -1.614E+00   -1.618E+00   -1.623E+00
    -1.627E+00   -1.632E+00   -1.637E+00   -1.641E+00   -1.646E+00   -1.650E+00   -1.655E+00   -1.660E+00   -1.664E+00   -1.669E+00
    -1.674E+00   -1.678E+00   -1.683E+00   -1.687E+00   -1.692E+00   -1.697E+00   -1.701E+00   -1.706E+00   -1.710E+00   -1.715E+00
    -1.720E+00   -1.724E+00   -1.729E+00   -1.733E+00   -1.738E+00   -1.743E+00   -1.747E+00   -1.752E+00   -1.756E+00   -1.761E+00
    -1.766E+00   -1.770E+00   -1.775E+00   -1.779E+00   -1.784E+00   -1.789E+00   -1.793E+00   -1.798E+00   -1.803E+00   -1.807E+00
    -1.812E+00   -1.816E+00   -1.821E+00   -1.826E+00   -1.830E+00   -1.835E+00   -1.839E+00   -1.844E+00   -1.849E+00   -1.853E+00
    -1.858E+00   -1.862E+00   -1.867E+00   -1.872E+00   -1.876E+00   -1.881E+00   -1.885E+00   -1.890E+00   -1.895E+00   -1.899E+00
    -1.904E+00   -1.908E+00   -1.913E+00   -1.918E+00   -1.922E+00   -1.927E+00   -1.932E+00   -1.936E+00   -1.941E+00   -1.945E+00
    -1.950E+00   -1.955E+00   -1.959E+00   -1.964E+00   -1.968E+00   -1.973E+00   -1.978E+00   -1.982E+00   -1.987E+00   -1.991E+00
    -1.996E+00   -2.001E+00   -2.005E+00   -2.010E+00   -2.014E+00   -2.019E+00   -2.024E+00   -2.028E+00   -2.033E+00   -2.038E+00
    -2.042E+00   -2.047E+00   -2.051E+00   -2.056E+00   -2.061E+00   -2.065E+00   -2.070E+00   -2.074E+00   -2.079E+00   -2.084E+00
    -2.088E+00   -2.093E+00   -2.097E+00   -2.102E+00   -2.107E+00   -2.111E+00   -2.116E+00   -2.120E+00
 Ala      Conc. = 9.92E+01
