 LCModel (Version 6.3-1L) Copyright: S.W. Provencher.          Ref.: Magn. Reson. Med. 30:672-679 (1993).                
 Slice#1 Row#4 Col#9  K_02_press_1_raw_act
 36 lines in following concentration table = NCONC+1
    Conc.  %SD /Cr+PCr  Metabolite                                         
    0.000 999%   0.000 Ala                                                 
    0.000 999%   0.000 Asp                                                 
  497.779  52%   0.370 Cr                                                  
  849.321  32%   0.630 PCr                                                 
    0.000 999%   0.000 GABA                                                
    0.000 999%   0.000 Glc                                                 
  217.702 118%   0.162 Gln                                                 
 1.18E+03  24%   0.876 Glu                                                 
  558.144   5%   0.414 GPC                                                 
    0.000 999%   0.000 PCh                                                 
  296.320  28%   0.220 GSH                                                 
 1.33E+03  22%   0.985 Ins                                                 
  507.015  29%   0.376 Lac                                                 
 1.84E+03   7%   1.370 NAA                                                 
  402.118  32%   0.299 NAAG                                                
   28.784 105% 2.1E-02 Scyllo                                              
    0.000 999%   0.000 Tau                                                 
  443.277  29%   0.329 -CrCH2                                              
  558.144   5%   0.414 GPC+PCh                                             
 2.25E+03   5%   1.668 NAA+NAAG                                            
 1.35E+03   5%   1.000 Cr+PCr                                              
 1.40E+03  30%   1.038 Glu+Gln                                             
    0.000 999%   0.000 Lip13a                                              
    0.000 999%   0.000 Lip13b                                              
    0.000 999%   0.000 Lip09                                               
 3.82E+03   9%   2.838 MM09                                                
    7.481 824% 5.6E-03 Lip20                                               
 2.52E+03  19%   1.869 MM20                                                
 1.36E+03  23%   1.007 MM12                                                
 2.89E+03  14%   2.144 MM14                                                
  128.041 231% 9.5E-02 MM17                                                
    0.000 999%   0.000 Lip13a+Lip13b                                       
 4.24E+03  12%   3.151 MM14+Lip13a+Lip13b+MM12                             
 3.82E+03   9%   2.838 MM09+Lip09                                          
 2.52E+03  18%   1.874 MM20+Lip20                                          
   6 lines in following misc. output table
  FWHM = 0.046 ppm    S/N =  10                                            
  Data shift = 0.015 ppm                                                   
  Ph: -19 deg      -7.1 deg/ppm                                            
  alphaB,S = 9.3E-01,   9.6E+01                                            
   14 spline knots.   Ns = 8(1)                                            
  ( 9) 4 infls.   ( 9) 1 extrs.                                            
  498 points on ppm-axis = NY
      4.000000     3.992357     3.984714     3.977070     3.969427     3.961784     3.954141     3.946497     3.938854     3.931211
      3.923568     3.915925     3.908281     3.900638     3.892995     3.885352     3.877708     3.870065     3.862422     3.854779
      3.847136     3.839492     3.831849     3.824206     3.816563     3.808919     3.801276     3.793633     3.785990     3.778347
      3.770703     3.763060     3.755417     3.747774     3.740130     3.732487     3.724844     3.717201     3.709558     3.701914
      3.694271     3.686628     3.678985     3.671341     3.663698     3.656055     3.648412     3.640769     3.633125     3.625482
      3.617839     3.610196     3.602552     3.594909     3.587266     3.579623     3.571980     3.564336     3.556693     3.549050
      3.541407     3.533763     3.526120     3.518477     3.510834     3.503191     3.495547     3.487904     3.480261     3.472618
      3.464974     3.457331     3.449688     3.442045     3.434402     3.426758     3.419115     3.411472     3.403829     3.396185
      3.388542     3.380899     3.373256     3.365613     3.357969     3.350326     3.342683     3.335040     3.327396     3.319753
      3.312110     3.304467     3.296824     3.289180     3.281537     3.273894     3.266251     3.258607     3.250964     3.243321
      3.235678     3.228034     3.220391     3.212748     3.205105     3.197462     3.189818     3.182175     3.174532     3.166889
      3.159245     3.151602     3.143959     3.136316     3.128673     3.121029     3.113386     3.105743     3.098100     3.090456
      3.082813     3.075170     3.067527     3.059884     3.052240     3.044597     3.036954     3.029311     3.021667     3.014024
      3.006381     2.998738     2.991095     2.983451     2.975808     2.968165     2.960522     2.952878     2.945235     2.937592
      2.929949     2.922306     2.914662     2.907019     2.899376     2.891733     2.884089     2.876446     2.868803     2.861160
      2.853517     2.845873     2.838230     2.830587     2.822944     2.815300     2.807657     2.800014     2.792371     2.784728
      2.777084     2.769441     2.761798     2.754155     2.746511     2.738868     2.731225     2.723582     2.715939     2.708295
      2.700652     2.693009     2.685366     2.677722     2.670079     2.662436     2.654793     2.647150     2.639506     2.631863
      2.624220     2.616577     2.608933     2.601290     2.593647     2.586004     2.578361     2.570717     2.563074     2.555431
      2.547788     2.540144     2.532501     2.524858     2.517215     2.509572     2.501928     2.494285     2.486642     2.478999
      2.471355     2.463712     2.456069     2.448426     2.440783     2.433139     2.425496     2.417853     2.410210     2.402566
      2.394923     2.387280     2.379637     2.371994     2.364350     2.356707     2.349064     2.341421     2.333777     2.326134
      2.318491     2.310848     2.303205     2.295561     2.287918     2.280275     2.272632     2.264988     2.257345     2.249702
      2.242059     2.234416     2.226772     2.219129     2.211486     2.203843     2.196199     2.188556     2.180913     2.173270
      2.165627     2.157983     2.150340     2.142697     2.135054     2.127410     2.119767     2.112124     2.104481     2.096838
      2.089194     2.081551     2.073908     2.066265     2.058621     2.050978     2.043335     2.035692     2.028049     2.020405
      2.012762     2.005119     1.997476     1.989833     1.982190     1.974546     1.966903     1.959260     1.951617     1.943974
      1.936331     1.928688     1.921045     1.913402     1.905759     1.898115     1.890472     1.882829     1.875186     1.867543
      1.859900     1.852257     1.844614     1.836971     1.829327     1.821684     1.814041     1.806398     1.798755     1.791112
      1.783469     1.775826     1.768183     1.760540     1.752896     1.745253     1.737610     1.729967     1.722324     1.714681
      1.707038     1.699395     1.691752     1.684108     1.676465     1.668822     1.661179     1.653536     1.645893     1.638250
      1.630607     1.622964     1.615321     1.607677     1.600034     1.592391     1.584748     1.577105     1.569462     1.561819
      1.554176     1.546533     1.538890     1.531246     1.523603     1.515960     1.508317     1.500674     1.493031     1.485388
      1.477745     1.470102     1.462458     1.454815     1.447172     1.439529     1.431886     1.424243     1.416600     1.408957
      1.401314     1.393671     1.386027     1.378384     1.370741     1.363098     1.355455     1.347812     1.340169     1.332526
      1.324883     1.317240     1.309596     1.301953     1.294310     1.286667     1.279024     1.271381     1.263738     1.256095
      1.248452     1.240808     1.233165     1.225522     1.217879     1.210236     1.202593     1.194950     1.187307     1.179664
      1.172021     1.164377     1.156734     1.149091     1.141448     1.133805     1.126162     1.118519     1.110876     1.103233
      1.095590     1.087946     1.080303     1.072660     1.065017     1.057374     1.049731     1.042088     1.034445     1.026802
      1.019158     1.011515     1.003872     0.996229     0.988586     0.980943     0.973300     0.965657     0.958014     0.950371
      0.942727     0.935084     0.927441     0.919798     0.912155     0.904512     0.896869     0.889226     0.881583     0.873940
      0.866296     0.858653     0.851010     0.843367     0.835724     0.828081     0.820438     0.812795     0.805152     0.797508
      0.789865     0.782222     0.774579     0.766936     0.759293     0.751650     0.744007     0.736364     0.728721     0.721077
      0.713434     0.705791     0.698148     0.690505     0.682862     0.675219     0.667576     0.659933     0.652290     0.644646
      0.637003     0.629360     0.621717     0.614074     0.606431     0.598788     0.591145     0.583502     0.575858     0.568215
      0.560572     0.552929     0.545286     0.537643     0.530000     0.522357     0.514714     0.507071     0.499427     0.491784
      0.484141     0.476498     0.468855     0.461212     0.453569     0.445925     0.438282     0.430639     0.422996     0.415353
      0.407710     0.400067     0.392424     0.384780     0.377137     0.369494     0.361851     0.354208     0.346565     0.338922
      0.331278     0.323635     0.315992     0.308349     0.300706     0.293063     0.285420     0.277777     0.270133     0.262490
      0.254847     0.247204     0.239561     0.231918     0.224275     0.216631     0.208988     0.201345
 NY phased data points follow
  -5.68164E+00 -1.21798E+00  2.00400E+00 -3.49574E-01  3.97838E+00  2.21762E+00  9.68470E+00  1.17086E+01  1.38881E+01  1.82236E+01
   2.40855E+01  2.20193E+01  1.64083E+01  1.27209E+01  4.70260E+00  3.66525E+00  3.62433E+00  8.90682E+00  8.58376E+00 -1.86427E+00
   4.60330E-01 -5.22153E+00 -2.39567E-01 -1.58090E+00  5.38054E-01  4.40598E+00  5.44520E-01  5.24922E+00  1.69281E+00  3.11603E+00
  -1.53268E+00  6.25024E+00  1.03836E+01  6.47806E+00  5.59316E+00  6.66460E+00  1.73486E+00  7.73777E-01  1.84298E+00  1.70052E-01
   6.89100E+00  4.57409E-01  2.48725E-01  4.47470E+00  1.16374E+01  5.83188E+00  1.80734E+01  1.21060E+01  1.27375E+01  1.17156E+01
   4.26413E+00  9.63876E+00  3.04195E+00  5.53712E+00  6.95401E+00  1.69184E+00  7.09681E+00  3.65554E+00  5.76492E+00 -4.49327E-01
   1.77019E+00 -2.73911E+00 -3.80682E+00  5.12462E-01  1.34652E+00 -2.91497E+00 -2.23697E+00 -1.38795E+00 -3.79381E+00  3.44782E+00
  -3.75311E+00  1.44237E+00 -9.85422E-01 -1.70632E+00 -1.96444E+00 -1.65047E+00  1.32543E+00  2.89212E-02  1.56574E+00 -1.67052E+00
  -2.73301E+00 -5.06732E-01 -4.84964E-01  7.32015E-01 -6.04994E+00 -4.37274E+00 -5.76383E+00 -1.61104E+00 -2.13350E+00  1.85955E+00
  -1.37120E-01  3.43904E+00  3.39042E+00  4.21137E+00  9.78346E+00  6.82094E+00  5.68513E+00  1.18672E+01  1.82971E+01  1.71429E+01
   3.26519E+01  4.07845E+01  4.96214E+01  5.03399E+01  4.39662E+01  3.30866E+01  2.34624E+01  1.45453E+01  1.29983E+01  9.73570E+00
   4.75438E+00  5.32396E+00  3.90686E+00  1.65126E+00  4.84084E+00  3.09509E-01  1.93975E+00  5.93925E+00  6.98130E+00  1.21995E+01
   1.37979E+01  7.38787E+00  1.26090E+01  2.17245E+01  2.86251E+01  3.16651E+01  4.35072E+01  4.47086E+01  4.02489E+01  3.10741E+01
   2.51683E+01  1.76049E+01  1.07610E+01  2.67830E+00  1.19191E+01  6.69830E+00  4.86031E+00  4.89120E+00  5.52755E+00  8.89258E+00
   3.05057E+00  7.02717E+00  3.50688E+00  4.76965E+00 -8.08347E-01  1.92698E+00  4.58497E-01  1.51838E+00  2.60550E+00  4.31776E+00
  -1.91088E+00  3.25748E+00 -9.17198E-01  2.28039E+00  6.60607E-01  5.73054E-01 -3.00379E-01  1.94058E+00  2.51222E+00  1.27263E+00
  -4.27301E+00 -3.64274E+00 -1.33424E+00 -1.11925E+00  3.15853E+00 -4.56607E+00 -1.87715E+00  6.54513E-01 -2.77821E+00 -7.01581E+00
  -7.41084E+00 -7.68538E+00 -1.07385E+01 -8.92765E+00 -1.25124E+01 -1.30470E+01 -1.40550E+01 -1.18994E+01 -1.14945E+01 -7.17616E+00
  -9.30070E+00 -1.05320E+01 -1.38362E+01 -4.47207E+00 -6.26507E+00 -2.79700E+00 -9.33248E+00 -3.24172E+00 -7.52750E+00 -1.61838E+00
   2.22451E+00  2.25741E+00 -7.31149E+00 -1.50067E+00 -1.07672E+01 -6.44797E+00 -5.99885E+00 -3.92816E+00 -6.78239E+00 -3.21776E+00
  -4.50166E+00 -1.71930E+00 -5.14643E-02 -2.09599E+00 -1.68257E-01 -2.64957E+00 -2.80382E+00 -3.90620E+00 -2.06236E+00  1.36183E+00
  -4.82439E+00  3.72910E+00  1.92512E+00  5.18137E+00  4.10389E+00  3.42238E+00  2.90293E+00  6.38554E-01  7.91098E+00 -1.52282E-01
  -5.08156E+00 -7.29385E+00 -7.98215E+00 -8.40410E+00  1.09564E+00  2.51383E+00  7.91696E-01  4.34976E+00  5.57956E+00 -7.30171E-01
   4.38613E+00  6.79369E-01  9.18259E-01  2.02088E+00  4.43394E+00  2.09343E+00  6.22309E+00  1.52779E+00  3.33214E+00 -3.76698E+00
   2.21369E+00 -4.86555E+00 -8.64932E-01 -1.82990E+00 -3.48036E+00  6.77075E+00  4.68448E+00  1.04257E+01  1.16004E+01  1.34460E+01
   8.13822E+00  9.88737E+00  1.95729E+01  3.05365E+01  3.40046E+01  4.01701E+01  3.78695E+01  4.29243E+01  5.93500E+01  7.19770E+01
   7.41540E+01  6.50575E+01  5.04163E+01  4.20663E+01  2.64272E+01  2.58617E+01  1.46137E+01  1.23140E+01  1.13123E+01  8.44040E+00
   3.72895E+00  7.41655E+00  2.00294E+00 -2.06865E+00  6.23399E+00 -1.46052E+00 -5.08784E+00 -2.11802E+00 -5.92026E+00 -8.36291E+00
  -6.09167E+00  6.88989E-01 -6.74233E+00 -5.05719E+00 -8.31521E+00 -5.51404E+00 -5.58997E-01 -3.18257E+00 -4.87275E+00 -3.44079E+00
   3.44200E+00 -2.94630E+00 -4.12938E+00 -1.52031E+00  2.77039E+00 -3.84893E+00 -3.24298E+00 -3.82346E+00  1.64740E+00 -2.42139E+00
   9.26843E-01 -2.10378E+00  1.83048E+00  5.93925E+00  5.45592E+00  5.22249E+00  5.93387E+00  6.53671E+00  2.95072E+00  3.85155E+00
   2.72623E+00  1.37765E+00  1.84947E+00  4.73209E+00  9.46082E-02  7.45451E+00 -6.70431E-02  7.57637E+00  1.11042E+01  1.17465E+01
   1.65817E+01  1.39659E+01  1.51618E+01  1.85029E+01  1.49683E+01  1.84323E+01  2.12261E+01  1.77506E+01  2.34722E+01  1.97556E+01
   2.16189E+01  1.93858E+01  1.50013E+01  1.72517E+01  1.32840E+01  1.40225E+01  1.40128E+01  1.26426E+01  1.87657E+01  9.43464E+00
   1.41961E+01  1.50252E+01  1.50204E+01  1.77889E+01  1.75385E+01  1.22973E+01  8.72428E+00  8.55430E+00  9.72472E-01 -5.28842E-02
   3.09535E+00  1.29857E+00  7.61429E+00  5.32383E+00  1.39912E+01  1.24481E+01  9.78452E+00  1.09030E+01  5.44518E+00  1.12605E+01
   1.09382E+01  5.19803E+00  5.06930E+00  1.02126E+01  1.28536E+01  1.16453E+01  1.43557E+01  1.32061E+01  1.31904E+01  1.07548E+01
   1.53870E+01  1.31525E+01  1.09226E+01  1.22225E+01  1.24317E+01  9.18664E+00  1.18471E+01  8.23577E+00  9.61599E+00  1.02542E+01
   1.75544E+01  1.72668E+01  1.72828E+01  1.48065E+01  1.86547E+01  1.53704E+01  1.48488E+01  1.41338E+01  1.66951E+01  1.63178E+01
   1.88966E+01  1.58285E+01  2.22305E+01  1.81678E+01  2.18071E+01  2.28919E+01  2.19295E+01  2.47114E+01  2.61088E+01  1.87477E+01
   2.32208E+01  2.81673E+01  2.59407E+01  2.54582E+01  2.07670E+01  3.04408E+01  3.12095E+01  2.50542E+01  2.58412E+01  2.81525E+01
   2.37902E+01  2.27347E+01  2.33955E+01  2.15988E+01  1.80283E+01  2.12479E+01  2.40517E+01  2.55577E+01  1.93161E+01  1.70430E+01
   1.80509E+01  1.79264E+01  1.89503E+01  2.13605E+01  2.05369E+01  1.97124E+01  1.57559E+01  2.17998E+01  1.49498E+01  1.22433E+01
   1.59271E+01  1.40516E+01  2.04823E+01  8.40167E+00  1.45098E+01  1.18558E+01  1.52478E+01  1.72486E+01  1.63187E+01  1.81547E+01
   1.34566E+01  1.38470E+01  1.52507E+01  1.01546E+01  1.31812E+01  1.53555E+01  9.46478E+00  1.15096E+01  1.18383E+01  6.90486E+00
   1.01279E+01  6.64599E+00  1.00707E+01  1.08914E+01  1.18612E+01  1.55980E+01  1.35141E+01  1.46141E+01  9.83724E+00  1.14862E+01
   1.45115E+01  1.18787E+01  9.69605E+00  1.11218E+01  7.56642E+00  1.10016E+01  8.79872E+00  9.71725E+00  7.78719E+00  1.09033E+01
   6.56300E+00  1.69054E+01  1.27875E+01  1.30136E+01  1.14923E+01  1.08121E+01  1.26413E+01  1.11260E+01  1.23136E+01  1.22923E+01
   9.79079E+00  1.15952E+01  1.17466E+01  1.05323E+01  6.66050E+00  8.31543E+00  1.18221E+01  1.36351E+01  1.24157E+01  1.43484E+01
   1.51295E+01  1.13658E+01  1.45656E+01  8.80430E+00  6.94434E+00  1.03310E+01  1.35136E+01  1.14406E+01
 NY points of the fit to the data follow
  -7.97489E-01 -7.05457E-01  5.86511E-01  2.46694E+00  4.05812E+00  5.44825E+00  7.62396E+00  1.11717E+01  1.55875E+01  1.93669E+01
   2.08865E+01  1.96390E+01  1.64514E+01  1.26945E+01  9.44528E+00  7.14596E+00  5.74786E+00  4.89676E+00  3.90947E+00  2.65896E+00
   1.51690E+00  7.95290E-01  8.27799E-01  1.12303E+00  1.28667E+00  1.45178E+00  1.94028E+00  3.00312E+00  4.48893E+00  6.08083E+00
   7.29168E+00  7.70200E+00  7.40113E+00  6.50331E+00  5.23121E+00  3.94321E+00  2.85554E+00  2.05995E+00  1.67509E+00  1.95519E+00
   2.82653E+00  3.68689E+00  4.44530E+00  5.51255E+00  7.14791E+00  9.01740E+00  1.02848E+01  1.03268E+01  9.06374E+00  6.91760E+00
   4.65919E+00  2.91276E+00  1.91372E+00  1.62788E+00  1.72496E+00  1.78674E+00  1.82899E+00  2.11781E+00  2.61595E+00  2.96658E+00
   2.86773E+00  2.29102E+00  1.40371E+00  5.53473E-01  5.15490E-02 -4.69222E-02  1.97596E-01  6.02645E-01  1.01687E+00  1.39632E+00
   1.67319E+00  1.78425E+00  1.70359E+00  1.46162E+00  1.16003E+00  8.72863E-01  6.39722E-01  4.88208E-01  4.13117E-01  3.10551E-01
   4.22483E-02 -2.87864E-01 -5.20114E-01 -7.00176E-01 -9.72293E-01 -1.43606E+00 -2.03298E+00 -2.59207E+00 -2.85586E+00 -2.76407E+00
  -2.39533E+00 -1.84758E+00 -1.20675E+00 -4.88213E-01  9.82815E-01  4.97848E+00  9.27589E+00  1.20937E+01  1.52721E+01  2.14379E+01
   3.12728E+01  4.21173E+01  4.94574E+01  4.99251E+01  4.36413E+01  3.37513E+01  2.38259E+01  1.60554E+01  1.10382E+01  8.37775E+00
   6.91454E+00  4.97931E+00  2.30361E+00  7.42324E-01  3.03252E-01  1.64785E-01  1.65933E-01  3.59772E-01  1.31812E+00  4.55699E+00
   8.56260E+00  1.14269E+01  1.43603E+01  1.94984E+01  2.75927E+01  3.67492E+01  4.33271E+01  4.42838E+01  3.94526E+01  3.14076E+01
   2.31632E+01  1.66062E+01  1.22107E+01  9.53786E+00  7.70364E+00  5.46877E+00  2.68993E+00  1.01820E+00  7.41738E-01  9.85182E-01
   1.32504E+00  1.50540E+00  1.40323E+00  1.09358E+00  7.42827E-01  4.16683E-01  1.25966E-01 -1.21494E-01 -3.38308E-01 -5.53280E-01
  -7.86327E-01 -1.04141E+00 -1.30405E+00 -1.62366E+00 -1.87807E+00 -1.94795E+00 -1.90518E+00 -1.89391E+00 -2.16367E+00 -2.72953E+00
  -3.28598E+00 -3.54043E+00 -3.43435E+00 -3.14966E+00 -3.00385E+00 -3.21152E+00 -3.74576E+00 -4.44672E+00 -5.12745E+00 -5.56530E+00
  -5.61662E+00 -5.58160E+00 -5.77009E+00 -6.31230E+00 -6.95208E+00 -7.21912E+00 -7.01589E+00 -6.63642E+00 -6.40887E+00 -6.50014E+00
  -6.68365E+00 -6.63315E+00 -6.34672E+00 -5.96567E+00 -5.55395E+00 -5.08695E+00 -4.49234E+00 -3.65416E+00 -2.54876E+00 -1.40035E+00
  -6.17938E-01 -3.63674E-01 -5.56725E-01 -1.01114E+00 -1.51359E+00 -1.87998E+00 -1.95679E+00 -1.85572E+00 -1.60865E+00 -1.21529E+00
  -7.50024E-01 -2.19788E-01  1.79341E-01  3.43732E-01  1.16022E-01 -6.88664E-01 -1.83842E+00 -2.94376E+00 -3.66224E+00 -3.98977E+00
  -4.05185E+00 -3.62312E+00 -2.52408E+00 -8.84528E-01  6.86504E-01  1.45002E+00  1.19978E+00  5.60222E-02 -1.83143E+00 -4.06594E+00
  -6.13100E+00 -7.29545E+00 -7.06710E+00 -5.67307E+00 -3.74008E+00 -1.83008E+00 -2.01649E-01  9.17168E-01  1.33644E+00  1.28692E+00
   1.17447E+00  1.28895E+00  1.64006E+00  2.07061E+00  2.55445E+00  2.98113E+00  3.24466E+00  3.26631E+00  2.99220E+00  2.46297E+00
   1.96806E+00  1.79155E+00  2.07013E+00  2.83104E+00  3.93224E+00  5.10607E+00  6.07008E+00  6.98150E+00  8.24120E+00  9.21914E+00
   9.94272E+00  1.15502E+01  1.68680E+01  2.57307E+01  3.28208E+01  3.74193E+01  4.21688E+01  4.97015E+01  5.97099E+01  6.83529E+01
   7.09132E+01  6.54067E+01  5.41228E+01  4.11791E+01  2.96128E+01  2.10643E+01  1.60380E+01  1.34732E+01  1.12435E+01  7.77016E+00
   4.60153E+00  3.42953E+00  2.94115E+00  2.59430E+00  2.28256E+00  1.96199E+00  1.59753E+00  1.22963E+00  8.92452E-01  6.07159E-01
   3.87014E-01  2.28839E-01  9.51219E-02 -4.27663E-02 -1.75897E-01 -2.97084E-01 -4.13001E-01 -5.25680E-01 -6.16068E-01 -6.61072E-01
  -6.58584E-01 -6.31080E-01 -5.89808E-01 -5.40483E-01 -4.90874E-01 -4.45480E-01 -3.98326E-01 -3.38622E-01 -2.52822E-01 -1.32757E-01
   1.90752E-02  1.97928E-01  4.04961E-01  6.38924E-01  9.00847E-01  1.19430E+00  1.52659E+00  1.90677E+00  2.34093E+00  2.83091E+00
   3.38245E+00  3.99942E+00  4.68427E+00  5.43808E+00  6.26024E+00  7.14672E+00  8.09101E+00  9.08339E+00  1.01117E+01  1.11607E+01
   1.22127E+01  1.32477E+01  1.42451E+01  1.51835E+01  1.60421E+01  1.68012E+01  1.74434E+01  1.79543E+01  1.83238E+01  1.85459E+01
   1.86201E+01  1.85507E+01  1.83475E+01  1.80261E+01  1.76086E+01  1.71243E+01  1.66150E+01  1.61536E+01  1.58978E+01  1.57679E+01
   1.52328E+01  1.45299E+01  1.40773E+01  1.39004E+01  1.35335E+01  1.23152E+01  1.02289E+01  7.84488E+00  5.44477E+00  3.47157E+00
   2.41963E+00  2.67341E+00  4.26816E+00  6.70804E+00  9.08406E+00  1.06279E+01  1.13276E+01  1.15499E+01  1.14038E+01  1.11534E+01
   1.10225E+01  1.11086E+01  1.12947E+01  1.13035E+01  1.11648E+01  1.11366E+01  1.11776E+01  1.12391E+01  1.13034E+01  1.13633E+01
   1.14166E+01  1.14636E+01  1.15067E+01  1.15498E+01  1.15981E+01  1.16573E+01  1.17336E+01  1.18328E+01  1.19612E+01  1.21246E+01
   1.23290E+01  1.25793E+01  1.28800E+01  1.32345E+01  1.36455E+01  1.41149E+01  1.46437E+01  1.52310E+01  1.58751E+01  1.65723E+01
   1.73180E+01  1.81058E+01  1.89280E+01  1.97747E+01  2.06348E+01  2.14958E+01  2.23445E+01  2.31667E+01  2.39479E+01  2.46733E+01
   2.53288E+01  2.59013E+01  2.63793E+01  2.67533E+01  2.70158E+01  2.71618E+01  2.71893E+01  2.70989E+01  2.68944E+01  2.65818E+01
   2.61696E+01  2.56678E+01  2.50884E+01  2.44443E+01  2.37490E+01  2.30160E+01  2.22583E+01  2.14881E+01  2.07170E+01  1.99552E+01
   1.92115E+01  1.84929E+01  1.78053E+01  1.71528E+01  1.65387E+01  1.59648E+01  1.54321E+01  1.49402E+01  1.44883E+01  1.40752E+01
   1.36993E+01  1.33585E+01  1.30507E+01  1.27734E+01  1.25244E+01  1.23013E+01  1.21023E+01  1.19252E+01  1.17681E+01  1.16290E+01
   1.15064E+01  1.13988E+01  1.13049E+01  1.12235E+01  1.11532E+01  1.10931E+01  1.10423E+01  1.10000E+01  1.09656E+01  1.09382E+01
   1.09173E+01  1.09021E+01  1.08924E+01  1.08877E+01  1.08877E+01  1.08919E+01  1.08999E+01  1.09114E+01  1.09263E+01  1.09444E+01
   1.09654E+01  1.09890E+01  1.10150E+01  1.10432E+01  1.10738E+01  1.11064E+01  1.11409E+01  1.11770E+01  1.12148E+01  1.12541E+01
   1.12950E+01  1.13373E+01  1.13808E+01  1.14255E+01  1.14713E+01  1.15183E+01  1.15664E+01  1.16154E+01  1.16653E+01  1.17160E+01
   1.17677E+01  1.18201E+01  1.18734E+01  1.19274E+01  1.19820E+01  1.20372E+01  1.20931E+01  1.21497E+01  1.22070E+01  1.22646E+01
   1.23228E+01  1.23815E+01  1.24409E+01  1.25007E+01  1.25610E+01  1.26217E+01  1.26828E+01  1.27444E+01
 NY background values follow
    -3.936E+00   -3.910E+00   -3.883E+00   -3.857E+00   -3.831E+00   -3.804E+00   -3.778E+00   -3.752E+00   -3.725E+00   -3.699E+00
    -3.673E+00   -3.646E+00   -3.620E+00   -3.594E+00   -3.567E+00   -3.541E+00   -3.515E+00   -3.489E+00   -3.463E+00   -3.437E+00
    -3.411E+00   -3.385E+00   -3.359E+00   -3.333E+00   -3.308E+00   -3.282E+00   -3.256E+00   -3.231E+00   -3.206E+00   -3.180E+00
    -3.155E+00   -3.130E+00   -3.105E+00   -3.080E+00   -3.056E+00   -3.031E+00   -3.007E+00   -2.982E+00   -2.958E+00   -2.934E+00
    -2.910E+00   -2.886E+00   -2.863E+00   -2.839E+00   -2.816E+00   -2.793E+00   -2.770E+00   -2.748E+00   -2.725E+00   -2.703E+00
    -2.681E+00   -2.659E+00   -2.637E+00   -2.616E+00   -2.594E+00   -2.573E+00   -2.552E+00   -2.532E+00   -2.512E+00   -2.491E+00
    -2.472E+00   -2.452E+00   -2.433E+00   -2.414E+00   -2.395E+00   -2.377E+00   -2.358E+00   -2.341E+00   -2.323E+00   -2.306E+00
    -2.289E+00   -2.272E+00   -2.256E+00   -2.240E+00   -2.224E+00   -2.209E+00   -2.194E+00   -2.179E+00   -2.165E+00   -2.151E+00
    -2.138E+00   -2.124E+00   -2.112E+00   -2.099E+00   -2.087E+00   -2.076E+00   -2.064E+00   -2.054E+00   -2.043E+00   -2.033E+00
    -2.024E+00   -2.015E+00   -2.006E+00   -1.998E+00   -1.990E+00   -1.982E+00   -1.975E+00   -1.969E+00   -1.963E+00   -1.957E+00
    -1.952E+00   -1.948E+00   -1.944E+00   -1.940E+00   -1.937E+00   -1.934E+00   -1.932E+00   -1.930E+00   -1.929E+00   -1.928E+00
    -1.928E+00   -1.928E+00   -1.929E+00   -1.930E+00   -1.932E+00   -1.934E+00   -1.937E+00   -1.940E+00   -1.944E+00   -1.949E+00
    -1.954E+00   -1.959E+00   -1.965E+00   -1.972E+00   -1.979E+00   -1.987E+00   -1.995E+00   -2.004E+00   -2.014E+00   -2.024E+00
    -2.034E+00   -2.045E+00   -2.057E+00   -2.070E+00   -2.082E+00   -2.096E+00   -2.110E+00   -2.125E+00   -2.140E+00   -2.156E+00
    -2.173E+00   -2.190E+00   -2.207E+00   -2.225E+00   -2.243E+00   -2.262E+00   -2.282E+00   -2.301E+00   -2.322E+00   -2.342E+00
    -2.363E+00   -2.384E+00   -2.406E+00   -2.428E+00   -2.450E+00   -2.473E+00   -2.496E+00   -2.519E+00   -2.542E+00   -2.566E+00
    -2.589E+00   -2.613E+00   -2.637E+00   -2.662E+00   -2.686E+00   -2.710E+00   -2.735E+00   -2.760E+00   -2.784E+00   -2.809E+00
    -2.834E+00   -2.859E+00   -2.884E+00   -2.908E+00   -2.933E+00   -2.958E+00   -2.983E+00   -3.007E+00   -3.032E+00   -3.056E+00
    -3.080E+00   -3.104E+00   -3.128E+00   -3.152E+00   -3.175E+00   -3.198E+00   -3.221E+00   -3.244E+00   -3.267E+00   -3.290E+00
    -3.312E+00   -3.334E+00   -3.356E+00   -3.378E+00   -3.399E+00   -3.420E+00   -3.441E+00   -3.462E+00   -3.482E+00   -3.503E+00
    -3.523E+00   -3.542E+00   -3.562E+00   -3.581E+00   -3.600E+00   -3.618E+00   -3.637E+00   -3.655E+00   -3.672E+00   -3.690E+00
    -3.707E+00   -3.724E+00   -3.740E+00   -3.757E+00   -3.773E+00   -3.788E+00   -3.803E+00   -3.818E+00   -3.833E+00   -3.847E+00
    -3.861E+00   -3.874E+00   -3.887E+00   -3.900E+00   -3.913E+00   -3.925E+00   -3.936E+00   -3.948E+00   -3.958E+00   -3.969E+00
    -3.979E+00   -3.989E+00   -3.998E+00   -4.007E+00   -4.015E+00   -4.023E+00   -4.030E+00   -4.037E+00   -4.043E+00   -4.049E+00
    -4.054E+00   -4.059E+00   -4.063E+00   -4.066E+00   -4.069E+00   -4.071E+00   -4.073E+00   -4.074E+00   -4.075E+00   -4.075E+00
    -4.074E+00   -4.072E+00   -4.070E+00   -4.067E+00   -4.064E+00   -4.060E+00   -4.055E+00   -4.049E+00   -4.042E+00   -4.035E+00
    -4.027E+00   -4.018E+00   -4.009E+00   -3.999E+00   -3.987E+00   -3.975E+00   -3.962E+00   -3.949E+00   -3.934E+00   -3.919E+00
    -3.902E+00   -3.885E+00   -3.867E+00   -3.848E+00   -3.828E+00   -3.807E+00   -3.785E+00   -3.762E+00   -3.739E+00   -3.714E+00
    -3.689E+00   -3.663E+00   -3.636E+00   -3.608E+00   -3.579E+00   -3.549E+00   -3.519E+00   -3.488E+00   -3.455E+00   -3.422E+00
    -3.389E+00   -3.354E+00   -3.318E+00   -3.282E+00   -3.245E+00   -3.207E+00   -3.168E+00   -3.129E+00   -3.088E+00   -3.047E+00
    -3.005E+00   -2.962E+00   -2.919E+00   -2.875E+00   -2.830E+00   -2.784E+00   -2.737E+00   -2.690E+00   -2.642E+00   -2.593E+00
    -2.544E+00   -2.493E+00   -2.442E+00   -2.390E+00   -2.338E+00   -2.285E+00   -2.231E+00   -2.176E+00   -2.121E+00   -2.065E+00
    -2.008E+00   -1.951E+00   -1.893E+00   -1.834E+00   -1.775E+00   -1.715E+00   -1.654E+00   -1.593E+00   -1.531E+00   -1.468E+00
    -1.405E+00   -1.342E+00   -1.277E+00   -1.212E+00   -1.147E+00   -1.081E+00   -1.014E+00   -9.473E-01   -8.797E-01   -8.115E-01
    -7.428E-01   -6.736E-01   -6.038E-01   -5.336E-01   -4.629E-01   -3.917E-01   -3.200E-01   -2.479E-01   -1.753E-01   -1.023E-01
    -2.877E-02    4.515E-02    1.195E-01    1.942E-01    2.694E-01    3.450E-01    4.209E-01    4.973E-01    5.740E-01    6.511E-01
     7.285E-01    8.063E-01    8.845E-01    9.629E-01    1.042E+00    1.121E+00    1.200E+00    1.280E+00    1.360E+00    1.440E+00
     1.521E+00    1.602E+00    1.683E+00    1.764E+00    1.846E+00    1.928E+00    2.010E+00    2.092E+00    2.175E+00    2.257E+00
     2.340E+00    2.423E+00    2.507E+00    2.590E+00    2.674E+00    2.757E+00    2.841E+00    2.925E+00    3.009E+00    3.094E+00
     3.178E+00    3.263E+00    3.347E+00    3.432E+00    3.517E+00    3.601E+00    3.686E+00    3.771E+00    3.856E+00    3.941E+00
     4.026E+00    4.111E+00    4.196E+00    4.281E+00    4.366E+00    4.452E+00    4.537E+00    4.622E+00    4.707E+00    4.791E+00
     4.876E+00    4.961E+00    5.046E+00    5.131E+00    5.215E+00    5.300E+00    5.385E+00    5.469E+00    5.554E+00    5.638E+00
     5.722E+00    5.806E+00    5.890E+00    5.974E+00    6.058E+00    6.142E+00    6.226E+00    6.310E+00    6.393E+00    6.476E+00
     6.560E+00    6.643E+00    6.726E+00    6.809E+00    6.892E+00    6.974E+00    7.057E+00    7.139E+00    7.222E+00    7.304E+00
     7.386E+00    7.468E+00    7.549E+00    7.631E+00    7.712E+00    7.793E+00    7.874E+00    7.955E+00    8.036E+00    8.116E+00
     8.197E+00    8.277E+00    8.357E+00    8.436E+00    8.516E+00    8.595E+00    8.675E+00    8.754E+00    8.832E+00    8.911E+00
     8.990E+00    9.068E+00    9.146E+00    9.224E+00    9.302E+00    9.380E+00    9.458E+00    9.535E+00    9.613E+00    9.690E+00
     9.768E+00    9.845E+00    9.922E+00    9.999E+00    1.008E+01    1.015E+01    1.023E+01    1.031E+01    1.038E+01    1.046E+01
     1.054E+01    1.061E+01    1.069E+01    1.076E+01    1.084E+01    1.092E+01    1.099E+01    1.107E+01    1.115E+01    1.122E+01
     1.130E+01    1.138E+01    1.145E+01    1.153E+01    1.160E+01    1.168E+01    1.176E+01    1.183E+01
 Cr       Conc. = 4.98E+02
