 LCModel (Version 6.3-1L) Copyright: S.W. Provencher.          Ref.: Magn. Reson. Med. 30:672-679 (1993).                
 Slice#1 Row#7 Col#5  K_02_press_1_raw_act
 36 lines in following concentration table = NCONC+1
    Conc.  %SD /Cr+PCr  Metabolite                                         
   43.881 361% 3.6E-02 Ala                                                 
   27.685 917% 2.3E-02 Asp                                                 
    0.000 999%   0.000 Cr                                                  
 1.21E+03   7%   1.000 PCr                                                 
   59.969 279% 5.0E-02 GABA                                                
  235.468  70%   0.195 Glc                                                 
  518.318  63%   0.429 Gln                                                 
 1.09E+03  35%   0.904 Glu                                                 
  476.164   6%   0.394 GPC                                                 
    0.000 999%   0.000 PCh                                                 
  242.840  43%   0.201 GSH                                                 
 1.29E+03  28%   1.064 Ins                                                 
   84.499 209% 7.0E-02 Lac                                                 
 2.32E+03   8%   1.917 NAA                                                 
  454.559  43%   0.376 NAAG                                                
  172.608  21%   0.143 Scyllo                                              
  749.277  32%   0.620 Tau                                                 
  686.632  20%   0.568 -CrCH2                                              
  476.164   6%   0.394 GPC+PCh                                             
 2.77E+03   4%   2.293 NAA+NAAG                                            
 1.21E+03   7%   1.000 Cr+PCr                                              
 1.61E+03  33%   1.333 Glu+Gln                                             
 4.78E+03  18%   3.955 Lip13a                                              
    0.000 999%   0.000 Lip13b                                              
  900.146  36%   0.745 Lip09                                               
  523.775  67%   0.433 MM09                                                
  740.524  30%   0.613 Lip20                                               
 1.00E+03  51%   0.829 MM20                                                
  171.517  81%   0.142 MM12                                                
  547.434  85%   0.453 MM14                                                
  488.040  47%   0.404 MM17                                                
 4.78E+03  18%   3.955 Lip13a+Lip13b                                       
 5.50E+03  13%   4.550 MM14+Lip13a+Lip13b+MM12                             
 1.42E+03  19%   1.178 MM09+Lip09                                          
 1.74E+03  27%   1.442 MM20+Lip20                                          
   6 lines in following misc. output table
  FWHM = 0.054 ppm    S/N =   9                                            
  Data shift = 0.000 ppm                                                   
  Ph: -76 deg     -19.8 deg/ppm                                            
  alphaB,S = 7.3E-01,   1.0E+02                                            
   14 spline knots.   Ns = 7(1)                                            
  (10) 4 infls.   ( 9) 1 extrs.                                            
  498 points on ppm-axis = NY
      4.000000     3.992357     3.984714     3.977070     3.969427     3.961784     3.954141     3.946497     3.938854     3.931211
      3.923568     3.915925     3.908281     3.900638     3.892995     3.885352     3.877708     3.870065     3.862422     3.854779
      3.847136     3.839492     3.831849     3.824206     3.816563     3.808919     3.801276     3.793633     3.785990     3.778347
      3.770703     3.763060     3.755417     3.747774     3.740130     3.732487     3.724844     3.717201     3.709558     3.701914
      3.694271     3.686628     3.678985     3.671341     3.663698     3.656055     3.648412     3.640769     3.633125     3.625482
      3.617839     3.610196     3.602552     3.594909     3.587266     3.579623     3.571980     3.564336     3.556693     3.549050
      3.541407     3.533763     3.526120     3.518477     3.510834     3.503191     3.495547     3.487904     3.480261     3.472618
      3.464974     3.457331     3.449688     3.442045     3.434402     3.426758     3.419115     3.411472     3.403829     3.396185
      3.388542     3.380899     3.373256     3.365613     3.357969     3.350326     3.342683     3.335040     3.327396     3.319753
      3.312110     3.304467     3.296824     3.289180     3.281537     3.273894     3.266251     3.258607     3.250964     3.243321
      3.235678     3.228034     3.220391     3.212748     3.205105     3.197462     3.189818     3.182175     3.174532     3.166889
      3.159245     3.151602     3.143959     3.136316     3.128673     3.121029     3.113386     3.105743     3.098100     3.090456
      3.082813     3.075170     3.067527     3.059884     3.052240     3.044597     3.036954     3.029311     3.021667     3.014024
      3.006381     2.998738     2.991095     2.983451     2.975808     2.968165     2.960522     2.952878     2.945235     2.937592
      2.929949     2.922306     2.914662     2.907019     2.899376     2.891733     2.884089     2.876446     2.868803     2.861160
      2.853517     2.845873     2.838230     2.830587     2.822944     2.815300     2.807657     2.800014     2.792371     2.784728
      2.777084     2.769441     2.761798     2.754155     2.746511     2.738868     2.731225     2.723582     2.715939     2.708295
      2.700652     2.693009     2.685366     2.677722     2.670079     2.662436     2.654793     2.647150     2.639506     2.631863
      2.624220     2.616577     2.608933     2.601290     2.593647     2.586004     2.578361     2.570717     2.563074     2.555431
      2.547788     2.540144     2.532501     2.524858     2.517215     2.509572     2.501928     2.494285     2.486642     2.478999
      2.471355     2.463712     2.456069     2.448426     2.440783     2.433139     2.425496     2.417853     2.410210     2.402566
      2.394923     2.387280     2.379637     2.371994     2.364350     2.356707     2.349064     2.341421     2.333777     2.326134
      2.318491     2.310848     2.303205     2.295561     2.287918     2.280275     2.272632     2.264988     2.257345     2.249702
      2.242059     2.234416     2.226772     2.219129     2.211486     2.203843     2.196199     2.188556     2.180913     2.173270
      2.165627     2.157983     2.150340     2.142697     2.135054     2.127410     2.119767     2.112124     2.104481     2.096838
      2.089194     2.081551     2.073908     2.066265     2.058621     2.050978     2.043335     2.035692     2.028049     2.020405
      2.012762     2.005119     1.997476     1.989833     1.982190     1.974546     1.966903     1.959260     1.951617     1.943974
      1.936331     1.928688     1.921045     1.913402     1.905759     1.898115     1.890472     1.882829     1.875186     1.867543
      1.859900     1.852257     1.844614     1.836971     1.829327     1.821684     1.814041     1.806398     1.798755     1.791112
      1.783469     1.775826     1.768183     1.760540     1.752896     1.745253     1.737610     1.729967     1.722324     1.714681
      1.707038     1.699395     1.691752     1.684108     1.676465     1.668822     1.661179     1.653536     1.645893     1.638250
      1.630607     1.622964     1.615321     1.607677     1.600034     1.592391     1.584748     1.577105     1.569462     1.561819
      1.554176     1.546533     1.538890     1.531246     1.523603     1.515960     1.508317     1.500674     1.493031     1.485388
      1.477745     1.470102     1.462458     1.454815     1.447172     1.439529     1.431886     1.424243     1.416600     1.408957
      1.401314     1.393671     1.386027     1.378384     1.370741     1.363098     1.355455     1.347812     1.340169     1.332526
      1.324883     1.317240     1.309596     1.301953     1.294310     1.286667     1.279024     1.271381     1.263738     1.256095
      1.248452     1.240808     1.233165     1.225522     1.217879     1.210236     1.202593     1.194950     1.187307     1.179664
      1.172021     1.164377     1.156734     1.149091     1.141448     1.133805     1.126162     1.118519     1.110876     1.103233
      1.095590     1.087946     1.080303     1.072660     1.065017     1.057374     1.049731     1.042088     1.034445     1.026802
      1.019158     1.011515     1.003872     0.996229     0.988586     0.980943     0.973300     0.965657     0.958014     0.950371
      0.942727     0.935084     0.927441     0.919798     0.912155     0.904512     0.896869     0.889226     0.881583     0.873940
      0.866296     0.858653     0.851010     0.843367     0.835724     0.828081     0.820438     0.812795     0.805152     0.797508
      0.789865     0.782222     0.774579     0.766936     0.759293     0.751650     0.744007     0.736364     0.728721     0.721077
      0.713434     0.705791     0.698148     0.690505     0.682862     0.675219     0.667576     0.659933     0.652290     0.644646
      0.637003     0.629360     0.621717     0.614074     0.606431     0.598788     0.591145     0.583502     0.575858     0.568215
      0.560572     0.552929     0.545286     0.537643     0.530000     0.522357     0.514714     0.507071     0.499427     0.491784
      0.484141     0.476498     0.468855     0.461212     0.453569     0.445925     0.438282     0.430639     0.422996     0.415353
      0.407710     0.400067     0.392424     0.384780     0.377137     0.369494     0.361851     0.354208     0.346565     0.338922
      0.331278     0.323635     0.315992     0.308349     0.300706     0.293063     0.285420     0.277777     0.270133     0.262490
      0.254847     0.247204     0.239561     0.231918     0.224275     0.216631     0.208988     0.201345
 NY phased data points follow
  -6.36520E+01 -6.35891E+01 -5.92416E+01 -6.57300E+01 -5.57167E+01 -5.51370E+01 -4.74211E+01 -3.93901E+01 -4.25393E+01 -4.98479E+01
  -4.50065E+01 -4.88569E+01 -5.10313E+01 -5.22841E+01 -5.80517E+01 -5.70890E+01 -5.53160E+01 -6.37314E+01 -6.33715E+01 -5.78754E+01
  -5.67851E+01 -5.54742E+01 -4.94258E+01 -5.25113E+01 -5.16417E+01 -5.04574E+01 -4.87286E+01 -4.50317E+01 -4.90334E+01 -4.69945E+01
  -4.94014E+01 -4.77781E+01 -3.69325E+01 -4.80896E+01 -4.31342E+01 -4.13044E+01 -4.56147E+01 -3.89072E+01 -4.40049E+01 -4.04245E+01
  -3.90670E+01 -4.24381E+01 -3.92792E+01 -3.66811E+01 -3.46111E+01 -2.78404E+01 -3.52509E+01 -3.61571E+01 -3.60295E+01 -3.85340E+01
  -3.58893E+01 -3.90680E+01 -4.22557E+01 -4.20258E+01 -3.83994E+01 -4.25446E+01 -3.86610E+01 -3.92088E+01 -3.26638E+01 -3.21595E+01
  -3.78670E+01 -4.08586E+01 -3.76777E+01 -4.10125E+01 -3.47253E+01 -3.65013E+01 -3.76918E+01 -4.31624E+01 -3.53958E+01 -4.15364E+01
  -3.57444E+01 -3.38463E+01 -3.71545E+01 -2.94841E+01 -3.10010E+01 -2.62470E+01 -3.35479E+01 -2.60526E+01 -2.57297E+01 -2.56303E+01
  -3.22657E+01 -2.78453E+01 -3.24501E+01 -2.34981E+01 -2.71007E+01 -2.83188E+01 -2.88325E+01 -2.29256E+01 -2.44386E+01 -2.13372E+01
  -1.88702E+01 -2.18446E+01 -2.45042E+01 -1.89004E+01 -1.17906E+01 -1.81499E+01 -1.73355E+01 -1.56457E+01 -1.39585E+01 -5.88110E+00
   4.80686E+00  8.65160E+00  1.90580E+01  1.94073E+01  8.82754E+00  1.60793E-01 -1.09193E+01 -1.55396E+01 -1.55876E+01 -1.83302E+01
  -2.45469E+01 -2.09760E+01 -1.89789E+01 -1.89656E+01 -2.18236E+01 -2.77071E+01 -1.52106E+01 -2.08473E+01 -1.84329E+01 -1.81832E+01
  -1.68219E+01 -9.22633E+00 -9.76701E+00 -8.72189E+00  2.18848E-01  3.94531E+00  1.51789E+01  2.07165E+01  1.58582E+01 -5.33467E-01
  -1.08630E+00 -1.16359E+01 -1.61289E+01 -1.61870E+01 -1.90214E+01 -2.05000E+01 -1.70079E+01 -1.99228E+01 -1.97296E+01 -2.05463E+01
  -1.63725E+01 -2.16072E+01 -2.29972E+01 -1.92984E+01 -1.02159E+01 -2.20269E+01 -1.63026E+01 -2.15823E+01 -2.15733E+01 -1.64093E+01
  -1.86782E+01 -2.01867E+01 -1.55501E+01 -2.35437E+01 -2.52526E+01 -1.66556E+01 -2.36515E+01 -1.86497E+01 -1.97533E+01 -1.95008E+01
  -1.43687E+01 -2.14250E+01 -1.49701E+01 -1.79502E+01 -1.86800E+01 -1.43060E+01 -2.33168E+01 -2.17952E+01 -2.69786E+01 -2.78468E+01
  -3.32902E+01 -2.84827E+01 -2.60600E+01 -2.99986E+01 -2.45813E+01 -2.77817E+01 -2.56519E+01 -2.70851E+01 -2.40398E+01 -2.26628E+01
  -2.55353E+01 -2.58422E+01 -1.57113E+01 -2.16201E+01 -1.51892E+01 -1.48646E+01 -1.98555E+01 -8.13256E+00 -1.34869E+01 -2.00933E+01
  -1.17848E+01 -1.88825E+01 -1.46489E+01 -1.38907E+01 -1.76143E+01 -1.92941E+01 -1.66503E+01 -2.26147E+01 -2.15909E+01 -2.23584E+01
  -2.53693E+01 -1.45936E+01 -1.79933E+01 -6.26482E+00 -1.25319E+01 -1.68358E+01 -1.60479E+01 -6.56838E+00 -1.37849E+01 -1.19798E+01
  -1.97858E+01 -8.95329E+00 -6.88259E+00 -4.79464E+00 -3.44959E+00 -6.61252E+00 -5.15967E+00 -6.28116E-01 -2.11492E-01 -6.36357E+00
  -1.02446E+01 -1.08665E+01 -1.13650E+01 -1.01482E+01 -1.29722E+01 -7.80389E+00 -5.68649E+00 -8.54245E+00 -5.74283E+00 -7.73445E+00
  -6.12459E+00 -1.83159E+00 -2.17563E+00 -3.88577E+00 -5.03385E+00 -4.18077E+00 -3.81922E+00  1.71733E+00  1.35359E-01 -6.22611E+00
  -4.95822E+00  9.17975E-01 -1.30495E+01 -6.35693E+00 -8.95274E+00 -5.16633E+00 -5.55239E+00 -2.26496E+00  2.33106E+00  4.99810E+00
   4.97168E+00  2.23010E+00  7.00170E+00  1.68970E+01  2.61780E+01  4.11298E+01  4.66614E+01  4.70831E+01  5.57227E+01  6.98272E+01
   7.73867E+01  7.78007E+01  7.16177E+01  5.39669E+01  4.24335E+01  2.25458E+01  7.55135E+00  5.30972E+00  1.78059E+00  1.27423E+00
   1.81599E+00  1.89516E+00  3.24163E-02  1.77973E-01 -7.23001E+00 -7.66841E+00 -4.56928E+00 -2.04155E+00 -2.83349E+00  2.82767E-01
  -3.16823E-01 -6.89549E+00 -2.27159E+00 -7.36481E+00 -4.46717E+00 -6.77020E+00 -5.61751E+00 -3.70367E+00  3.55869E-01 -1.30294E+00
   7.98809E+00 -1.06691E-01  3.92592E+00 -4.46387E+00 -8.13985E+00 -5.02755E+00 -1.18736E+00 -7.25774E+00 -4.73039E+00 -8.90576E+00
  -2.76733E+00  1.45714E+00  1.89114E+00  3.21271E+00 -2.24388E+00  3.67344E+00  6.20234E+00  3.52770E+00  4.11165E+00 -5.56475E-01
   1.33829E+00  6.80286E-01  4.90136E+00 -1.42196E+00  6.46786E-01  2.87219E+00  4.19631E+00 -1.33323E+00  3.14818E+00 -3.01812E+00
   4.83931E+00  2.56341E+00  4.57324E+00 -3.16224E+00 -5.27159E+00 -5.23992E+00  1.74906E+00  5.34456E+00  5.00935E+00  5.65299E+00
   8.27066E-01  1.16925E+01  2.36501E+00  4.12350E+00  3.19001E+00  7.12177E+00  1.62272E+00  3.24440E+00  6.93076E+00  8.86310E+00
   1.74176E+01  1.41943E+01  1.92924E+01  2.04678E+01  2.69484E+01  2.82193E+01  3.06614E+01  2.52707E+01  2.52809E+01  2.59244E+01
   2.26773E+01  1.77072E+01  1.67387E+01  1.76287E+01  1.57906E+01  1.69187E+01  1.28268E+01  1.10537E+01  1.31079E+01  1.08419E+01
   8.16609E+00  9.37137E+00  8.57305E+00  2.97049E+00  2.44454E+00  4.04779E+00  4.35258E+00  9.00283E+00  1.21852E+01  1.09434E+01
   1.07159E+01  1.63553E+01  8.28209E+00  1.07405E+01  8.86024E+00  1.42881E+01  7.73587E+00  9.62474E+00  8.92349E+00  3.05490E+00
   2.77146E+00 -4.39502E-01  2.99116E+00  2.23256E+00 -4.22979E+00  3.62685E+00 -3.77442E+00 -1.86991E+00 -2.98890E+00 -3.09176E+00
  -4.15196E+00 -1.64697E+00  3.10188E-01  5.22911E-01  3.32519E+00  5.74370E+00 -9.86327E-01  7.58903E+00  3.96663E+00  4.57937E+00
   1.58701E+00  3.95740E+00  1.28045E+01  4.74884E+00  7.40099E+00  5.86987E+00  4.78691E+00  5.98611E+00  1.02795E+01  9.68849E+00
   7.07912E+00  1.91770E+00  9.41337E+00  6.03466E+00  7.26207E+00  4.00006E+00  1.15790E+00 -1.86295E+00 -3.01326E-01  5.33480E+00
  -4.19485E+00 -3.96411E-01 -7.59178E-01  2.64732E-01 -4.66285E+00 -3.90056E+00 -2.17380E+00 -6.80824E+00 -5.82001E+00 -6.84984E+00
  -5.85878E-01 -2.42066E+00 -3.85854E+00 -4.58280E+00 -9.43866E+00 -2.36508E+00 -8.23243E-01 -5.19367E+00 -2.76412E+00 -2.57200E+00
  -2.55477E+00 -1.60475E+00 -4.33769E+00 -4.03768E+00 -4.76567E+00 -5.10187E+00 -9.12317E-01  1.28928E+00 -2.80734E+00 -4.00580E+00
  -2.03046E+00 -8.33996E+00 -6.00433E+00 -3.94669E-01 -2.91518E+00 -9.49755E-02 -6.19687E+00 -2.80453E+00  1.66859E+00  2.47407E-01
  -3.16898E+00  1.33857E+00 -3.15884E+00  1.32487E+00 -6.84822E-01  2.84863E+00 -1.84281E+00  1.46438E-01 -4.32521E-01  4.74956E+00
  -7.89215E-01 -1.67143E+00 -2.42656E+00  3.82024E+00 -1.48745E+00  4.41611E+00  4.56861E+00  3.45392E+00  3.37504E+00  2.03722E+00
   8.26265E-01  8.73526E-01  4.89436E+00  7.91198E+00  3.94460E+00 -5.90477E-01 -2.62582E-02  4.74251E+00 -2.40487E+00 -9.56562E-01
   9.76511E+00  1.19745E+00  2.08639E+00 -1.26713E+00  2.48216E+00  1.49357E+00 -5.34556E-01  6.37987E-01
 NY points of the fit to the data follow
  -6.01143E+01 -5.86576E+01 -5.66270E+01 -5.52326E+01 -5.39205E+01 -5.18883E+01 -4.89847E+01 -4.60470E+01 -4.42568E+01 -4.43389E+01
  -4.61748E+01 -4.88874E+01 -5.14274E+01 -5.31282E+01 -5.38298E+01 -5.39876E+01 -5.41197E+01 -5.39664E+01 -5.36210E+01 -5.34103E+01
  -5.31467E+01 -5.28815E+01 -5.25856E+01 -5.19851E+01 -5.11401E+01 -5.03070E+01 -4.95436E+01 -4.87074E+01 -4.75416E+01 -4.60198E+01
  -4.42503E+01 -4.25802E+01 -4.14920E+01 -4.11969E+01 -4.15568E+01 -4.23534E+01 -4.34365E+01 -4.46870E+01 -4.57204E+01 -4.59567E+01
  -4.52202E+01 -4.38983E+01 -4.24162E+01 -4.09106E+01 -3.92298E+01 -3.73979E+01 -3.56918E+01 -3.46024E+01 -3.45719E+01 -3.56383E+01
  -3.74043E+01 -3.91894E+01 -4.04330E+01 -4.09938E+01 -4.09809E+01 -4.06183E+01 -3.99928E+01 -3.91681E+01 -3.82425E+01 -3.73485E+01
  -3.66244E+01 -3.62893E+01 -3.63622E+01 -3.66291E+01 -3.67908E+01 -3.66333E+01 -3.61440E+01 -3.54719E+01 -3.47183E+01 -3.38179E+01
  -3.29187E+01 -3.22915E+01 -3.19158E+01 -3.15851E+01 -3.11573E+01 -3.06008E+01 -3.00599E+01 -2.99062E+01 -3.03304E+01 -3.10879E+01
  -3.13650E+01 -3.09975E+01 -3.02763E+01 -2.93389E+01 -2.81131E+01 -2.64469E+01 -2.46339E+01 -2.33656E+01 -2.30758E+01 -2.37159E+01
  -2.49620E+01 -2.63045E+01 -2.71956E+01 -2.74123E+01 -2.63390E+01 -2.28348E+01 -1.85118E+01 -1.45991E+01 -1.03221E+01 -4.16882E+00
   3.82233E+00  1.15817E+01  1.62349E+01  1.57767E+01  1.03332E+01  1.97385E+00 -6.75287E+00 -1.39120E+01 -1.87285E+01 -2.19109E+01
  -2.40901E+01 -2.49581E+01 -2.52374E+01 -2.54181E+01 -2.55327E+01 -2.55344E+01 -2.54439E+01 -2.51776E+01 -2.42588E+01 -2.12097E+01
  -1.68212E+01 -1.30576E+01 -9.82917E+00 -5.64381E+00  5.00110E-01  7.64741E+00  1.33469E+01  1.52511E+01  1.24494E+01  6.00774E+00
  -1.83025E+00 -8.93818E+00 -1.40992E+01 -1.75297E+01 -2.00505E+01 -2.14778E+01 -2.20810E+01 -2.24068E+01 -2.24551E+01 -2.21844E+01
  -2.16645E+01 -2.10656E+01 -2.05360E+01 -2.01553E+01 -1.99601E+01 -1.99094E+01 -1.99254E+01 -1.99735E+01 -2.00212E+01 -2.00268E+01
  -1.99885E+01 -1.99109E+01 -1.98230E+01 -1.97891E+01 -1.98878E+01 -1.99981E+01 -1.99700E+01 -1.97987E+01 -1.95891E+01 -1.96101E+01
  -1.99260E+01 -2.03005E+01 -2.04466E+01 -2.02830E+01 -1.99452E+01 -1.96736E+01 -1.96854E+01 -2.00353E+01 -2.05981E+01 -2.12239E+01
  -2.17225E+01 -2.18857E+01 -2.18517E+01 -2.18926E+01 -2.21507E+01 -2.24814E+01 -2.25762E+01 -2.22701E+01 -2.17254E+01 -2.12655E+01
  -2.10814E+01 -2.09748E+01 -2.06741E+01 -2.01177E+01 -1.94021E+01 -1.86721E+01 -1.79441E+01 -1.71017E+01 -1.60221E+01 -1.47278E+01
  -1.34482E+01 -1.25686E+01 -1.22105E+01 -1.22464E+01 -1.24757E+01 -1.27511E+01 -1.29836E+01 -1.29961E+01 -1.27258E+01 -1.22053E+01
  -1.14882E+01 -1.06569E+01 -9.86099E+00 -9.42326E+00 -9.39611E+00 -9.81472E+00 -1.08250E+01 -1.23224E+01 -1.38891E+01 -1.49521E+01
  -1.52739E+01 -1.49952E+01 -1.40961E+01 -1.25257E+01 -1.04913E+01 -8.56606E+00 -7.38275E+00 -7.12274E+00 -7.66597E+00 -8.99108E+00
  -1.07494E+01 -1.23898E+01 -1.33896E+01 -1.33605E+01 -1.23325E+01 -1.05723E+01 -8.49924E+00 -6.64683E+00 -5.38055E+00 -4.83556E+00
  -4.74916E+00 -4.82378E+00 -4.92640E+00 -4.92589E+00 -4.70949E+00 -4.34344E+00 -3.97884E+00 -3.61993E+00 -3.28718E+00 -3.08254E+00
  -3.18116E+00 -3.57796E+00 -4.03947E+00 -4.26412E+00 -4.06126E+00 -3.43976E+00 -2.46754E+00 -1.28855E+00  1.31761E-01  2.18774E+00
   4.42259E+00  6.50540E+00  9.35884E+00  1.62781E+01  2.70121E+01  3.68017E+01  4.41438E+01  5.09441E+01  5.94482E+01  6.90391E+01
   7.61959E+01  7.69866E+01  6.96995E+01  5.58320E+01  3.92399E+01  2.41399E+01  1.29307E+01  5.47713E+00  2.50235E-01 -2.70242E+00
  -3.60432E+00 -3.92427E+00 -4.03439E+00 -4.00562E+00 -3.91721E+00 -3.86056E+00 -3.85987E+00 -3.91918E+00 -4.02565E+00 -4.14421E+00
  -4.23299E+00 -4.27232E+00 -4.25905E+00 -4.19832E+00 -4.10139E+00 -3.97957E+00 -3.85090E+00 -3.72802E+00 -3.60636E+00 -3.47140E+00
  -3.31121E+00 -3.12007E+00 -2.90113E+00 -2.66271E+00 -2.41801E+00 -2.17791E+00 -1.94967E+00 -1.73491E+00 -1.52696E+00 -1.32034E+00
  -1.11220E+00 -9.00347E-01 -6.89540E-01 -4.89914E-01 -3.09898E-01 -1.55719E-01 -2.78891E-02  7.44865E-02  1.52725E-01  2.11710E-01
   2.57542E-01  2.94446E-01  3.27738E-01  3.62321E-01  4.04288E-01  4.59366E-01  5.34013E-01  6.33822E-01  7.65895E-01  9.39742E-01
   1.16822E+00  1.42535E+00  1.68578E+00  1.96967E+00  2.30177E+00  2.67750E+00  3.06150E+00  3.41719E+00  3.76489E+00  4.15793E+00
   4.61846E+00  5.16535E+00  5.82509E+00  6.62119E+00  7.54920E+00  8.57292E+00  9.64708E+00  1.07116E+01  1.17265E+01  1.27007E+01
   1.36731E+01  1.46244E+01  1.54934E+01  1.62925E+01  1.70609E+01  1.77924E+01  1.83973E+01  1.87809E+01  1.89637E+01  1.90007E+01
   1.89173E+01  1.87641E+01  1.86116E+01  1.85133E+01  1.84537E+01  1.83520E+01  1.81255E+01  1.76904E+01  1.69987E+01  1.60908E+01
   1.50440E+01  1.39385E+01  1.28221E+01  1.17045E+01  1.06161E+01  9.57939E+00  8.59112E+00  7.65353E+00  6.77168E+00  5.94956E+00
   5.19085E+00  4.49726E+00  3.86988E+00  3.30793E+00  2.81057E+00  2.37581E+00  2.00211E+00  1.68700E+00  1.42852E+00  1.22408E+00
   1.07210E+00  9.70700E-01  9.19052E-01  9.15788E-01  9.60341E-01  1.05160E+00  1.18931E+00  1.37253E+00  1.60066E+00  1.87179E+00
   2.18395E+00  2.53363E+00  2.91715E+00  3.32896E+00  3.76284E+00  4.21044E+00  4.66288E+00  5.10965E+00  5.54022E+00  5.94293E+00
   6.30661E+00  6.61975E+00  6.87250E+00  7.05590E+00  7.16356E+00  7.19057E+00  7.13503E+00  6.99691E+00  6.77953E+00  6.48808E+00
   6.13054E+00  5.71584E+00  5.25478E+00  4.75826E+00  4.23826E+00  3.70591E+00  3.17228E+00  2.64662E+00  2.13754E+00  1.65158E+00
   1.19455E+00  7.70138E-01  3.81138E-01  2.83282E-02 -2.87947E-01 -5.68783E-01 -8.15243E-01 -1.02959E+00 -1.21389E+00 -1.37109E+00
  -1.50350E+00 -1.61390E+00 -1.70428E+00 -1.77721E+00 -1.83453E+00 -1.87854E+00 -1.91057E+00 -1.93231E+00 -1.94464E+00 -1.94903E+00
  -1.94623E+00 -1.93743E+00 -1.92298E+00 -1.90368E+00 -1.87971E+00 -1.85192E+00 -1.82046E+00 -1.78599E+00 -1.74838E+00 -1.70812E+00
  -1.66512E+00 -1.61998E+00 -1.57261E+00 -1.52343E+00 -1.47217E+00 -1.41922E+00 -1.36447E+00 -1.30841E+00 -1.25086E+00 -1.19214E+00
  -1.13194E+00 -1.07065E+00 -1.00811E+00 -9.44777E-01 -8.80366E-01 -8.15149E-01 -7.48818E-01 -6.81783E-01 -6.13881E-01 -5.45494E-01
  -4.76289E-01 -4.06524E-01 -3.35923E-01 -2.64910E-01 -1.93292E-01 -1.21390E-01 -4.88424E-02  2.40748E-02  9.75967E-02  1.71298E-01
   2.45413E-01  3.19672E-01  3.94441E-01  4.69415E-01  5.44800E-01  6.20193E-01  6.95879E-01  7.71623E-01  8.47778E-01  9.24001E-01
   1.00049E+00  1.07688E+00  1.15352E+00  1.23019E+00  1.30722E+00  1.38425E+00  1.46150E+00  1.53868E+00
 NY background values follow
    -6.394E+01   -6.358E+01   -6.322E+01   -6.286E+01   -6.250E+01   -6.214E+01   -6.178E+01   -6.141E+01   -6.105E+01   -6.069E+01
    -6.033E+01   -5.997E+01   -5.961E+01   -5.925E+01   -5.889E+01   -5.853E+01   -5.817E+01   -5.781E+01   -5.745E+01   -5.709E+01
    -5.674E+01   -5.638E+01   -5.602E+01   -5.566E+01   -5.531E+01   -5.495E+01   -5.459E+01   -5.424E+01   -5.388E+01   -5.353E+01
    -5.317E+01   -5.282E+01   -5.247E+01   -5.212E+01   -5.177E+01   -5.142E+01   -5.107E+01   -5.072E+01   -5.037E+01   -5.002E+01
    -4.967E+01   -4.933E+01   -4.898E+01   -4.864E+01   -4.830E+01   -4.796E+01   -4.762E+01   -4.728E+01   -4.694E+01   -4.660E+01
    -4.626E+01   -4.593E+01   -4.560E+01   -4.526E+01   -4.493E+01   -4.460E+01   -4.427E+01   -4.394E+01   -4.362E+01   -4.329E+01
    -4.297E+01   -4.265E+01   -4.233E+01   -4.201E+01   -4.169E+01   -4.137E+01   -4.106E+01   -4.075E+01   -4.044E+01   -4.013E+01
    -3.982E+01   -3.951E+01   -3.921E+01   -3.890E+01   -3.860E+01   -3.830E+01   -3.801E+01   -3.771E+01   -3.742E+01   -3.713E+01
    -3.684E+01   -3.655E+01   -3.626E+01   -3.598E+01   -3.570E+01   -3.542E+01   -3.514E+01   -3.487E+01   -3.459E+01   -3.432E+01
    -3.405E+01   -3.379E+01   -3.352E+01   -3.326E+01   -3.300E+01   -3.274E+01   -3.249E+01   -3.224E+01   -3.198E+01   -3.174E+01
    -3.149E+01   -3.125E+01   -3.100E+01   -3.076E+01   -3.053E+01   -3.029E+01   -3.006E+01   -2.982E+01   -2.960E+01   -2.937E+01
    -2.914E+01   -2.892E+01   -2.870E+01   -2.848E+01   -2.826E+01   -2.805E+01   -2.784E+01   -2.763E+01   -2.742E+01   -2.721E+01
    -2.701E+01   -2.680E+01   -2.660E+01   -2.640E+01   -2.621E+01   -2.601E+01   -2.582E+01   -2.563E+01   -2.544E+01   -2.525E+01
    -2.507E+01   -2.489E+01   -2.470E+01   -2.452E+01   -2.435E+01   -2.417E+01   -2.400E+01   -2.383E+01   -2.366E+01   -2.349E+01
    -2.332E+01   -2.316E+01   -2.299E+01   -2.283E+01   -2.267E+01   -2.251E+01   -2.236E+01   -2.220E+01   -2.205E+01   -2.190E+01
    -2.174E+01   -2.159E+01   -2.145E+01   -2.130E+01   -2.115E+01   -2.101E+01   -2.086E+01   -2.072E+01   -2.057E+01   -2.043E+01
    -2.029E+01   -2.015E+01   -2.001E+01   -1.988E+01   -1.974E+01   -1.960E+01   -1.947E+01   -1.933E+01   -1.920E+01   -1.906E+01
    -1.893E+01   -1.879E+01   -1.866E+01   -1.853E+01   -1.839E+01   -1.826E+01   -1.813E+01   -1.800E+01   -1.787E+01   -1.774E+01
    -1.760E+01   -1.747E+01   -1.734E+01   -1.721E+01   -1.708E+01   -1.695E+01   -1.682E+01   -1.668E+01   -1.655E+01   -1.642E+01
    -1.629E+01   -1.616E+01   -1.603E+01   -1.590E+01   -1.577E+01   -1.564E+01   -1.551E+01   -1.538E+01   -1.525E+01   -1.512E+01
    -1.499E+01   -1.486E+01   -1.474E+01   -1.461E+01   -1.448E+01   -1.435E+01   -1.423E+01   -1.410E+01   -1.397E+01   -1.385E+01
    -1.372E+01   -1.360E+01   -1.347E+01   -1.335E+01   -1.322E+01   -1.310E+01   -1.298E+01   -1.286E+01   -1.274E+01   -1.261E+01
    -1.249E+01   -1.237E+01   -1.226E+01   -1.214E+01   -1.202E+01   -1.190E+01   -1.179E+01   -1.167E+01   -1.156E+01   -1.144E+01
    -1.133E+01   -1.121E+01   -1.110E+01   -1.099E+01   -1.088E+01   -1.077E+01   -1.066E+01   -1.055E+01   -1.044E+01   -1.034E+01
    -1.023E+01   -1.013E+01   -1.002E+01   -9.918E+00   -9.815E+00   -9.713E+00   -9.612E+00   -9.511E+00   -9.412E+00   -9.313E+00
    -9.216E+00   -9.119E+00   -9.023E+00   -8.928E+00   -8.834E+00   -8.740E+00   -8.648E+00   -8.557E+00   -8.466E+00   -8.377E+00
    -8.288E+00   -8.201E+00   -8.114E+00   -8.028E+00   -7.944E+00   -7.860E+00   -7.778E+00   -7.696E+00   -7.615E+00   -7.536E+00
    -7.457E+00   -7.380E+00   -7.303E+00   -7.228E+00   -7.154E+00   -7.080E+00   -7.008E+00   -6.937E+00   -6.867E+00   -6.797E+00
    -6.729E+00   -6.662E+00   -6.596E+00   -6.531E+00   -6.466E+00   -6.403E+00   -6.341E+00   -6.279E+00   -6.219E+00   -6.159E+00
    -6.101E+00   -6.043E+00   -5.987E+00   -5.931E+00   -5.876E+00   -5.822E+00   -5.769E+00   -5.717E+00   -5.665E+00   -5.615E+00
    -5.565E+00   -5.517E+00   -5.469E+00   -5.422E+00   -5.376E+00   -5.331E+00   -5.286E+00   -5.242E+00   -5.200E+00   -5.158E+00
    -5.116E+00   -5.076E+00   -5.036E+00   -4.998E+00   -4.960E+00   -4.922E+00   -4.886E+00   -4.850E+00   -4.815E+00   -4.781E+00
    -4.747E+00   -4.714E+00   -4.682E+00   -4.651E+00   -4.620E+00   -4.590E+00   -4.561E+00   -4.532E+00   -4.504E+00   -4.476E+00
    -4.449E+00   -4.423E+00   -4.397E+00   -4.372E+00   -4.348E+00   -4.324E+00   -4.300E+00   -4.277E+00   -4.255E+00   -4.233E+00
    -4.212E+00   -4.191E+00   -4.170E+00   -4.150E+00   -4.131E+00   -4.112E+00   -4.093E+00   -4.075E+00   -4.057E+00   -4.040E+00
    -4.023E+00   -4.006E+00   -3.990E+00   -3.974E+00   -3.959E+00   -3.943E+00   -3.928E+00   -3.914E+00   -3.900E+00   -3.886E+00
    -3.872E+00   -3.859E+00   -3.845E+00   -3.832E+00   -3.820E+00   -3.807E+00   -3.795E+00   -3.782E+00   -3.770E+00   -3.758E+00
    -3.746E+00   -3.734E+00   -3.722E+00   -3.711E+00   -3.699E+00   -3.687E+00   -3.675E+00   -3.662E+00   -3.650E+00   -3.638E+00
    -3.625E+00   -3.612E+00   -3.599E+00   -3.586E+00   -3.572E+00   -3.558E+00   -3.544E+00   -3.530E+00   -3.515E+00   -3.500E+00
    -3.484E+00   -3.468E+00   -3.451E+00   -3.434E+00   -3.416E+00   -3.398E+00   -3.380E+00   -3.360E+00   -3.340E+00   -3.320E+00
    -3.299E+00   -3.277E+00   -3.254E+00   -3.231E+00   -3.207E+00   -3.182E+00   -3.156E+00   -3.130E+00   -3.103E+00   -3.075E+00
    -3.046E+00   -3.016E+00   -2.985E+00   -2.954E+00   -2.922E+00   -2.888E+00   -2.855E+00   -2.820E+00   -2.784E+00   -2.748E+00
    -2.711E+00   -2.673E+00   -2.634E+00   -2.594E+00   -2.554E+00   -2.513E+00   -2.471E+00   -2.428E+00   -2.384E+00   -2.340E+00
    -2.295E+00   -2.249E+00   -2.202E+00   -2.154E+00   -2.106E+00   -2.057E+00   -2.007E+00   -1.956E+00   -1.905E+00   -1.853E+00
    -1.799E+00   -1.746E+00   -1.691E+00   -1.636E+00   -1.580E+00   -1.523E+00   -1.465E+00   -1.407E+00   -1.348E+00   -1.288E+00
    -1.227E+00   -1.166E+00   -1.104E+00   -1.041E+00   -9.776E-01   -9.134E-01   -8.484E-01   -7.829E-01   -7.167E-01   -6.499E-01
    -5.825E-01   -5.145E-01   -4.460E-01   -3.770E-01   -3.075E-01   -2.376E-01   -1.672E-01   -9.632E-02   -2.508E-02    4.655E-02
     1.185E-01    1.908E-01    2.635E-01    3.364E-01    4.096E-01    4.830E-01    5.567E-01    6.306E-01    7.046E-01    7.788E-01
     8.532E-01    9.276E-01    1.002E+00    1.077E+00    1.151E+00    1.226E+00    1.301E+00    1.375E+00    1.450E+00    1.525E+00
     1.599E+00    1.673E+00    1.748E+00    1.822E+00    1.896E+00    1.969E+00    2.043E+00    2.116E+00
 Ala      Conc. = 4.39E+01
