 LCModel (Version 6.3-1L) Copyright: S.W. Provencher.          Ref.: Magn. Reson. Med. 30:672-679 (1993).                
 Slice#2 Row#10 Col#10  K_02_press_1_raw_act
 36 lines in following concentration table = NCONC+1
    Conc.  %SD /Cr+PCr  Metabolite                                         
  251.536  44%   0.123 Ala                                                 
    0.000 999%   0.000 Asp                                                 
  901.042  28%   0.440 Cr                                                  
 1.15E+03  23%   0.560 PCr                                                 
    0.000 999%   0.000 GABA                                                
    0.000 999%   0.000 Glc                                                 
  483.706  46%   0.236 Gln                                                 
 1.86E+03  13%   0.908 Glu                                                 
  878.153   3%   0.429 GPC                                                 
    0.000 999%   0.000 PCh                                                 
  508.372  16%   0.248 GSH                                                 
 1.86E+03  16%   0.906 Ins                                                 
  356.740  34%   0.174 Lac                                                 
 2.85E+03   5%   1.391 NAA                                                 
  792.015  15%   0.387 NAAG                                                
  144.243  23% 7.0E-02 Scyllo                                              
    0.000 999%   0.000 Tau                                                 
  581.110  23%   0.284 -CrCH2                                              
  878.153   3%   0.429 GPC+PCh                                             
 3.64E+03   3%   1.778 NAA+NAAG                                            
 2.05E+03   3%   1.000 Cr+PCr                                              
 2.34E+03  14%   1.144 Glu+Gln                                             
    0.000 999%   0.000 Lip13a                                              
  351.523  85%   0.172 Lip13b                                              
   46.860 329% 2.3E-02 Lip09                                               
 1.81E+03  17%   0.884 MM09                                                
   80.937 126% 4.0E-02 Lip20                                               
 3.93E+03  13%   1.919 MM20                                                
  478.635  44%   0.234 MM12                                                
  738.232  53%   0.360 MM14                                                
 1.24E+03  15%   0.605 MM17                                                
  351.523  85%   0.172 Lip13a+Lip13b                                       
 1.57E+03  30%   0.766 MM14+Lip13a+Lip13b+MM12                             
 1.86E+03  16%   0.907 MM09+Lip09                                          
 4.01E+03  13%   1.959 MM20+Lip20                                          
   6 lines in following misc. output table
  FWHM = 0.038 ppm    S/N =  16                                            
  Data shift = 0.015 ppm                                                   
  Ph: -19 deg      -8.5 deg/ppm                                            
  alphaB,S = 5.7E-01,   7.2E+01                                            
   14 spline knots.   Ns = 6(1)                                            
  (10) 3 infls.   ( 3) 1 extrs.                                            
  498 points on ppm-axis = NY
      4.000000     3.992357     3.984714     3.977070     3.969427     3.961784     3.954141     3.946497     3.938854     3.931211
      3.923568     3.915925     3.908281     3.900638     3.892995     3.885352     3.877708     3.870065     3.862422     3.854779
      3.847136     3.839492     3.831849     3.824206     3.816563     3.808919     3.801276     3.793633     3.785990     3.778347
      3.770703     3.763060     3.755417     3.747774     3.740130     3.732487     3.724844     3.717201     3.709558     3.701914
      3.694271     3.686628     3.678985     3.671341     3.663698     3.656055     3.648412     3.640769     3.633125     3.625482
      3.617839     3.610196     3.602552     3.594909     3.587266     3.579623     3.571980     3.564336     3.556693     3.549050
      3.541407     3.533763     3.526120     3.518477     3.510834     3.503191     3.495547     3.487904     3.480261     3.472618
      3.464974     3.457331     3.449688     3.442045     3.434402     3.426758     3.419115     3.411472     3.403829     3.396185
      3.388542     3.380899     3.373256     3.365613     3.357969     3.350326     3.342683     3.335040     3.327396     3.319753
      3.312110     3.304467     3.296824     3.289180     3.281537     3.273894     3.266251     3.258607     3.250964     3.243321
      3.235678     3.228034     3.220391     3.212748     3.205105     3.197462     3.189818     3.182175     3.174532     3.166889
      3.159245     3.151602     3.143959     3.136316     3.128673     3.121029     3.113386     3.105743     3.098100     3.090456
      3.082813     3.075170     3.067527     3.059884     3.052240     3.044597     3.036954     3.029311     3.021667     3.014024
      3.006381     2.998738     2.991095     2.983451     2.975808     2.968165     2.960522     2.952878     2.945235     2.937592
      2.929949     2.922306     2.914662     2.907019     2.899376     2.891733     2.884089     2.876446     2.868803     2.861160
      2.853517     2.845873     2.838230     2.830587     2.822944     2.815300     2.807657     2.800014     2.792371     2.784728
      2.777084     2.769441     2.761798     2.754155     2.746511     2.738868     2.731225     2.723582     2.715939     2.708295
      2.700652     2.693009     2.685366     2.677722     2.670079     2.662436     2.654793     2.647150     2.639506     2.631863
      2.624220     2.616577     2.608933     2.601290     2.593647     2.586004     2.578361     2.570717     2.563074     2.555431
      2.547788     2.540144     2.532501     2.524858     2.517215     2.509572     2.501928     2.494285     2.486642     2.478999
      2.471355     2.463712     2.456069     2.448426     2.440783     2.433139     2.425496     2.417853     2.410210     2.402566
      2.394923     2.387280     2.379637     2.371994     2.364350     2.356707     2.349064     2.341421     2.333777     2.326134
      2.318491     2.310848     2.303205     2.295561     2.287918     2.280275     2.272632     2.264988     2.257345     2.249702
      2.242059     2.234416     2.226772     2.219129     2.211486     2.203843     2.196199     2.188556     2.180913     2.173270
      2.165627     2.157983     2.150340     2.142697     2.135054     2.127410     2.119767     2.112124     2.104481     2.096838
      2.089194     2.081551     2.073908     2.066265     2.058621     2.050978     2.043335     2.035692     2.028049     2.020405
      2.012762     2.005119     1.997476     1.989833     1.982190     1.974546     1.966903     1.959260     1.951617     1.943974
      1.936331     1.928688     1.921045     1.913402     1.905759     1.898115     1.890472     1.882829     1.875186     1.867543
      1.859900     1.852257     1.844614     1.836971     1.829327     1.821684     1.814041     1.806398     1.798755     1.791112
      1.783469     1.775826     1.768183     1.760540     1.752896     1.745253     1.737610     1.729967     1.722324     1.714681
      1.707038     1.699395     1.691752     1.684108     1.676465     1.668822     1.661179     1.653536     1.645893     1.638250
      1.630607     1.622964     1.615321     1.607677     1.600034     1.592391     1.584748     1.577105     1.569462     1.561819
      1.554176     1.546533     1.538890     1.531246     1.523603     1.515960     1.508317     1.500674     1.493031     1.485388
      1.477745     1.470102     1.462458     1.454815     1.447172     1.439529     1.431886     1.424243     1.416600     1.408957
      1.401314     1.393671     1.386027     1.378384     1.370741     1.363098     1.355455     1.347812     1.340169     1.332526
      1.324883     1.317240     1.309596     1.301953     1.294310     1.286667     1.279024     1.271381     1.263738     1.256095
      1.248452     1.240808     1.233165     1.225522     1.217879     1.210236     1.202593     1.194950     1.187307     1.179664
      1.172021     1.164377     1.156734     1.149091     1.141448     1.133805     1.126162     1.118519     1.110876     1.103233
      1.095590     1.087946     1.080303     1.072660     1.065017     1.057374     1.049731     1.042088     1.034445     1.026802
      1.019158     1.011515     1.003872     0.996229     0.988586     0.980943     0.973300     0.965657     0.958014     0.950371
      0.942727     0.935084     0.927441     0.919798     0.912155     0.904512     0.896869     0.889226     0.881583     0.873940
      0.866296     0.858653     0.851010     0.843367     0.835724     0.828081     0.820438     0.812795     0.805152     0.797508
      0.789865     0.782222     0.774579     0.766936     0.759293     0.751650     0.744007     0.736364     0.728721     0.721077
      0.713434     0.705791     0.698148     0.690505     0.682862     0.675219     0.667576     0.659933     0.652290     0.644646
      0.637003     0.629360     0.621717     0.614074     0.606431     0.598788     0.591145     0.583502     0.575858     0.568215
      0.560572     0.552929     0.545286     0.537643     0.530000     0.522357     0.514714     0.507071     0.499427     0.491784
      0.484141     0.476498     0.468855     0.461212     0.453569     0.445925     0.438282     0.430639     0.422996     0.415353
      0.407710     0.400067     0.392424     0.384780     0.377137     0.369494     0.361851     0.354208     0.346565     0.338922
      0.331278     0.323635     0.315992     0.308349     0.300706     0.293063     0.285420     0.277777     0.270133     0.262490
      0.254847     0.247204     0.239561     0.231918     0.224275     0.216631     0.208988     0.201345
 NY phased data points follow
  -1.65366E+01 -1.82817E+01 -1.95844E+01 -1.49463E+01 -1.58411E+01 -1.06262E+01 -2.00642E+00 -1.17250E+00  9.13406E+00  1.54508E+01
   2.08724E+01  2.39641E+01  1.91932E+01  1.22502E+01  3.77071E+00 -3.09735E+00 -1.18019E+01 -1.57538E+01 -1.39005E+01 -1.63481E+01
  -1.28059E+01 -1.93510E+01 -1.24359E+01 -1.19944E+01 -1.29983E+01 -1.12813E+01 -8.60162E+00 -6.11059E+00 -9.19638E+00 -8.34229E+00
  -5.71624E+00 -3.44775E+00 -3.21711E-01 -4.11800E+00 -5.32471E+00 -7.17853E+00 -8.19616E+00 -3.36889E+00 -5.46508E+00 -6.99115E+00
  -4.49069E+00 -5.31400E+00 -3.01885E+00 -9.44609E-01 -1.85049E+00  1.51695E+00  5.73057E+00  1.25203E+01  9.32754E+00  4.79336E+00
   1.33293E-01  1.04858E+00 -3.91782E+00 -5.28749E+00 -6.99338E+00 -7.60399E+00 -1.26835E+00 -4.40460E+00 -6.13078E+00 -4.68141E+00
  -8.68423E+00 -1.51938E+01 -1.44217E+01 -2.30639E+01 -1.72081E+01 -1.99322E+01 -2.08301E+01 -1.98136E+01 -1.84885E+01 -1.46082E+01
  -1.34842E+01 -1.33656E+01 -1.34905E+01 -1.17818E+01 -1.49212E+01 -1.22152E+01 -9.66970E+00 -1.19954E+01 -1.19831E+01 -1.10979E+01
  -1.17609E+01 -7.72599E+00 -1.08387E+01 -9.44851E+00 -1.01354E+01 -8.41954E+00 -8.12369E+00 -5.09532E+00 -8.86083E+00 -4.02627E+00
  -5.11313E+00 -7.97588E-01 -4.04383E+00  7.15651E-01  9.80693E-01  4.06051E+00  6.02692E+00  6.01783E+00  9.10701E+00  2.15790E+01
   4.04492E+01  6.17468E+01  7.93408E+01  7.97377E+01  6.97437E+01  5.20079E+01  3.61168E+01  1.98459E+01  9.58756E+00 -1.28876E+00
  -4.06607E-01 -2.80770E+00 -6.73039E+00 -6.81197E+00 -8.44851E+00 -1.05597E+01 -6.74212E+00 -5.77652E+00 -2.87775E+00 -1.88109E+00
   3.49022E+00  1.67641E+00  1.90404E+00  9.62548E+00  2.58205E+01  4.81589E+01  6.62674E+01  7.17667E+01  6.51402E+01  5.19952E+01
   3.71233E+01  2.74726E+01  1.53175E+01  4.78821E+00 -5.09301E-01 -5.52992E+00 -8.21686E+00 -8.06382E+00 -8.20562E+00 -1.00081E+01
  -6.82210E+00 -5.11125E+00 -4.17269E+00 -8.23327E+00 -3.87806E+00 -5.70060E+00 -4.43043E+00 -5.04982E+00 -6.89182E+00 -7.26679E+00
  -5.97772E+00 -4.42766E+00 -6.58247E+00 -5.77536E+00 -4.51787E+00 -9.50023E+00 -5.90731E+00 -6.40874E+00 -3.26811E+00 -4.66360E+00
  -5.23547E+00 -1.08727E+01 -1.09135E+01 -1.35220E+01 -1.11601E+01 -8.08519E+00 -1.01657E+01 -1.30118E+01 -1.44063E+01 -1.74437E+01
  -1.75920E+01 -1.74975E+01 -2.22128E+01 -2.34890E+01 -2.64237E+01 -3.30731E+01 -2.82977E+01 -2.51311E+01 -1.93290E+01 -2.09836E+01
  -2.09244E+01 -1.83989E+01 -2.00082E+01 -1.67708E+01 -1.79225E+01 -1.59142E+01 -1.81764E+01 -1.69770E+01 -1.46929E+01 -7.45211E+00
  -4.42404E+00 -8.01124E+00 -2.84327E+00 -2.08232E+00 -6.45598E+00 -7.01913E+00 -1.23908E+01 -1.00755E+01 -1.02412E+01 -9.16262E+00
  -1.12078E+01 -5.36077E+00 -4.01896E+00 -3.92134E-01  2.00382E+00  1.82018E-01 -3.59718E+00 -3.76197E+00 -4.79214E+00 -5.46414E+00
  -6.54000E+00 -9.17645E+00 -3.29244E+00  1.81904E+00  1.23099E+01  1.09719E+01  1.51059E+01  1.28779E+01  1.14501E+01  4.61513E+00
  -3.20710E+00 -7.59750E+00 -9.72989E+00 -5.59771E+00 -3.60586E+00  3.24853E+00  7.74671E+00  7.42425E+00  9.64922E+00  7.26245E+00
   1.02143E+01  5.72423E+00  4.04360E+00  7.29964E+00  4.65568E+00  8.74416E+00  3.44967E+00  6.61878E+00  7.05825E+00  5.47725E+00
   4.03423E-01  1.91250E-01 -9.30687E-01  2.71636E-01  3.90103E+00  8.50522E+00  1.15892E+01  1.61441E+01  2.49015E+01  1.77983E+01
   1.57870E+01  1.74683E+01  2.55958E+01  4.21887E+01  5.54840E+01  6.01130E+01  5.79226E+01  6.48828E+01  9.11862E+01  1.22409E+02
   1.38508E+02  1.30186E+02  1.04542E+02  8.34446E+01  5.81005E+01  3.86523E+01  2.69309E+01  1.79632E+01  1.53303E+01  8.49509E+00
   8.78565E+00  7.19608E+00  9.83905E+00  7.68573E+00  5.60316E+00  7.49298E+00  7.75981E+00  7.50192E+00  7.91472E+00  8.41484E+00
   7.75212E+00  7.31216E+00  6.77087E+00  4.46264E+00  2.78637E+00  3.79857E+00  3.33404E+00  6.11534E+00  2.79862E+00  6.66718E+00
   8.92269E+00  4.13188E+00  4.40566E+00  8.67253E+00  5.98585E+00  1.83394E+00  4.84453E+00  3.20833E+00  5.43237E+00  4.70840E+00
   5.85059E+00  1.19807E+00  1.71936E+00  5.13227E+00  4.79368E+00 -1.95887E-01  5.67313E+00 -1.49998E-01  4.87579E+00  8.85491E+00
   1.30048E+01  9.59719E+00  1.31782E+01  1.61610E+01  1.99691E+01  1.86220E+01  1.66534E+01  1.68011E+01  1.95047E+01  2.08599E+01
   1.92668E+01  1.43834E+01  1.28371E+01  7.31911E+00  4.90515E+00  4.53398E+00  3.83424E+00  5.07025E+00  2.50645E+00  5.44566E+00
   1.38586E+00  2.22951E-01  1.28423E+00  2.70875E+00  3.87660E+00  6.01401E+00  7.15476E+00  4.96294E+00  1.04561E+01  9.08586E+00
   1.10246E+01  7.43269E+00  9.18090E+00  1.23480E+01  1.55239E+01  1.85596E+01  1.31352E+01  1.28281E+01  1.11521E+01  7.33619E+00
   8.29618E+00  2.55476E+00  7.13559E+00  4.93996E+00  6.92253E+00  6.07761E+00  6.99063E+00  9.64878E+00  8.98472E+00  7.71962E+00
   1.24721E+01  8.65284E+00  7.37175E+00  9.74308E+00  6.34406E+00  5.64487E+00  4.05021E+00  8.64788E+00  4.23239E+00  6.24145E+00
   5.51718E+00  7.57532E+00  1.73576E+00  6.97639E+00  6.28501E+00  7.53640E+00  4.08305E+00  4.56663E+00  5.54063E+00  7.01348E+00
  -1.08152E+00  6.23743E+00  6.19157E+00  5.17403E+00  3.88856E+00  7.59575E+00  7.26135E+00  5.82882E+00  6.05180E+00  6.56733E+00
   6.83238E+00  1.18333E+01  1.06860E+01  1.25497E+01  1.40749E+01  1.52082E+01  1.38400E+01  1.23874E+01  1.29338E+01  1.18986E+01
   1.12734E+01  1.02823E+01  1.14659E+01  1.25055E+01  1.14564E+01  1.54351E+01  1.68373E+01  1.38603E+01  1.68834E+01  1.79083E+01
   1.83318E+01  1.36160E+01  1.75391E+01  1.70090E+01  1.47125E+01  1.40179E+01  1.24270E+01  8.95375E+00  1.40081E+01  1.08910E+01
   1.03400E+01  8.77854E+00  9.36324E+00  9.04206E+00  8.44109E+00  1.11369E+01  5.54327E+00  4.48589E+00  8.34316E+00  6.73753E+00
   2.51996E+00  7.67330E+00  5.99636E+00  8.92464E+00  4.91438E+00  6.43727E+00  7.54492E+00  3.40850E+00  6.23329E+00  4.14361E+00
   5.05874E+00  3.02311E+00  6.61874E+00  6.76384E+00  3.09696E+00  3.88617E+00  2.25660E+00  7.87178E+00  3.30043E+00  4.57221E+00
   6.78894E+00  5.15093E+00  1.89594E+00  3.70172E+00  8.03103E+00  4.12910E+00  6.47287E+00  7.60047E+00  6.58776E+00  4.12679E+00
   4.65705E+00  7.17774E+00  6.28636E+00  3.35821E+00  5.37142E+00  3.62542E+00  6.75729E+00  6.75748E+00  2.54216E+00  5.64474E+00
   5.63130E+00  3.12922E+00  7.57970E+00  3.44232E+00  1.08031E+01  2.48742E+00  8.30862E+00  6.66645E+00  6.26066E+00  4.80933E+00
   4.02406E+00  7.16221E+00  7.45356E+00  1.05640E+01  5.05553E+00  7.80648E+00  7.09911E+00  2.85996E+00  5.19253E+00  5.71468E+00
   5.15886E+00  6.93168E+00  6.79139E+00  3.31988E+00  1.98024E+00  7.73003E+00  4.35448E+00  6.03449E+00
 NY points of the fit to the data follow
  -1.72353E+01 -1.72215E+01 -1.66795E+01 -1.50840E+01 -1.26391E+01 -9.28084E+00 -5.19487E+00  5.38740E-01  8.62884E+00  1.69722E+01
   2.20771E+01  2.19205E+01  1.72577E+01  1.06451E+01  4.22333E+00 -1.20856E+00 -5.62470E+00 -8.97878E+00 -1.12435E+01 -1.22462E+01
  -1.25994E+01 -1.28907E+01 -1.32703E+01 -1.30923E+01 -1.24999E+01 -1.27431E+01 -1.26471E+01 -1.08196E+01 -7.44962E+00 -3.92513E+00
  -1.38711E+00  9.29611E-02  4.74563E-01 -4.03852E-01 -2.30682E+00 -4.83780E+00 -7.54638E+00 -9.92651E+00 -1.16265E+01 -1.23431E+01
  -1.17053E+01 -1.01549E+01 -8.54556E+00 -6.74440E+00 -3.79978E+00  3.46235E-01  4.09590E+00  5.54185E+00  4.16024E+00  8.02639E-01
  -3.15889E+00 -6.76245E+00 -9.51072E+00 -1.11488E+01 -1.19044E+01 -1.18597E+01 -1.10861E+01 -9.73854E+00 -8.10709E+00 -6.81982E+00
  -6.45278E+00 -7.13330E+00 -8.60777E+00 -1.02667E+01 -1.15837E+01 -1.21603E+01 -1.20371E+01 -1.14946E+01 -1.06610E+01 -9.60305E+00
  -8.54374E+00 -7.82877E+00 -7.65163E+00 -7.93977E+00 -8.44696E+00 -8.93934E+00 -9.32571E+00 -9.57849E+00 -9.74376E+00 -9.81080E+00
  -9.79749E+00 -9.44521E+00 -9.05663E+00 -8.95590E+00 -8.35500E+00 -7.00041E+00 -5.57168E+00 -4.92460E+00 -5.34916E+00 -6.38109E+00
  -7.23919E+00 -7.69618E+00 -7.70431E+00 -7.30735E+00 -6.66900E+00 -5.34142E+00 -1.34729E+00  4.05195E+00  8.64945E+00  1.95845E+01
   4.05854E+01  6.48341E+01  8.07989E+01  8.17308E+01  6.99112E+01  5.24491E+01  3.49843E+01  2.00663E+01  8.29423E+00 -5.72741E-01
  -5.91738E+00 -7.74799E+00 -8.26235E+00 -8.40655E+00 -8.39908E+00 -8.29436E+00 -8.13119E+00 -7.92073E+00 -7.58742E+00 -6.88617E+00
  -4.57271E+00  1.00643E+00  5.26834E+00  1.13755E+01  2.60226E+01  4.73092E+01  6.56900E+01  7.24379E+01  6.61451E+01  5.23388E+01
   3.74065E+01  2.44002E+01  1.37461E+01  4.87570E+00 -2.31497E+00 -6.31572E+00 -8.14816E+00 -8.86847E+00 -8.61282E+00 -7.69209E+00
  -6.61996E+00 -5.80040E+00 -5.44208E+00 -5.56017E+00 -5.97906E+00 -6.50072E+00 -7.01661E+00 -7.47988E+00 -7.91885E+00 -8.27185E+00
  -8.59397E+00 -8.99000E+00 -9.40061E+00 -9.71202E+00 -9.81300E+00 -9.77469E+00 -9.48741E+00 -9.27927E+00 -9.64378E+00 -1.05507E+01
  -1.17568E+01 -1.24430E+01 -1.21231E+01 -1.12791E+01 -1.06966E+01 -1.08127E+01 -1.16022E+01 -1.26028E+01 -1.33984E+01 -1.39253E+01
  -1.42166E+01 -1.43590E+01 -1.45467E+01 -1.52146E+01 -1.62251E+01 -1.69635E+01 -1.67126E+01 -1.56651E+01 -1.48761E+01 -1.48733E+01
  -1.51937E+01 -1.52382E+01 -1.45665E+01 -1.36632E+01 -1.32438E+01 -1.30260E+01 -1.21814E+01 -1.03579E+01 -7.70638E+00 -4.98485E+00
  -3.01989E+00 -2.17301E+00 -2.49595E+00 -3.34893E+00 -4.40990E+00 -5.55064E+00 -6.42809E+00 -6.62642E+00 -6.00865E+00 -4.92814E+00
  -3.50424E+00 -1.84629E+00 -1.26877E-01  1.22833E+00  1.42316E+00  5.27798E-01 -1.51992E+00 -4.56550E+00 -7.48665E+00 -9.46435E+00
  -1.00260E+01 -9.58888E+00 -7.77027E+00 -3.86470E+00  1.31154E+00  5.55107E+00  6.94475E+00  5.48338E+00  2.25326E+00 -2.08170E+00
  -7.17970E+00 -1.15305E+01 -1.32642E+01 -1.17359E+01 -7.76749E+00 -3.14154E+00  9.60438E-01  4.10179E+00  5.91423E+00  6.32495E+00
   5.78422E+00  5.26455E+00  5.31988E+00  5.94242E+00  6.95263E+00  8.13859E+00  9.12964E+00  9.42483E+00  9.05995E+00  8.10215E+00
   6.70442E+00  5.44260E+00  5.21613E+00  6.31388E+00  8.26118E+00  1.04505E+01  1.23941E+01  1.38259E+01  1.48637E+01  1.65277E+01
   1.80792E+01  1.98067E+01  2.47394E+01  3.41948E+01  4.87623E+01  6.00039E+01  6.33520E+01  7.27299E+01  9.49799E+01  1.20552E+02
   1.34071E+02  1.28241E+02  1.08002E+02  8.37029E+01  6.15883E+01  4.33647E+01  2.89867E+01  1.78547E+01  1.14915E+01  9.40344E+00
   8.34847E+00  7.71776E+00  7.43902E+00  7.29974E+00  7.04402E+00  6.62779E+00  6.14361E+00  5.66629E+00  5.18583E+00  4.75035E+00
   4.40186E+00  4.16281E+00  4.01174E+00  3.88212E+00  3.71246E+00  3.51780E+00  3.29914E+00  3.06241E+00  2.85175E+00  2.71706E+00
   2.68657E+00  2.74237E+00  2.82542E+00  2.91937E+00  3.02412E+00  3.12610E+00  3.23120E+00  3.37080E+00  3.58206E+00  3.89968E+00
   4.32947E+00  4.85773E+00  5.46943E+00  6.15120E+00  6.88977E+00  7.67148E+00  8.47601E+00  9.28553E+00  1.00845E+01  1.08523E+01
   1.15651E+01  1.21989E+01  1.27315E+01  1.31461E+01  1.34319E+01  1.35848E+01  1.36062E+01  1.35058E+01  1.33023E+01  1.30288E+01
   1.27461E+01  1.25182E+01  1.21430E+01  1.17693E+01  1.17026E+01  1.16346E+01  1.09821E+01  9.48871E+00  7.45065E+00  5.60945E+00
   4.26495E+00  3.21554E+00  2.73815E+00  3.22012E+00  4.61386E+00  6.42088E+00  7.93394E+00  8.80540E+00  9.16918E+00  9.26381E+00
   9.29513E+00  9.44625E+00  9.56883E+00  9.59245E+00  1.01579E+01  1.10827E+01  1.14799E+01  1.06573E+01  8.72022E+00  6.64652E+00
   5.04912E+00  3.79769E+00  3.30742E+00  4.09578E+00  6.04464E+00  8.43553E+00  1.03719E+01  1.13014E+01  1.13909E+01  1.09796E+01
   1.03191E+01  9.55217E+00  8.72527E+00  7.98302E+00  7.44995E+00  7.04693E+00  6.72490E+00  6.46212E+00  6.24504E+00  6.06500E+00
   5.91540E+00  5.79177E+00  5.69003E+00  5.60772E+00  5.54324E+00  5.49700E+00  5.46971E+00  5.46288E+00  5.47749E+00  5.51542E+00
   5.57868E+00  5.67042E+00  5.79322E+00  5.94990E+00  6.14245E+00  6.37357E+00  6.64561E+00  6.96135E+00  7.32219E+00  7.72905E+00
   8.18132E+00  8.67821E+00  9.21732E+00  9.79529E+00  1.04062E+01  1.10425E+01  1.16947E+01  1.23524E+01  1.30034E+01  1.36349E+01
   1.42324E+01  1.47816E+01  1.52683E+01  1.56804E+01  1.60069E+01  1.62389E+01  1.63696E+01  1.63958E+01  1.63169E+01  1.61366E+01
   1.58604E+01  1.54971E+01  1.50568E+01  1.45520E+01  1.39960E+01  1.34034E+01  1.27874E+01  1.21613E+01  1.15363E+01  1.09233E+01
   1.03311E+01  9.76738E+00  9.23695E+00  8.74352E+00  8.28877E+00  7.87400E+00  7.49883E+00  7.16242E+00  6.86235E+00  6.59638E+00
   6.36159E+00  6.15580E+00  5.97614E+00  5.82018E+00  5.68479E+00  5.56777E+00  5.46679E+00  5.38049E+00  5.30692E+00  5.24467E+00
   5.19185E+00  5.14757E+00  5.11073E+00  5.08095E+00  5.05712E+00  5.03862E+00  5.02440E+00  5.01437E+00  5.00800E+00  5.00535E+00
   5.00560E+00  5.00854E+00  5.01353E+00  5.02085E+00  5.03019E+00  5.04170E+00  5.05469E+00  5.06914E+00  5.08467E+00  5.10170E+00
   5.11996E+00  5.13955E+00  5.15985E+00  5.18101E+00  5.20279E+00  5.22569E+00  5.24935E+00  5.27383E+00  5.29858E+00  5.32390E+00
   5.34964E+00  5.37624E+00  5.40328E+00  5.43081E+00  5.45838E+00  5.48640E+00  5.51475E+00  5.54378E+00  5.57297E+00  5.60244E+00
   5.63182E+00  5.66162E+00  5.69167E+00  5.72224E+00  5.75277E+00  5.78344E+00  5.81400E+00  5.84499E+00  5.87616E+00  5.90768E+00
   5.93901E+00  5.97043E+00  6.00177E+00  6.03355E+00  6.06542E+00  6.09750E+00  6.12930E+00  6.16121E+00
 NY background values follow
    -2.298E+01   -2.285E+01   -2.272E+01   -2.259E+01   -2.246E+01   -2.233E+01   -2.220E+01   -2.207E+01   -2.194E+01   -2.181E+01
    -2.168E+01   -2.155E+01   -2.142E+01   -2.129E+01   -2.116E+01   -2.104E+01   -2.091E+01   -2.078E+01   -2.065E+01   -2.052E+01
    -2.040E+01   -2.027E+01   -2.014E+01   -2.002E+01   -1.989E+01   -1.977E+01   -1.964E+01   -1.952E+01   -1.939E+01   -1.927E+01
    -1.915E+01   -1.903E+01   -1.890E+01   -1.878E+01   -1.866E+01   -1.854E+01   -1.842E+01   -1.830E+01   -1.818E+01   -1.807E+01
    -1.795E+01   -1.783E+01   -1.772E+01   -1.760E+01   -1.749E+01   -1.738E+01   -1.727E+01   -1.715E+01   -1.704E+01   -1.693E+01
    -1.683E+01   -1.672E+01   -1.661E+01   -1.650E+01   -1.640E+01   -1.629E+01   -1.619E+01   -1.609E+01   -1.598E+01   -1.588E+01
    -1.578E+01   -1.568E+01   -1.558E+01   -1.549E+01   -1.539E+01   -1.529E+01   -1.520E+01   -1.510E+01   -1.501E+01   -1.492E+01
    -1.482E+01   -1.473E+01   -1.464E+01   -1.455E+01   -1.446E+01   -1.438E+01   -1.429E+01   -1.420E+01   -1.412E+01   -1.403E+01
    -1.395E+01   -1.387E+01   -1.378E+01   -1.370E+01   -1.362E+01   -1.354E+01   -1.346E+01   -1.339E+01   -1.331E+01   -1.323E+01
    -1.316E+01   -1.308E+01   -1.301E+01   -1.294E+01   -1.287E+01   -1.279E+01   -1.272E+01   -1.265E+01   -1.259E+01   -1.252E+01
    -1.245E+01   -1.239E+01   -1.232E+01   -1.226E+01   -1.220E+01   -1.213E+01   -1.207E+01   -1.201E+01   -1.195E+01   -1.190E+01
    -1.184E+01   -1.178E+01   -1.173E+01   -1.168E+01   -1.162E+01   -1.157E+01   -1.152E+01   -1.147E+01   -1.142E+01   -1.138E+01
    -1.133E+01   -1.129E+01   -1.124E+01   -1.120E+01   -1.116E+01   -1.112E+01   -1.108E+01   -1.104E+01   -1.100E+01   -1.097E+01
    -1.093E+01   -1.090E+01   -1.087E+01   -1.084E+01   -1.081E+01   -1.078E+01   -1.075E+01   -1.073E+01   -1.070E+01   -1.068E+01
    -1.066E+01   -1.064E+01   -1.061E+01   -1.059E+01   -1.058E+01   -1.056E+01   -1.054E+01   -1.052E+01   -1.050E+01   -1.048E+01
    -1.046E+01   -1.045E+01   -1.043E+01   -1.041E+01   -1.039E+01   -1.037E+01   -1.035E+01   -1.033E+01   -1.031E+01   -1.029E+01
    -1.027E+01   -1.025E+01   -1.022E+01   -1.020E+01   -1.017E+01   -1.014E+01   -1.011E+01   -1.008E+01   -1.005E+01   -1.002E+01
    -9.980E+00   -9.942E+00   -9.903E+00   -9.861E+00   -9.817E+00   -9.772E+00   -9.724E+00   -9.673E+00   -9.620E+00   -9.565E+00
    -9.507E+00   -9.446E+00   -9.382E+00   -9.316E+00   -9.247E+00   -9.175E+00   -9.101E+00   -9.025E+00   -8.947E+00   -8.866E+00
    -8.783E+00   -8.698E+00   -8.611E+00   -8.522E+00   -8.432E+00   -8.339E+00   -8.246E+00   -8.150E+00   -8.053E+00   -7.955E+00
    -7.855E+00   -7.755E+00   -7.653E+00   -7.550E+00   -7.446E+00   -7.341E+00   -7.236E+00   -7.129E+00   -7.023E+00   -6.915E+00
    -6.807E+00   -6.699E+00   -6.590E+00   -6.482E+00   -6.373E+00   -6.264E+00   -6.155E+00   -6.046E+00   -5.937E+00   -5.829E+00
    -5.721E+00   -5.614E+00   -5.507E+00   -5.400E+00   -5.295E+00   -5.190E+00   -5.086E+00   -4.983E+00   -4.880E+00   -4.779E+00
    -4.679E+00   -4.580E+00   -4.481E+00   -4.384E+00   -4.288E+00   -4.192E+00   -4.098E+00   -4.004E+00   -3.911E+00   -3.820E+00
    -3.729E+00   -3.640E+00   -3.551E+00   -3.463E+00   -3.376E+00   -3.291E+00   -3.206E+00   -3.122E+00   -3.040E+00   -2.958E+00
    -2.877E+00   -2.798E+00   -2.719E+00   -2.641E+00   -2.565E+00   -2.489E+00   -2.414E+00   -2.341E+00   -2.268E+00   -2.197E+00
    -2.126E+00   -2.057E+00   -1.988E+00   -1.921E+00   -1.855E+00   -1.789E+00   -1.725E+00   -1.662E+00   -1.600E+00   -1.539E+00
    -1.479E+00   -1.420E+00   -1.362E+00   -1.305E+00   -1.249E+00   -1.195E+00   -1.141E+00   -1.088E+00   -1.036E+00   -9.858E-01
    -9.360E-01   -8.872E-01   -8.393E-01   -7.924E-01   -7.464E-01   -7.013E-01   -6.570E-01   -6.137E-01   -5.712E-01   -5.296E-01
    -4.888E-01   -4.488E-01   -4.097E-01   -3.713E-01   -3.337E-01   -2.970E-01   -2.609E-01   -2.257E-01   -1.911E-01   -1.573E-01
    -1.242E-01   -9.178E-02   -6.006E-02   -2.901E-02    1.380E-03    3.112E-02    6.023E-02    8.872E-02    1.166E-01    1.439E-01
     1.706E-01    1.967E-01    2.223E-01    2.473E-01    2.718E-01    2.958E-01    3.193E-01    3.423E-01    3.648E-01    3.868E-01
     4.084E-01    4.296E-01    4.504E-01    4.707E-01    4.907E-01    5.103E-01    5.296E-01    5.486E-01    5.672E-01    5.855E-01
     6.035E-01    6.213E-01    6.388E-01    6.561E-01    6.731E-01    6.900E-01    7.067E-01    7.231E-01    7.395E-01    7.557E-01
     7.718E-01    7.877E-01    8.036E-01    8.194E-01    8.351E-01    8.508E-01    8.665E-01    8.822E-01    8.978E-01    9.135E-01
     9.292E-01    9.450E-01    9.608E-01    9.768E-01    9.928E-01    1.009E+00    1.025E+00    1.042E+00    1.058E+00    1.075E+00
     1.092E+00    1.109E+00    1.127E+00    1.144E+00    1.162E+00    1.180E+00    1.199E+00    1.217E+00    1.236E+00    1.255E+00
     1.275E+00    1.295E+00    1.315E+00    1.335E+00    1.355E+00    1.376E+00    1.397E+00    1.419E+00    1.440E+00    1.462E+00
     1.485E+00    1.507E+00    1.530E+00    1.553E+00    1.577E+00    1.601E+00    1.625E+00    1.649E+00    1.674E+00    1.699E+00
     1.725E+00    1.750E+00    1.777E+00    1.803E+00    1.830E+00    1.857E+00    1.885E+00    1.913E+00    1.941E+00    1.970E+00
     1.999E+00    2.028E+00    2.058E+00    2.088E+00    2.119E+00    2.150E+00    2.181E+00    2.213E+00    2.245E+00    2.278E+00
     2.310E+00    2.344E+00    2.377E+00    2.411E+00    2.446E+00    2.480E+00    2.515E+00    2.551E+00    2.586E+00    2.622E+00
     2.658E+00    2.695E+00    2.732E+00    2.769E+00    2.806E+00    2.843E+00    2.881E+00    2.919E+00    2.957E+00    2.995E+00
     3.034E+00    3.072E+00    3.111E+00    3.150E+00    3.189E+00    3.229E+00    3.268E+00    3.308E+00    3.347E+00    3.387E+00
     3.427E+00    3.467E+00    3.507E+00    3.547E+00    3.587E+00    3.628E+00    3.668E+00    3.708E+00    3.749E+00    3.789E+00
     3.829E+00    3.870E+00    3.910E+00    3.950E+00    3.990E+00    4.031E+00    4.071E+00    4.111E+00    4.151E+00    4.191E+00
     4.231E+00    4.271E+00    4.311E+00    4.351E+00    4.391E+00    4.431E+00    4.471E+00    4.511E+00    4.550E+00    4.590E+00
     4.630E+00    4.669E+00    4.709E+00    4.748E+00    4.788E+00    4.827E+00    4.866E+00    4.906E+00    4.945E+00    4.984E+00
     5.023E+00    5.062E+00    5.101E+00    5.140E+00    5.179E+00    5.217E+00    5.256E+00    5.294E+00    5.333E+00    5.371E+00
     5.410E+00    5.448E+00    5.486E+00    5.524E+00    5.562E+00    5.600E+00    5.638E+00    5.675E+00
 Ala      Conc. = 2.52E+02
