 LCModel (Version 6.3-1L) Copyright: S.W. Provencher.          Ref.: Magn. Reson. Med. 30:672-679 (1993).                
 Slice#3 Row#7 Col#5  K_02_press_1_raw_act
 36 lines in following concentration table = NCONC+1
    Conc.  %SD /Cr+PCr  Metabolite                                         
  144.497  62% 6.7E-02 Ala                                                 
    0.000 999%   0.000 Asp                                                 
  910.495  19%   0.420 Cr                                                  
 1.26E+03  14%   0.580 PCr                                                 
    0.000 999%   0.000 GABA                                                
    0.000 999%   0.000 Glc                                                 
  345.649  52%   0.159 Gln                                                 
 1.72E+03  12%   0.794 Glu                                                 
  718.986   3%   0.331 GPC                                                 
    0.000 999%   0.000 PCh                                                 
  588.590  12%   0.271 GSH                                                 
  996.129  23%   0.459 Ins                                                 
  127.067  77% 5.9E-02 Lac                                                 
 2.50E+03   4%   1.151 NAA                                                 
  731.296  12%   0.337 NAAG                                                
    9.225 294% 4.3E-03 Scyllo                                              
    0.000 999%   0.000 Tau                                                 
    0.000 999%   0.000 -CrCH2                                              
  718.986   3%   0.331 GPC+PCh                                             
 3.23E+03   3%   1.488 NAA+NAAG                                            
 2.17E+03   3%   1.000 Cr+PCr                                              
 2.07E+03  13%   0.953 Glu+Gln                                             
    0.000 999%   0.000 Lip13a                                              
  197.466  80% 9.1E-02 Lip13b                                              
   52.333  81% 2.4E-02 Lip09                                               
 1.20E+03  20%   0.552 MM09                                                
   29.673  81% 1.4E-02 Lip20                                               
 2.05E+03  18%   0.947 MM20                                                
  347.817  27%   0.160 MM12                                                
 1.31E+03  21%   0.604 MM14                                                
  622.834  29%   0.287 MM17                                                
  197.466  80% 9.1E-02 Lip13a+Lip13b                                       
 1.85E+03  17%   0.855 MM14+Lip13a+Lip13b+MM12                             
 1.25E+03  19%   0.576 MM09+Lip09                                          
 2.08E+03  18%   0.961 MM20+Lip20                                          
   6 lines in following misc. output table
  FWHM = 0.031 ppm    S/N =  16                                            
  Data shift = 0.015 ppm                                                   
  Ph:  -9 deg      -2.3 deg/ppm                                            
  alphaB,S = 5.8E-01,   4.5E+01                                            
   14 spline knots.   Ns = 5(1)                                            
  ( 5) 2 infls.   ( 3) 1 extrs.                                            
  498 points on ppm-axis = NY
      4.000000     3.992357     3.984714     3.977070     3.969427     3.961784     3.954141     3.946497     3.938854     3.931211
      3.923568     3.915925     3.908281     3.900638     3.892995     3.885352     3.877708     3.870065     3.862422     3.854779
      3.847136     3.839492     3.831849     3.824206     3.816563     3.808919     3.801276     3.793633     3.785990     3.778347
      3.770703     3.763060     3.755417     3.747774     3.740130     3.732487     3.724844     3.717201     3.709558     3.701914
      3.694271     3.686628     3.678985     3.671341     3.663698     3.656055     3.648412     3.640769     3.633125     3.625482
      3.617839     3.610196     3.602552     3.594909     3.587266     3.579623     3.571980     3.564336     3.556693     3.549050
      3.541407     3.533763     3.526120     3.518477     3.510834     3.503191     3.495547     3.487904     3.480261     3.472618
      3.464974     3.457331     3.449688     3.442045     3.434402     3.426758     3.419115     3.411472     3.403829     3.396185
      3.388542     3.380899     3.373256     3.365613     3.357969     3.350326     3.342683     3.335040     3.327396     3.319753
      3.312110     3.304467     3.296824     3.289180     3.281537     3.273894     3.266251     3.258607     3.250964     3.243321
      3.235678     3.228034     3.220391     3.212748     3.205105     3.197462     3.189818     3.182175     3.174532     3.166889
      3.159245     3.151602     3.143959     3.136316     3.128673     3.121029     3.113386     3.105743     3.098100     3.090456
      3.082813     3.075170     3.067527     3.059884     3.052240     3.044597     3.036954     3.029311     3.021667     3.014024
      3.006381     2.998738     2.991095     2.983451     2.975808     2.968165     2.960522     2.952878     2.945235     2.937592
      2.929949     2.922306     2.914662     2.907019     2.899376     2.891733     2.884089     2.876446     2.868803     2.861160
      2.853517     2.845873     2.838230     2.830587     2.822944     2.815300     2.807657     2.800014     2.792371     2.784728
      2.777084     2.769441     2.761798     2.754155     2.746511     2.738868     2.731225     2.723582     2.715939     2.708295
      2.700652     2.693009     2.685366     2.677722     2.670079     2.662436     2.654793     2.647150     2.639506     2.631863
      2.624220     2.616577     2.608933     2.601290     2.593647     2.586004     2.578361     2.570717     2.563074     2.555431
      2.547788     2.540144     2.532501     2.524858     2.517215     2.509572     2.501928     2.494285     2.486642     2.478999
      2.471355     2.463712     2.456069     2.448426     2.440783     2.433139     2.425496     2.417853     2.410210     2.402566
      2.394923     2.387280     2.379637     2.371994     2.364350     2.356707     2.349064     2.341421     2.333777     2.326134
      2.318491     2.310848     2.303205     2.295561     2.287918     2.280275     2.272632     2.264988     2.257345     2.249702
      2.242059     2.234416     2.226772     2.219129     2.211486     2.203843     2.196199     2.188556     2.180913     2.173270
      2.165627     2.157983     2.150340     2.142697     2.135054     2.127410     2.119767     2.112124     2.104481     2.096838
      2.089194     2.081551     2.073908     2.066265     2.058621     2.050978     2.043335     2.035692     2.028049     2.020405
      2.012762     2.005119     1.997476     1.989833     1.982190     1.974546     1.966903     1.959260     1.951617     1.943974
      1.936331     1.928688     1.921045     1.913402     1.905759     1.898115     1.890472     1.882829     1.875186     1.867543
      1.859900     1.852257     1.844614     1.836971     1.829327     1.821684     1.814041     1.806398     1.798755     1.791112
      1.783469     1.775826     1.768183     1.760540     1.752896     1.745253     1.737610     1.729967     1.722324     1.714681
      1.707038     1.699395     1.691752     1.684108     1.676465     1.668822     1.661179     1.653536     1.645893     1.638250
      1.630607     1.622964     1.615321     1.607677     1.600034     1.592391     1.584748     1.577105     1.569462     1.561819
      1.554176     1.546533     1.538890     1.531246     1.523603     1.515960     1.508317     1.500674     1.493031     1.485388
      1.477745     1.470102     1.462458     1.454815     1.447172     1.439529     1.431886     1.424243     1.416600     1.408957
      1.401314     1.393671     1.386027     1.378384     1.370741     1.363098     1.355455     1.347812     1.340169     1.332526
      1.324883     1.317240     1.309596     1.301953     1.294310     1.286667     1.279024     1.271381     1.263738     1.256095
      1.248452     1.240808     1.233165     1.225522     1.217879     1.210236     1.202593     1.194950     1.187307     1.179664
      1.172021     1.164377     1.156734     1.149091     1.141448     1.133805     1.126162     1.118519     1.110876     1.103233
      1.095590     1.087946     1.080303     1.072660     1.065017     1.057374     1.049731     1.042088     1.034445     1.026802
      1.019158     1.011515     1.003872     0.996229     0.988586     0.980943     0.973300     0.965657     0.958014     0.950371
      0.942727     0.935084     0.927441     0.919798     0.912155     0.904512     0.896869     0.889226     0.881583     0.873940
      0.866296     0.858653     0.851010     0.843367     0.835724     0.828081     0.820438     0.812795     0.805152     0.797508
      0.789865     0.782222     0.774579     0.766936     0.759293     0.751650     0.744007     0.736364     0.728721     0.721077
      0.713434     0.705791     0.698148     0.690505     0.682862     0.675219     0.667576     0.659933     0.652290     0.644646
      0.637003     0.629360     0.621717     0.614074     0.606431     0.598788     0.591145     0.583502     0.575858     0.568215
      0.560572     0.552929     0.545286     0.537643     0.530000     0.522357     0.514714     0.507071     0.499427     0.491784
      0.484141     0.476498     0.468855     0.461212     0.453569     0.445925     0.438282     0.430639     0.422996     0.415353
      0.407710     0.400067     0.392424     0.384780     0.377137     0.369494     0.361851     0.354208     0.346565     0.338922
      0.331278     0.323635     0.315992     0.308349     0.300706     0.293063     0.285420     0.277777     0.270133     0.262490
      0.254847     0.247204     0.239561     0.231918     0.224275     0.216631     0.208988     0.201345
 NY phased data points follow
   2.31131E+01  2.44487E+01  3.03681E+01  2.80930E+01  3.13089E+01  4.02963E+01  4.91421E+01  6.13622E+01  7.33134E+01  8.58023E+01
   8.99935E+01  8.44706E+01  7.22489E+01  5.77379E+01  4.56035E+01  3.62914E+01  3.02949E+01  2.86130E+01  2.20114E+01  1.97281E+01
   2.21698E+01  2.53147E+01  2.54895E+01  2.86308E+01  3.12598E+01  3.07788E+01  3.03765E+01  2.74249E+01  2.84589E+01  3.33890E+01
   3.94686E+01  4.00289E+01  4.16942E+01  3.03033E+01  2.26031E+01  2.64280E+01  2.59849E+01  2.42147E+01  2.47063E+01  2.73650E+01
   2.54378E+01  2.59116E+01  2.68430E+01  2.43551E+01  2.29756E+01  2.94466E+01  3.76992E+01  3.82391E+01  3.45607E+01  3.16194E+01
   3.18889E+01  2.23364E+01  1.80950E+01  1.69058E+01  1.60860E+01  1.91179E+01  1.99982E+01  2.20659E+01  2.24567E+01  1.84469E+01
   1.65970E+01  1.44122E+01  1.13197E+01  1.21272E+01  7.22690E+00  5.22999E+00  7.88831E+00  2.97627E+00  7.76301E+00  4.10686E+00
   8.52223E+00  4.84082E+00  1.60145E+01  1.11869E+01  1.02726E+01  7.40450E+00  1.21035E+01  1.03182E+01  1.06581E+01  8.77881E+00
   4.22687E+00  6.22622E+00  7.01005E+00  1.08886E+01  4.05356E+00  1.05302E+01  1.02430E+01  9.57442E+00  1.24130E+01  1.28511E+01
   9.82263E+00  1.31847E+01  1.41282E+01  1.56299E+01  1.95997E+01  1.36939E+01  1.86681E+01  1.96625E+01  2.08320E+01  3.83496E+01
   5.31406E+01  7.23439E+01  9.01317E+01  9.83026E+01  8.40624E+01  6.09405E+01  4.41763E+01  3.30400E+01  2.39900E+01  2.06277E+01
   1.64995E+01  1.69135E+01  1.17535E+01  1.09842E+01  1.13948E+01  1.59477E+01  1.34889E+01  1.26732E+01  1.68946E+01  1.81094E+01
   1.54549E+01  1.58088E+01  2.62914E+01  2.79596E+01  4.78482E+01  7.59633E+01  9.32816E+01  1.03901E+02  8.93002E+01  6.73225E+01
   4.62727E+01  3.74833E+01  2.55848E+01  1.99402E+01  1.34011E+01  5.40041E+00  1.12757E+01  1.09131E+01  8.42519E+00  1.13611E+01
   1.35361E+01  1.30265E+01  1.48378E+01  1.33325E+01  7.71550E+00  6.59642E+00  9.93772E+00  8.97571E+00  7.14354E+00  6.21960E+00
   1.01168E+01  4.91400E+00  6.96669E+00  8.09405E+00  1.87936E+00  3.44419E+00  6.59938E+00  4.31954E+00  7.49645E+00  5.62452E+00
   5.67038E+00 -8.11668E-01 -9.55195E-01 -3.97275E+00  3.43611E+00  9.19795E+00  7.55770E+00 -2.40260E+00  1.49335E+00 -3.89424E+00
   6.90781E-01 -4.61867E+00 -9.51242E+00 -9.83938E+00 -1.09036E+01 -1.38229E+01 -1.14708E+01 -2.96385E+00 -3.89320E+00 -6.00834E+00
  -1.06203E+01 -1.24580E+01 -9.38316E+00 -9.70649E+00 -1.24588E+01 -8.40313E+00 -6.40636E+00 -2.73114E+00 -4.01814E-01  1.18024E+01
   1.10534E+01  1.52671E+01  1.85674E+01  1.25250E+01  4.88111E+00  1.24733E+01  9.05766E+00  1.12906E+00 -1.27703E-01  1.08151E-01
   6.28533E+00  6.76432E-01  1.23241E+01  6.73287E+00  1.07186E+01  4.59717E+00  4.14623E-01 -4.30491E-01  1.37062E+00 -2.00350E+00
  -2.54779E+00  9.65510E-01  5.81024E+00  9.74450E+00  1.84996E+01  1.78928E+01  2.60678E+01  1.73819E+01  1.53433E+01  2.90172E+00
   2.77628E-01 -3.73057E+00 -9.38101E-01  2.22215E+00  7.09452E+00  1.45543E+01  1.70149E+01  1.90008E+01  2.08233E+01  1.61478E+01
   1.27255E+01  1.38688E+01  1.91416E+01  1.41628E+01  1.55596E+01  1.36340E+01  1.75772E+01  1.70044E+01  1.50282E+01  1.12797E+01
   9.18835E+00  6.32094E+00  5.87578E+00  8.18231E+00  1.59149E+01  1.87680E+01  2.03756E+01  1.74664E+01  2.14940E+01  2.60711E+01
   2.77638E+01  2.66335E+01  3.30533E+01  4.21905E+01  5.20449E+01  6.61035E+01  6.77960E+01  7.24488E+01  9.89750E+01  1.31471E+02
   1.54937E+02  1.24657E+02  8.21575E+01  5.69133E+01  3.70775E+01  2.48426E+01  1.52918E+01  1.50340E+01  1.80149E+01  1.21139E+01
   1.47843E+01  1.60756E+01  1.56143E+01  2.11239E+01  1.81164E+01  1.75290E+01  1.50774E+01  1.63868E+01  1.01898E+01  1.42058E+01
   1.07645E+01  9.52550E+00  1.60043E+01  1.25986E+01  9.47836E+00  9.40777E+00  1.06215E+01  1.14025E+01  1.24811E+01  1.41707E+01
   1.25923E+01  6.18756E+00  1.35392E+01  1.42178E+01  1.19465E+01  1.27771E+01  1.23970E+01  9.47077E+00  1.05243E+01  1.05448E+01
   1.17015E+01  1.11679E+01  1.41622E+01  1.31837E+01  1.12898E+01  1.63722E+01  1.27026E+01  1.21804E+01  1.12962E+01  1.39828E+01
   1.32530E+01  1.16669E+01  1.03536E+01  1.37824E+01  6.97166E+00  1.06326E+01  1.06122E+01  5.16592E+00  8.95446E+00  6.17998E+00
   5.99934E+00  7.28983E+00  4.14564E+00  8.55916E+00  9.24064E+00  1.14729E+01  1.04121E+01  9.74865E+00  9.64892E+00  9.64474E+00
   8.56112E+00  9.11207E+00  6.37803E+00  3.62027E+00  1.10429E+01  9.08061E+00  9.61649E+00  1.02682E+01  1.07219E+01  1.00180E+01
   1.23851E+01  1.41292E+01  1.71829E+01  1.85596E+01  1.50372E+01  1.84595E+01  1.20815E+01  1.27774E+01  1.22981E+01  1.47191E+01
   9.88251E+00  6.72335E+00  5.61873E+00  5.13677E+00  1.21265E+01  7.05070E+00  9.75268E+00  6.54018E+00  1.34836E+00  3.10033E+00
   1.31733E+00 -6.13401E-01  3.84224E+00 -5.85720E-01 -6.95710E-01  2.12367E-01 -5.97569E+00 -1.13893E+00 -1.45442E+00 -1.83803E+00
   2.42765E-01  1.16297E-01  4.46510E+00  3.39049E+00 -8.12186E-01 -1.91072E+00 -2.54820E+00  1.92021E+00  1.73172E+00 -4.48249E+00
   1.62188E-01 -4.63804E+00 -1.36103E+00 -2.50295E-01  9.03096E-01 -5.15771E+00 -4.14054E+00 -1.07161E+00 -4.47753E+00 -8.33279E-01
  -7.60940E+00 -5.50004E+00  1.13228E+00 -2.96162E+00 -7.81556E-01 -2.95930E+00  7.11363E-02  2.70559E+00  7.61852E-01 -5.63984E-01
  -2.10429E+00  4.08021E+00 -7.14135E-01  2.02353E+00  2.88656E+00  7.27117E+00 -8.68763E-01  4.62091E+00  8.43790E+00  7.84381E+00
   2.03535E+00  5.43494E+00 -1.09337E+00  9.65253E-01  3.48518E+00 -9.65317E-01  2.73946E+00 -2.54337E+00  2.12187E+00 -2.04798E+00
  -3.74984E+00 -3.16896E+00 -7.06728E-01 -3.66199E+00 -2.75708E+00 -4.47448E+00 -8.69421E+00 -3.95014E+00 -4.65096E+00 -2.04722E+00
   4.77452E-01 -5.18097E+00 -9.46260E-01 -3.04367E+00  3.57643E-01 -2.10926E+00  3.00551E+00  3.96892E+00 -2.90247E+00 -7.70061E-02
  -2.80171E+00  1.90370E+00 -2.98093E+00 -1.26981E+00  2.71755E+00 -4.42505E+00 -1.07474E+00 -1.69444E+00  2.39094E-01 -8.71016E-01
  -1.02038E+00 -2.63598E+00 -9.31961E-01  4.32031E+00 -1.74113E+00 -1.55418E+00 -2.05178E+00 -5.62276E+00  4.53508E+00 -5.87805E-01
  -1.98957E+00  1.80552E+00  1.88391E+00  2.37802E+00 -4.23338E-01  2.07948E+00  8.76278E-01  1.59718E+00 -2.83461E+00 -1.10559E+00
  -3.49456E+00  1.52156E+00 -8.59914E-01 -1.70242E+00 -1.74856E+00  2.43719E+00  3.88323E+00  2.58092E-01  5.68547E-01  2.99399E+00
   6.49182E-01 -1.29781E+00  5.06478E+00  1.55193E+00 -3.33287E+00 -5.47387E-01  7.09197E-01 -1.33731E+00 -3.75829E+00 -2.22353E+00
  -1.05567E+00  1.63368E+00 -2.10262E+00 -1.43466E+00  2.04042E+00  7.13131E-01 -6.27792E-01  7.86277E-01
 NY points of the fit to the data follow
   2.78316E+01  2.78068E+01  2.82036E+01  2.93068E+01  3.21163E+01  3.74840E+01  4.56465E+01  5.74853E+01  7.21829E+01  8.50110E+01
   8.88896E+01  8.14827E+01  6.76676E+01  5.42050E+01  4.44455E+01  3.79639E+01  3.35437E+01  3.06368E+01  2.88539E+01  2.77992E+01
   2.71642E+01  2.66764E+01  2.60253E+01  2.50328E+01  2.42951E+01  2.44649E+01  2.48576E+01  2.64141E+01  3.09540E+01  3.73304E+01
   4.15348E+01  4.12319E+01  3.83083E+01  3.47138E+01  3.05959E+01  2.62360E+01  2.26188E+01  2.08910E+01  2.07710E+01  2.12204E+01
   2.17025E+01  2.23594E+01  2.33437E+01  2.43249E+01  2.53681E+01  2.71837E+01  2.94633E+01  3.06285E+01  2.94689E+01  2.65866E+01
   2.34947E+01  2.09959E+01  1.91341E+01  1.78561E+01  1.72594E+01  1.72056E+01  1.73612E+01  1.77558E+01  1.84025E+01  1.90471E+01
   1.91212E+01  1.83299E+01  1.69476E+01  1.54718E+01  1.43438E+01  1.37521E+01  1.36889E+01  1.40606E+01  1.45225E+01  1.49360E+01
   1.53025E+01  1.55647E+01  1.55211E+01  1.50713E+01  1.44505E+01  1.39186E+01  1.35424E+01  1.32650E+01  1.30293E+01  1.28457E+01
   1.26926E+01  1.25515E+01  1.23303E+01  1.20251E+01  1.15834E+01  1.08824E+01  9.85685E+00  8.80468E+00  8.25057E+00  8.44430E+00
   9.16404E+00  1.00939E+01  1.10403E+01  1.18872E+01  1.26005E+01  1.31896E+01  1.39148E+01  1.61808E+01  2.31355E+01  3.40209E+01
   5.02965E+01  7.32914E+01  9.44051E+01  9.96364E+01  8.49117E+01  6.18578E+01  4.27909E+01  3.01628E+01  2.14660E+01  1.52678E+01
   1.20701E+01  1.09775E+01  1.05467E+01  1.03537E+01  1.02723E+01  1.02462E+01  1.02789E+01  1.03629E+01  1.05045E+01  1.08234E+01
   1.16720E+01  1.42594E+01  2.17201E+01  3.33611E+01  4.98632E+01  7.38142E+01  9.75636E+01  1.05866E+02  9.22109E+01  6.79025E+01
   4.72598E+01  3.40430E+01  2.51751E+01  1.78619E+01  1.22223E+01  8.42149E+00  6.05177E+00  5.40639E+00  6.13300E+00  7.70161E+00
   9.40755E+00  1.05698E+01  1.07711E+01  1.01509E+01  9.26118E+00  8.43439E+00  7.76440E+00  7.25850E+00  6.81975E+00  6.35970E+00
   5.83278E+00  5.25049E+00  4.67845E+00  4.28883E+00  4.26417E+00  4.58605E+00  4.81856E+00  4.75758E+00  4.04765E+00  2.63657E+00
   1.29755E+00  7.74546E-01  1.54200E+00  2.89573E+00  3.52822E+00  2.78923E+00  1.20502E+00 -1.86413E-01 -9.17880E-01 -1.08605E+00
  -1.02305E+00 -1.15772E+00 -1.67511E+00 -2.53184E+00 -3.69892E+00 -4.37887E+00 -3.97875E+00 -2.63086E+00 -1.58441E+00 -1.86162E+00
  -2.82966E+00 -3.12068E+00 -2.43754E+00 -1.51177E+00 -1.25676E+00 -1.39506E+00 -6.73578E-01  1.71891E+00  5.14388E+00  8.22587E+00
   1.00869E+01  1.04641E+01  9.51173E+00  7.58698E+00  5.79627E+00  4.49171E+00  3.49006E+00  2.94499E+00  3.53933E+00  5.43738E+00
   7.56304E+00  9.49734E+00  1.12361E+01  1.24504E+01  1.23916E+01  1.04349E+01  7.51642E+00  4.41513E+00  1.52636E+00 -2.37312E-01
  -3.44185E-01  1.54676E+00  4.67708E+00  9.14304E+00  1.45878E+01  1.85524E+01  1.84962E+01  1.41860E+01  8.23048E+00  2.80816E+00
  -1.88394E+00 -5.29958E+00 -5.45205E+00 -1.38142E+00  4.88611E+00  1.02634E+01  1.34700E+01  1.49756E+01  1.53238E+01  1.44838E+01
   1.28358E+01  1.16182E+01  1.19865E+01  1.36677E+01  1.54961E+01  1.68970E+01  1.77861E+01  1.77381E+01  1.60639E+01  1.33373E+01
   1.08425E+01  9.56174E+00  9.79536E+00  1.16924E+01  1.47353E+01  1.76622E+01  1.94915E+01  2.01411E+01  2.00784E+01  1.99950E+01
   2.16194E+01  2.54507E+01  3.15739E+01  4.08711E+01  5.14068E+01  6.28285E+01  7.14931E+01  8.02096E+01  1.02845E+02  1.32877E+02
   1.45459E+02  1.25364E+02  8.85982E+01  5.89013E+01  4.09781E+01  2.91751E+01  2.00922E+01  1.50141E+01  1.37283E+01  1.32147E+01
   1.29605E+01  1.29132E+01  1.30592E+01  1.32518E+01  1.32401E+01  1.28918E+01  1.23960E+01  1.20106E+01  1.17600E+01  1.15291E+01
   1.13628E+01  1.13449E+01  1.14224E+01  1.14407E+01  1.13477E+01  1.12000E+01  1.10636E+01  1.09454E+01  1.08598E+01  1.08682E+01
   1.10077E+01  1.12218E+01  1.14171E+01  1.15453E+01  1.16240E+01  1.16719E+01  1.16792E+01  1.16588E+01  1.16601E+01  1.17123E+01
   1.17879E+01  1.18435E+01  1.18608E+01  1.18370E+01  1.17701E+01  1.16556E+01  1.14960E+01  1.13010E+01  1.10780E+01  1.08342E+01
   1.05751E+01  1.03045E+01  1.00269E+01  9.75092E+00  9.48737E+00  9.24535E+00  9.03094E+00  8.84971E+00  8.70984E+00  8.62308E+00
   8.60481E+00  8.68022E+00  8.90192E+00  9.23807E+00  9.56884E+00  9.95156E+00  1.01249E+01  9.69759E+00  8.67094E+00  7.61164E+00
   7.09231E+00  7.19611E+00  7.57780E+00  8.29702E+00  9.58915E+00  1.12428E+01  1.25331E+01  1.30363E+01  1.29969E+01  1.28072E+01
   1.26184E+01  1.24398E+01  1.23261E+01  1.22660E+01  1.22119E+01  1.21469E+01  1.17554E+01  1.07348E+01  9.24868E+00  7.89600E+00
   7.13763E+00  6.79899E+00  6.69642E+00  6.97649E+00  7.62574E+00  8.14176E+00  7.98370E+00  7.21241E+00  6.21986E+00  5.24346E+00
   4.32257E+00  3.45608E+00  2.70562E+00  2.09317E+00  1.58720E+00  1.16695E+00  8.15396E-01  5.16951E-01  2.58741E-01  3.13037E-02
  -1.72170E-01 -3.57008E-01 -5.27396E-01 -6.85795E-01 -8.32534E-01 -9.66457E-01 -1.08626E+00 -1.19126E+00 -1.28100E+00 -1.35422E+00
  -1.40862E+00 -1.44157E+00 -1.45119E+00 -1.43641E+00 -1.39616E+00 -1.32857E+00 -1.23119E+00 -1.10205E+00 -9.40399E-01 -7.46467E-01
  -5.20588E-01 -2.62910E-01  2.58709E-02  3.43443E-01  6.85562E-01  1.04673E+00  1.42102E+00  1.80214E+00  2.18269E+00  2.55364E+00
   2.90492E+00  3.22660E+00  3.50981E+00  3.74675E+00  3.93015E+00  4.05337E+00  4.11132E+00  4.10153E+00  4.02434E+00  3.88213E+00
   3.67861E+00  3.41872E+00  3.10917E+00  2.75861E+00  2.37694E+00  1.97405E+00  1.55897E+00  1.14003E+00  7.25309E-01  3.22607E-01
  -6.13016E-02 -4.21499E-01 -7.54959E-01 -1.05977E+00 -1.33443E+00 -1.57786E+00 -1.79005E+00 -1.97237E+00 -2.12701E+00 -2.25608E+00
  -2.36119E+00 -2.44384E+00 -2.50607E+00 -2.55050E+00 -2.57969E+00 -2.59543E+00 -2.59880E+00 -2.59085E+00 -2.57314E+00 -2.54753E+00
  -2.51542E+00 -2.47744E+00 -2.43378E+00 -2.38500E+00 -2.33220E+00 -2.27655E+00 -2.21861E+00 -2.15830E+00 -2.09553E+00 -2.03079E+00
  -1.96501E+00 -1.89890E+00 -1.83250E+00 -1.76542E+00 -1.69752E+00 -1.62926E+00 -1.56130E+00 -1.49385E+00 -1.42651E+00 -1.35879E+00
  -1.29077E+00 -1.22301E+00 -1.15598E+00 -1.08954E+00 -1.02314E+00 -9.56480E-01 -8.89853E-01 -8.23846E-01 -7.58669E-01 -6.93927E-01
  -6.29080E-01 -5.64065E-01 -4.99361E-01 -4.35431E-01 -3.72191E-01 -3.09106E-01 -2.45793E-01 -1.82455E-01 -1.19633E-01 -5.75809E-02
   4.03864E-03  6.57814E-02  1.27802E-01  1.89695E-01  2.50980E-01  3.11671E-01  3.72276E-01  4.33241E-01  4.94459E-01  5.55419E-01
   6.15816E-01  6.75924E-01  7.36316E-01  7.97235E-01  8.58354E-01  9.19182E-01  9.79669E-01  1.04030E+00
 NY background values follow
     2.457E+01    2.437E+01    2.417E+01    2.397E+01    2.376E+01    2.356E+01    2.336E+01    2.315E+01    2.295E+01    2.275E+01
     2.254E+01    2.233E+01    2.213E+01    2.192E+01    2.172E+01    2.151E+01    2.131E+01    2.110E+01    2.089E+01    2.069E+01
     2.048E+01    2.028E+01    2.008E+01    1.987E+01    1.967E+01    1.947E+01    1.926E+01    1.906E+01    1.886E+01    1.866E+01
     1.846E+01    1.827E+01    1.807E+01    1.787E+01    1.768E+01    1.749E+01    1.729E+01    1.710E+01    1.691E+01    1.672E+01
     1.654E+01    1.635E+01    1.617E+01    1.599E+01    1.581E+01    1.563E+01    1.545E+01    1.528E+01    1.510E+01    1.493E+01
     1.476E+01    1.460E+01    1.443E+01    1.427E+01    1.411E+01    1.395E+01    1.379E+01    1.363E+01    1.348E+01    1.333E+01
     1.318E+01    1.303E+01    1.288E+01    1.274E+01    1.260E+01    1.246E+01    1.232E+01    1.218E+01    1.205E+01    1.191E+01
     1.178E+01    1.165E+01    1.153E+01    1.140E+01    1.128E+01    1.116E+01    1.104E+01    1.092E+01    1.081E+01    1.070E+01
     1.059E+01    1.048E+01    1.037E+01    1.027E+01    1.016E+01    1.006E+01    9.966E+00    9.869E+00    9.775E+00    9.683E+00
     9.593E+00    9.504E+00    9.418E+00    9.334E+00    9.252E+00    9.171E+00    9.092E+00    9.015E+00    8.939E+00    8.864E+00
     8.791E+00    8.719E+00    8.647E+00    8.577E+00    8.508E+00    8.440E+00    8.372E+00    8.305E+00    8.238E+00    8.172E+00
     8.106E+00    8.040E+00    7.974E+00    7.909E+00    7.843E+00    7.777E+00    7.711E+00    7.645E+00    7.578E+00    7.511E+00
     7.443E+00    7.374E+00    7.305E+00    7.235E+00    7.163E+00    7.091E+00    7.017E+00    6.942E+00    6.866E+00    6.788E+00
     6.709E+00    6.628E+00    6.545E+00    6.461E+00    6.374E+00    6.286E+00    6.195E+00    6.102E+00    6.008E+00    5.911E+00
     5.813E+00    5.714E+00    5.613E+00    5.512E+00    5.409E+00    5.306E+00    5.203E+00    5.099E+00    4.995E+00    4.891E+00
     4.787E+00    4.684E+00    4.582E+00    4.480E+00    4.379E+00    4.279E+00    4.181E+00    4.084E+00    3.989E+00    3.895E+00
     3.804E+00    3.715E+00    3.628E+00    3.544E+00    3.463E+00    3.384E+00    3.309E+00    3.237E+00    3.168E+00    3.104E+00
     3.043E+00    2.986E+00    2.933E+00    2.884E+00    2.841E+00    2.802E+00    2.767E+00    2.738E+00    2.715E+00    2.696E+00
     2.684E+00    2.677E+00    2.676E+00    2.680E+00    2.691E+00    2.707E+00    2.728E+00    2.754E+00    2.785E+00    2.821E+00
     2.862E+00    2.907E+00    2.956E+00    3.010E+00    3.068E+00    3.129E+00    3.195E+00    3.264E+00    3.336E+00    3.411E+00
     3.490E+00    3.571E+00    3.656E+00    3.742E+00    3.832E+00    3.923E+00    4.017E+00    4.113E+00    4.210E+00    4.310E+00
     4.410E+00    4.512E+00    4.616E+00    4.720E+00    4.825E+00    4.931E+00    5.038E+00    5.145E+00    5.252E+00    5.359E+00
     5.466E+00    5.573E+00    5.680E+00    5.786E+00    5.892E+00    5.996E+00    6.100E+00    6.202E+00    6.303E+00    6.403E+00
     6.502E+00    6.599E+00    6.695E+00    6.790E+00    6.883E+00    6.974E+00    7.064E+00    7.152E+00    7.238E+00    7.323E+00
     7.405E+00    7.486E+00    7.565E+00    7.642E+00    7.717E+00    7.789E+00    7.860E+00    7.928E+00    7.994E+00    8.058E+00
     8.119E+00    8.178E+00    8.235E+00    8.289E+00    8.340E+00    8.389E+00    8.435E+00    8.478E+00    8.519E+00    8.557E+00
     8.591E+00    8.623E+00    8.652E+00    8.678E+00    8.701E+00    8.720E+00    8.736E+00    8.749E+00    8.759E+00    8.765E+00
     8.768E+00    8.768E+00    8.763E+00    8.756E+00    8.745E+00    8.730E+00    8.712E+00    8.691E+00    8.666E+00    8.638E+00
     8.606E+00    8.571E+00    8.533E+00    8.492E+00    8.447E+00    8.399E+00    8.349E+00    8.294E+00    8.237E+00    8.177E+00
     8.114E+00    8.047E+00    7.978E+00    7.906E+00    7.830E+00    7.752E+00    7.671E+00    7.587E+00    7.500E+00    7.410E+00
     7.318E+00    7.223E+00    7.125E+00    7.024E+00    6.921E+00    6.815E+00    6.706E+00    6.595E+00    6.481E+00    6.365E+00
     6.246E+00    6.124E+00    6.001E+00    5.874E+00    5.746E+00    5.614E+00    5.481E+00    5.345E+00    5.207E+00    5.067E+00
     4.925E+00    4.780E+00    4.634E+00    4.486E+00    4.337E+00    4.186E+00    4.033E+00    3.879E+00    3.724E+00    3.567E+00
     3.410E+00    3.251E+00    3.092E+00    2.932E+00    2.771E+00    2.609E+00    2.447E+00    2.285E+00    2.122E+00    1.959E+00
     1.796E+00    1.633E+00    1.470E+00    1.307E+00    1.145E+00    9.825E-01    8.209E-01    6.598E-01    4.994E-01    3.397E-01
     1.809E-01    2.311E-02   -1.337E-01   -2.893E-01   -4.436E-01   -5.966E-01   -7.481E-01   -8.981E-01   -1.046E+00   -1.193E+00
    -1.338E+00   -1.481E+00   -1.621E+00   -1.760E+00   -1.897E+00   -2.031E+00   -2.163E+00   -2.293E+00   -2.420E+00   -2.545E+00
    -2.668E+00   -2.788E+00   -2.905E+00   -3.020E+00   -3.132E+00   -3.241E+00   -3.347E+00   -3.451E+00   -3.552E+00   -3.650E+00
    -3.744E+00   -3.836E+00   -3.925E+00   -4.010E+00   -4.093E+00   -4.172E+00   -4.247E+00   -4.319E+00   -4.388E+00   -4.454E+00
    -4.516E+00   -4.574E+00   -4.629E+00   -4.680E+00   -4.727E+00   -4.770E+00   -4.810E+00   -4.846E+00   -4.877E+00   -4.905E+00
    -4.929E+00   -4.948E+00   -4.964E+00   -4.975E+00   -4.982E+00   -4.985E+00   -4.983E+00   -4.977E+00   -4.966E+00   -4.951E+00
    -4.932E+00   -4.909E+00   -4.882E+00   -4.851E+00   -4.817E+00   -4.779E+00   -4.737E+00   -4.692E+00   -4.644E+00   -4.593E+00
    -4.539E+00   -4.482E+00   -4.423E+00   -4.360E+00   -4.296E+00   -4.228E+00   -4.159E+00   -4.088E+00   -4.014E+00   -3.939E+00
    -3.862E+00   -3.783E+00   -3.703E+00   -3.621E+00   -3.538E+00   -3.454E+00   -3.369E+00   -3.283E+00   -3.196E+00   -3.109E+00
    -3.021E+00   -2.932E+00   -2.844E+00   -2.755E+00   -2.666E+00   -2.577E+00   -2.488E+00   -2.400E+00   -2.312E+00   -2.224E+00
    -2.137E+00   -2.051E+00   -1.966E+00   -1.882E+00   -1.798E+00   -1.716E+00   -1.635E+00   -1.554E+00   -1.475E+00   -1.396E+00
    -1.318E+00   -1.241E+00   -1.165E+00   -1.090E+00   -1.015E+00   -9.411E-01   -8.679E-01   -7.955E-01   -7.237E-01   -6.526E-01
    -5.822E-01   -5.123E-01   -4.431E-01   -3.745E-01   -3.064E-01   -2.389E-01   -1.719E-01   -1.055E-01   -3.946E-02    2.607E-02
     9.115E-02    1.558E-01    2.201E-01    2.839E-01    3.474E-01    4.106E-01    4.734E-01    5.360E-01    5.982E-01    6.602E-01
     7.219E-01    7.835E-01    8.448E-01    9.059E-01    9.669E-01    1.028E+00    1.088E+00    1.149E+00
 Ala      Conc. = 1.44E+02
