 LCModel (Version 6.3-1L) Copyright: S.W. Provencher.          Ref.: Magn. Reson. Med. 30:672-679 (1993).                
 Slice#2 Row#13 Col#3  K_02_press_1_raw_act
 36 lines in following concentration table = NCONC+1
    Conc.  %SD /Cr+PCr  Metabolite                                         
    0.000 999%   0.000 Ala                                                 
    0.000 999%   0.000 Asp                                                 
    0.000 999%   0.000 Cr                                                  
  447.955  11%   1.000 PCr                                                 
   34.930 188% 7.8E-02 GABA                                                
    0.000 999%   0.000 Glc                                                 
    0.000 999%   0.000 Gln                                                 
    0.000 999%   0.000 Glu                                                 
  187.210  11%   0.418 GPC                                                 
    0.000 999%   0.000 PCh                                                 
    0.000 999%   0.000 GSH                                                 
 2.58E+03   9%   5.763 Ins                                                 
   90.082 256%   0.201 Lac                                                 
  256.178  34%   0.572 NAA                                                 
  111.014  80%   0.248 NAAG                                                
   67.046  27%   0.150 Scyllo                                              
    0.000 999%   0.000 Tau                                                 
    0.000 999%   0.000 -CrCH2                                              
  187.210  11%   0.418 GPC+PCh                                             
  367.192  14%   0.820 NAA+NAAG                                            
  447.955  11%   1.000 Cr+PCr                                              
    0.000 999%   0.000 Glu+Gln                                             
    0.000 999%   0.000 Lip13a                                              
    7.379 863% 1.6E-02 Lip13b                                              
    0.657 999% 1.5E-03 Lip09                                               
  274.841  37%   0.614 MM09                                                
    3.334 457% 7.4E-03 Lip20                                               
  424.638  41%   0.948 MM20                                                
   85.689  51%   0.191 MM12                                                
  195.236  63%   0.436 MM14                                                
  140.473  60%   0.314 MM17                                                
    7.379 863% 1.6E-02 Lip13a+Lip13b                                       
  288.304  55%   0.644 MM14+Lip13a+Lip13b+MM12                             
  275.498  37%   0.615 MM09+Lip09                                          
  427.973  41%   0.955 MM20+Lip20                                          
   6 lines in following misc. output table
  FWHM = 0.122 ppm    S/N =   3                                            
  Data shift = 0.031 ppm                                                   
  Ph:  98 deg      29.5 deg/ppm                                            
  alphaB,S = 5.9E-01,   1.9E+02                                            
   14 spline knots.   Ns = 6(2)                                            
  (11) 2 infls.   ( 9) 1 extrs.                                            
  498 points on ppm-axis = NY
      4.000000     3.992357     3.984714     3.977070     3.969427     3.961784     3.954141     3.946497     3.938854     3.931211
      3.923568     3.915925     3.908281     3.900638     3.892995     3.885352     3.877708     3.870065     3.862422     3.854779
      3.847136     3.839492     3.831849     3.824206     3.816563     3.808919     3.801276     3.793633     3.785990     3.778347
      3.770703     3.763060     3.755417     3.747774     3.740130     3.732487     3.724844     3.717201     3.709558     3.701914
      3.694271     3.686628     3.678985     3.671341     3.663698     3.656055     3.648412     3.640769     3.633125     3.625482
      3.617839     3.610196     3.602552     3.594909     3.587266     3.579623     3.571980     3.564336     3.556693     3.549050
      3.541407     3.533763     3.526120     3.518477     3.510834     3.503191     3.495547     3.487904     3.480261     3.472618
      3.464974     3.457331     3.449688     3.442045     3.434402     3.426758     3.419115     3.411472     3.403829     3.396185
      3.388542     3.380899     3.373256     3.365613     3.357969     3.350326     3.342683     3.335040     3.327396     3.319753
      3.312110     3.304467     3.296824     3.289180     3.281537     3.273894     3.266251     3.258607     3.250964     3.243321
      3.235678     3.228034     3.220391     3.212748     3.205105     3.197462     3.189818     3.182175     3.174532     3.166889
      3.159245     3.151602     3.143959     3.136316     3.128673     3.121029     3.113386     3.105743     3.098100     3.090456
      3.082813     3.075170     3.067527     3.059884     3.052240     3.044597     3.036954     3.029311     3.021667     3.014024
      3.006381     2.998738     2.991095     2.983451     2.975808     2.968165     2.960522     2.952878     2.945235     2.937592
      2.929949     2.922306     2.914662     2.907019     2.899376     2.891733     2.884089     2.876446     2.868803     2.861160
      2.853517     2.845873     2.838230     2.830587     2.822944     2.815300     2.807657     2.800014     2.792371     2.784728
      2.777084     2.769441     2.761798     2.754155     2.746511     2.738868     2.731225     2.723582     2.715939     2.708295
      2.700652     2.693009     2.685366     2.677722     2.670079     2.662436     2.654793     2.647150     2.639506     2.631863
      2.624220     2.616577     2.608933     2.601290     2.593647     2.586004     2.578361     2.570717     2.563074     2.555431
      2.547788     2.540144     2.532501     2.524858     2.517215     2.509572     2.501928     2.494285     2.486642     2.478999
      2.471355     2.463712     2.456069     2.448426     2.440783     2.433139     2.425496     2.417853     2.410210     2.402566
      2.394923     2.387280     2.379637     2.371994     2.364350     2.356707     2.349064     2.341421     2.333777     2.326134
      2.318491     2.310848     2.303205     2.295561     2.287918     2.280275     2.272632     2.264988     2.257345     2.249702
      2.242059     2.234416     2.226772     2.219129     2.211486     2.203843     2.196199     2.188556     2.180913     2.173270
      2.165627     2.157983     2.150340     2.142697     2.135054     2.127410     2.119767     2.112124     2.104481     2.096838
      2.089194     2.081551     2.073908     2.066265     2.058621     2.050978     2.043335     2.035692     2.028049     2.020405
      2.012762     2.005119     1.997476     1.989833     1.982190     1.974546     1.966903     1.959260     1.951617     1.943974
      1.936331     1.928688     1.921045     1.913402     1.905759     1.898115     1.890472     1.882829     1.875186     1.867543
      1.859900     1.852257     1.844614     1.836971     1.829327     1.821684     1.814041     1.806398     1.798755     1.791112
      1.783469     1.775826     1.768183     1.760540     1.752896     1.745253     1.737610     1.729967     1.722324     1.714681
      1.707038     1.699395     1.691752     1.684108     1.676465     1.668822     1.661179     1.653536     1.645893     1.638250
      1.630607     1.622964     1.615321     1.607677     1.600034     1.592391     1.584748     1.577105     1.569462     1.561819
      1.554176     1.546533     1.538890     1.531246     1.523603     1.515960     1.508317     1.500674     1.493031     1.485388
      1.477745     1.470102     1.462458     1.454815     1.447172     1.439529     1.431886     1.424243     1.416600     1.408957
      1.401314     1.393671     1.386027     1.378384     1.370741     1.363098     1.355455     1.347812     1.340169     1.332526
      1.324883     1.317240     1.309596     1.301953     1.294310     1.286667     1.279024     1.271381     1.263738     1.256095
      1.248452     1.240808     1.233165     1.225522     1.217879     1.210236     1.202593     1.194950     1.187307     1.179664
      1.172021     1.164377     1.156734     1.149091     1.141448     1.133805     1.126162     1.118519     1.110876     1.103233
      1.095590     1.087946     1.080303     1.072660     1.065017     1.057374     1.049731     1.042088     1.034445     1.026802
      1.019158     1.011515     1.003872     0.996229     0.988586     0.980943     0.973300     0.965657     0.958014     0.950371
      0.942727     0.935084     0.927441     0.919798     0.912155     0.904512     0.896869     0.889226     0.881583     0.873940
      0.866296     0.858653     0.851010     0.843367     0.835724     0.828081     0.820438     0.812795     0.805152     0.797508
      0.789865     0.782222     0.774579     0.766936     0.759293     0.751650     0.744007     0.736364     0.728721     0.721077
      0.713434     0.705791     0.698148     0.690505     0.682862     0.675219     0.667576     0.659933     0.652290     0.644646
      0.637003     0.629360     0.621717     0.614074     0.606431     0.598788     0.591145     0.583502     0.575858     0.568215
      0.560572     0.552929     0.545286     0.537643     0.530000     0.522357     0.514714     0.507071     0.499427     0.491784
      0.484141     0.476498     0.468855     0.461212     0.453569     0.445925     0.438282     0.430639     0.422996     0.415353
      0.407710     0.400067     0.392424     0.384780     0.377137     0.369494     0.361851     0.354208     0.346565     0.338922
      0.331278     0.323635     0.315992     0.308349     0.300706     0.293063     0.285420     0.277777     0.270133     0.262490
      0.254847     0.247204     0.239561     0.231918     0.224275     0.216631     0.208988     0.201345
 NY phased data points follow
   2.21300E+02  2.16338E+02  2.12103E+02  2.12745E+02  2.07510E+02  2.05923E+02  2.02975E+02  2.00830E+02  1.97490E+02  1.96726E+02
   1.92069E+02  1.88123E+02  1.86513E+02  1.82028E+02  1.78150E+02  1.75221E+02  1.70653E+02  1.69854E+02  1.66253E+02  1.63328E+02
   1.58359E+02  1.56057E+02  1.51360E+02  1.52245E+02  1.49803E+02  1.46559E+02  1.46146E+02  1.43666E+02  1.41641E+02  1.42453E+02
   1.38546E+02  1.33396E+02  1.33790E+02  1.36337E+02  1.30354E+02  1.32197E+02  1.31772E+02  1.27378E+02  1.26722E+02  1.26115E+02
   1.26494E+02  1.23217E+02  1.19583E+02  1.18216E+02  1.16866E+02  1.17705E+02  1.14933E+02  1.15099E+02  1.13104E+02  1.13121E+02
   1.08369E+02  1.08328E+02  1.08060E+02  1.06170E+02  1.01268E+02  1.01188E+02  1.00271E+02  1.01238E+02  9.62924E+01  9.54306E+01
   9.11765E+01  9.24873E+01  8.70150E+01  8.90804E+01  8.53468E+01  8.57105E+01  8.20070E+01  8.23306E+01  7.96664E+01  7.99956E+01
   7.71439E+01  7.74778E+01  7.59399E+01  7.41674E+01  7.43636E+01  7.13442E+01  6.85079E+01  7.06428E+01  6.89846E+01  7.06672E+01
   6.64327E+01  6.48832E+01  6.72052E+01  6.30928E+01  6.49634E+01  6.03545E+01  6.18860E+01  6.16503E+01  6.09170E+01  5.87168E+01
   5.82859E+01  5.92450E+01  5.56606E+01  5.44893E+01  5.47085E+01  5.56898E+01  5.67304E+01  5.45871E+01  5.33170E+01  5.16888E+01
   5.23451E+01  5.37572E+01  5.37897E+01  5.32492E+01  5.35543E+01  4.87627E+01  4.97377E+01  4.79513E+01  4.74034E+01  4.65707E+01
   4.78567E+01  4.51088E+01  4.65675E+01  4.23461E+01  4.24573E+01  4.43728E+01  4.18373E+01  3.79876E+01  4.19095E+01  3.90477E+01
   3.92215E+01  4.10508E+01  4.04084E+01  3.84272E+01  4.00982E+01  4.04439E+01  4.18427E+01  4.00426E+01  3.86279E+01  3.77327E+01
   3.70238E+01  3.49290E+01  3.60020E+01  3.13763E+01  3.05616E+01  3.23677E+01  3.16523E+01  3.00039E+01  3.12258E+01  3.26426E+01
   2.89027E+01  2.98630E+01  2.81327E+01  2.52610E+01  2.52349E+01  2.60158E+01  2.46961E+01  2.48052E+01  2.45298E+01  2.38546E+01
   2.31751E+01  2.52801E+01  1.99820E+01  2.41165E+01  2.37655E+01  2.31123E+01  2.19538E+01  2.16911E+01  2.32342E+01  1.91231E+01
   2.02272E+01  2.03491E+01  2.11898E+01  1.91519E+01  1.87229E+01  1.76826E+01  1.85791E+01  1.78348E+01  1.45005E+01  1.36813E+01
   1.43242E+01  1.21105E+01  1.34274E+01  1.00481E+01  1.29529E+01  1.23349E+01  8.83630E+00  9.20984E+00  7.12616E+00  6.75925E+00
   7.09428E+00  8.61384E+00  6.10374E+00  8.65264E+00  8.48376E+00  7.34533E+00  6.16805E+00  7.14406E+00  5.68050E+00  4.87499E+00
   5.23249E+00  6.28908E+00  6.45231E+00  6.68503E+00  3.74011E+00  4.93863E+00  1.89272E+00  4.02223E+00  4.77048E+00  2.27268E+00
   6.57333E+00  2.88555E+00  3.10254E+00  2.89007E+00  4.05176E+00  1.29002E+00 -1.64603E-01  1.85657E+00  2.56497E+00  2.15716E+00
  -4.16592E-01  7.96730E-01  6.93779E-01 -5.03327E-01 -1.14901E+00  1.12204E+00 -6.30228E-01 -1.56885E+00 -1.28309E+00 -3.16695E+00
  -3.94916E+00 -3.21607E+00 -2.76033E+00 -9.94506E-01 -3.62734E+00 -2.88857E+00 -1.58876E+00 -5.01553E+00 -3.85949E+00 -4.06901E+00
  -4.06942E+00 -8.03871E+00 -2.74071E+00 -5.08405E+00 -4.54218E+00 -4.85830E+00 -8.01960E+00 -8.50382E+00 -5.91163E+00 -7.81779E+00
  -7.55360E+00 -8.33275E+00 -1.03249E+01 -9.21154E+00 -8.31429E+00 -8.79070E+00 -1.11511E+01 -7.54585E+00 -8.51559E+00 -8.22066E+00
  -9.90601E+00 -1.02939E+01 -8.28330E+00 -7.61630E+00 -7.83366E+00 -7.31155E+00 -7.62459E+00 -5.44766E+00 -5.30866E+00 -6.14580E+00
  -8.47241E+00 -1.12808E+01 -1.10899E+01 -1.26658E+01 -1.27334E+01 -1.15594E+01 -1.41229E+01 -1.73719E+01 -1.53585E+01 -1.51958E+01
  -1.74278E+01 -1.63601E+01 -1.74819E+01 -1.80121E+01 -1.68954E+01 -1.83541E+01 -1.93452E+01 -2.04942E+01 -2.07207E+01 -2.16632E+01
  -2.15992E+01 -2.09302E+01 -2.30893E+01 -2.43900E+01 -2.29180E+01 -2.30983E+01 -2.35879E+01 -2.31542E+01 -2.72479E+01 -2.34294E+01
  -2.58086E+01 -2.36235E+01 -2.74295E+01 -2.51634E+01 -2.75384E+01 -2.63651E+01 -2.43305E+01 -2.71524E+01 -2.87970E+01 -2.84120E+01
  -2.62690E+01 -2.90116E+01 -2.83311E+01 -2.73818E+01 -2.47399E+01 -2.67596E+01 -2.85957E+01 -2.71166E+01 -2.73543E+01 -2.62038E+01
  -2.84486E+01 -2.70667E+01 -3.03160E+01 -2.91230E+01 -3.20084E+01 -3.03473E+01 -2.98256E+01 -3.16166E+01 -2.91204E+01 -2.93963E+01
  -2.76169E+01 -3.04967E+01 -3.17811E+01 -3.16446E+01 -3.39293E+01 -3.09488E+01 -3.02012E+01 -3.09082E+01 -3.25711E+01 -3.39854E+01
  -3.35435E+01 -3.26889E+01 -3.50654E+01 -3.24383E+01 -3.41467E+01 -3.59153E+01 -3.26125E+01 -3.37766E+01 -3.31308E+01 -3.53500E+01
  -3.61422E+01 -3.57009E+01 -3.43248E+01 -3.52615E+01 -3.95849E+01 -3.78804E+01 -3.72496E+01 -3.78680E+01 -3.81530E+01 -3.78010E+01
  -3.68173E+01 -3.70816E+01 -3.57035E+01 -3.69472E+01 -3.85743E+01 -3.74632E+01 -3.71828E+01 -3.80572E+01 -3.81887E+01 -3.62912E+01
  -3.80626E+01 -3.93303E+01 -3.99750E+01 -3.80881E+01 -3.75952E+01 -3.76862E+01 -4.09364E+01 -3.51418E+01 -3.68347E+01 -3.81811E+01
  -3.86280E+01 -3.72471E+01 -3.87639E+01 -3.85711E+01 -3.84056E+01 -4.16458E+01 -4.12995E+01 -3.97374E+01 -4.13366E+01 -4.32430E+01
  -3.87267E+01 -4.03894E+01 -4.06412E+01 -4.18492E+01 -4.21718E+01 -4.18564E+01 -3.75244E+01 -3.94394E+01 -4.09083E+01 -3.95602E+01
  -3.86466E+01 -3.77444E+01 -4.01939E+01 -3.85000E+01 -3.97772E+01 -3.91871E+01 -3.96162E+01 -3.83108E+01 -3.95428E+01 -3.81831E+01
  -4.01012E+01 -3.82533E+01 -3.88526E+01 -3.84743E+01 -4.02388E+01 -4.12702E+01 -4.02069E+01 -3.58439E+01 -3.69205E+01 -3.68757E+01
  -3.96591E+01 -3.73839E+01 -3.68114E+01 -4.07920E+01 -4.01919E+01 -3.75107E+01 -4.15300E+01 -3.88002E+01 -4.15636E+01 -3.95282E+01
  -3.97225E+01 -3.93242E+01 -3.80209E+01 -4.06731E+01 -4.09326E+01 -4.14417E+01 -3.81964E+01 -4.00228E+01 -4.09851E+01 -3.80617E+01
  -3.97343E+01 -3.92267E+01 -3.83852E+01 -3.90267E+01 -3.70325E+01 -3.42058E+01 -3.74787E+01 -3.97853E+01 -3.68468E+01 -3.75301E+01
  -3.52152E+01 -3.67910E+01 -3.68184E+01 -3.66924E+01 -3.61368E+01 -3.61377E+01 -3.62031E+01 -3.80334E+01 -3.89589E+01 -3.44695E+01
  -3.54125E+01 -3.48099E+01 -3.52770E+01 -3.53482E+01 -3.65993E+01 -3.86793E+01 -3.71186E+01 -3.84258E+01 -3.69403E+01 -3.59025E+01
  -3.42143E+01 -3.54082E+01 -3.57424E+01 -3.59415E+01 -3.59921E+01 -3.44864E+01 -3.36958E+01 -3.66084E+01 -3.84579E+01 -3.35885E+01
  -3.35064E+01 -3.52135E+01 -3.55968E+01 -3.32042E+01 -3.38682E+01 -3.31308E+01 -3.32207E+01 -3.18960E+01 -3.17200E+01 -3.45195E+01
  -3.33954E+01 -3.39901E+01 -3.26892E+01 -3.48013E+01 -3.36078E+01 -3.14873E+01 -3.12064E+01 -3.35433E+01 -3.15424E+01 -2.86842E+01
  -3.16241E+01 -3.11987E+01 -2.87063E+01 -2.87371E+01 -2.58662E+01 -2.99753E+01 -2.86244E+01 -2.61549E+01
 NY points of the fit to the data follow
   2.16980E+02  2.14362E+02  2.11777E+02  2.08979E+02  2.06255E+02  2.03368E+02  2.00579E+02  1.97716E+02  1.94902E+02  1.92005E+02
   1.89332E+02  1.86577E+02  1.83773E+02  1.81188E+02  1.78376E+02  1.75796E+02  1.72913E+02  1.70314E+02  1.67356E+02  1.64760E+02
   1.61824E+02  1.59310E+02  1.56584E+02  1.54286E+02  1.52074E+02  1.49962E+02  1.47893E+02  1.45944E+02  1.44015E+02  1.42044E+02
   1.40180E+02  1.38169E+02  1.36368E+02  1.34301E+02  1.32583E+02  1.30514E+02  1.29092E+02  1.27486E+02  1.26469E+02  1.25038E+02
   1.24060E+02  1.22633E+02  1.21546E+02  1.20101E+02  1.18874E+02  1.17464E+02  1.16107E+02  1.14641E+02  1.13093E+02  1.11615E+02
   1.09873E+02  1.08410E+02  1.06489E+02  1.05047E+02  1.03035E+02  1.01626E+02  9.95578E+01  9.79979E+01  9.58302E+01  9.42190E+01
   9.19932E+01  9.04630E+01  8.84138E+01  8.71532E+01  8.55585E+01  8.49112E+01  8.36827E+01  8.29941E+01  8.16520E+01  8.08526E+01
   7.94468E+01  7.85136E+01  7.70968E+01  7.60562E+01  7.48594E+01  7.37876E+01  7.26949E+01  7.16754E+01  7.05761E+01  6.94843E+01
   6.82710E+01  6.69847E+01  6.56794E+01  6.42889E+01  6.29772E+01  6.16305E+01  6.03908E+01  5.91008E+01  5.79148E+01  5.67559E+01
   5.59025E+01  5.53689E+01  5.49105E+01  5.46268E+01  5.44223E+01  5.41878E+01  5.41130E+01  5.38113E+01  5.38269E+01  5.34934E+01
   5.36045E+01  5.31953E+01  5.33821E+01  5.27004E+01  5.25606E+01  5.13794E+01  5.08865E+01  4.94126E+01  4.87269E+01  4.71914E+01
   4.64187E+01  4.49377E+01  4.41677E+01  4.28563E+01  4.26195E+01  4.13787E+01  4.14756E+01  4.04344E+01  4.09545E+01  4.05342E+01
   4.13418E+01  4.07542E+01  4.16186E+01  4.08354E+01  4.16363E+01  4.05966E+01  4.11481E+01  3.98672E+01  4.00579E+01  3.86294E+01
   3.84837E+01  3.70122E+01  3.65875E+01  3.51380E+01  3.44494E+01  3.30588E+01  3.20836E+01  3.08303E+01  2.96837E+01  2.86877E+01
   2.76390E+01  2.70511E+01  2.65636E+01  2.60961E+01  2.56353E+01  2.51811E+01  2.47297E+01  2.42835E+01  2.38288E+01  2.33743E+01
   2.29148E+01  2.24538E+01  2.20001E+01  2.15411E+01  2.10874E+01  2.06316E+01  2.01754E+01  1.97189E+01  1.92564E+01  1.88036E+01
   1.83400E+01  1.78941E+01  1.74301E+01  1.69859E+01  1.65145E+01  1.60750E+01  1.56094E+01  1.51760E+01  1.47198E+01  1.42844E+01
   1.38398E+01  1.34070E+01  1.29884E+01  1.25632E+01  1.21709E+01  1.17470E+01  1.13838E+01  1.09607E+01  1.06333E+01  1.02291E+01
   9.94013E+00  9.56002E+00  9.28870E+00  8.92315E+00  8.66513E+00  8.31973E+00  8.06008E+00  7.73735E+00  7.47324E+00  7.16288E+00
   6.88070E+00  6.57747E+00  6.27818E+00  5.98256E+00  5.68005E+00  5.38209E+00  5.06681E+00  4.74917E+00  4.42568E+00  4.09432E+00
   3.77146E+00  3.41607E+00  3.09582E+00  2.71856E+00  2.41248E+00  2.03086E+00  1.73660E+00  1.35511E+00  1.07412E+00  6.96295E-01
   4.25692E-01  6.49542E-02 -1.91217E-01 -5.25819E-01 -7.82868E-01 -1.09512E+00 -1.35491E+00 -1.64840E+00 -1.91654E+00 -2.19389E+00
  -2.45822E+00 -2.72661E+00 -2.99335E+00 -3.25351E+00 -3.52707E+00 -3.78961E+00 -4.07185E+00 -4.33841E+00 -4.62931E+00 -4.90670E+00
  -5.20022E+00 -5.47388E+00 -5.76452E+00 -6.03296E+00 -6.32039E+00 -6.58165E+00 -6.86419E+00 -7.11772E+00 -7.39023E+00 -7.63091E+00
  -7.88656E+00 -8.11412E+00 -8.35078E+00 -8.52148E+00 -8.62822E+00 -8.79644E+00 -8.80492E+00 -8.96021E+00 -8.65464E+00 -8.72804E+00
  -8.31576E+00 -8.36554E+00 -7.96770E+00 -8.04944E+00 -7.76289E+00 -7.90956E+00 -7.79489E+00 -8.02036E+00 -8.16319E+00 -8.47341E+00
  -8.92267E+00 -9.32988E+00 -1.00762E+01 -1.05784E+01 -1.15442E+01 -1.21210E+01 -1.32305E+01 -1.38411E+01 -1.50218E+01 -1.56275E+01
  -1.67972E+01 -1.73494E+01 -1.83182E+01 -1.88666E+01 -1.96177E+01 -2.00802E+01 -2.04289E+01 -2.07665E+01 -2.10847E+01 -2.14063E+01
  -2.17086E+01 -2.20188E+01 -2.23076E+01 -2.26083E+01 -2.28863E+01 -2.31784E+01 -2.34476E+01 -2.37272E+01 -2.39833E+01 -2.42487E+01
  -2.44909E+01 -2.47413E+01 -2.49709E+01 -2.52096E+01 -2.54300E+01 -2.56580E+01 -2.58700E+01 -2.60891E+01 -2.62947E+01 -2.65054E+01
  -2.67067E+01 -2.69126E+01 -2.71125E+01 -2.73180E+01 -2.75215E+01 -2.77304E+01 -2.79407E+01 -2.81561E+01 -2.83732E+01 -2.85956E+01
  -2.88211E+01 -2.90506E+01 -2.92833E+01 -2.95180E+01 -2.97550E+01 -2.99923E+01 -3.02292E+01 -3.04641E+01 -3.06965E+01 -3.09250E+01
  -3.11493E+01 -3.13687E+01 -3.15830E+01 -3.17920E+01 -3.19959E+01 -3.21949E+01 -3.23893E+01 -3.25797E+01 -3.27664E+01 -3.29500E+01
  -3.31307E+01 -3.33084E+01 -3.34824E+01 -3.36505E+01 -3.38058E+01 -3.39433E+01 -3.41197E+01 -3.42664E+01 -3.44750E+01 -3.46435E+01
  -3.48870E+01 -3.50853E+01 -3.53547E+01 -3.55232E+01 -3.58024E+01 -3.59437E+01 -3.62311E+01 -3.63525E+01 -3.66382E+01 -3.67393E+01
  -3.70082E+01 -3.70775E+01 -3.73206E+01 -3.73612E+01 -3.75807E+01 -3.76136E+01 -3.78149E+01 -3.78609E+01 -3.80390E+01 -3.80948E+01
  -3.82395E+01 -3.82897E+01 -3.83989E+01 -3.84373E+01 -3.85637E+01 -3.86558E+01 -3.87894E+01 -3.89234E+01 -3.90577E+01 -3.92108E+01
  -3.93311E+01 -3.94341E+01 -3.95267E+01 -3.96111E+01 -3.96883E+01 -3.97583E+01 -3.98212E+01 -3.98766E+01 -3.99242E+01 -3.99636E+01
  -3.99941E+01 -4.00154E+01 -4.00269E+01 -4.00280E+01 -4.00185E+01 -3.99978E+01 -3.99659E+01 -3.99224E+01 -3.98677E+01 -3.98020E+01
  -3.97259E+01 -3.96404E+01 -3.95469E+01 -3.94468E+01 -3.93423E+01 -3.92355E+01 -3.91291E+01 -3.90258E+01 -3.89281E+01 -3.88390E+01
  -3.87607E+01 -3.86956E+01 -3.86454E+01 -3.86111E+01 -3.85935E+01 -3.85926E+01 -3.86074E+01 -3.86369E+01 -3.86791E+01 -3.87318E+01
  -3.87924E+01 -3.88582E+01 -3.89264E+01 -3.89944E+01 -3.90594E+01 -3.91194E+01 -3.91725E+01 -3.92170E+01 -3.92519E+01 -3.92765E+01
  -3.92903E+01 -3.92932E+01 -3.92855E+01 -3.92675E+01 -3.92398E+01 -3.92029E+01 -3.91576E+01 -3.91046E+01 -3.90446E+01 -3.89783E+01
  -3.89063E+01 -3.88291E+01 -3.87473E+01 -3.86614E+01 -3.85718E+01 -3.84787E+01 -3.83827E+01 -3.82839E+01 -3.81825E+01 -3.80788E+01
  -3.79730E+01 -3.78652E+01 -3.77555E+01 -3.76442E+01 -3.75313E+01 -3.74169E+01 -3.73012E+01 -3.71842E+01 -3.70659E+01 -3.69466E+01
  -3.68263E+01 -3.67050E+01 -3.65828E+01 -3.64598E+01 -3.63359E+01 -3.62110E+01 -3.60851E+01 -3.59581E+01 -3.58299E+01 -3.57005E+01
  -3.55698E+01 -3.54377E+01 -3.53042E+01 -3.51692E+01 -3.50325E+01 -3.48942E+01 -3.47541E+01 -3.46122E+01 -3.44685E+01 -3.43227E+01
  -3.41749E+01 -3.40250E+01 -3.38729E+01 -3.37185E+01 -3.35618E+01 -3.34026E+01 -3.32410E+01 -3.30768E+01 -3.29099E+01 -3.27402E+01
  -3.25678E+01 -3.23924E+01 -3.22141E+01 -3.20328E+01 -3.18483E+01 -3.16606E+01 -3.14696E+01 -3.12752E+01 -3.10774E+01 -3.08761E+01
  -3.06711E+01 -3.04625E+01 -3.02500E+01 -3.00337E+01 -2.98135E+01 -2.95892E+01 -2.93608E+01 -2.91281E+01
 NY background values follow
     2.052E+02    2.028E+02    2.004E+02    1.980E+02    1.957E+02    1.933E+02    1.909E+02    1.885E+02    1.862E+02    1.838E+02
     1.815E+02    1.791E+02    1.768E+02    1.745E+02    1.722E+02    1.699E+02    1.676E+02    1.653E+02    1.630E+02    1.608E+02
     1.586E+02    1.563E+02    1.541E+02    1.519E+02    1.498E+02    1.476E+02    1.454E+02    1.433E+02    1.412E+02    1.391E+02
     1.370E+02    1.350E+02    1.329E+02    1.309E+02    1.289E+02    1.269E+02    1.250E+02    1.231E+02    1.211E+02    1.193E+02
     1.174E+02    1.156E+02    1.137E+02    1.119E+02    1.102E+02    1.084E+02    1.067E+02    1.050E+02    1.034E+02    1.018E+02
     1.001E+02    9.856E+01    9.700E+01    9.547E+01    9.396E+01    9.248E+01    9.102E+01    8.958E+01    8.817E+01    8.678E+01
     8.542E+01    8.408E+01    8.276E+01    8.146E+01    8.019E+01    7.893E+01    7.770E+01    7.650E+01    7.531E+01    7.414E+01
     7.300E+01    7.187E+01    7.077E+01    6.968E+01    6.862E+01    6.757E+01    6.655E+01    6.554E+01    6.455E+01    6.359E+01
     6.264E+01    6.170E+01    6.079E+01    5.989E+01    5.901E+01    5.815E+01    5.731E+01    5.648E+01    5.567E+01    5.487E+01
     5.409E+01    5.333E+01    5.258E+01    5.185E+01    5.113E+01    5.042E+01    4.973E+01    4.906E+01    4.839E+01    4.774E+01
     4.710E+01    4.648E+01    4.586E+01    4.526E+01    4.467E+01    4.408E+01    4.351E+01    4.295E+01    4.240E+01    4.186E+01
     4.132E+01    4.080E+01    4.028E+01    3.977E+01    3.926E+01    3.877E+01    3.828E+01    3.779E+01    3.731E+01    3.684E+01
     3.637E+01    3.591E+01    3.545E+01    3.500E+01    3.455E+01    3.410E+01    3.365E+01    3.321E+01    3.277E+01    3.233E+01
     3.189E+01    3.145E+01    3.101E+01    3.058E+01    3.014E+01    2.970E+01    2.927E+01    2.883E+01    2.839E+01    2.794E+01
     2.750E+01    2.706E+01    2.661E+01    2.617E+01    2.573E+01    2.528E+01    2.484E+01    2.439E+01    2.395E+01    2.350E+01
     2.306E+01    2.262E+01    2.217E+01    2.173E+01    2.129E+01    2.085E+01    2.041E+01    1.997E+01    1.953E+01    1.910E+01
     1.866E+01    1.823E+01    1.780E+01    1.737E+01    1.694E+01    1.652E+01    1.609E+01    1.567E+01    1.525E+01    1.484E+01
     1.442E+01    1.401E+01    1.360E+01    1.320E+01    1.280E+01    1.240E+01    1.200E+01    1.161E+01    1.122E+01    1.083E+01
     1.045E+01    1.007E+01    9.696E+00    9.325E+00    8.958E+00    8.594E+00    8.234E+00    7.876E+00    7.522E+00    7.171E+00
     6.823E+00    6.478E+00    6.135E+00    5.795E+00    5.458E+00    5.123E+00    4.790E+00    4.459E+00    4.130E+00    3.803E+00
     3.478E+00    3.154E+00    2.832E+00    2.512E+00    2.192E+00    1.874E+00    1.557E+00    1.241E+00    9.262E-01    6.119E-01
     2.982E-01   -1.505E-02   -3.278E-01   -6.404E-01   -9.527E-01   -1.265E+00   -1.577E+00   -1.890E+00   -2.202E+00   -2.516E+00
    -2.829E+00   -3.144E+00   -3.458E+00   -3.774E+00   -4.091E+00   -4.409E+00   -4.728E+00   -5.048E+00   -5.370E+00   -5.693E+00
    -6.016E+00   -6.341E+00   -6.667E+00   -6.993E+00   -7.321E+00   -7.649E+00   -7.977E+00   -8.306E+00   -8.636E+00   -8.966E+00
    -9.297E+00   -9.628E+00   -9.959E+00   -1.029E+01   -1.062E+01   -1.095E+01   -1.128E+01   -1.161E+01   -1.195E+01   -1.228E+01
    -1.261E+01   -1.294E+01   -1.326E+01   -1.359E+01   -1.392E+01   -1.425E+01   -1.457E+01   -1.490E+01   -1.522E+01   -1.555E+01
    -1.587E+01   -1.619E+01   -1.651E+01   -1.683E+01   -1.715E+01   -1.747E+01   -1.778E+01   -1.809E+01   -1.840E+01   -1.871E+01
    -1.902E+01   -1.933E+01   -1.963E+01   -1.993E+01   -2.023E+01   -2.053E+01   -2.083E+01   -2.112E+01   -2.142E+01   -2.171E+01
    -2.200E+01   -2.228E+01   -2.257E+01   -2.285E+01   -2.313E+01   -2.341E+01   -2.369E+01   -2.397E+01   -2.424E+01   -2.451E+01
    -2.478E+01   -2.505E+01   -2.532E+01   -2.558E+01   -2.585E+01   -2.611E+01   -2.637E+01   -2.663E+01   -2.688E+01   -2.714E+01
    -2.739E+01   -2.764E+01   -2.789E+01   -2.814E+01   -2.838E+01   -2.863E+01   -2.887E+01   -2.911E+01   -2.935E+01   -2.958E+01
    -2.982E+01   -3.005E+01   -3.029E+01   -3.052E+01   -3.075E+01   -3.097E+01   -3.120E+01   -3.142E+01   -3.164E+01   -3.187E+01
    -3.208E+01   -3.230E+01   -3.252E+01   -3.273E+01   -3.294E+01   -3.315E+01   -3.336E+01   -3.356E+01   -3.377E+01   -3.397E+01
    -3.417E+01   -3.436E+01   -3.456E+01   -3.475E+01   -3.494E+01   -3.513E+01   -3.531E+01   -3.550E+01   -3.568E+01   -3.586E+01
    -3.603E+01   -3.620E+01   -3.637E+01   -3.654E+01   -3.671E+01   -3.687E+01   -3.703E+01   -3.718E+01   -3.734E+01   -3.749E+01
    -3.763E+01   -3.778E+01   -3.792E+01   -3.806E+01   -3.819E+01   -3.832E+01   -3.845E+01   -3.858E+01   -3.870E+01   -3.882E+01
    -3.893E+01   -3.904E+01   -3.915E+01   -3.926E+01   -3.936E+01   -3.946E+01   -3.955E+01   -3.964E+01   -3.973E+01   -3.981E+01
    -3.989E+01   -3.997E+01   -4.004E+01   -4.011E+01   -4.018E+01   -4.024E+01   -4.030E+01   -4.036E+01   -4.041E+01   -4.047E+01
    -4.051E+01   -4.056E+01   -4.060E+01   -4.063E+01   -4.067E+01   -4.070E+01   -4.072E+01   -4.075E+01   -4.077E+01   -4.078E+01
    -4.080E+01   -4.081E+01   -4.082E+01   -4.082E+01   -4.082E+01   -4.082E+01   -4.082E+01   -4.081E+01   -4.080E+01   -4.078E+01
    -4.076E+01   -4.074E+01   -4.072E+01   -4.069E+01   -4.066E+01   -4.063E+01   -4.059E+01   -4.055E+01   -4.051E+01   -4.046E+01
    -4.042E+01   -4.037E+01   -4.031E+01   -4.025E+01   -4.020E+01   -4.013E+01   -4.007E+01   -4.000E+01   -3.993E+01   -3.986E+01
    -3.978E+01   -3.971E+01   -3.963E+01   -3.955E+01   -3.946E+01   -3.938E+01   -3.929E+01   -3.920E+01   -3.911E+01   -3.901E+01
    -3.892E+01   -3.882E+01   -3.872E+01   -3.862E+01   -3.852E+01   -3.841E+01   -3.831E+01   -3.820E+01   -3.809E+01   -3.798E+01
    -3.787E+01   -3.776E+01   -3.764E+01   -3.753E+01   -3.741E+01   -3.729E+01   -3.717E+01   -3.705E+01   -3.693E+01   -3.681E+01
    -3.669E+01   -3.657E+01   -3.644E+01   -3.632E+01   -3.620E+01   -3.607E+01   -3.594E+01   -3.582E+01   -3.569E+01   -3.556E+01
    -3.543E+01   -3.529E+01   -3.516E+01   -3.502E+01   -3.489E+01   -3.475E+01   -3.461E+01   -3.447E+01   -3.432E+01   -3.418E+01
    -3.403E+01   -3.388E+01   -3.373E+01   -3.357E+01   -3.342E+01   -3.326E+01   -3.310E+01   -3.293E+01   -3.277E+01   -3.260E+01
    -3.243E+01   -3.225E+01   -3.207E+01   -3.189E+01   -3.171E+01   -3.152E+01   -3.133E+01   -3.114E+01   -3.094E+01   -3.074E+01
    -3.054E+01   -3.033E+01   -3.012E+01   -2.990E+01   -2.969E+01   -2.946E+01   -2.924E+01   -2.901E+01
 PCr      Conc. = 4.48E+02
