 LCModel (Version 6.3-1L) Copyright: S.W. Provencher.          Ref.: Magn. Reson. Med. 30:672-679 (1993).                
 Slice#2 Row#1 Col#14  K_02_press_1_raw_act
 36 lines in following concentration table = NCONC+1
    Conc.  %SD /Cr+PCr  Metabolite                                         
  193.004  39%   1.467 Ala                                                 
   23.887  84%   0.182 Asp                                                 
  131.534  20%   1.000 Cr                                                  
    0.000 999%   0.000 PCr                                                 
   12.249  99% 9.3E-02 GABA                                                
   10.416 117% 7.9E-02 Glc                                                 
   81.218 198%   0.617 Gln                                                 
  330.044  55%   2.509 Glu                                                 
   36.448  27%   0.277 GPC                                                 
    0.000 999%   0.000 PCh                                                 
   32.688 126%   0.249 GSH                                                 
    0.000 999%   0.000 Ins                                                 
    0.000 999%   0.000 Lac                                                 
    0.000 999%   0.000 NAA                                                 
  148.378  21%   1.128 NAAG                                                
    3.788 104% 2.9E-02 Scyllo                                              
    8.999 222% 6.8E-02 Tau                                                 
    0.000 999%   0.000 -CrCH2                                              
   36.448  27%   0.277 GPC+PCh                                             
  148.378  21%   1.128 NAA+NAAG                                            
  131.534  20%   1.000 Cr+PCr                                              
  411.262  70%   3.127 Glu+Gln                                             
   41.648 716%   0.317 Lip13a                                              
  797.742  24%   6.065 Lip13b                                              
    0.000 999%   0.000 Lip09                                               
    9.910 453% 7.5E-02 MM09                                                
  145.226  67%   1.104 Lip20                                               
   26.079 287%   0.198 MM20                                                
    3.543 470% 2.7E-02 MM12                                                
    0.000 999%   0.000 MM14                                                
   20.658 160%   0.157 MM17                                                
  839.390  18%   6.382 Lip13a+Lip13b                                       
  842.932  18%   6.408 MM14+Lip13a+Lip13b+MM12                             
    9.910 453% 7.5E-02 MM09+Lip09                                          
  171.305  69%   1.302 MM20+Lip20                                          
   6 lines in following misc. output table
  FWHM = 0.076 ppm    S/N =   2                                            
  Data shift = 0.046 ppm                                                   
  Ph: 143 deg      54.9 deg/ppm                                            
  alphaB,S = 8.5E+01,   8.2E+01                                            
   14 spline knots.   Ns = 8(1)                                            
  ( 6) 4 infls.   ( 3) 1 extrs.                                            
  498 points on ppm-axis = NY
      4.000000     3.992357     3.984714     3.977070     3.969427     3.961784     3.954141     3.946497     3.938854     3.931211
      3.923568     3.915925     3.908281     3.900638     3.892995     3.885352     3.877708     3.870065     3.862422     3.854779
      3.847136     3.839492     3.831849     3.824206     3.816563     3.808919     3.801276     3.793633     3.785990     3.778347
      3.770703     3.763060     3.755417     3.747774     3.740130     3.732487     3.724844     3.717201     3.709558     3.701914
      3.694271     3.686628     3.678985     3.671341     3.663698     3.656055     3.648412     3.640769     3.633125     3.625482
      3.617839     3.610196     3.602552     3.594909     3.587266     3.579623     3.571980     3.564336     3.556693     3.549050
      3.541407     3.533763     3.526120     3.518477     3.510834     3.503191     3.495547     3.487904     3.480261     3.472618
      3.464974     3.457331     3.449688     3.442045     3.434402     3.426758     3.419115     3.411472     3.403829     3.396185
      3.388542     3.380899     3.373256     3.365613     3.357969     3.350326     3.342683     3.335040     3.327396     3.319753
      3.312110     3.304467     3.296824     3.289180     3.281537     3.273894     3.266251     3.258607     3.250964     3.243321
      3.235678     3.228034     3.220391     3.212748     3.205105     3.197462     3.189818     3.182175     3.174532     3.166889
      3.159245     3.151602     3.143959     3.136316     3.128673     3.121029     3.113386     3.105743     3.098100     3.090456
      3.082813     3.075170     3.067527     3.059884     3.052240     3.044597     3.036954     3.029311     3.021667     3.014024
      3.006381     2.998738     2.991095     2.983451     2.975808     2.968165     2.960522     2.952878     2.945235     2.937592
      2.929949     2.922306     2.914662     2.907019     2.899376     2.891733     2.884089     2.876446     2.868803     2.861160
      2.853517     2.845873     2.838230     2.830587     2.822944     2.815300     2.807657     2.800014     2.792371     2.784728
      2.777084     2.769441     2.761798     2.754155     2.746511     2.738868     2.731225     2.723582     2.715939     2.708295
      2.700652     2.693009     2.685366     2.677722     2.670079     2.662436     2.654793     2.647150     2.639506     2.631863
      2.624220     2.616577     2.608933     2.601290     2.593647     2.586004     2.578361     2.570717     2.563074     2.555431
      2.547788     2.540144     2.532501     2.524858     2.517215     2.509572     2.501928     2.494285     2.486642     2.478999
      2.471355     2.463712     2.456069     2.448426     2.440783     2.433139     2.425496     2.417853     2.410210     2.402566
      2.394923     2.387280     2.379637     2.371994     2.364350     2.356707     2.349064     2.341421     2.333777     2.326134
      2.318491     2.310848     2.303205     2.295561     2.287918     2.280275     2.272632     2.264988     2.257345     2.249702
      2.242059     2.234416     2.226772     2.219129     2.211486     2.203843     2.196199     2.188556     2.180913     2.173270
      2.165627     2.157983     2.150340     2.142697     2.135054     2.127410     2.119767     2.112124     2.104481     2.096838
      2.089194     2.081551     2.073908     2.066265     2.058621     2.050978     2.043335     2.035692     2.028049     2.020405
      2.012762     2.005119     1.997476     1.989833     1.982190     1.974546     1.966903     1.959260     1.951617     1.943974
      1.936331     1.928688     1.921045     1.913402     1.905759     1.898115     1.890472     1.882829     1.875186     1.867543
      1.859900     1.852257     1.844614     1.836971     1.829327     1.821684     1.814041     1.806398     1.798755     1.791112
      1.783469     1.775826     1.768183     1.760540     1.752896     1.745253     1.737610     1.729967     1.722324     1.714681
      1.707038     1.699395     1.691752     1.684108     1.676465     1.668822     1.661179     1.653536     1.645893     1.638250
      1.630607     1.622964     1.615321     1.607677     1.600034     1.592391     1.584748     1.577105     1.569462     1.561819
      1.554176     1.546533     1.538890     1.531246     1.523603     1.515960     1.508317     1.500674     1.493031     1.485388
      1.477745     1.470102     1.462458     1.454815     1.447172     1.439529     1.431886     1.424243     1.416600     1.408957
      1.401314     1.393671     1.386027     1.378384     1.370741     1.363098     1.355455     1.347812     1.340169     1.332526
      1.324883     1.317240     1.309596     1.301953     1.294310     1.286667     1.279024     1.271381     1.263738     1.256095
      1.248452     1.240808     1.233165     1.225522     1.217879     1.210236     1.202593     1.194950     1.187307     1.179664
      1.172021     1.164377     1.156734     1.149091     1.141448     1.133805     1.126162     1.118519     1.110876     1.103233
      1.095590     1.087946     1.080303     1.072660     1.065017     1.057374     1.049731     1.042088     1.034445     1.026802
      1.019158     1.011515     1.003872     0.996229     0.988586     0.980943     0.973300     0.965657     0.958014     0.950371
      0.942727     0.935084     0.927441     0.919798     0.912155     0.904512     0.896869     0.889226     0.881583     0.873940
      0.866296     0.858653     0.851010     0.843367     0.835724     0.828081     0.820438     0.812795     0.805152     0.797508
      0.789865     0.782222     0.774579     0.766936     0.759293     0.751650     0.744007     0.736364     0.728721     0.721077
      0.713434     0.705791     0.698148     0.690505     0.682862     0.675219     0.667576     0.659933     0.652290     0.644646
      0.637003     0.629360     0.621717     0.614074     0.606431     0.598788     0.591145     0.583502     0.575858     0.568215
      0.560572     0.552929     0.545286     0.537643     0.530000     0.522357     0.514714     0.507071     0.499427     0.491784
      0.484141     0.476498     0.468855     0.461212     0.453569     0.445925     0.438282     0.430639     0.422996     0.415353
      0.407710     0.400067     0.392424     0.384780     0.377137     0.369494     0.361851     0.354208     0.346565     0.338922
      0.331278     0.323635     0.315992     0.308349     0.300706     0.293063     0.285420     0.277777     0.270133     0.262490
      0.254847     0.247204     0.239561     0.231918     0.224275     0.216631     0.208988     0.201345
 NY phased data points follow
   7.20603E+00  6.18855E+00  4.88322E+00  7.44795E+00  4.92995E+00  8.01633E+00  8.34259E+00  1.07822E+01  5.60744E+00  1.03556E+01
   9.07126E+00  6.92353E+00  8.71580E+00  5.94930E+00  6.95060E+00  6.54302E+00  3.95624E+00  9.21781E+00  5.63414E+00  3.95797E+00
   7.47492E+00  4.04419E+00  3.78499E+00  5.75446E+00  2.96153E+00  8.33819E+00  3.71105E+00  6.25394E+00  1.07865E+00  4.23227E+00
   1.62697E+00  4.87766E+00  3.24994E+00  4.31594E+00  4.13627E+00  7.24053E+00  3.43531E+00  5.18461E+00  5.67237E+00  1.49129E+00
   3.71564E+00  4.74294E+00  1.80395E+00  3.08353E+00  2.92077E+00  3.49111E+00  2.39280E+00  4.93853E+00  4.28545E+00  3.43088E+00
   2.55806E+00  6.85346E+00  3.80014E+00  2.24545E+00  3.66058E+00  2.97078E+00  5.65108E+00  1.69698E+00  1.12468E+00  1.80797E+00
   1.81746E+00  8.97701E-01  2.45056E+00  2.27010E+00  1.35150E+00  1.66965E+00  1.51253E-01 -1.22499E+00 -1.97846E-01  9.56523E-01
   1.66435E+00  2.92004E+00  1.25031E-01  1.32996E+00 -9.69624E-01  3.81995E+00  1.79729E+00  1.84338E+00  1.74962E+00 -4.22277E-01
  -4.07046E-01  3.22327E-01  1.67595E+00  2.77234E+00  3.67062E+00  2.94748E-01  2.50570E+00  2.46761E+00  4.81025E+00  1.44350E+00
  -4.05132E-01  1.82623E+00 -8.50731E-01 -1.41787E-02  1.05956E+00  1.91168E+00 -1.49094E+00 -1.05469E+00  4.21261E+00  2.79083E+00
   4.95342E+00  4.42985E+00  5.28147E+00  3.93630E+00  3.77681E+00  3.59701E+00  3.52816E-01  1.12429E+00  2.20811E+00 -1.59845E-01
  -9.81477E-01  1.06903E+00  2.80758E-01  1.32645E+00  3.90770E+00  5.15824E-01 -8.61789E-01  1.61236E+00  2.90530E+00 -7.58242E-01
   1.51181E+00  1.83460E+00  1.77784E+00  5.96240E-01  3.07154E+00  3.19192E+00  2.00685E+00  3.75508E+00  2.60779E+00  4.32581E+00
   1.33658E+00  1.97121E-01 -2.68212E-01 -7.61912E-01  1.64443E+00  7.50927E-01 -1.87051E-01  6.28102E-01  8.55496E-01 -1.06111E+00
  -2.11913E+00 -4.09235E-01 -1.63550E+00 -1.96371E+00 -8.38087E-01  1.06211E+00 -1.05827E+00 -1.79871E+00 -6.70492E-01  1.21798E+00
   7.30757E-01 -6.45404E-01 -3.81777E+00 -2.65424E+00 -3.29508E-01 -5.09771E-01 -1.95188E+00 -2.36026E+00 -3.45523E+00 -2.43118E+00
  -6.74294E-01 -3.41512E+00 -8.96445E-01 -2.76429E+00 -2.72120E-01 -1.52930E+00 -7.84353E-01 -3.44507E+00 -3.69450E-01  6.49871E-01
  -7.92180E-01 -1.53739E+00 -3.51206E+00 -2.59108E+00 -5.73349E-01 -4.99760E+00 -4.05565E+00 -3.41153E+00 -1.86133E+00 -4.50227E+00
  -3.06219E+00 -2.19264E+00 -4.26585E+00 -9.99286E-01 -5.35823E+00  1.48852E+00 -2.06112E+00 -2.63498E+00 -2.92909E+00 -4.72433E+00
  -1.99579E+00 -2.61684E+00 -3.75782E-01 -5.03310E+00 -8.35050E-01 -8.94235E-01 -1.39170E+00 -2.77457E+00 -4.79050E+00 -1.71106E+00
  -1.65161E+00  1.80315E-02  9.87851E-01 -1.56648E+00 -1.20370E+00 -9.40919E-01 -2.69763E+00 -9.41198E-01 -2.15687E+00 -2.31759E+00
  -1.85350E+00  8.44491E-01 -9.77844E-01 -1.48766E+00  5.18131E-01  4.72457E-02 -3.44458E+00 -3.82944E+00 -2.97290E+00 -3.05519E+00
  -2.40745E+00 -2.75562E+00 -3.21560E+00 -1.54886E+00 -9.58289E-01 -2.94729E+00 -1.21623E+00 -2.22698E+00 -5.56096E-02 -2.43192E+00
  -1.84586E+00 -3.09011E+00  1.15488E+00 -2.49203E+00 -3.76809E+00 -1.92501E+00 -3.98321E+00 -9.04549E-01 -5.46005E-01 -1.95528E+00
  -1.33568E+00 -1.15251E+00 -1.09225E+00 -1.80565E+00  4.58828E-01 -3.54795E+00  7.33732E-01 -2.12752E+00 -7.16613E-01 -3.78755E+00
   3.67214E-01 -4.65949E-01  1.47605E-01 -5.76437E-01  2.72321E-01  1.87644E+00  2.57831E+00  3.15631E+00 -1.43373E-01 -4.50873E-01
  -9.69976E-02  9.68795E-01 -4.01428E+00 -2.36677E+00 -2.21642E+00 -1.94804E+00 -2.53060E+00 -2.74706E+00 -4.49396E+00 -3.91402E+00
  -4.72574E+00 -3.62845E+00 -2.29339E+00 -3.11334E+00 -4.52306E+00 -5.39367E+00 -4.36467E+00 -3.64163E+00 -2.75930E+00 -1.97769E+00
  -6.08312E+00 -3.25283E+00 -4.04411E+00 -6.53045E+00 -5.75615E+00 -2.86505E+00 -4.93096E+00 -4.58801E+00 -3.90493E+00 -4.06305E+00
  -6.88657E+00 -7.47939E+00 -3.67907E+00 -2.81475E+00 -5.58583E+00 -4.03872E+00 -3.71624E+00 -1.83051E+00 -3.52273E+00 -9.72799E-02
  -2.34727E+00 -1.05530E+00 -2.28478E+00 -1.46733E+00 -3.06964E+00 -2.62614E+00 -3.10816E+00 -2.98418E+00 -5.78507E+00 -2.57718E+00
  -2.77606E+00 -2.59179E+00 -4.48071E+00 -8.85037E-01 -2.23113E+00 -4.15127E+00 -4.25225E+00 -3.76482E+00 -4.29271E+00 -2.87796E+00
  -2.62091E+00 -5.36673E+00 -5.65002E+00 -4.55836E+00 -4.86987E+00 -8.37600E+00 -7.58079E+00 -6.21009E+00 -6.37192E+00 -8.06918E+00
  -6.86371E+00 -5.53970E+00 -9.06303E+00 -8.46323E+00 -1.04350E+01 -1.02286E+01 -7.58083E+00 -7.92264E+00 -5.42941E+00 -3.25652E+00
  -4.20637E+00 -5.33769E+00 -2.19092E+00 -5.20021E+00 -1.89103E+00 -1.71806E-01 -5.32403E+00 -2.60254E+00 -4.77889E-01 -1.41250E+00
  -9.88307E-01  4.60225E-01  1.73239E+00  8.05318E-01  3.61973E+00  2.00974E+00 -1.42986E+00  2.64417E+00 -2.45218E-01 -1.13356E+00
  -1.52338E+00 -4.40532E-01  1.27413E+00  1.17614E+00  1.05794E+00 -4.70426E-01 -1.23242E+00 -2.60055E+00 -3.33606E+00 -3.83545E+00
  -2.17158E+00 -2.92066E+00 -6.74521E-01 -2.59583E+00 -1.44365E+00  9.96766E-01 -1.52546E+00 -1.41988E+00 -4.58053E-01 -1.31470E+00
  -2.86079E+00 -3.17828E+00 -1.04312E+00 -2.58494E+00 -1.99979E+00 -2.22517E+00 -2.57628E+00  1.30534E-01 -4.75793E+00 -4.90962E+00
  -7.48750E-01  3.76860E-01 -4.94642E+00 -5.68746E+00 -3.08733E+00 -2.27559E+00 -3.55795E+00 -2.33433E+00 -3.12196E+00 -4.22589E+00
  -1.19528E+00 -2.78395E+00 -5.10521E+00 -4.23371E+00 -4.12712E+00 -4.42671E+00 -3.17183E+00 -5.07544E+00 -3.34262E+00 -2.81293E+00
  -5.62483E+00 -2.90977E+00 -2.46811E+00 -5.95142E+00 -8.51124E-01 -5.04238E+00 -3.08761E+00 -3.98648E+00 -5.20124E+00 -2.02778E+00
  -1.95117E+00 -3.63921E+00 -4.31902E+00 -5.28098E+00 -1.65649E+00 -5.16887E+00 -7.46048E+00 -3.92448E+00 -7.76015E+00 -3.38911E+00
  -3.66417E+00 -3.26492E+00 -2.94128E+00 -6.88832E+00 -3.61847E+00 -4.86307E+00 -2.28809E+00 -5.31960E+00 -3.81807E+00 -3.37427E+00
  -4.29975E+00 -1.33926E+00 -1.70678E+00 -2.47275E+00 -3.14525E+00 -1.27555E+00 -4.63767E+00 -3.85524E+00 -4.41184E+00 -4.29642E+00
  -1.20816E+00 -2.85972E+00 -3.85437E+00 -2.26196E+00  4.09790E-01 -3.37628E+00 -4.90686E+00 -4.49644E+00 -7.12951E+00 -9.90298E-01
  -4.26155E+00 -2.26121E+00 -3.83515E+00  1.33554E-01 -1.92763E+00 -4.22623E+00 -2.12922E+00 -3.69711E-01 -4.23664E+00 -2.01861E+00
  -1.76865E+00 -5.79773E+00 -4.29023E+00 -2.14807E-01 -4.86738E+00 -1.04086E+00 -2.37312E+00 -6.63834E+00 -3.23972E+00 -8.61907E-01
  -9.96152E-01 -2.67696E+00 -2.64039E+00 -2.15313E+00 -5.82302E+00 -3.76439E+00 -3.15763E+00 -1.97395E+00 -3.16823E+00 -2.08515E+00
  -4.66210E+00 -3.29266E+00  3.03297E-01 -2.45344E+00 -1.24969E+00 -2.17904E+00  1.77996E+00 -2.38209E+00
 NY points of the fit to the data follow
   4.90259E+00  4.95986E+00  5.06850E+00  5.33281E+00  5.73907E+00  6.15596E+00  6.48624E+00  6.69161E+00  6.78975E+00  6.80754E+00
   6.73544E+00  6.55179E+00  6.24775E+00  5.84611E+00  5.40135E+00  4.98021E+00  4.64801E+00  4.46318E+00  4.41467E+00  4.41218E+00
   4.36877E+00  4.26231E+00  4.14989E+00  4.06698E+00  4.02400E+00  4.02748E+00  4.08228E+00  4.15525E+00  4.22218E+00  4.27146E+00
   4.29626E+00  4.31796E+00  4.34396E+00  4.32455E+00  4.21990E+00  4.02735E+00  3.78679E+00  3.56015E+00  3.39918E+00  3.32043E+00
   3.30922E+00  3.34012E+00  3.38178E+00  3.40260E+00  3.38772E+00  3.34373E+00  3.28418E+00  3.22340E+00  3.16859E+00  3.11689E+00
   3.06528E+00  3.01452E+00  2.96213E+00  2.90691E+00  2.84987E+00  2.79227E+00  2.73510E+00  2.68109E+00  2.63311E+00  2.59109E+00
   2.55203E+00  2.51507E+00  2.47910E+00  2.44336E+00  2.40778E+00  2.37232E+00  2.33731E+00  2.30528E+00  2.27815E+00  2.25367E+00
   2.22888E+00  2.20194E+00  2.17238E+00  2.14097E+00  2.10913E+00  2.07700E+00  2.04361E+00  2.01023E+00  1.98651E+00  1.97548E+00
   1.96952E+00  1.96216E+00  1.94992E+00  1.93303E+00  1.91270E+00  1.88633E+00  1.84876E+00  1.79698E+00  1.73214E+00  1.65957E+00
   1.58801E+00  1.52645E+00  1.48018E+00  1.45790E+00  1.50483E+00  1.76592E+00  2.23482E+00  2.76553E+00  3.23821E+00  3.59103E+00
   3.82976E+00  3.98090E+00  4.04080E+00  3.97189E+00  3.73725E+00  3.33601E+00  2.81382E+00  2.24696E+00  1.71870E+00  1.29964E+00
   1.02846E+00  8.93619E-01  8.36508E-01  7.92224E-01  7.43150E-01  6.95286E-01  6.51690E-01  6.21003E-01  6.51560E-01  9.21735E-01
   1.46097E+00  2.10522E+00  2.70766E+00  3.18676E+00  3.54157E+00  3.80596E+00  3.97921E+00  4.00387E+00  3.81700E+00  3.40159E+00
   2.80294E+00  2.11656E+00  1.45460E+00  9.12814E-01  5.48441E-01  3.54587E-01  2.69993E-01  2.19933E-01  1.81523E-01  1.61830E-01
   1.56573E-01  1.57166E-01  1.53247E-01  1.36543E-01  1.04504E-01  5.95366E-02  9.20970E-04 -7.01417E-02 -1.44584E-01 -2.14005E-01
  -2.71732E-01 -3.14513E-01 -3.52207E-01 -3.91810E-01 -4.34096E-01 -4.76430E-01 -5.16437E-01 -5.54922E-01 -5.95631E-01 -6.41160E-01
  -6.93517E-01 -7.55446E-01 -8.30416E-01 -9.08834E-01 -9.74157E-01 -1.01852E+00 -1.04420E+00 -1.06483E+00 -1.09423E+00 -1.13149E+00
  -1.16953E+00 -1.20399E+00 -1.23659E+00 -1.27388E+00 -1.32462E+00 -1.39353E+00 -1.46594E+00 -1.52820E+00 -1.57480E+00 -1.60492E+00
  -1.62195E+00 -1.63015E+00 -1.62844E+00 -1.61116E+00 -1.57233E+00 -1.52023E+00 -1.47631E+00 -1.45629E+00 -1.46881E+00 -1.51904E+00
  -1.60566E+00 -1.71261E+00 -1.81760E+00 -1.90774E+00 -1.97435E+00 -2.01206E+00 -2.01897E+00 -1.98507E+00 -1.90304E+00 -1.79598E+00
  -1.69069E+00 -1.63169E+00 -1.67609E+00 -1.83344E+00 -2.06569E+00 -2.32575E+00 -2.56160E+00 -2.71713E+00 -2.71426E+00 -2.57702E+00
  -2.36120E+00 -2.11201E+00 -1.86399E+00 -1.66112E+00 -1.58859E+00 -1.70473E+00 -1.98260E+00 -2.35988E+00 -2.78613E+00 -3.20257E+00
  -3.55762E+00 -3.79911E+00 -3.87780E+00 -3.78509E+00 -3.55527E+00 -3.24969E+00 -2.93755E+00 -2.66333E+00 -2.47181E+00 -2.39004E+00
  -2.40370E+00 -2.46817E+00 -2.54229E+00 -2.60172E+00 -2.65338E+00 -2.73014E+00 -2.82631E+00 -2.92549E+00 -3.02228E+00 -3.12156E+00
  -3.21965E+00 -3.31521E+00 -3.41593E+00 -3.52581E+00 -3.63575E+00 -3.72945E+00 -3.80387E+00 -3.81754E+00 -3.56213E+00 -3.00349E+00
  -2.30064E+00 -1.60127E+00 -9.79144E-01 -4.23114E-01  9.25370E-02  5.47472E-01  8.71692E-01  9.70500E-01  7.94338E-01  3.77815E-01
  -1.89873E-01 -7.98372E-01 -1.34591E+00 -1.76377E+00 -2.03998E+00 -2.22256E+00 -2.37857E+00 -2.52235E+00 -2.64177E+00 -2.73847E+00
  -2.81759E+00 -2.88174E+00 -2.93360E+00 -2.97873E+00 -3.02317E+00 -3.06989E+00 -3.12114E+00 -3.18080E+00 -3.24771E+00 -3.31790E+00
  -3.38629E+00 -3.44776E+00 -3.50035E+00 -3.54695E+00 -3.58970E+00 -3.62981E+00 -3.66842E+00 -3.70633E+00 -3.74438E+00 -3.78220E+00
  -3.81803E+00 -3.85153E+00 -3.88305E+00 -3.91307E+00 -3.94258E+00 -3.97219E+00 -4.00293E+00 -4.03558E+00 -4.06994E+00 -4.10481E+00
  -4.13839E+00 -4.16942E+00 -4.19797E+00 -4.22473E+00 -4.25060E+00 -4.27662E+00 -4.30383E+00 -4.33285E+00 -4.36365E+00 -4.39562E+00
  -4.42823E+00 -4.46098E+00 -4.49329E+00 -4.52438E+00 -4.55307E+00 -4.57730E+00 -4.59329E+00 -4.59294E+00 -4.55230E+00 -4.38845E+00
  -4.05545E+00 -3.69472E+00 -3.43050E+00 -3.32405E+00 -3.37755E+00 -3.57394E+00 -3.94912E+00 -4.53629E+00 -5.19477E+00 -5.80995E+00
  -6.32040E+00 -6.69712E+00 -6.92456E+00 -6.97000E+00 -6.79700E+00 -6.41253E+00 -5.89466E+00 -5.36422E+00 -4.91723E+00 -4.59132E+00
  -4.39532E+00 -4.30431E+00 -4.25800E+00 -4.17491E+00 -3.98533E+00 -3.66680E+00 -3.24291E+00 -2.73282E+00 -2.15445E+00 -1.53203E+00
  -8.95348E-01 -2.77428E-01  2.88530E-01  7.72619E-01  1.15140E+00  1.41022E+00  1.54433E+00  1.55860E+00  1.46603E+00  1.28535E+00
   1.03833E+00  7.47136E-01  4.32143E-01  1.10511E-01 -2.04547E-01 -5.03830E-01 -7.81743E-01 -1.03563E+00 -1.26499E+00 -1.47079E+00
  -1.65484E+00 -1.81933E+00 -1.96655E+00 -2.09866E+00 -2.21762E+00 -2.32515E+00 -2.42273E+00 -2.51159E+00 -2.59280E+00 -2.66724E+00
  -2.73564E+00 -2.79864E+00 -2.85677E+00 -2.91049E+00 -2.96016E+00 -3.00612E+00 -3.04865E+00 -3.08799E+00 -3.12434E+00 -3.15787E+00
  -3.18875E+00 -3.21710E+00 -3.24305E+00 -3.26673E+00 -3.28825E+00 -3.30772E+00 -3.32527E+00 -3.34102E+00 -3.35510E+00 -3.36767E+00
  -3.37887E+00 -3.38886E+00 -3.39780E+00 -3.40584E+00 -3.41314E+00 -3.41985E+00 -3.42609E+00 -3.43197E+00 -3.43760E+00 -3.44303E+00
  -3.44833E+00 -3.45351E+00 -3.45859E+00 -3.46356E+00 -3.46838E+00 -3.47303E+00 -3.47745E+00 -3.48160E+00 -3.48543E+00 -3.48889E+00
  -3.49193E+00 -3.49452E+00 -3.49662E+00 -3.49821E+00 -3.49927E+00 -3.49979E+00 -3.49975E+00 -3.49917E+00 -3.49804E+00 -3.49637E+00
  -3.49417E+00 -3.49145E+00 -3.48821E+00 -3.48449E+00 -3.48028E+00 -3.47559E+00 -3.47045E+00 -3.46486E+00 -3.45883E+00 -3.45238E+00
  -3.44551E+00 -3.43823E+00 -3.43056E+00 -3.42249E+00 -3.41404E+00 -3.40521E+00 -3.39602E+00 -3.38646E+00 -3.37654E+00 -3.36627E+00
  -3.35565E+00 -3.34470E+00 -3.33340E+00 -3.32177E+00 -3.30981E+00 -3.29753E+00 -3.28492E+00 -3.27200E+00 -3.25877E+00 -3.24522E+00
  -3.23136E+00 -3.21721E+00 -3.20275E+00 -3.18799E+00 -3.17294E+00 -3.15760E+00 -3.14197E+00 -3.12606E+00 -3.10986E+00 -3.09338E+00
  -3.07662E+00 -3.05959E+00 -3.04230E+00 -3.02473E+00 -3.00689E+00 -2.98880E+00 -2.97044E+00 -2.95183E+00 -2.93297E+00 -2.91386E+00
  -2.89451E+00 -2.87491E+00 -2.85508E+00 -2.83501E+00 -2.81473E+00 -2.79422E+00 -2.77349E+00 -2.75256E+00 -2.73142E+00 -2.71009E+00
  -2.68858E+00 -2.66689E+00 -2.64503E+00 -2.62303E+00 -2.60088E+00 -2.57861E+00 -2.55624E+00 -2.53379E+00
 NY background values follow
     4.183E+00    4.157E+00    4.130E+00    4.103E+00    4.075E+00    4.048E+00    4.021E+00    3.993E+00    3.966E+00    3.938E+00
     3.910E+00    3.883E+00    3.855E+00    3.827E+00    3.799E+00    3.770E+00    3.742E+00    3.714E+00    3.685E+00    3.657E+00
     3.628E+00    3.599E+00    3.571E+00    3.542E+00    3.513E+00    3.484E+00    3.455E+00    3.426E+00    3.396E+00    3.367E+00
     3.338E+00    3.308E+00    3.278E+00    3.249E+00    3.219E+00    3.189E+00    3.160E+00    3.130E+00    3.100E+00    3.070E+00
     3.039E+00    3.009E+00    2.979E+00    2.949E+00    2.918E+00    2.888E+00    2.857E+00    2.827E+00    2.796E+00    2.766E+00
     2.735E+00    2.704E+00    2.673E+00    2.642E+00    2.611E+00    2.581E+00    2.549E+00    2.518E+00    2.487E+00    2.456E+00
     2.425E+00    2.394E+00    2.362E+00    2.331E+00    2.300E+00    2.268E+00    2.237E+00    2.205E+00    2.174E+00    2.142E+00
     2.110E+00    2.079E+00    2.047E+00    2.015E+00    1.983E+00    1.952E+00    1.920E+00    1.888E+00    1.856E+00    1.824E+00
     1.792E+00    1.760E+00    1.728E+00    1.696E+00    1.664E+00    1.632E+00    1.600E+00    1.568E+00    1.536E+00    1.504E+00
     1.472E+00    1.440E+00    1.407E+00    1.375E+00    1.343E+00    1.311E+00    1.279E+00    1.246E+00    1.214E+00    1.182E+00
     1.150E+00    1.117E+00    1.085E+00    1.053E+00    1.021E+00    9.884E-01    9.561E-01    9.238E-01    8.916E-01    8.593E-01
     8.271E-01    7.948E-01    7.626E-01    7.304E-01    6.981E-01    6.659E-01    6.337E-01    6.015E-01    5.693E-01    5.371E-01
     5.050E-01    4.729E-01    4.407E-01    4.086E-01    3.765E-01    3.445E-01    3.124E-01    2.804E-01    2.484E-01    2.164E-01
     1.844E-01    1.525E-01    1.206E-01    8.867E-02    5.682E-02    2.499E-02   -6.811E-03   -3.858E-02   -7.031E-02   -1.020E-01
    -1.337E-01   -1.653E-01   -1.969E-01   -2.285E-01   -2.600E-01   -2.915E-01   -3.229E-01   -3.543E-01   -3.857E-01   -4.170E-01
    -4.483E-01   -4.795E-01   -5.107E-01   -5.418E-01   -5.729E-01   -6.040E-01   -6.350E-01   -6.659E-01   -6.968E-01   -7.276E-01
    -7.584E-01   -7.892E-01   -8.198E-01   -8.505E-01   -8.810E-01   -9.115E-01   -9.420E-01   -9.724E-01   -1.003E+00   -1.033E+00
    -1.063E+00   -1.093E+00   -1.123E+00   -1.153E+00   -1.183E+00   -1.213E+00   -1.243E+00   -1.273E+00   -1.302E+00   -1.332E+00
    -1.361E+00   -1.391E+00   -1.420E+00   -1.450E+00   -1.479E+00   -1.508E+00   -1.537E+00   -1.566E+00   -1.595E+00   -1.624E+00
    -1.652E+00   -1.681E+00   -1.710E+00   -1.738E+00   -1.766E+00   -1.795E+00   -1.823E+00   -1.851E+00   -1.879E+00   -1.907E+00
    -1.935E+00   -1.963E+00   -1.990E+00   -2.018E+00   -2.046E+00   -2.073E+00   -2.100E+00   -2.127E+00   -2.154E+00   -2.181E+00
    -2.208E+00   -2.235E+00   -2.262E+00   -2.288E+00   -2.315E+00   -2.341E+00   -2.368E+00   -2.394E+00   -2.420E+00   -2.446E+00
    -2.472E+00   -2.497E+00   -2.523E+00   -2.549E+00   -2.574E+00   -2.599E+00   -2.624E+00   -2.649E+00   -2.674E+00   -2.699E+00
    -2.724E+00   -2.749E+00   -2.773E+00   -2.797E+00   -2.822E+00   -2.846E+00   -2.870E+00   -2.894E+00   -2.917E+00   -2.941E+00
    -2.964E+00   -2.988E+00   -3.011E+00   -3.034E+00   -3.057E+00   -3.080E+00   -3.102E+00   -3.125E+00   -3.147E+00   -3.170E+00
    -3.192E+00   -3.214E+00   -3.236E+00   -3.258E+00   -3.279E+00   -3.301E+00   -3.322E+00   -3.343E+00   -3.364E+00   -3.385E+00
    -3.406E+00   -3.427E+00   -3.447E+00   -3.468E+00   -3.488E+00   -3.508E+00   -3.528E+00   -3.547E+00   -3.567E+00   -3.587E+00
    -3.606E+00   -3.625E+00   -3.644E+00   -3.663E+00   -3.682E+00   -3.700E+00   -3.718E+00   -3.737E+00   -3.755E+00   -3.773E+00
    -3.790E+00   -3.808E+00   -3.825E+00   -3.843E+00   -3.860E+00   -3.877E+00   -3.894E+00   -3.910E+00   -3.927E+00   -3.943E+00
    -3.959E+00   -3.975E+00   -3.991E+00   -4.007E+00   -4.022E+00   -4.037E+00   -4.053E+00   -4.068E+00   -4.082E+00   -4.097E+00
    -4.111E+00   -4.126E+00   -4.140E+00   -4.154E+00   -4.167E+00   -4.181E+00   -4.194E+00   -4.208E+00   -4.221E+00   -4.234E+00
    -4.246E+00   -4.259E+00   -4.271E+00   -4.283E+00   -4.295E+00   -4.307E+00   -4.319E+00   -4.330E+00   -4.341E+00   -4.352E+00
    -4.363E+00   -4.374E+00   -4.384E+00   -4.395E+00   -4.405E+00   -4.415E+00   -4.425E+00   -4.434E+00   -4.444E+00   -4.453E+00
    -4.462E+00   -4.471E+00   -4.479E+00   -4.488E+00   -4.496E+00   -4.504E+00   -4.512E+00   -4.519E+00   -4.527E+00   -4.534E+00
    -4.541E+00   -4.548E+00   -4.555E+00   -4.561E+00   -4.567E+00   -4.573E+00   -4.579E+00   -4.585E+00   -4.590E+00   -4.596E+00
    -4.601E+00   -4.606E+00   -4.610E+00   -4.615E+00   -4.619E+00   -4.623E+00   -4.627E+00   -4.630E+00   -4.634E+00   -4.637E+00
    -4.640E+00   -4.643E+00   -4.646E+00   -4.648E+00   -4.650E+00   -4.652E+00   -4.654E+00   -4.656E+00   -4.657E+00   -4.658E+00
    -4.659E+00   -4.660E+00   -4.660E+00   -4.660E+00   -4.661E+00   -4.660E+00   -4.660E+00   -4.660E+00   -4.659E+00   -4.658E+00
    -4.657E+00   -4.655E+00   -4.654E+00   -4.652E+00   -4.650E+00   -4.647E+00   -4.645E+00   -4.642E+00   -4.639E+00   -4.636E+00
    -4.633E+00   -4.629E+00   -4.625E+00   -4.621E+00   -4.617E+00   -4.613E+00   -4.608E+00   -4.603E+00   -4.598E+00   -4.593E+00
    -4.587E+00   -4.581E+00   -4.575E+00   -4.569E+00   -4.563E+00   -4.556E+00   -4.549E+00   -4.542E+00   -4.534E+00   -4.527E+00
    -4.519E+00   -4.511E+00   -4.503E+00   -4.494E+00   -4.486E+00   -4.477E+00   -4.468E+00   -4.458E+00   -4.449E+00   -4.439E+00
    -4.429E+00   -4.418E+00   -4.408E+00   -4.397E+00   -4.386E+00   -4.375E+00   -4.363E+00   -4.352E+00   -4.340E+00   -4.328E+00
    -4.315E+00   -4.303E+00   -4.290E+00   -4.277E+00   -4.264E+00   -4.250E+00   -4.237E+00   -4.223E+00   -4.208E+00   -4.194E+00
    -4.179E+00   -4.165E+00   -4.149E+00   -4.134E+00   -4.119E+00   -4.103E+00   -4.087E+00   -4.070E+00   -4.054E+00   -4.037E+00
    -4.020E+00   -4.003E+00   -3.986E+00   -3.968E+00   -3.950E+00   -3.932E+00   -3.914E+00   -3.895E+00   -3.876E+00   -3.857E+00
    -3.838E+00   -3.818E+00   -3.799E+00   -3.779E+00   -3.758E+00   -3.738E+00   -3.717E+00   -3.696E+00   -3.675E+00   -3.654E+00
    -3.632E+00   -3.611E+00   -3.588E+00   -3.566E+00   -3.544E+00   -3.521E+00   -3.498E+00   -3.475E+00   -3.451E+00   -3.427E+00
    -3.403E+00   -3.379E+00   -3.355E+00   -3.330E+00   -3.305E+00   -3.280E+00   -3.255E+00   -3.229E+00   -3.204E+00   -3.178E+00
    -3.151E+00   -3.125E+00   -3.098E+00   -3.071E+00   -3.044E+00   -3.017E+00   -2.989E+00   -2.961E+00
 Ala      Conc. = 1.93E+02
