 LCModel (Version 6.3-1L) Copyright: S.W. Provencher.          Ref.: Magn. Reson. Med. 30:672-679 (1993).                
 Slice#2 Row#9 Col#4  K_02_press_1_raw_act
 36 lines in following concentration table = NCONC+1
    Conc.  %SD /Cr+PCr  Metabolite                                         
    0.000 999%   0.000 Ala                                                 
    0.000 999%   0.000 Asp                                                 
  856.276  30%   0.395 Cr                                                  
 1.31E+03  20%   0.605 PCr                                                 
  126.023 179% 5.8E-02 GABA                                                
    0.000 999%   0.000 Glc                                                 
  631.753  43%   0.291 Gln                                                 
 2.73E+03  13%   1.258 Glu                                                 
  874.193   3%   0.403 GPC                                                 
    0.000 999%   0.000 PCh                                                 
  729.210  12%   0.336 GSH                                                 
 1.80E+03  19%   0.830 Ins                                                 
    0.000 999%   0.000 Lac                                                 
 3.77E+03   5%   1.736 NAA                                                 
  687.433  26%   0.317 NAAG                                                
  162.863  23% 7.5E-02 Scyllo                                              
    0.000 999%   0.000 Tau                                                 
    0.000 999%   0.000 -CrCH2                                              
  874.193   3%   0.403 GPC+PCh                                             
 4.45E+03   2%   2.052 NAA+NAAG                                            
 2.17E+03   3%   1.000 Cr+PCr                                              
 3.36E+03  14%   1.550 Glu+Gln                                             
 1.35E+03  41%   0.623 Lip13a                                              
    0.000 999%   0.000 Lip13b                                              
  176.520 150% 8.1E-02 Lip09                                               
 1.37E+03  22%   0.632 MM09                                                
  316.379  57%   0.146 Lip20                                               
 2.81E+03  18%   1.296 MM20                                                
  534.610  33%   0.246 MM12                                                
    0.000 999%   0.000 MM14                                                
  677.106  39%   0.312 MM17                                                
 1.35E+03  41%   0.623 Lip13a+Lip13b                                       
 1.89E+03  28%   0.869 MM14+Lip13a+Lip13b+MM12                             
 1.55E+03  19%   0.713 MM09+Lip09                                          
 3.13E+03  16%   1.442 MM20+Lip20                                          
   6 lines in following misc. output table
  FWHM = 0.046 ppm    S/N =  18                                            
  Data shift = 0.008 ppm                                                   
  Ph: -35 deg     -15.8 deg/ppm                                            
  alphaB,S = 5.3E-01,   1.6E+02                                            
   14 spline knots.   Ns = 7(1)                                            
  ( 9) 4 infls.   ( 5) 1 extrs.                                            
  498 points on ppm-axis = NY
      4.000000     3.992357     3.984714     3.977070     3.969427     3.961784     3.954141     3.946497     3.938854     3.931211
      3.923568     3.915925     3.908281     3.900638     3.892995     3.885352     3.877708     3.870065     3.862422     3.854779
      3.847136     3.839492     3.831849     3.824206     3.816563     3.808919     3.801276     3.793633     3.785990     3.778347
      3.770703     3.763060     3.755417     3.747774     3.740130     3.732487     3.724844     3.717201     3.709558     3.701914
      3.694271     3.686628     3.678985     3.671341     3.663698     3.656055     3.648412     3.640769     3.633125     3.625482
      3.617839     3.610196     3.602552     3.594909     3.587266     3.579623     3.571980     3.564336     3.556693     3.549050
      3.541407     3.533763     3.526120     3.518477     3.510834     3.503191     3.495547     3.487904     3.480261     3.472618
      3.464974     3.457331     3.449688     3.442045     3.434402     3.426758     3.419115     3.411472     3.403829     3.396185
      3.388542     3.380899     3.373256     3.365613     3.357969     3.350326     3.342683     3.335040     3.327396     3.319753
      3.312110     3.304467     3.296824     3.289180     3.281537     3.273894     3.266251     3.258607     3.250964     3.243321
      3.235678     3.228034     3.220391     3.212748     3.205105     3.197462     3.189818     3.182175     3.174532     3.166889
      3.159245     3.151602     3.143959     3.136316     3.128673     3.121029     3.113386     3.105743     3.098100     3.090456
      3.082813     3.075170     3.067527     3.059884     3.052240     3.044597     3.036954     3.029311     3.021667     3.014024
      3.006381     2.998738     2.991095     2.983451     2.975808     2.968165     2.960522     2.952878     2.945235     2.937592
      2.929949     2.922306     2.914662     2.907019     2.899376     2.891733     2.884089     2.876446     2.868803     2.861160
      2.853517     2.845873     2.838230     2.830587     2.822944     2.815300     2.807657     2.800014     2.792371     2.784728
      2.777084     2.769441     2.761798     2.754155     2.746511     2.738868     2.731225     2.723582     2.715939     2.708295
      2.700652     2.693009     2.685366     2.677722     2.670079     2.662436     2.654793     2.647150     2.639506     2.631863
      2.624220     2.616577     2.608933     2.601290     2.593647     2.586004     2.578361     2.570717     2.563074     2.555431
      2.547788     2.540144     2.532501     2.524858     2.517215     2.509572     2.501928     2.494285     2.486642     2.478999
      2.471355     2.463712     2.456069     2.448426     2.440783     2.433139     2.425496     2.417853     2.410210     2.402566
      2.394923     2.387280     2.379637     2.371994     2.364350     2.356707     2.349064     2.341421     2.333777     2.326134
      2.318491     2.310848     2.303205     2.295561     2.287918     2.280275     2.272632     2.264988     2.257345     2.249702
      2.242059     2.234416     2.226772     2.219129     2.211486     2.203843     2.196199     2.188556     2.180913     2.173270
      2.165627     2.157983     2.150340     2.142697     2.135054     2.127410     2.119767     2.112124     2.104481     2.096838
      2.089194     2.081551     2.073908     2.066265     2.058621     2.050978     2.043335     2.035692     2.028049     2.020405
      2.012762     2.005119     1.997476     1.989833     1.982190     1.974546     1.966903     1.959260     1.951617     1.943974
      1.936331     1.928688     1.921045     1.913402     1.905759     1.898115     1.890472     1.882829     1.875186     1.867543
      1.859900     1.852257     1.844614     1.836971     1.829327     1.821684     1.814041     1.806398     1.798755     1.791112
      1.783469     1.775826     1.768183     1.760540     1.752896     1.745253     1.737610     1.729967     1.722324     1.714681
      1.707038     1.699395     1.691752     1.684108     1.676465     1.668822     1.661179     1.653536     1.645893     1.638250
      1.630607     1.622964     1.615321     1.607677     1.600034     1.592391     1.584748     1.577105     1.569462     1.561819
      1.554176     1.546533     1.538890     1.531246     1.523603     1.515960     1.508317     1.500674     1.493031     1.485388
      1.477745     1.470102     1.462458     1.454815     1.447172     1.439529     1.431886     1.424243     1.416600     1.408957
      1.401314     1.393671     1.386027     1.378384     1.370741     1.363098     1.355455     1.347812     1.340169     1.332526
      1.324883     1.317240     1.309596     1.301953     1.294310     1.286667     1.279024     1.271381     1.263738     1.256095
      1.248452     1.240808     1.233165     1.225522     1.217879     1.210236     1.202593     1.194950     1.187307     1.179664
      1.172021     1.164377     1.156734     1.149091     1.141448     1.133805     1.126162     1.118519     1.110876     1.103233
      1.095590     1.087946     1.080303     1.072660     1.065017     1.057374     1.049731     1.042088     1.034445     1.026802
      1.019158     1.011515     1.003872     0.996229     0.988586     0.980943     0.973300     0.965657     0.958014     0.950371
      0.942727     0.935084     0.927441     0.919798     0.912155     0.904512     0.896869     0.889226     0.881583     0.873940
      0.866296     0.858653     0.851010     0.843367     0.835724     0.828081     0.820438     0.812795     0.805152     0.797508
      0.789865     0.782222     0.774579     0.766936     0.759293     0.751650     0.744007     0.736364     0.728721     0.721077
      0.713434     0.705791     0.698148     0.690505     0.682862     0.675219     0.667576     0.659933     0.652290     0.644646
      0.637003     0.629360     0.621717     0.614074     0.606431     0.598788     0.591145     0.583502     0.575858     0.568215
      0.560572     0.552929     0.545286     0.537643     0.530000     0.522357     0.514714     0.507071     0.499427     0.491784
      0.484141     0.476498     0.468855     0.461212     0.453569     0.445925     0.438282     0.430639     0.422996     0.415353
      0.407710     0.400067     0.392424     0.384780     0.377137     0.369494     0.361851     0.354208     0.346565     0.338922
      0.331278     0.323635     0.315992     0.308349     0.300706     0.293063     0.285420     0.277777     0.270133     0.262490
      0.254847     0.247204     0.239561     0.231918     0.224275     0.216631     0.208988     0.201345
 NY phased data points follow
  -4.32731E+01 -4.26651E+01 -3.80467E+01 -3.53323E+01 -3.38909E+01 -2.23605E+01 -1.88419E+01 -1.12427E+01 -1.31504E+00  3.95623E+00
   1.03174E+01  1.18613E+01  3.71112E+00 -1.48880E+00 -1.10861E+01 -2.02170E+01 -2.94134E+01 -2.85511E+01 -3.30944E+01 -3.66949E+01
  -3.60362E+01 -3.24292E+01 -3.35227E+01 -2.98048E+01 -2.62040E+01 -2.55771E+01 -2.28364E+01 -2.00845E+01 -2.16055E+01 -1.99101E+01
  -1.88335E+01 -1.72447E+01 -1.31114E+01 -1.42650E+01 -1.82336E+01 -1.71792E+01 -1.92901E+01 -1.84342E+01 -2.25441E+01 -1.82027E+01
  -1.87334E+01 -1.91249E+01 -1.68685E+01 -1.23330E+01 -1.08789E+01 -7.47928E+00 -8.17457E+00 -8.13501E+00 -8.28600E+00 -4.70137E+00
  -1.13049E+01 -1.57067E+01 -1.82314E+01 -1.38589E+01 -2.12977E+01 -1.72519E+01 -1.58490E+01 -1.72165E+01 -1.99861E+01 -2.02860E+01
  -1.62188E+01 -1.93829E+01 -2.08065E+01 -2.30158E+01 -2.61484E+01 -2.62212E+01 -2.31135E+01 -2.35697E+01 -2.30670E+01 -2.06089E+01
  -2.21979E+01 -1.81356E+01 -1.75129E+01 -1.98259E+01 -1.53198E+01 -1.71180E+01 -1.22931E+01 -1.52631E+01 -1.56962E+01 -1.63508E+01
  -1.66547E+01 -1.16700E+01 -1.00015E+01 -1.66059E+01 -1.08986E+01 -1.43880E+01 -1.61951E+01 -7.99688E+00 -7.96998E+00 -3.31987E+00
  -4.89848E+00 -7.99199E+00 -5.46090E+00  8.04169E-01 -1.88126E-01  1.95016E-01  3.36422E+00  1.22793E+01  1.57107E+01  2.27789E+01
   3.67210E+01  5.32219E+01  6.41522E+01  7.09980E+01  6.06251E+01  5.19978E+01  4.13125E+01  2.67959E+01  1.35334E+01  7.08886E+00
  -1.45841E+00  1.55545E-01 -2.07147E-01 -4.20582E+00 -5.78920E+00 -3.05372E+00 -5.37962E+00 -1.84317E+00 -1.62568E+00  3.78021E+00
   6.28662E+00  1.02308E+01  1.58528E+01  2.10525E+01  2.90867E+01  4.43290E+01  6.40690E+01  7.46492E+01  6.85040E+01  5.93505E+01
   4.13493E+01  3.41500E+01  1.93161E+01  1.07881E+01  3.84752E+00 -2.44518E+00 -6.70457E+00 -5.19461E+00 -4.69716E+00 -3.77690E+00
  -1.49632E+00 -1.79484E+00  5.89997E+00  1.29632E+00  2.93575E+00 -2.22631E+00  5.05669E-01  7.26209E+00 -1.48557E+00  2.15036E+00
  -7.16207E-01  6.49177E-01  1.39680E+00 -4.11618E+00 -3.57428E+00 -4.60334E-01 -2.36779E+00 -1.37994E+00  3.39051E+00  6.33745E+00
   5.98152E+00 -1.97724E+00 -3.96744E+00 -3.83488E+00 -1.82761E+00  8.90406E-01 -5.95048E+00 -5.20197E+00 -7.22901E+00 -1.21869E+01
  -1.67831E+01 -1.49379E+01 -1.46192E+01 -1.29375E+01 -1.91852E+01 -2.15569E+01 -2.28394E+01 -1.97509E+01 -1.57679E+01 -1.96426E+01
  -1.72517E+01 -1.28126E+01 -1.57282E+01 -1.13444E+01 -1.34692E+01 -1.08838E+01 -6.49589E+00 -2.31316E+00  4.39496E-01  3.91701E+00
   8.26981E+00  1.12189E+01  1.30475E+01  7.20137E+00  9.40026E+00  8.73985E+00  8.73027E+00  3.48024E+00  1.45289E+00  8.73137E-01
   2.50358E+00  3.00311E-01  7.51847E+00  1.06604E+01  7.86279E+00  9.04682E+00  4.90696E+00 -1.31469E+00  3.26733E+00  5.58478E+00
  -1.92126E-02 -9.71080E-01  2.94483E+00  7.12019E+00  1.43576E+01  2.41328E+01  2.19773E+01  2.62763E+01  1.91537E+01  1.00282E+01
   1.04475E+01  5.18267E+00 -1.75385E+00  1.33337E+00  3.81384E+00  8.78847E+00  9.44374E+00  1.68239E+01  1.85424E+01  2.28743E+01
   2.15425E+01  1.77651E+01  2.18233E+01  1.88479E+01  1.90043E+01  2.02856E+01  1.82890E+01  1.80310E+01  1.80063E+01  1.65646E+01
   1.74579E+01  1.62067E+01  8.66902E+00  7.37842E+00  1.49256E+01  1.60240E+01  2.57877E+01  2.77147E+01  2.90091E+01  3.06426E+01
   3.64615E+01  3.03429E+01  4.13066E+01  4.79811E+01  6.41343E+01  7.63387E+01  9.52335E+01  1.02580E+02  1.08515E+02  1.37996E+02
   1.61173E+02  1.62004E+02  1.47054E+02  1.14557E+02  8.48341E+01  6.21159E+01  4.68015E+01  3.13856E+01  2.44146E+01  1.46563E+01
   2.11615E+01  1.73949E+01  2.28206E+01  1.82274E+01  2.45777E+01  2.16926E+01  2.16593E+01  1.94306E+01  1.76924E+01  2.23190E+01
   1.73386E+01  1.77629E+01  1.76450E+01  1.92633E+01  1.43679E+01  1.45075E+01  1.33720E+01  1.36083E+01  1.54194E+01  1.38539E+01
   1.46583E+01  1.81699E+01  1.49559E+01  1.59278E+01  2.13374E+01  1.96662E+01  9.36095E+00  1.56060E+01  1.24261E+01  1.44162E+01
   1.16015E+01  9.60145E+00  1.41776E+01  1.71299E+01  1.51838E+01  1.52236E+01  1.04020E+01  1.75322E+01  1.68083E+01  2.14308E+01
   2.13001E+01  1.98508E+01  2.04421E+01  1.49160E+01  2.17429E+01  1.79322E+01  1.95035E+01  1.59043E+01  2.08391E+01  1.88034E+01
   1.99524E+01  1.92541E+01  1.34468E+01  1.63883E+01  8.21072E+00  1.18820E+01  1.48396E+01  9.22500E+00  1.00516E+01  1.16416E+01
   8.05222E+00  1.22988E+01  1.73628E+01  1.59992E+01  1.46837E+01  1.52596E+01  1.77063E+01  1.56456E+01  1.24208E+01  1.05288E+01
   7.94478E+00  1.04291E+01  1.24342E+01  1.16347E+01  1.21497E+01  1.96226E+01  2.37502E+01  2.27985E+01  2.03455E+01  2.18604E+01
   1.82711E+01  2.05113E+01  1.70736E+01  2.29618E+01  2.09493E+01  1.67442E+01  1.90258E+01  2.37504E+01  2.10438E+01  2.34137E+01
   2.47725E+01  2.15707E+01  2.03766E+01  2.92532E+01  2.63351E+01  2.63506E+01  2.22528E+01  2.72258E+01  2.48258E+01  2.37329E+01
   2.38458E+01  2.24485E+01  2.49863E+01  2.37519E+01  2.20128E+01  2.37337E+01  2.27973E+01  2.00550E+01  2.32964E+01  2.05686E+01
   1.98284E+01  1.84844E+01  2.21842E+01  2.52927E+01  1.68896E+01  1.88616E+01  2.26414E+01  1.98036E+01  1.92505E+01  2.13001E+01
   2.40653E+01  2.35079E+01  2.00779E+01  2.35148E+01  2.66456E+01  2.58393E+01  2.76080E+01  2.47904E+01  2.65359E+01  2.55072E+01
   2.48055E+01  2.54193E+01  2.39182E+01  2.20687E+01  2.52083E+01  2.25492E+01  2.79724E+01  2.81528E+01  2.58781E+01  2.60335E+01
   2.23410E+01  2.98545E+01  2.73602E+01  2.43889E+01  2.26208E+01  2.30790E+01  2.58610E+01  2.17314E+01  2.59605E+01  2.52621E+01
   2.37185E+01  1.93312E+01  2.12635E+01  2.30030E+01  2.02509E+01  1.93185E+01  1.82001E+01  1.49255E+01  1.92976E+01  1.71913E+01
   2.05995E+01  1.45040E+01  1.97034E+01  1.70501E+01  1.96348E+01  1.71999E+01  2.08341E+01  1.68013E+01  1.82542E+01  1.64425E+01
   1.78633E+01  1.83316E+01  2.35892E+01  1.79837E+01  2.49397E+01  1.84051E+01  1.76488E+01  1.89524E+01  1.76870E+01  1.75399E+01
   1.91683E+01  2.22739E+01  2.09273E+01  1.69258E+01  1.85097E+01  1.83797E+01  1.91505E+01  2.16574E+01  1.69475E+01  2.46769E+01
   1.63540E+01  2.06124E+01  2.11267E+01  1.86007E+01  1.67457E+01  2.05462E+01  2.09121E+01  1.74345E+01  2.29221E+01  1.93452E+01
   1.44176E+01  1.77947E+01  2.04937E+01  1.55116E+01  1.85405E+01  1.62045E+01  1.79364E+01  2.22526E+01  1.71240E+01  1.78745E+01
   1.59540E+01  1.49127E+01  1.40209E+01  2.32134E+01  1.68814E+01  2.09207E+01  1.28656E+01  2.05265E+01  1.91760E+01  1.50828E+01
   1.44017E+01  1.65420E+01  1.59102E+01  2.00182E+01  2.16392E+01  1.60468E+01  1.37437E+01  1.55084E+01
 NY points of the fit to the data follow
  -4.21840E+01 -4.13622E+01 -3.86959E+01 -3.47451E+01 -2.98621E+01 -2.45152E+01 -1.84513E+01 -1.09224E+01 -2.25138E+00  5.57881E+00
   9.94165E+00  9.25150E+00  3.98780E+00 -3.78452E+00 -1.18242E+01 -1.86954E+01 -2.39490E+01 -2.76080E+01 -2.97797E+01 -3.08869E+01
  -3.12441E+01 -3.14477E+01 -3.13874E+01 -3.04951E+01 -2.92840E+01 -2.79591E+01 -2.63343E+01 -2.40684E+01 -2.08172E+01 -1.70429E+01
  -1.37061E+01 -1.17163E+01 -1.13977E+01 -1.24249E+01 -1.43778E+01 -1.69988E+01 -2.00097E+01 -2.30743E+01 -2.53899E+01 -2.60786E+01
  -2.50106E+01 -2.27886E+01 -2.02606E+01 -1.78397E+01 -1.53878E+01 -1.27223E+01 -1.02288E+01 -8.85283E+00 -9.27710E+00 -1.13390E+01
  -1.42676E+01 -1.71330E+01 -1.92841E+01 -2.05815E+01 -2.10510E+01 -2.08517E+01 -2.01816E+01 -1.92048E+01 -1.80870E+01 -1.70695E+01
  -1.64655E+01 -1.65102E+01 -1.71537E+01 -1.81002E+01 -1.88749E+01 -1.91870E+01 -1.90063E+01 -1.84149E+01 -1.75539E+01 -1.65660E+01
  -1.55817E+01 -1.47749E+01 -1.42956E+01 -1.41738E+01 -1.43008E+01 -1.45035E+01 -1.46493E+01 -1.46888E+01 -1.46317E+01 -1.45241E+01
  -1.41173E+01 -1.33624E+01 -1.26586E+01 -1.20858E+01 -1.14736E+01 -1.05564E+01 -9.23226E+00 -7.88118E+00 -7.09559E+00 -7.10222E+00
  -7.69662E+00 -8.39444E+00 -8.78447E+00 -8.65360E+00 -7.57237E+00 -3.73394E+00  3.12097E+00  1.00870E+01  1.66262E+01  2.46178E+01
   3.62881E+01  5.13251E+01  6.50017E+01  7.10308E+01  6.66778E+01  5.43040E+01  3.87766E+01  2.41488E+01  1.22459E+01  3.39684E+00
  -2.41624E+00 -5.26852E+00 -6.10942E+00 -6.28071E+00 -6.22848E+00 -6.04938E+00 -5.77532E+00 -5.37121E+00 -4.61588E+00 -2.13505E+00
   3.93583E+00  1.08921E+01  1.71996E+01  2.40450E+01  3.36738E+01  4.70917E+01  6.12704E+01  6.99983E+01  6.90042E+01  5.93054E+01
   4.54067E+01  3.16811E+01  2.02747E+01  1.12960E+01  4.42673E+00 -1.86396E-01 -2.62810E+00 -3.76998E+00 -3.88485E+00 -3.10878E+00
  -1.81405E+00 -4.85831E-01  4.72083E-01  8.44826E-01  6.77096E-01  1.96084E-01 -3.91611E-01 -9.76666E-01 -1.48310E+00 -1.87190E+00
  -2.15376E+00 -2.36902E+00 -2.56017E+00 -2.80060E+00 -3.18309E+00 -3.48318E+00 -3.53798E+00 -3.39598E+00 -3.25685E+00 -3.60018E+00
  -4.43565E+00 -5.24606E+00 -5.51984E+00 -5.16880E+00 -4.56959E+00 -4.30278E+00 -4.66432E+00 -5.51682E+00 -6.57716E+00 -7.66573E+00
  -8.50789E+00 -8.86903E+00 -8.98877E+00 -9.23549E+00 -9.88725E+00 -1.06412E+01 -1.08675E+01 -1.03213E+01 -9.43707E+00 -8.85374E+00
  -8.86697E+00 -8.93658E+00 -8.50703E+00 -7.58113E+00 -6.49680E+00 -5.47559E+00 -4.33600E+00 -2.64894E+00 -2.47357E-01  2.51146E+00
   4.95949E+00  6.43480E+00  6.86158E+00  6.44744E+00  5.52768E+00  4.44497E+00  3.56336E+00  3.29387E+00  3.75882E+00  4.92867E+00
   6.57400E+00  8.34360E+00  9.99643E+00  1.10888E+01  1.14265E+01  1.07928E+01  8.94052E+00  6.30737E+00  3.64088E+00  1.82753E+00
   1.27457E+00  1.69933E+00  3.23103E+00  6.13794E+00  1.02481E+01  1.44378E+01  1.69730E+01  1.69079E+01  1.44716E+01  1.02837E+01
   5.27890E+00  4.80446E-01 -2.86912E+00 -3.47403E+00 -1.03690E+00  3.57048E+00  8.85196E+00  1.34218E+01  1.65761E+01  1.81639E+01
   1.85564E+01  1.82740E+01  1.79094E+01  1.80092E+01  1.86622E+01  1.95993E+01  2.03942E+01  2.07976E+01  2.06912E+01  1.99880E+01
   1.87017E+01  1.72476E+01  1.62688E+01  1.62953E+01  1.74816E+01  1.95201E+01  2.18907E+01  2.40956E+01  2.61897E+01  2.85997E+01
   3.07370E+01  3.26503E+01  3.61577E+01  4.68787E+01  6.35049E+01  7.91376E+01  9.18291E+01  1.04150E+02  1.20494E+02  1.40714E+02
   1.56629E+02  1.58378E+02  1.43475E+02  1.17844E+02  9.01819E+01  6.61817E+01  4.73372E+01  3.34454E+01  2.44663E+01  2.03095E+01
   1.88441E+01  1.80800E+01  1.77100E+01  1.76610E+01  1.77567E+01  1.78028E+01  1.77098E+01  1.74513E+01  1.70633E+01  1.66101E+01
   1.61503E+01  1.57390E+01  1.54276E+01  1.52289E+01  1.51131E+01  1.50414E+01  1.49809E+01  1.49150E+01  1.48452E+01  1.47859E+01
   1.47604E+01  1.47868E+01  1.48579E+01  1.49564E+01  1.50667E+01  1.51806E+01  1.52951E+01  1.54111E+01  1.55367E+01  1.56860E+01
   1.58707E+01  1.60904E+01  1.63312E+01  1.65753E+01  1.68077E+01  1.70170E+01  1.71940E+01  1.73312E+01  1.74250E+01  1.74760E+01
   1.74845E+01  1.74507E+01  1.73753E+01  1.72601E+01  1.71090E+01  1.69280E+01  1.67239E+01  1.65036E+01  1.62734E+01  1.60400E+01
   1.58102E+01  1.55905E+01  1.53862E+01  1.52012E+01  1.50384E+01  1.49003E+01  1.47892E+01  1.47066E+01  1.46527E+01  1.46271E+01
   1.46294E+01  1.46595E+01  1.47174E+01  1.48031E+01  1.49161E+01  1.50560E+01  1.52228E+01  1.54171E+01  1.56396E+01  1.58905E+01
   1.61697E+01  1.64765E+01  1.68108E+01  1.71718E+01  1.75582E+01  1.79674E+01  1.83960E+01  1.88397E+01  1.92942E+01  1.97542E+01
   2.02135E+01  2.06648E+01  2.11007E+01  2.15138E+01  2.18972E+01  2.22443E+01  2.25488E+01  2.28049E+01  2.30085E+01  2.31566E+01
   2.32483E+01  2.32837E+01  2.32639E+01  2.31917E+01  2.30712E+01  2.29082E+01  2.27091E+01  2.24808E+01  2.22305E+01  2.19656E+01
   2.16938E+01  2.14227E+01  2.11595E+01  2.09105E+01  2.06813E+01  2.04772E+01  2.03030E+01  2.01630E+01  2.00604E+01  1.99979E+01
   1.99774E+01  2.00009E+01  2.00698E+01  2.01853E+01  2.03475E+01  2.05561E+01  2.08101E+01  2.11083E+01  2.14488E+01  2.18284E+01
   2.22429E+01  2.26866E+01  2.31535E+01  2.36362E+01  2.41264E+01  2.46146E+01  2.50905E+01  2.55434E+01  2.59629E+01  2.63389E+01
   2.66620E+01  2.69236E+01  2.71166E+01  2.72359E+01  2.72787E+01  2.72444E+01  2.71345E+01  2.69523E+01  2.67033E+01  2.63947E+01
   2.60353E+01  2.56346E+01  2.52025E+01  2.47486E+01  2.42828E+01  2.38140E+01  2.33507E+01  2.28998E+01  2.24670E+01  2.20566E+01
   2.16721E+01  2.13158E+01  2.09889E+01  2.06916E+01  2.04232E+01  2.01827E+01  1.99685E+01  1.97791E+01  1.96126E+01  1.94667E+01
   1.93391E+01  1.92281E+01  1.91317E+01  1.90485E+01  1.89767E+01  1.89147E+01  1.88610E+01  1.88147E+01  1.87748E+01  1.87405E+01
   1.87109E+01  1.86850E+01  1.86623E+01  1.86424E+01  1.86249E+01  1.86094E+01  1.85954E+01  1.85823E+01  1.85701E+01  1.85586E+01
   1.85476E+01  1.85368E+01  1.85259E+01  1.85148E+01  1.85033E+01  1.84917E+01  1.84799E+01  1.84675E+01  1.84545E+01  1.84409E+01
   1.84267E+01  1.84122E+01  1.83970E+01  1.83812E+01  1.83645E+01  1.83472E+01  1.83293E+01  1.83110E+01  1.82919E+01  1.82721E+01
   1.82516E+01  1.82304E+01  1.82089E+01  1.81868E+01  1.81640E+01  1.81406E+01  1.81166E+01  1.80921E+01  1.80673E+01  1.80421E+01
   1.80162E+01  1.79899E+01  1.79631E+01  1.79361E+01  1.79089E+01  1.78813E+01  1.78533E+01  1.78250E+01  1.77966E+01  1.77681E+01
   1.77396E+01  1.77108E+01  1.76818E+01  1.76529E+01  1.76241E+01  1.75954E+01  1.75669E+01  1.75385E+01
 NY background values follow
    -4.799E+01   -4.757E+01   -4.716E+01   -4.674E+01   -4.632E+01   -4.591E+01   -4.549E+01   -4.507E+01   -4.466E+01   -4.424E+01
    -4.383E+01   -4.341E+01   -4.300E+01   -4.258E+01   -4.217E+01   -4.176E+01   -4.135E+01   -4.093E+01   -4.052E+01   -4.011E+01
    -3.970E+01   -3.929E+01   -3.889E+01   -3.848E+01   -3.807E+01   -3.767E+01   -3.726E+01   -3.686E+01   -3.646E+01   -3.606E+01
    -3.566E+01   -3.526E+01   -3.486E+01   -3.447E+01   -3.407E+01   -3.368E+01   -3.329E+01   -3.290E+01   -3.251E+01   -3.212E+01
    -3.174E+01   -3.135E+01   -3.097E+01   -3.059E+01   -3.021E+01   -2.983E+01   -2.946E+01   -2.908E+01   -2.871E+01   -2.834E+01
    -2.797E+01   -2.761E+01   -2.724E+01   -2.688E+01   -2.652E+01   -2.616E+01   -2.581E+01   -2.545E+01   -2.510E+01   -2.475E+01
    -2.440E+01   -2.406E+01   -2.371E+01   -2.337E+01   -2.303E+01   -2.269E+01   -2.235E+01   -2.202E+01   -2.169E+01   -2.136E+01
    -2.103E+01   -2.071E+01   -2.038E+01   -2.006E+01   -1.974E+01   -1.943E+01   -1.911E+01   -1.880E+01   -1.849E+01   -1.818E+01
    -1.788E+01   -1.757E+01   -1.727E+01   -1.698E+01   -1.668E+01   -1.639E+01   -1.609E+01   -1.581E+01   -1.552E+01   -1.523E+01
    -1.495E+01   -1.467E+01   -1.440E+01   -1.412E+01   -1.385E+01   -1.358E+01   -1.331E+01   -1.305E+01   -1.279E+01   -1.253E+01
    -1.228E+01   -1.202E+01   -1.177E+01   -1.153E+01   -1.128E+01   -1.104E+01   -1.081E+01   -1.057E+01   -1.034E+01   -1.012E+01
    -9.893E+00   -9.673E+00   -9.456E+00   -9.243E+00   -9.034E+00   -8.828E+00   -8.626E+00   -8.428E+00   -8.234E+00   -8.044E+00
    -7.858E+00   -7.675E+00   -7.497E+00   -7.323E+00   -7.153E+00   -6.987E+00   -6.826E+00   -6.669E+00   -6.516E+00   -6.368E+00
    -6.224E+00   -6.085E+00   -5.950E+00   -5.820E+00   -5.695E+00   -5.575E+00   -5.459E+00   -5.348E+00   -5.242E+00   -5.139E+00
    -5.041E+00   -4.947E+00   -4.857E+00   -4.769E+00   -4.685E+00   -4.604E+00   -4.526E+00   -4.450E+00   -4.376E+00   -4.304E+00
    -4.234E+00   -4.166E+00   -4.099E+00   -4.033E+00   -3.968E+00   -3.903E+00   -3.839E+00   -3.775E+00   -3.711E+00   -3.647E+00
    -3.582E+00   -3.517E+00   -3.451E+00   -3.383E+00   -3.314E+00   -3.243E+00   -3.171E+00   -3.096E+00   -3.019E+00   -2.940E+00
    -2.857E+00   -2.772E+00   -2.683E+00   -2.591E+00   -2.496E+00   -2.396E+00   -2.292E+00   -2.184E+00   -2.071E+00   -1.953E+00
    -1.831E+00   -1.703E+00   -1.569E+00   -1.431E+00   -1.287E+00   -1.139E+00   -9.855E-01   -8.280E-01   -6.663E-01   -5.005E-01
    -3.308E-01   -1.575E-01    1.924E-02    1.993E-01    3.823E-01    5.683E-01    7.569E-01    9.480E-01    1.141E+00    1.337E+00
     1.534E+00    1.733E+00    1.934E+00    2.136E+00    2.339E+00    2.543E+00    2.747E+00    2.953E+00    3.158E+00    3.364E+00
     3.569E+00    3.775E+00    3.979E+00    4.184E+00    4.387E+00    4.589E+00    4.790E+00    4.990E+00    5.188E+00    5.384E+00
     5.579E+00    5.771E+00    5.960E+00    6.147E+00    6.332E+00    6.513E+00    6.691E+00    6.866E+00    7.037E+00    7.205E+00
     7.370E+00    7.531E+00    7.689E+00    7.844E+00    7.995E+00    8.144E+00    8.289E+00    8.430E+00    8.569E+00    8.704E+00
     8.836E+00    8.965E+00    9.091E+00    9.213E+00    9.333E+00    9.449E+00    9.562E+00    9.672E+00    9.778E+00    9.882E+00
     9.982E+00    1.008E+01    1.017E+01    1.027E+01    1.035E+01    1.044E+01    1.052E+01    1.060E+01    1.068E+01    1.075E+01
     1.082E+01    1.089E+01    1.095E+01    1.101E+01    1.107E+01    1.113E+01    1.118E+01    1.123E+01    1.127E+01    1.132E+01
     1.136E+01    1.140E+01    1.143E+01    1.146E+01    1.149E+01    1.152E+01    1.155E+01    1.157E+01    1.159E+01    1.161E+01
     1.162E+01    1.164E+01    1.165E+01    1.166E+01    1.167E+01    1.167E+01    1.168E+01    1.169E+01    1.169E+01    1.169E+01
     1.169E+01    1.169E+01    1.169E+01    1.169E+01    1.169E+01    1.169E+01    1.168E+01    1.168E+01    1.168E+01    1.167E+01
     1.167E+01    1.166E+01    1.166E+01    1.166E+01    1.166E+01    1.165E+01    1.165E+01    1.165E+01    1.165E+01    1.165E+01
     1.165E+01    1.166E+01    1.166E+01    1.167E+01    1.167E+01    1.168E+01    1.169E+01    1.171E+01    1.172E+01    1.173E+01
     1.175E+01    1.177E+01    1.179E+01    1.181E+01    1.184E+01    1.186E+01    1.189E+01    1.191E+01    1.194E+01    1.197E+01
     1.201E+01    1.204E+01    1.208E+01    1.211E+01    1.215E+01    1.219E+01    1.223E+01    1.227E+01    1.231E+01    1.235E+01
     1.240E+01    1.244E+01    1.249E+01    1.253E+01    1.258E+01    1.263E+01    1.268E+01    1.273E+01    1.278E+01    1.283E+01
     1.289E+01    1.294E+01    1.299E+01    1.305E+01    1.311E+01    1.316E+01    1.322E+01    1.328E+01    1.333E+01    1.339E+01
     1.345E+01    1.351E+01    1.357E+01    1.363E+01    1.369E+01    1.375E+01    1.381E+01    1.387E+01    1.393E+01    1.399E+01
     1.406E+01    1.412E+01    1.418E+01    1.424E+01    1.430E+01    1.437E+01    1.443E+01    1.449E+01    1.456E+01    1.462E+01
     1.468E+01    1.475E+01    1.481E+01    1.487E+01    1.494E+01    1.500E+01    1.506E+01    1.513E+01    1.519E+01    1.525E+01
     1.531E+01    1.538E+01    1.544E+01    1.550E+01    1.556E+01    1.563E+01    1.569E+01    1.575E+01    1.581E+01    1.587E+01
     1.593E+01    1.599E+01    1.605E+01    1.611E+01    1.617E+01    1.623E+01    1.629E+01    1.635E+01    1.641E+01    1.647E+01
     1.652E+01    1.658E+01    1.664E+01    1.669E+01    1.675E+01    1.680E+01    1.685E+01    1.691E+01    1.696E+01    1.701E+01
     1.706E+01    1.711E+01    1.716E+01    1.721E+01    1.726E+01    1.730E+01    1.735E+01    1.739E+01    1.744E+01    1.748E+01
     1.752E+01    1.756E+01    1.760E+01    1.764E+01    1.768E+01    1.771E+01    1.775E+01    1.778E+01    1.781E+01    1.785E+01
     1.788E+01    1.790E+01    1.793E+01    1.796E+01    1.798E+01    1.801E+01    1.803E+01    1.805E+01    1.807E+01    1.808E+01
     1.810E+01    1.811E+01    1.813E+01    1.814E+01    1.815E+01    1.815E+01    1.816E+01    1.816E+01    1.817E+01    1.817E+01
     1.817E+01    1.817E+01    1.816E+01    1.816E+01    1.816E+01    1.815E+01    1.814E+01    1.813E+01    1.812E+01    1.811E+01
     1.810E+01    1.809E+01    1.807E+01    1.806E+01    1.804E+01    1.803E+01    1.801E+01    1.799E+01    1.797E+01    1.795E+01
     1.793E+01    1.791E+01    1.789E+01    1.787E+01    1.784E+01    1.782E+01    1.780E+01    1.777E+01    1.775E+01    1.772E+01
     1.770E+01    1.767E+01    1.764E+01    1.762E+01    1.759E+01    1.756E+01    1.754E+01    1.751E+01
 Cr       Conc. = 8.56E+02
