 LCModel (Version 6.3-1L) Copyright: S.W. Provencher.          Ref.: Magn. Reson. Med. 30:672-679 (1993).                
 Slice#1 Row#14 Col#2  K_02_press_1_raw_act
 36 lines in following concentration table = NCONC+1
    Conc.  %SD /Cr+PCr  Metabolite                                         
    0.000 999%   0.000 Ala                                                 
   24.068  13%   0.000 Asp                                                 
    0.000 999%   0.000 Cr                                                  
    0.000 999%   0.000 PCr                                                 
   14.442  13%   0.000 GABA                                                
   14.442  13%   0.000 Glc                                                 
 2.38E+03  16%   0.000 Gln                                                 
 2.78E+03  18%   0.000 Glu                                                 
   22.330  55%   0.000 GPC                                                 
    0.000 999%   0.000 PCh                                                 
    0.000 999%   0.000 GSH                                                 
    0.000 999%   0.000 Ins                                                 
    0.000 999%   0.000 Lac                                                 
  414.411  13%   0.000 NAA                                                 
    0.000 999%   0.000 NAAG                                                
    4.814  13%   0.000 Scyllo                                              
   24.068  13%   0.000 Tau                                                 
    0.000 999%   0.000 -CrCH2                                              
   22.330  55%   0.000 GPC+PCh                                             
  414.411  13%   0.000 NAA+NAAG                                            
    0.000 999%   0.000 Cr+PCr                                              
 5.16E+03  14%   0.000 Glu+Gln                                             
  883.999  28%   0.000 Lip13a                                              
    0.000 999%   0.000 Lip13b                                              
  254.178  37%   0.000 Lip09                                               
   58.105 153%   0.000 MM09                                                
  204.559  29%   0.000 Lip20                                               
  111.976 138%   0.000 MM20                                                
   19.885 285%   0.000 MM12                                                
  216.650  51%   0.000 MM14                                                
    0.000 999%   0.000 MM17                                                
  883.999  28%   0.000 Lip13a+Lip13b                                       
 1.12E+03  19%   0.000 MM14+Lip13a+Lip13b+MM12                             
  312.283  25%   0.000 MM09+Lip09                                          
  316.535  47%   0.000 MM20+Lip20                                          
   6 lines in following misc. output table
  FWHM = 0.183 ppm    S/N =   3                                            
  Data shift = 0.306 ppm                                                   
  Ph:-147 deg      32.1 deg/ppm                                            
  alphaB,S = 3.6E+00,   3.6E+02                                            
    6 spline knots.   Ns = 9(2)                                            
  (10) 9 infls.   (11) 5 extrs.                                            
  498 points on ppm-axis = NY
      4.000000     3.992357     3.984714     3.977070     3.969427     3.961784     3.954141     3.946497     3.938854     3.931211
      3.923568     3.915925     3.908281     3.900638     3.892995     3.885352     3.877708     3.870065     3.862422     3.854779
      3.847136     3.839492     3.831849     3.824206     3.816563     3.808919     3.801276     3.793633     3.785990     3.778347
      3.770703     3.763060     3.755417     3.747774     3.740130     3.732487     3.724844     3.717201     3.709558     3.701914
      3.694271     3.686628     3.678985     3.671341     3.663698     3.656055     3.648412     3.640769     3.633125     3.625482
      3.617839     3.610196     3.602552     3.594909     3.587266     3.579623     3.571980     3.564336     3.556693     3.549050
      3.541407     3.533763     3.526120     3.518477     3.510834     3.503191     3.495547     3.487904     3.480261     3.472618
      3.464974     3.457331     3.449688     3.442045     3.434402     3.426758     3.419115     3.411472     3.403829     3.396185
      3.388542     3.380899     3.373256     3.365613     3.357969     3.350326     3.342683     3.335040     3.327396     3.319753
      3.312110     3.304467     3.296824     3.289180     3.281537     3.273894     3.266251     3.258607     3.250964     3.243321
      3.235678     3.228034     3.220391     3.212748     3.205105     3.197462     3.189818     3.182175     3.174532     3.166889
      3.159245     3.151602     3.143959     3.136316     3.128673     3.121029     3.113386     3.105743     3.098100     3.090456
      3.082813     3.075170     3.067527     3.059884     3.052240     3.044597     3.036954     3.029311     3.021667     3.014024
      3.006381     2.998738     2.991095     2.983451     2.975808     2.968165     2.960522     2.952878     2.945235     2.937592
      2.929949     2.922306     2.914662     2.907019     2.899376     2.891733     2.884089     2.876446     2.868803     2.861160
      2.853517     2.845873     2.838230     2.830587     2.822944     2.815300     2.807657     2.800014     2.792371     2.784728
      2.777084     2.769441     2.761798     2.754155     2.746511     2.738868     2.731225     2.723582     2.715939     2.708295
      2.700652     2.693009     2.685366     2.677722     2.670079     2.662436     2.654793     2.647150     2.639506     2.631863
      2.624220     2.616577     2.608933     2.601290     2.593647     2.586004     2.578361     2.570717     2.563074     2.555431
      2.547788     2.540144     2.532501     2.524858     2.517215     2.509572     2.501928     2.494285     2.486642     2.478999
      2.471355     2.463712     2.456069     2.448426     2.440783     2.433139     2.425496     2.417853     2.410210     2.402566
      2.394923     2.387280     2.379637     2.371994     2.364350     2.356707     2.349064     2.341421     2.333777     2.326134
      2.318491     2.310848     2.303205     2.295561     2.287918     2.280275     2.272632     2.264988     2.257345     2.249702
      2.242059     2.234416     2.226772     2.219129     2.211486     2.203843     2.196199     2.188556     2.180913     2.173270
      2.165627     2.157983     2.150340     2.142697     2.135054     2.127410     2.119767     2.112124     2.104481     2.096838
      2.089194     2.081551     2.073908     2.066265     2.058621     2.050978     2.043335     2.035692     2.028049     2.020405
      2.012762     2.005119     1.997476     1.989833     1.982190     1.974546     1.966903     1.959260     1.951617     1.943974
      1.936331     1.928688     1.921045     1.913402     1.905759     1.898115     1.890472     1.882829     1.875186     1.867543
      1.859900     1.852257     1.844614     1.836971     1.829327     1.821684     1.814041     1.806398     1.798755     1.791112
      1.783469     1.775826     1.768183     1.760540     1.752896     1.745253     1.737610     1.729967     1.722324     1.714681
      1.707038     1.699395     1.691752     1.684108     1.676465     1.668822     1.661179     1.653536     1.645893     1.638250
      1.630607     1.622964     1.615321     1.607677     1.600034     1.592391     1.584748     1.577105     1.569462     1.561819
      1.554176     1.546533     1.538890     1.531246     1.523603     1.515960     1.508317     1.500674     1.493031     1.485388
      1.477745     1.470102     1.462458     1.454815     1.447172     1.439529     1.431886     1.424243     1.416600     1.408957
      1.401314     1.393671     1.386027     1.378384     1.370741     1.363098     1.355455     1.347812     1.340169     1.332526
      1.324883     1.317240     1.309596     1.301953     1.294310     1.286667     1.279024     1.271381     1.263738     1.256095
      1.248452     1.240808     1.233165     1.225522     1.217879     1.210236     1.202593     1.194950     1.187307     1.179664
      1.172021     1.164377     1.156734     1.149091     1.141448     1.133805     1.126162     1.118519     1.110876     1.103233
      1.095590     1.087946     1.080303     1.072660     1.065017     1.057374     1.049731     1.042088     1.034445     1.026802
      1.019158     1.011515     1.003872     0.996229     0.988586     0.980943     0.973300     0.965657     0.958014     0.950371
      0.942727     0.935084     0.927441     0.919798     0.912155     0.904512     0.896869     0.889226     0.881583     0.873940
      0.866296     0.858653     0.851010     0.843367     0.835724     0.828081     0.820438     0.812795     0.805152     0.797508
      0.789865     0.782222     0.774579     0.766936     0.759293     0.751650     0.744007     0.736364     0.728721     0.721077
      0.713434     0.705791     0.698148     0.690505     0.682862     0.675219     0.667576     0.659933     0.652290     0.644646
      0.637003     0.629360     0.621717     0.614074     0.606431     0.598788     0.591145     0.583502     0.575858     0.568215
      0.560572     0.552929     0.545286     0.537643     0.530000     0.522357     0.514714     0.507071     0.499427     0.491784
      0.484141     0.476498     0.468855     0.461212     0.453569     0.445925     0.438282     0.430639     0.422996     0.415353
      0.407710     0.400067     0.392424     0.384780     0.377137     0.369494     0.361851     0.354208     0.346565     0.338922
      0.331278     0.323635     0.315992     0.308349     0.300706     0.293063     0.285420     0.277777     0.270133     0.262490
      0.254847     0.247204     0.239561     0.231918     0.224275     0.216631     0.208988     0.201345
 NY phased data points follow
   6.36526E+00  7.73761E+00  9.07511E+00  1.12322E+01  6.59018E+00  8.49694E+00  7.95133E+00  8.38538E+00  6.27746E+00  8.80423E+00
   7.49131E+00  9.82364E+00  8.66030E+00  5.26631E+00  7.37595E+00  9.75989E+00  8.25374E+00  8.13772E+00  8.30321E+00  8.22686E+00
   8.26647E+00  5.59645E+00  7.68239E+00  8.86320E+00  4.99689E+00  6.17907E+00  5.39993E+00  6.05560E+00  5.27885E+00  6.22982E+00
   9.05296E+00  7.32094E+00  5.59255E+00  4.66284E+00  6.24916E+00  6.39712E+00  7.86211E+00  6.81541E+00  4.94256E+00  6.06050E+00
   4.82018E+00  7.50920E+00  5.38359E+00  5.84278E+00  5.22372E+00  4.64573E+00  5.33500E+00  4.82448E+00  5.95384E+00  3.96137E+00
   4.24225E+00  5.69922E+00  3.62339E+00  5.33953E+00  4.96624E+00  6.02747E+00  4.50323E+00  4.66441E+00  5.11539E+00  5.08386E+00
   3.25182E+00  4.66409E+00  7.19557E+00  5.25597E+00  6.10993E+00  5.69479E+00  5.23158E+00  6.12768E+00  4.08050E+00  4.75712E+00
   5.11872E+00  6.45791E+00  4.41135E+00  4.29326E+00  6.84353E+00  6.17371E+00  5.88542E+00  5.97672E+00  6.80660E+00  4.88735E+00
   7.82902E+00  5.62892E+00  6.28325E+00  5.75249E+00  6.17915E+00  6.94861E+00  5.86756E+00  5.97217E+00  6.00508E+00  5.36569E+00
   8.70275E+00  5.58379E+00  5.75787E+00  7.29927E+00  6.34743E+00  5.63481E+00  5.30791E+00  6.39418E+00  6.61110E+00  5.29395E+00
   5.98376E+00  5.84586E+00  7.27926E+00  6.48802E+00  8.91072E+00  6.47165E+00  6.40249E+00  5.34088E+00  4.04438E+00  4.78283E+00
   5.46119E+00  7.53433E+00  6.46325E+00  6.31766E+00  5.57536E+00  4.95129E+00  3.36059E+00  4.24908E+00  4.50044E+00  5.08635E+00
   4.77523E+00  5.28280E+00  4.67531E+00  2.85260E+00  3.94224E+00  6.86805E+00  5.31977E+00  3.62296E+00  5.12596E+00  4.37874E+00
   4.24262E+00  4.42467E+00  5.31465E+00  5.16416E+00  3.72594E+00  5.30212E+00  4.08745E+00  5.32320E+00  4.57263E+00  6.71378E+00
   7.09420E+00  5.75826E+00  5.96363E+00  4.86861E+00  6.71568E+00  5.70290E+00  7.53740E+00  5.58277E+00  6.61541E+00  7.04648E+00
   6.53952E+00  8.83215E+00  5.39574E+00  8.10726E+00  7.15675E+00  7.22990E+00  7.10068E+00  8.62519E+00  7.86226E+00  6.76301E+00
   7.89570E+00  6.55043E+00  7.23194E+00  5.12347E+00  7.21552E+00  7.30490E+00  4.96908E+00  7.37331E+00  5.17107E+00  8.51482E+00
   3.95028E+00  6.87574E+00  7.23001E+00  8.24860E+00  4.00975E+00  7.00579E+00  6.53214E+00  5.35109E+00  6.57588E+00  4.39433E+00
   6.36787E+00  5.05943E+00  4.74916E+00  6.52479E+00  2.10295E+00  3.83740E+00  4.37462E+00  3.17526E+00  7.20605E+00  4.61540E+00
   3.37643E+00  2.41974E+00  2.93677E+00  4.83346E+00  4.09301E+00  1.81524E+00  3.06221E+00  3.50891E+00  4.39847E+00  3.89695E+00
   3.77435E+00  3.83132E+00  1.79352E+00  4.66687E+00  4.51634E+00  3.97984E+00  4.74539E+00  2.44623E+00  3.14999E+00  3.24994E+00
   3.46577E+00  2.14524E+00  1.71534E+00  4.69515E-01  2.73140E+00  2.78285E+00  3.09631E+00  1.90094E+00  3.26339E+00  2.69995E+00
   4.49457E+00  3.15913E+00  5.77995E+00  5.87429E+00  4.87450E+00  5.00583E+00  4.00690E+00  4.11978E+00  4.61312E+00  5.11719E+00
   4.15560E+00  5.05134E+00  5.80839E+00  4.29873E+00  6.06912E+00  3.69152E+00  5.65625E+00  4.62691E+00  4.72468E+00  3.22927E+00
   5.42346E+00  5.05910E+00  6.88641E+00  4.69500E+00  5.12370E+00  4.51235E+00  5.51986E+00  5.60567E+00  4.04491E+00  4.85331E+00
   4.73139E+00  5.38402E+00  3.19279E+00  6.84468E+00  6.93564E+00  4.67383E+00  8.19702E+00  3.85867E+00  7.63105E+00  7.07783E+00
   7.00637E+00  6.02190E+00  8.02802E+00  7.58966E+00  6.23554E+00  7.21150E+00  7.72287E+00  8.23360E+00  7.50119E+00  7.67772E+00
   8.38836E+00  4.56529E+00  7.64235E+00  4.95201E+00  4.84112E+00  3.73329E+00  4.88914E+00  2.86885E+00  2.68332E+00 -7.19531E-01
   1.51918E+00  1.59012E+00  1.07944E+00 -2.71162E+00  9.28486E-01  1.11727E-01  1.93568E+00 -1.37861E+00 -1.28163E+00  7.91493E-01
  -1.34376E+00  1.70384E-01 -1.30215E+00 -1.19913E+00 -1.72622E+00 -1.21739E+00 -2.20383E+00 -1.47912E+00 -5.99355E-01 -8.09265E-01
  -1.74927E-01 -1.58477E+00 -1.14488E+00 -5.62674E-01 -1.01999E+00  4.01233E-01  5.49080E-01  3.62467E-01 -9.79595E-01 -1.13798E+00
   5.97492E-01 -8.01202E-01  6.02919E-01 -3.37541E+00 -9.02376E-01 -4.96698E-01 -2.92786E-01 -8.06076E-01  2.64465E+00  1.70953E-01
   5.31628E-01  2.14772E+00  4.47745E-01  6.16478E-01  3.84592E-01  2.46875E+00  1.07507E+00  8.08830E-01  1.58805E+00 -5.01132E-01
  -4.54146E-01  6.95792E-01 -4.81151E-01  7.45235E-01  2.75529E+00  2.26580E+00  1.13228E+00  1.69328E+00  1.68276E+00  1.82549E+00
   5.74108E-02 -9.62181E-01  7.76439E-01  3.26740E-01  3.78247E-01  2.30401E+00 -5.48476E-01  2.50410E+00  1.13544E+00 -3.14588E-01
  -8.61879E-01 -6.71031E-01  1.82517E+00  2.29426E+00  6.96594E-01  1.17658E+00  9.08215E-01  1.36662E+00  1.10984E+00  9.87317E-01
   2.66914E+00  6.25166E-01  3.33737E-01  2.41485E+00  2.40197E+00  8.57318E-01  1.75597E+00  1.94906E+00  3.16359E+00  9.61959E-01
   2.34097E+00  8.00967E-01  2.07652E+00  1.07159E+00 -1.15913E-02  4.74539E-01 -2.33699E-01  9.83822E-01  4.99417E-01  3.34455E+00
   5.78401E-01  3.62284E-01  7.11957E-01 -7.40487E-01  7.42159E-01  1.10154E+00  5.43464E-01 -1.98812E+00  6.24701E-01  7.00901E-02
   1.06029E+00  1.30292E+00 -3.93191E-01  8.09950E-01 -8.71833E-01  1.15290E+00  1.99406E+00  1.12215E+00  4.10270E-01  1.81052E+00
   1.31907E+00  1.26179E+00 -1.91376E+00  1.19718E+00  1.27734E+00  1.13433E+00  5.01052E-01 -3.38148E-01 -9.39721E-02  1.30927E+00
   6.44454E-01 -6.25443E-01  2.30545E+00  1.45480E+00  2.03387E+00  2.02126E+00  2.28324E+00  2.00994E+00  1.78369E+00  9.09755E-01
   9.08330E-01  2.74014E+00  1.74314E+00  4.91594E-01  4.35973E-02  1.37881E-01  9.92957E-01  3.00670E+00  1.25256E+00  1.54180E+00
   1.84590E+00  2.71649E+00  2.23745E+00  4.75835E-01 -1.65341E+00  1.68083E-01 -5.19672E-01  1.22664E+00  2.37900E+00 -7.80675E-02
  -7.33267E-01 -2.34986E-01  6.26053E-01  2.38469E+00  2.31040E+00  2.10732E-01  1.73307E+00  5.14175E-02  1.11761E+00  1.80537E-01
  -1.58194E-01  1.90837E+00 -8.33038E-01  1.21525E+00  7.88291E-01 -9.45632E-02  2.75522E+00  1.62978E+00  1.86656E+00  4.10257E-01
   3.47956E+00  1.07349E+00  2.13764E-02 -1.42616E+00  1.59430E+00  1.02460E+00  8.24183E-01  6.98887E-01  1.19936E+00  3.13176E+00
   1.65607E+00  3.34689E+00  1.13089E+00  2.80454E+00  1.96263E+00  2.01037E+00  1.32861E+00  6.89900E-01 -1.14096E-01  3.12951E-01
   5.00953E-01  8.52425E-01  3.64334E-01  1.95201E-01  1.40977E+00  1.50427E+00  1.02991E+00  9.66309E-02  2.96313E+00  7.12423E-01
   6.77916E-01  6.10258E-01  1.90301E+00  9.54406E-01  1.15457E+00 -8.69685E-01  3.66447E-02  6.84034E-01
 NY points of the fit to the data follow
   6.16388E+00  6.26895E+00  6.39540E+00  6.50981E+00  6.64894E+00  6.77476E+00  6.92495E+00  7.03400E+00  7.04492E+00  7.08230E+00
   7.06031E+00  7.07870E+00  7.13918E+00  7.25709E+00  7.50155E+00  7.56572E+00  7.79135E+00  7.71331E+00  7.88622E+00  7.66438E+00
   7.85544E+00  7.65611E+00  7.80649E+00  7.60841E+00  7.64890E+00  7.46819E+00  7.43338E+00  7.31552E+00  7.24270E+00  7.20076E+00
   7.09059E+00  7.08301E+00  6.91393E+00  6.93481E+00  6.72270E+00  6.79049E+00  6.51175E+00  6.65053E+00  6.24622E+00  6.44404E+00
   5.89458E+00  6.17749E+00  5.53474E+00  5.93523E+00  5.29556E+00  5.79642E+00  5.17311E+00  5.66464E+00  5.01306E+00  5.37997E+00
   4.90127E+00  5.23053E+00  4.98516E+00  5.29685E+00  5.23762E+00  5.36873E+00  5.25087E+00  5.22009E+00  5.12206E+00  5.04725E+00
   5.04361E+00  5.07937E+00  5.11711E+00  5.17126E+00  5.21831E+00  5.27725E+00  5.32488E+00  5.38615E+00  5.43453E+00  5.49156E+00
   5.53923E+00  5.59160E+00  5.63781E+00  5.68426E+00  5.72837E+00  5.76804E+00  5.81096E+00  5.84452E+00  5.88739E+00  5.91718E+00
   5.96392E+00  5.99255E+00  6.04622E+00  6.08206E+00  6.16166E+00  6.20101E+00  6.27989E+00  6.31931E+00  6.38496E+00  6.42389E+00
   6.46810E+00  6.50767E+00  6.52632E+00  6.56707E+00  6.55599E+00  6.60078E+00  6.56347E+00  6.61646E+00  6.55880E+00  6.61952E+00
   6.54493E+00  6.61228E+00  6.51856E+00  6.59091E+00  6.47882E+00  6.55135E+00  6.41916E+00  6.48687E+00  6.33764E+00  6.39271E+00
   6.22979E+00  6.27155E+00  6.10886E+00  6.13893E+00  5.99433E+00  6.01459E+00  5.89972E+00  5.91382E+00  5.83440E+00  5.84436E+00
   5.80029E+00  5.80900E+00  5.79944E+00  5.81108E+00  5.83255E+00  5.84309E+00  5.85730E+00  5.86275E+00  5.87274E+00  5.87457E+00
   5.88152E+00  5.87979E+00  5.88406E+00  5.87935E+00  5.88121E+00  5.87389E+00  5.87331E+00  5.86355E+00  5.86047E+00  5.84854E+00
   5.84264E+00  5.82789E+00  5.81550E+00  5.79478E+00  5.78052E+00  5.75548E+00  5.74411E+00  5.71543E+00  5.70056E+00  5.66742E+00
   5.64635E+00  5.60867E+00  5.58034E+00  5.53811E+00  5.50079E+00  5.45406E+00  5.40545E+00  5.35235E+00  5.29144E+00  5.23857E+00
   5.17196E+00  5.12036E+00  5.04777E+00  4.99519E+00  4.92270E+00  4.87257E+00  4.80486E+00  4.75848E+00  4.69398E+00  4.65117E+00
   4.59883E+00  4.55867E+00  4.51855E+00  4.47938E+00  4.45059E+00  4.40372E+00  4.36232E+00  4.29866E+00  4.23528E+00  4.13321E+00
   4.07862E+00  3.94677E+00  3.93860E+00  3.83642E+00  3.96657E+00  3.91701E+00  4.16677E+00  4.17524E+00  4.46581E+00  4.44449E+00
   4.68561E+00  4.46464E+00  4.50856E+00  4.12354E+00  4.21570E+00  3.76759E+00  4.06811E+00  3.73814E+00  4.17112E+00  3.88459E+00
   4.38990E+00  4.10138E+00  4.59082E+00  4.15455E+00  4.55899E+00  4.08199E+00  4.43329E+00  3.88322E+00  4.21969E+00  3.61439E+00
   4.00035E+00  3.37442E+00  3.81020E+00  3.23092E+00  3.75505E+00  3.24094E+00  3.84037E+00  3.38535E+00  3.93148E+00  3.51747E+00
   4.06341E+00  3.69669E+00  4.23889E+00  3.94778E+00  4.48516E+00  4.16638E+00  4.69064E+00  4.33167E+00  4.83059E+00  4.38455E+00
   4.81661E+00  4.20341E+00  4.49856E+00  3.86279E+00  4.31623E+00  3.80835E+00  4.34185E+00  3.99877E+00  4.44000E+00  3.99274E+00
   4.34707E+00  3.82892E+00  4.29800E+00  3.72320E+00  4.30665E+00  3.85459E+00  4.61634E+00  4.20670E+00  5.05464E+00  4.67384E+00
   5.54011E+00  5.16035E+00  5.96229E+00  5.57591E+00  6.34490E+00  5.97274E+00  6.73865E+00  6.37195E+00  7.09609E+00  6.71341E+00
   7.46791E+00  7.07464E+00  7.76558E+00  7.35499E+00  7.87671E+00  7.33899E+00  7.63156E+00  7.01351E+00  7.01525E+00  6.34164E+00
   6.10150E+00  5.40068E+00  5.00797E+00  4.38866E+00  3.99551E+00  3.49157E+00  3.12156E+00  2.71109E+00  2.37213E+00  2.02724E+00
   1.78552E+00  1.57624E+00  1.52105E+00  1.42489E+00  1.35178E+00  1.30226E+00  1.20302E+00  1.15360E+00  1.05393E+00  1.00223E+00
   9.00001E-01  8.41105E-01  7.41258E-01  6.76351E-01  5.91604E-01  5.38472E-01  4.71076E-01  4.22800E-01  3.67225E-01  3.21937E-01
   2.74014E-01  2.29413E-01  1.84173E-01  1.44184E-01  1.04662E-01  7.04393E-02  3.75776E-02  9.96051E-03 -1.54694E-02 -3.59470E-02
  -5.38543E-02 -6.58943E-02 -7.48542E-02 -7.78701E-02 -7.70786E-02 -6.99629E-02 -5.86265E-02 -4.09646E-02 -1.87482E-02  9.45734E-03
   4.21816E-02  8.01512E-02  1.22217E-01  1.68388E-01  2.17866E-01  2.70062E-01  3.24075E-01  3.79242E-01  4.34788E-01  4.89995E-01
   5.44195E-01  5.96856E-01  6.47556E-01  6.96034E-01  7.42177E-01  7.86044E-01  8.27855E-01  8.67973E-01  9.06886E-01  9.45155E-01
   9.83392E-01  1.02220E+00  1.06215E+00  1.10371E+00  1.14723E+00  1.19290E+00  1.24069E+00  1.29041E+00  1.34163E+00  1.39374E+00
   1.44594E+00  1.49728E+00  1.54668E+00  1.59300E+00  1.63507E+00  1.67174E+00  1.70192E+00  1.72464E+00  1.73908E+00  1.74460E+00
   1.74075E+00  1.72732E+00  1.70432E+00  1.67195E+00  1.63065E+00  1.58102E+00  1.52384E+00  1.45999E+00  1.39048E+00  1.31637E+00
   1.23874E+00  1.15870E+00  1.07735E+00  9.95702E-01  9.14754E-01  8.35418E-01  7.58532E-01  6.84861E-01  6.15090E-01  5.49834E-01
   4.89644E-01  4.35020E-01  3.86415E-01  3.44251E-01  3.08913E-01  2.80767E-01  2.60154E-01  2.47396E-01  2.42780E-01  2.46554E-01
   2.58909E-01  2.79958E-01  3.09726E-01  3.48118E-01  3.94901E-01  4.49679E-01  5.11886E-01  5.80768E-01  6.55388E-01  7.34631E-01
   8.17217E-01  9.01729E-01  9.86651E-01  1.07041E+00  1.15143E+00  1.22819E+00  1.29923E+00  1.36328E+00  1.41924E+00  1.46625E+00
   1.50368E+00  1.53120E+00  1.54871E+00  1.55639E+00  1.55466E+00  1.54413E+00  1.52559E+00  1.49997E+00  1.46827E+00  1.43154E+00
   1.39086E+00  1.34725E+00  1.30171E+00  1.25514E+00  1.20835E+00  1.16205E+00  1.11683E+00  1.07318E+00  1.03149E+00  9.92033E-01
   9.55027E-01  9.20575E-01  8.88752E-01  8.59542E-01  8.32921E-01  8.08794E-01  7.87082E-01  7.67648E-01  7.50387E-01  7.35142E-01
   7.21802E-01  7.10206E-01  7.00253E-01  6.91789E-01  6.84726E-01  6.78921E-01  6.74301E-01  6.70737E-01  6.68169E-01  6.66487E-01
   6.65638E-01  6.65526E-01  6.66107E-01  6.67298E-01  6.69063E-01  6.71331E-01  6.74072E-01  6.77220E-01  6.80749E-01  6.84605E-01
   6.88767E-01  6.93183E-01  6.97836E-01  7.02678E-01  7.07695E-01  7.12845E-01  7.18114E-01  7.23464E-01  7.28882E-01  7.34331E-01
   7.39798E-01  7.45252E-01  7.50679E-01  7.56048E-01  7.61344E-01  7.66536E-01  7.71609E-01  7.76536E-01  7.81299E-01  7.85867E-01
   7.90221E-01  7.94329E-01  7.98172E-01  8.01712E-01  8.04927E-01  8.07774E-01  8.10224E-01  8.12230E-01  8.13754E-01  8.14740E-01
   8.15135E-01  8.14869E-01  8.13867E-01  8.12036E-01  8.09269E-01  8.05430E-01  8.00357E-01  7.93835E-01
 NY background values follow
     3.690E+00    3.736E+00    3.781E+00    3.826E+00    3.871E+00    3.915E+00    3.959E+00    4.002E+00    4.044E+00    4.087E+00
     4.129E+00    4.170E+00    4.211E+00    4.251E+00    4.291E+00    4.331E+00    4.370E+00    4.409E+00    4.447E+00    4.485E+00
     4.522E+00    4.559E+00    4.596E+00    4.632E+00    4.667E+00    4.703E+00    4.737E+00    4.772E+00    4.805E+00    4.839E+00
     4.872E+00    4.904E+00    4.936E+00    4.968E+00    4.999E+00    5.030E+00    5.060E+00    5.090E+00    5.120E+00    5.149E+00
     5.177E+00    5.205E+00    5.233E+00    5.260E+00    5.287E+00    5.313E+00    5.339E+00    5.365E+00    5.390E+00    5.415E+00
     5.439E+00    5.462E+00    5.486E+00    5.509E+00    5.531E+00    5.553E+00    5.574E+00    5.596E+00    5.616E+00    5.636E+00
     5.656E+00    5.676E+00    5.694E+00    5.713E+00    5.731E+00    5.748E+00    5.766E+00    5.782E+00    5.798E+00    5.814E+00
     5.830E+00    5.844E+00    5.859E+00    5.873E+00    5.886E+00    5.899E+00    5.912E+00    5.924E+00    5.936E+00    5.947E+00
     5.958E+00    5.969E+00    5.979E+00    5.988E+00    5.997E+00    6.006E+00    6.014E+00    6.022E+00    6.029E+00    6.035E+00
     6.042E+00    6.048E+00    6.053E+00    6.058E+00    6.062E+00    6.066E+00    6.070E+00    6.073E+00    6.076E+00    6.078E+00
     6.080E+00    6.081E+00    6.082E+00    6.082E+00    6.082E+00    6.081E+00    6.080E+00    6.078E+00    6.076E+00    6.074E+00
     6.071E+00    6.067E+00    6.063E+00    6.059E+00    6.054E+00    6.049E+00    6.043E+00    6.037E+00    6.030E+00    6.022E+00
     6.015E+00    6.006E+00    5.998E+00    5.989E+00    5.979E+00    5.969E+00    5.958E+00    5.947E+00    5.935E+00    5.923E+00
     5.910E+00    5.897E+00    5.884E+00    5.870E+00    5.855E+00    5.840E+00    5.824E+00    5.808E+00    5.792E+00    5.775E+00
     5.757E+00    5.739E+00    5.720E+00    5.701E+00    5.682E+00    5.662E+00    5.641E+00    5.620E+00    5.598E+00    5.576E+00
     5.554E+00    5.531E+00    5.507E+00    5.483E+00    5.458E+00    5.433E+00    5.407E+00    5.381E+00    5.355E+00    5.327E+00
     5.300E+00    5.271E+00    5.243E+00    5.213E+00    5.184E+00    5.153E+00    5.123E+00    5.091E+00    5.059E+00    5.027E+00
     4.994E+00    4.961E+00    4.927E+00    4.893E+00    4.858E+00    4.823E+00    4.787E+00    4.751E+00    4.714E+00    4.677E+00
     4.640E+00    4.602E+00    4.563E+00    4.524E+00    4.485E+00    4.445E+00    4.405E+00    4.365E+00    4.324E+00    4.283E+00
     4.241E+00    4.199E+00    4.157E+00    4.114E+00    4.071E+00    4.028E+00    3.984E+00    3.940E+00    3.896E+00    3.851E+00
     3.806E+00    3.761E+00    3.715E+00    3.670E+00    3.623E+00    3.577E+00    3.530E+00    3.483E+00    3.436E+00    3.389E+00
     3.341E+00    3.293E+00    3.245E+00    3.197E+00    3.149E+00    3.100E+00    3.051E+00    3.002E+00    2.953E+00    2.904E+00
     2.854E+00    2.805E+00    2.755E+00    2.705E+00    2.655E+00    2.605E+00    2.555E+00    2.504E+00    2.454E+00    2.403E+00
     2.353E+00    2.302E+00    2.252E+00    2.201E+00    2.150E+00    2.099E+00    2.049E+00    1.998E+00    1.947E+00    1.896E+00
     1.846E+00    1.795E+00    1.744E+00    1.693E+00    1.643E+00    1.592E+00    1.542E+00    1.491E+00    1.441E+00    1.391E+00
     1.341E+00    1.291E+00    1.241E+00    1.191E+00    1.141E+00    1.092E+00    1.042E+00    9.930E-01    9.439E-01    8.950E-01
     8.463E-01    7.978E-01    7.495E-01    7.014E-01    6.535E-01    6.058E-01    5.584E-01    5.112E-01    4.643E-01    4.176E-01
     3.712E-01    3.250E-01    2.791E-01    2.336E-01    1.883E-01    1.433E-01    9.862E-02    5.427E-02    1.025E-02   -3.343E-02
    -7.677E-02   -1.198E-01   -1.624E-01   -2.047E-01   -2.465E-01   -2.880E-01   -3.292E-01   -3.699E-01   -4.102E-01   -4.501E-01
    -4.896E-01   -5.287E-01   -5.673E-01   -6.055E-01   -6.432E-01   -6.805E-01   -7.173E-01   -7.537E-01   -7.896E-01   -8.250E-01
    -8.599E-01   -8.943E-01   -9.282E-01   -9.616E-01   -9.945E-01   -1.027E+00   -1.059E+00   -1.090E+00   -1.121E+00   -1.151E+00
    -1.181E+00   -1.210E+00   -1.238E+00   -1.266E+00   -1.294E+00   -1.321E+00   -1.347E+00   -1.372E+00   -1.397E+00   -1.422E+00
    -1.446E+00   -1.469E+00   -1.491E+00   -1.513E+00   -1.535E+00   -1.555E+00   -1.576E+00   -1.595E+00   -1.614E+00   -1.632E+00
    -1.649E+00   -1.666E+00   -1.682E+00   -1.698E+00   -1.712E+00   -1.727E+00   -1.740E+00   -1.753E+00   -1.765E+00   -1.777E+00
    -1.788E+00   -1.798E+00   -1.808E+00   -1.817E+00   -1.825E+00   -1.833E+00   -1.840E+00   -1.847E+00   -1.853E+00   -1.859E+00
    -1.864E+00   -1.868E+00   -1.872E+00   -1.875E+00   -1.878E+00   -1.880E+00   -1.882E+00   -1.883E+00   -1.883E+00   -1.883E+00
    -1.883E+00   -1.882E+00   -1.880E+00   -1.878E+00   -1.876E+00   -1.873E+00   -1.870E+00   -1.866E+00   -1.861E+00   -1.857E+00
    -1.851E+00   -1.846E+00   -1.840E+00   -1.833E+00   -1.826E+00   -1.819E+00   -1.811E+00   -1.803E+00   -1.794E+00   -1.785E+00
    -1.775E+00   -1.766E+00   -1.756E+00   -1.745E+00   -1.734E+00   -1.723E+00   -1.711E+00   -1.699E+00   -1.687E+00   -1.675E+00
    -1.662E+00   -1.649E+00   -1.635E+00   -1.621E+00   -1.607E+00   -1.593E+00   -1.578E+00   -1.563E+00   -1.548E+00   -1.533E+00
    -1.517E+00   -1.501E+00   -1.485E+00   -1.469E+00   -1.452E+00   -1.435E+00   -1.418E+00   -1.401E+00   -1.383E+00   -1.366E+00
    -1.348E+00   -1.330E+00   -1.312E+00   -1.293E+00   -1.275E+00   -1.256E+00   -1.238E+00   -1.219E+00   -1.200E+00   -1.180E+00
    -1.161E+00   -1.142E+00   -1.122E+00   -1.103E+00   -1.083E+00   -1.063E+00   -1.043E+00   -1.023E+00   -1.003E+00   -9.831E-01
    -9.629E-01   -9.428E-01   -9.225E-01   -9.023E-01   -8.820E-01   -8.616E-01   -8.413E-01   -8.209E-01   -8.006E-01   -7.802E-01
    -7.598E-01   -7.395E-01   -7.191E-01   -6.988E-01   -6.785E-01   -6.582E-01   -6.380E-01   -6.178E-01   -5.977E-01   -5.776E-01
    -5.576E-01   -5.376E-01   -5.177E-01   -4.979E-01   -4.782E-01   -4.585E-01   -4.390E-01   -4.195E-01   -4.001E-01   -3.808E-01
    -3.617E-01   -3.426E-01   -3.237E-01   -3.049E-01   -2.862E-01   -2.677E-01   -2.493E-01   -2.310E-01   -2.129E-01   -1.949E-01
    -1.771E-01   -1.595E-01   -1.420E-01   -1.246E-01   -1.075E-01   -9.046E-02   -7.365E-02   -5.702E-02   -4.057E-02   -2.431E-02
    -8.241E-03    7.632E-03    2.331E-02    3.878E-02    5.405E-02    6.911E-02    8.396E-02    9.859E-02    1.130E-01    1.272E-01
     1.412E-01    1.549E-01    1.685E-01    1.817E-01    1.948E-01    2.076E-01    2.202E-01    2.325E-01
 Asp      Conc. = 2.41E+01
