 LCModel (Version 6.3-1L) Copyright: S.W. Provencher.          Ref.: Magn. Reson. Med. 30:672-679 (1993).                
 Slice#1 Row#12 Col#1  K_02_press_1_raw_act
 36 lines in following concentration table = NCONC+1
    Conc.  %SD /Cr+PCr  Metabolite                                         
  831.934  38%   1.552 Ala                                                 
  116.376  63%   0.217 Asp                                                 
  536.206   8%   1.000 Cr                                                  
    0.000 999%   0.000 PCr                                                 
   39.043 117% 7.3E-02 GABA                                                
   60.603  75%   0.113 Glc                                                 
 1.52E+03  27%   2.837 Gln                                                 
    0.000 999%   0.000 Glu                                                 
  216.762   8%   0.404 GPC                                                 
    0.000 999%   0.000 PCh                                                 
  947.847   7%   1.768 GSH                                                 
 4.10E+03   5%   7.638 Ins                                                 
  438.972  66%   0.819 Lac                                                 
    0.000 999%   0.000 NAA                                                 
  219.227  26%   0.409 NAAG                                                
   10.090 130% 1.9E-02 Scyllo                                              
  126.281  56%   0.236 Tau                                                 
    0.000 999%   0.000 -CrCH2                                              
  216.762   8%   0.404 GPC+PCh                                             
  219.227  26%   0.409 NAA+NAAG                                            
  536.206   8%   1.000 Cr+PCr                                              
 1.52E+03  27%   2.837 Glu+Gln                                             
    0.000 999%   0.000 Lip13a                                              
    0.000 999%   0.000 Lip13b                                              
    0.000 999%   0.000 Lip09                                               
  368.499  21%   0.687 MM09                                                
    0.000 999%   0.000 Lip20                                               
  577.350  28%   1.077 MM20                                                
  129.709  36%   0.242 MM12                                                
  301.715  44%   0.563 MM14                                                
  130.143  72%   0.243 MM17                                                
    0.000 999%   0.000 Lip13a+Lip13b                                       
  431.424  36%   0.805 MM14+Lip13a+Lip13b+MM12                             
  368.499  21%   0.687 MM09+Lip09                                          
  577.350  28%   1.077 MM20+Lip20                                          
   6 lines in following misc. output table
  FWHM = 0.168 ppm    S/N =   5                                            
  Data shift = 0.268 ppm                                                   
  Ph:-109 deg     -12.8 deg/ppm                                            
  alphaB,S = 4.3E+01,   2.1E+02                                            
   11 spline knots.   Ns = 9(2)                                            
  (12) 6 infls.   (11) 1 extrs.                                            
  498 points on ppm-axis = NY
      4.000000     3.992357     3.984714     3.977070     3.969427     3.961784     3.954141     3.946497     3.938854     3.931211
      3.923568     3.915925     3.908281     3.900638     3.892995     3.885352     3.877708     3.870065     3.862422     3.854779
      3.847136     3.839492     3.831849     3.824206     3.816563     3.808919     3.801276     3.793633     3.785990     3.778347
      3.770703     3.763060     3.755417     3.747774     3.740130     3.732487     3.724844     3.717201     3.709558     3.701914
      3.694271     3.686628     3.678985     3.671341     3.663698     3.656055     3.648412     3.640769     3.633125     3.625482
      3.617839     3.610196     3.602552     3.594909     3.587266     3.579623     3.571980     3.564336     3.556693     3.549050
      3.541407     3.533763     3.526120     3.518477     3.510834     3.503191     3.495547     3.487904     3.480261     3.472618
      3.464974     3.457331     3.449688     3.442045     3.434402     3.426758     3.419115     3.411472     3.403829     3.396185
      3.388542     3.380899     3.373256     3.365613     3.357969     3.350326     3.342683     3.335040     3.327396     3.319753
      3.312110     3.304467     3.296824     3.289180     3.281537     3.273894     3.266251     3.258607     3.250964     3.243321
      3.235678     3.228034     3.220391     3.212748     3.205105     3.197462     3.189818     3.182175     3.174532     3.166889
      3.159245     3.151602     3.143959     3.136316     3.128673     3.121029     3.113386     3.105743     3.098100     3.090456
      3.082813     3.075170     3.067527     3.059884     3.052240     3.044597     3.036954     3.029311     3.021667     3.014024
      3.006381     2.998738     2.991095     2.983451     2.975808     2.968165     2.960522     2.952878     2.945235     2.937592
      2.929949     2.922306     2.914662     2.907019     2.899376     2.891733     2.884089     2.876446     2.868803     2.861160
      2.853517     2.845873     2.838230     2.830587     2.822944     2.815300     2.807657     2.800014     2.792371     2.784728
      2.777084     2.769441     2.761798     2.754155     2.746511     2.738868     2.731225     2.723582     2.715939     2.708295
      2.700652     2.693009     2.685366     2.677722     2.670079     2.662436     2.654793     2.647150     2.639506     2.631863
      2.624220     2.616577     2.608933     2.601290     2.593647     2.586004     2.578361     2.570717     2.563074     2.555431
      2.547788     2.540144     2.532501     2.524858     2.517215     2.509572     2.501928     2.494285     2.486642     2.478999
      2.471355     2.463712     2.456069     2.448426     2.440783     2.433139     2.425496     2.417853     2.410210     2.402566
      2.394923     2.387280     2.379637     2.371994     2.364350     2.356707     2.349064     2.341421     2.333777     2.326134
      2.318491     2.310848     2.303205     2.295561     2.287918     2.280275     2.272632     2.264988     2.257345     2.249702
      2.242059     2.234416     2.226772     2.219129     2.211486     2.203843     2.196199     2.188556     2.180913     2.173270
      2.165627     2.157983     2.150340     2.142697     2.135054     2.127410     2.119767     2.112124     2.104481     2.096838
      2.089194     2.081551     2.073908     2.066265     2.058621     2.050978     2.043335     2.035692     2.028049     2.020405
      2.012762     2.005119     1.997476     1.989833     1.982190     1.974546     1.966903     1.959260     1.951617     1.943974
      1.936331     1.928688     1.921045     1.913402     1.905759     1.898115     1.890472     1.882829     1.875186     1.867543
      1.859900     1.852257     1.844614     1.836971     1.829327     1.821684     1.814041     1.806398     1.798755     1.791112
      1.783469     1.775826     1.768183     1.760540     1.752896     1.745253     1.737610     1.729967     1.722324     1.714681
      1.707038     1.699395     1.691752     1.684108     1.676465     1.668822     1.661179     1.653536     1.645893     1.638250
      1.630607     1.622964     1.615321     1.607677     1.600034     1.592391     1.584748     1.577105     1.569462     1.561819
      1.554176     1.546533     1.538890     1.531246     1.523603     1.515960     1.508317     1.500674     1.493031     1.485388
      1.477745     1.470102     1.462458     1.454815     1.447172     1.439529     1.431886     1.424243     1.416600     1.408957
      1.401314     1.393671     1.386027     1.378384     1.370741     1.363098     1.355455     1.347812     1.340169     1.332526
      1.324883     1.317240     1.309596     1.301953     1.294310     1.286667     1.279024     1.271381     1.263738     1.256095
      1.248452     1.240808     1.233165     1.225522     1.217879     1.210236     1.202593     1.194950     1.187307     1.179664
      1.172021     1.164377     1.156734     1.149091     1.141448     1.133805     1.126162     1.118519     1.110876     1.103233
      1.095590     1.087946     1.080303     1.072660     1.065017     1.057374     1.049731     1.042088     1.034445     1.026802
      1.019158     1.011515     1.003872     0.996229     0.988586     0.980943     0.973300     0.965657     0.958014     0.950371
      0.942727     0.935084     0.927441     0.919798     0.912155     0.904512     0.896869     0.889226     0.881583     0.873940
      0.866296     0.858653     0.851010     0.843367     0.835724     0.828081     0.820438     0.812795     0.805152     0.797508
      0.789865     0.782222     0.774579     0.766936     0.759293     0.751650     0.744007     0.736364     0.728721     0.721077
      0.713434     0.705791     0.698148     0.690505     0.682862     0.675219     0.667576     0.659933     0.652290     0.644646
      0.637003     0.629360     0.621717     0.614074     0.606431     0.598788     0.591145     0.583502     0.575858     0.568215
      0.560572     0.552929     0.545286     0.537643     0.530000     0.522357     0.514714     0.507071     0.499427     0.491784
      0.484141     0.476498     0.468855     0.461212     0.453569     0.445925     0.438282     0.430639     0.422996     0.415353
      0.407710     0.400067     0.392424     0.384780     0.377137     0.369494     0.361851     0.354208     0.346565     0.338922
      0.331278     0.323635     0.315992     0.308349     0.300706     0.293063     0.285420     0.277777     0.270133     0.262490
      0.254847     0.247204     0.239561     0.231918     0.224275     0.216631     0.208988     0.201345
 NY phased data points follow
   8.93009E+00  8.40843E+00  1.15770E+01  9.41880E+00  9.67986E+00  9.01683E+00  9.45451E+00  8.04851E+00  8.87079E+00  7.39876E+00
   7.96073E+00  7.09240E+00  6.69699E+00  6.01999E+00  7.28357E+00  8.41189E+00  6.93952E+00  6.94066E+00  6.33340E+00  7.53942E+00
   9.85171E+00  7.27325E+00  7.42047E+00  6.61940E+00  6.57347E+00  7.65132E+00  4.68113E+00  4.96496E+00  4.27541E+00  4.54774E+00
   5.55006E+00  4.99704E+00  6.56387E+00  2.93159E+00  4.03927E+00  3.13165E+00  5.82072E+00  4.41952E+00  4.85538E+00  3.31743E+00
   3.82223E+00  2.85511E+00  1.56430E+00  2.27327E+00  4.59722E+00  3.46020E+00  1.91184E+00  2.73904E+00  1.87630E+00  3.72733E+00
   1.91108E+00  2.04546E+00  2.06287E+00  1.96537E+00  1.65580E+00  2.64076E+00  4.37399E-01  9.29603E-01 -3.14345E-01  2.09347E+00
   1.53528E+00 -1.30091E+00 -1.03793E+00 -1.87487E+00 -2.15717E+00 -2.52421E+00  3.41989E-02 -7.68066E-01 -3.68179E+00 -3.80674E+00
  -3.30606E+00 -2.41112E+00 -2.89116E+00 -1.17352E+00 -2.77292E+00 -5.07211E+00 -5.63481E+00 -4.38563E+00 -5.11597E+00 -6.21568E+00
  -8.02924E+00 -4.36190E+00 -8.05039E+00 -6.67849E+00 -6.74052E+00 -7.64836E+00 -8.28298E+00 -8.58409E+00 -9.73814E+00 -9.49008E+00
  -7.16741E+00 -7.16907E+00 -1.03023E+01 -1.05178E+01 -5.25244E+00 -4.77463E+00 -4.49804E+00 -4.56494E+00 -5.39611E+00 -5.15728E+00
  -3.64027E+00 -3.05392E+00 -3.41693E+00 -3.15053E+00 -5.53899E+00 -4.14780E+00 -6.08853E+00 -5.08001E+00 -5.21570E+00 -2.38659E+00
  -5.43624E+00 -4.25386E+00 -5.67776E+00 -3.01407E+00 -4.10874E+00 -4.50992E+00 -4.18062E+00 -3.66607E+00 -5.05098E+00 -4.68907E+00
  -6.14075E+00 -4.18164E+00 -5.55743E+00 -3.66939E+00 -3.59179E+00 -6.09826E+00 -2.68754E+00 -3.44512E+00 -4.72556E+00 -5.94159E+00
  -1.46957E+00 -5.23156E+00 -7.19273E+00 -3.48318E+00 -4.46905E+00 -5.65292E+00 -3.84281E+00 -5.87892E+00 -5.00777E+00 -5.61618E+00
  -6.20621E+00 -6.77617E+00 -8.52960E+00 -9.91677E+00 -7.03205E+00 -8.33113E+00 -8.43806E+00 -1.07930E+01 -7.70525E+00 -9.29315E+00
  -9.71708E+00 -1.23948E+01 -9.27564E+00 -1.06926E+01 -1.20309E+01 -1.17810E+01 -1.35647E+01 -1.40653E+01 -1.17090E+01 -1.08643E+01
  -1.06828E+01 -1.20746E+01 -1.22409E+01 -1.17676E+01 -1.21763E+01 -1.20209E+01 -1.26009E+01 -1.07726E+01 -1.19971E+01 -1.05323E+01
  -1.17552E+01 -1.05714E+01 -1.23819E+01 -1.04008E+01 -1.21832E+01 -9.05458E+00 -9.54310E+00 -1.09537E+01 -1.06839E+01 -9.17331E+00
  -1.06028E+01 -1.05283E+01 -1.09173E+01 -1.00632E+01 -1.08008E+01 -9.57328E+00 -1.03447E+01 -8.03852E+00 -1.07591E+01 -7.96731E+00
  -8.82178E+00 -1.07790E+01 -1.10807E+01 -9.36152E+00 -1.31118E+01 -1.07207E+01 -1.22224E+01 -1.31165E+01 -8.10160E+00 -9.28585E+00
  -1.06754E+01 -1.03074E+01 -1.10356E+01 -1.13197E+01 -7.78857E+00 -1.04978E+01 -1.31148E+01 -1.11938E+01 -1.05802E+01 -9.07413E+00
  -1.09448E+01 -8.91792E+00 -8.75780E+00 -9.09549E+00 -8.79411E+00 -8.84071E+00 -7.81818E+00 -8.34528E+00 -7.22449E+00 -8.83677E+00
  -8.95012E+00 -7.44214E+00 -7.70605E+00 -6.93564E+00 -6.34595E+00 -7.76484E+00 -9.66950E+00 -7.11047E+00 -9.85537E+00 -8.00569E+00
  -6.44710E+00 -7.50352E+00 -7.05151E+00 -7.58381E+00 -6.61559E+00 -9.77419E+00 -7.77920E+00 -1.00591E+01 -1.05025E+01 -1.00065E+01
  -1.02077E+01 -8.69627E+00 -8.38927E+00 -8.44189E+00 -9.19167E+00 -4.59339E+00 -7.75975E+00 -6.81277E+00 -7.77714E+00 -5.31299E+00
  -5.44828E+00 -8.35419E+00 -9.88675E+00 -5.48869E+00 -8.10884E+00 -5.92156E+00 -4.87297E+00 -7.88690E+00 -8.44785E+00 -5.70487E+00
  -6.14546E+00 -8.45477E+00 -6.20726E+00 -6.84111E+00 -5.73308E+00 -7.33306E+00 -7.52448E+00 -7.44502E+00 -5.25643E+00 -7.25772E+00
  -1.04980E+01 -5.96530E+00 -8.27476E+00 -8.30155E+00 -7.92078E+00 -9.15010E+00 -9.72734E+00 -6.81686E+00 -7.72825E+00 -9.53725E+00
  -8.91928E+00 -9.51344E+00 -1.13693E+01 -1.15636E+01 -8.38740E+00 -1.12113E+01 -1.18584E+01 -1.11478E+01 -9.60408E+00 -8.59117E+00
  -9.50677E+00 -1.14122E+01 -9.58435E+00 -1.12381E+01 -8.18975E+00 -1.06046E+01 -1.06942E+01 -9.52234E+00 -1.20941E+01 -9.22856E+00
  -1.09238E+01 -8.40846E+00 -1.04153E+01 -1.08848E+01 -8.15614E+00 -9.60118E+00 -9.12537E+00 -1.12545E+01 -9.97226E+00 -9.52810E+00
  -9.06647E+00 -7.28728E+00 -7.94263E+00 -8.04930E+00 -6.01991E+00 -6.74501E+00 -6.80528E+00 -7.39708E+00 -8.07519E+00 -6.17908E+00
  -7.09164E+00 -6.27175E+00 -7.95116E+00 -5.29973E+00 -6.55618E+00 -8.04618E+00 -6.94022E+00 -7.85559E+00 -6.77606E+00 -7.85488E+00
  -3.93185E+00 -6.61018E+00 -5.44493E+00 -7.51270E+00 -7.01640E+00 -5.21396E+00 -6.95462E+00 -7.22609E+00 -8.82546E+00 -6.21392E+00
  -4.23435E+00 -4.75818E+00 -5.83384E+00 -5.86405E+00 -6.35837E+00 -6.93107E+00 -3.98518E+00 -7.57859E+00 -6.21350E+00 -6.28991E+00
  -4.12951E+00 -3.48608E+00 -5.44343E+00 -6.20310E+00 -6.66702E+00 -5.90741E+00 -7.32902E+00 -5.71188E+00 -7.65914E+00 -7.76346E+00
  -5.48402E+00 -5.59985E+00 -5.26652E+00 -5.95148E+00 -4.79082E+00 -6.95122E+00 -5.94852E+00 -5.58010E+00 -4.97565E+00 -8.42138E+00
  -6.33424E+00 -6.36806E+00 -6.35260E+00 -5.90094E+00 -6.98037E+00 -2.50491E+00 -4.38137E+00 -4.81728E+00 -6.05138E+00 -6.07656E+00
  -3.11141E+00 -3.78711E+00 -6.35341E+00 -5.62704E+00 -5.17567E+00 -3.94024E+00 -4.19208E+00 -4.59837E+00 -5.14986E+00 -3.08148E+00
  -3.72773E+00 -4.87109E+00 -4.15885E+00 -3.57571E+00 -5.76057E+00 -4.42768E+00 -3.60292E+00 -3.04847E+00 -3.19057E+00 -4.98047E+00
  -3.99162E+00 -3.65999E+00 -4.70357E+00 -5.02130E+00 -8.67137E-01 -3.94429E+00 -3.40500E+00 -5.07158E-01 -3.18831E+00 -2.75637E+00
  -5.55616E+00 -3.16131E+00 -4.60410E+00 -4.63668E+00 -4.66784E+00 -3.12055E+00 -2.82400E+00 -2.65852E+00 -2.03949E+00 -4.01478E+00
  -3.88707E+00 -4.80669E+00 -3.36862E+00 -3.41090E+00 -3.01122E+00 -2.81203E+00 -4.22346E+00 -5.08254E+00 -3.16868E+00 -3.28545E+00
  -4.57137E+00 -3.30599E+00 -2.25618E+00 -2.45774E+00 -3.87293E+00 -3.79162E+00 -5.01320E+00 -1.93215E+00 -2.49386E+00 -2.39935E+00
  -2.16804E+00 -2.29247E+00 -1.93071E+00 -4.45598E-01 -2.17135E+00 -4.36066E+00 -1.79308E+00 -2.44806E+00 -1.22660E+00 -1.08984E+00
  -1.15535E+00 -4.17264E+00 -1.56910E-01 -1.50913E+00 -1.93940E+00 -3.23471E+00 -4.14086E+00 -2.99237E+00  1.87935E+00 -5.33623E-01
  -2.62811E+00 -1.79611E+00 -2.46695E+00 -1.14157E+00 -2.39713E+00 -3.38486E+00 -2.02821E+00 -3.27310E+00 -2.52285E+00 -3.82096E+00
  -7.05862E-01 -8.57904E-01 -1.64654E-01 -1.23156E+00  1.11044E-01 -2.03708E+00 -1.40939E+00 -1.52532E+00 -2.57778E+00 -1.63743E+00
  -4.44222E+00 -2.63381E+00 -1.35642E+00 -5.09155E-01 -1.21466E+00 -5.82686E-03 -2.76633E+00 -2.13476E+00  7.70974E-01  5.37065E-01
  -2.54045E+00 -4.20845E-01  1.67489E+00 -2.76830E+00 -3.96044E-01 -1.23171E+00  1.12713E-01 -3.30228E+00
 NY points of the fit to the data follow
   1.05812E+01  9.97423E+00  9.56463E+00  8.91048E+00  8.61279E+00  7.89540E+00  7.62267E+00  6.88752E+00  6.68773E+00  6.13454E+00
   6.25848E+00  5.70417E+00  6.09302E+00  5.68839E+00  6.23670E+00  5.86261E+00  6.66309E+00  6.20921E+00  6.96329E+00  6.65596E+00
   7.49669E+00  7.00430E+00  7.73958E+00  6.99235E+00  7.58186E+00  6.64389E+00  7.11170E+00  6.06555E+00  6.46263E+00  5.51009E+00
   6.04849E+00  5.42110E+00  6.01550E+00  5.43756E+00  6.03493E+00  5.35073E+00  5.77268E+00  4.95719E+00  5.23508E+00  4.38347E+00
   4.60594E+00  3.95362E+00  4.08628E+00  3.62136E+00  3.60419E+00  3.25704E+00  3.02107E+00  2.76053E+00  2.28405E+00  2.21493E+00
   1.90225E+00  1.70628E+00  1.34356E+00  1.29334E+00  8.39194E-01  9.20002E-01  3.63260E-01  5.97629E-01 -9.05461E-02  1.81704E-01
  -6.56769E-01 -4.66004E-01 -1.50633E+00 -1.42296E+00 -2.41568E+00 -2.19521E+00 -3.10425E+00 -2.83843E+00 -3.56565E+00 -3.13615E+00
  -3.56768E+00 -2.93663E+00 -3.47717E+00 -3.27687E+00 -4.07228E+00 -4.13840E+00 -4.95065E+00 -5.08439E+00 -5.79455E+00 -5.94981E+00
  -6.50856E+00 -6.73664E+00 -7.08401E+00 -7.21538E+00 -7.26148E+00 -7.23374E+00 -7.28294E+00 -7.22110E+00 -7.28628E+00 -7.09650E+00
  -7.14885E+00 -6.81375E+00 -6.89731E+00 -6.37179E+00 -6.45378E+00 -5.62531E+00 -5.86011E+00 -4.93343E+00 -5.40403E+00 -4.39512E+00
  -5.06714E+00 -4.00757E+00 -4.87102E+00 -3.84779E+00 -4.80201E+00 -3.81234E+00 -4.79431E+00 -3.87321E+00 -4.85491E+00 -4.00551E+00
  -4.82221E+00 -4.09552E+00 -4.80461E+00 -4.16693E+00 -4.72514E+00 -4.32926E+00 -4.72946E+00 -4.52773E+00 -4.64869E+00 -4.55251E+00
  -4.30281E+00 -4.46696E+00 -3.91379E+00 -4.21239E+00 -3.28039E+00 -3.52297E+00 -2.71236E+00 -3.26888E+00 -2.66134E+00 -3.40526E+00
  -2.90491E+00 -3.79296E+00 -3.35653E+00 -4.34358E+00 -3.96811E+00 -4.99772E+00 -4.60447E+00 -5.68397E+00 -5.34814E+00 -6.47450E+00
  -6.30388E+00 -7.44455E+00 -7.41800E+00 -8.50175E+00 -8.53642E+00 -9.49419E+00 -9.59012E+00 -1.03301E+01 -1.03260E+01 -1.07839E+01
  -1.04738E+01 -1.07816E+01 -1.05454E+01 -1.07144E+01 -1.05518E+01 -1.07350E+01 -1.07426E+01 -1.09074E+01 -1.10378E+01 -1.11078E+01
  -1.12338E+01 -1.12093E+01 -1.12804E+01 -1.12355E+01 -1.12989E+01 -1.12694E+01 -1.13221E+01 -1.13057E+01 -1.13431E+01 -1.13246E+01
  -1.13268E+01 -1.12884E+01 -1.12462E+01 -1.12048E+01 -1.11490E+01 -1.11534E+01 -1.11089E+01 -1.11896E+01 -1.12083E+01 -1.12837E+01
  -1.13140E+01 -1.13276E+01 -1.13391E+01 -1.12370E+01 -1.12403E+01 -1.10701E+01 -1.10864E+01 -1.08875E+01 -1.09893E+01 -1.07600E+01
  -1.09785E+01 -1.08109E+01 -1.10959E+01 -1.08223E+01 -1.11189E+01 -1.07308E+01 -1.09973E+01 -1.05114E+01 -1.07834E+01 -1.02649E+01
  -1.06061E+01 -1.01584E+01 -1.05681E+01 -1.01411E+01 -1.05938E+01 -1.01591E+01 -1.05876E+01 -1.00723E+01 -1.03986E+01 -9.76704E+00
  -9.95546E+00 -9.29977E+00 -9.43546E+00 -8.82723E+00 -8.96990E+00 -8.47646E+00 -8.69359E+00 -8.40011E+00 -8.70596E+00 -8.43800E+00
  -8.68491E+00 -8.37656E+00 -8.51108E+00 -8.13691E+00 -8.26051E+00 -7.92067E+00 -8.03454E+00 -7.72475E+00 -7.89991E+00 -7.71117E+00
  -8.01065E+00 -8.04042E+00 -8.40669E+00 -8.34147E+00 -8.75544E+00 -8.60863E+00 -9.03554E+00 -8.79235E+00 -9.16127E+00 -8.84844E+00
  -9.17758E+00 -8.81428E+00 -9.03772E+00 -8.64968E+00 -8.77463E+00 -8.38599E+00 -8.43436E+00 -8.04192E+00 -7.95724E+00 -7.58910E+00
  -7.47457E+00 -7.21900E+00 -7.13728E+00 -6.98018E+00 -6.86497E+00 -6.78749E+00 -6.64563E+00 -6.68989E+00 -6.51494E+00 -6.63157E+00
  -6.46204E+00 -6.62076E+00 -6.45538E+00 -6.61947E+00 -6.59405E+00 -6.79424E+00 -6.81255E+00 -7.05495E+00 -7.17421E+00 -7.44313E+00
  -7.63091E+00 -7.90485E+00 -8.08939E+00 -8.33221E+00 -8.53623E+00 -8.73908E+00 -8.91854E+00 -9.05062E+00 -9.09181E+00 -9.17292E+00
  -9.21060E+00 -9.28563E+00 -9.31422E+00 -9.38046E+00 -9.39933E+00 -9.45687E+00 -9.46633E+00 -9.51387E+00 -9.51428E+00 -9.55117E+00
  -9.54435E+00 -9.57048E+00 -9.55780E+00 -9.57132E+00 -9.54919E+00 -9.54846E+00 -9.51626E+00 -9.49993E+00 -9.45762E+00 -9.42821E+00
  -9.37741E+00 -9.33480E+00 -9.27472E+00 -9.21848E+00 -9.14873E+00 -9.07513E+00 -8.98721E+00 -8.88171E+00 -8.72460E+00 -8.46996E+00
  -8.31583E+00 -8.03127E+00 -7.92563E+00 -7.66740E+00 -7.64444E+00 -7.48339E+00 -7.60637E+00 -7.45433E+00 -7.53460E+00 -7.32363E+00
  -7.35692E+00 -7.18707E+00 -7.16472E+00 -7.08408E+00 -7.02889E+00 -7.09664E+00 -7.04715E+00 -7.25261E+00 -7.04843E+00 -7.26429E+00
  -6.88733E+00 -7.16111E+00 -6.62150E+00 -6.98299E+00 -6.28440E+00 -6.74499E+00 -6.03564E+00 -6.56339E+00 -5.84298E+00 -6.42351E+00
  -5.69790E+00 -6.33668E+00 -5.64876E+00 -6.26234E+00 -5.59180E+00 -6.20348E+00 -5.53598E+00 -6.04441E+00 -5.35773E+00 -5.59231E+00
  -5.03941E+00 -5.28959E+00 -4.87374E+00 -5.14977E+00 -4.92406E+00 -5.23983E+00 -5.26801E+00 -5.52918E+00 -5.46525E+00 -5.70341E+00
  -5.61430E+00 -5.84649E+00 -5.76449E+00 -5.94049E+00 -5.84963E+00 -5.97992E+00 -5.86651E+00 -5.92878E+00 -5.78797E+00 -5.72218E+00
  -5.58745E+00 -5.56694E+00 -5.47236E+00 -5.51556E+00 -5.49864E+00 -5.60906E+00 -5.69802E+00 -5.75738E+00 -5.79650E+00 -5.81954E+00
  -5.82828E+00 -5.82340E+00 -5.80499E+00 -5.77284E+00 -5.72666E+00 -5.66617E+00 -5.59125E+00 -5.50197E+00 -5.39865E+00 -5.28195E+00
  -5.15288E+00 -5.01284E+00 -4.86357E+00 -4.70717E+00 -4.54599E+00 -4.38264E+00 -4.21982E+00 -4.06027E+00 -3.90667E+00 -3.76150E+00
  -3.62694E+00 -3.50486E+00 -3.39666E+00 -3.30331E+00 -3.22526E+00 -3.16252E+00 -3.11463E+00 -3.08076E+00 -3.05974E+00 -3.05017E+00
  -3.05047E+00 -3.05897E+00 -3.07399E+00 -3.09388E+00 -3.11711E+00 -3.14229E+00 -3.16817E+00 -3.19370E+00 -3.21800E+00 -3.24038E+00
  -3.26031E+00 -3.27741E+00 -3.29140E+00 -3.30217E+00 -3.30964E+00 -3.31383E+00 -3.31482E+00 -3.31269E+00 -3.30759E+00 -3.29966E+00
  -3.28905E+00 -3.27592E+00 -3.26044E+00 -3.24274E+00 -3.22296E+00 -3.20125E+00 -3.17773E+00 -3.15251E+00 -3.12571E+00 -3.09741E+00
  -3.06772E+00 -3.03670E+00 -3.00446E+00 -2.97105E+00 -2.93654E+00 -2.90097E+00 -2.86444E+00 -2.82695E+00 -2.78860E+00 -2.74938E+00
  -2.70938E+00 -2.66860E+00 -2.62710E+00 -2.58489E+00 -2.54204E+00 -2.49854E+00 -2.45445E+00 -2.40977E+00 -2.36455E+00 -2.31879E+00
  -2.27254E+00 -2.22580E+00 -2.17861E+00 -2.13098E+00 -2.08293E+00 -2.03450E+00 -1.98569E+00 -1.93652E+00 -1.88702E+00 -1.83721E+00
  -1.78711E+00 -1.73674E+00 -1.68612E+00 -1.63527E+00 -1.58422E+00 -1.53298E+00 -1.48159E+00 -1.43008E+00 -1.37845E+00 -1.32675E+00
  -1.27501E+00 -1.22327E+00 -1.17155E+00 -1.11990E+00 -1.06836E+00 -1.01698E+00 -9.65811E-01 -9.14922E-01 -8.64376E-01 -8.14250E-01
  -7.64634E-01 -7.15635E-01 -6.67377E-01 -6.20003E-01 -5.73687E-01 -5.28644E-01 -4.85145E-01 -4.43534E-01
 NY background values follow
    -3.130E+00   -3.170E+00   -3.210E+00   -3.250E+00   -3.290E+00   -3.330E+00   -3.371E+00   -3.411E+00   -3.451E+00   -3.492E+00
    -3.532E+00   -3.572E+00   -3.613E+00   -3.653E+00   -3.694E+00   -3.735E+00   -3.775E+00   -3.816E+00   -3.857E+00   -3.898E+00
    -3.938E+00   -3.979E+00   -4.020E+00   -4.061E+00   -4.102E+00   -4.143E+00   -4.184E+00   -4.225E+00   -4.266E+00   -4.307E+00
    -4.348E+00   -4.389E+00   -4.430E+00   -4.471E+00   -4.512E+00   -4.553E+00   -4.594E+00   -4.636E+00   -4.677E+00   -4.718E+00
    -4.759E+00   -4.800E+00   -4.841E+00   -4.882E+00   -4.923E+00   -4.965E+00   -5.006E+00   -5.047E+00   -5.088E+00   -5.129E+00
    -5.170E+00   -5.211E+00   -5.252E+00   -5.293E+00   -5.334E+00   -5.375E+00   -5.416E+00   -5.457E+00   -5.498E+00   -5.539E+00
    -5.579E+00   -5.620E+00   -5.661E+00   -5.702E+00   -5.742E+00   -5.783E+00   -5.824E+00   -5.864E+00   -5.905E+00   -5.945E+00
    -5.985E+00   -6.026E+00   -6.066E+00   -6.106E+00   -6.147E+00   -6.187E+00   -6.227E+00   -6.267E+00   -6.307E+00   -6.347E+00
    -6.387E+00   -6.426E+00   -6.466E+00   -6.506E+00   -6.545E+00   -6.585E+00   -6.624E+00   -6.663E+00   -6.703E+00   -6.742E+00
    -6.781E+00   -6.820E+00   -6.859E+00   -6.898E+00   -6.937E+00   -6.975E+00   -7.014E+00   -7.052E+00   -7.091E+00   -7.129E+00
    -7.167E+00   -7.205E+00   -7.243E+00   -7.281E+00   -7.319E+00   -7.356E+00   -7.394E+00   -7.432E+00   -7.469E+00   -7.506E+00
    -7.543E+00   -7.580E+00   -7.617E+00   -7.654E+00   -7.690E+00   -7.727E+00   -7.763E+00   -7.800E+00   -7.836E+00   -7.872E+00
    -7.908E+00   -7.943E+00   -7.979E+00   -8.014E+00   -8.050E+00   -8.085E+00   -8.120E+00   -8.155E+00   -8.189E+00   -8.224E+00
    -8.258E+00   -8.293E+00   -8.327E+00   -8.361E+00   -8.395E+00   -8.428E+00   -8.462E+00   -8.495E+00   -8.528E+00   -8.561E+00
    -8.594E+00   -8.627E+00   -8.659E+00   -8.692E+00   -8.724E+00   -8.756E+00   -8.788E+00   -8.819E+00   -8.851E+00   -8.882E+00
    -8.913E+00   -8.944E+00   -8.975E+00   -9.006E+00   -9.036E+00   -9.066E+00   -9.096E+00   -9.126E+00   -9.156E+00   -9.185E+00
    -9.214E+00   -9.243E+00   -9.272E+00   -9.301E+00   -9.329E+00   -9.357E+00   -9.385E+00   -9.413E+00   -9.440E+00   -9.468E+00
    -9.495E+00   -9.522E+00   -9.549E+00   -9.575E+00   -9.601E+00   -9.627E+00   -9.653E+00   -9.679E+00   -9.704E+00   -9.729E+00
    -9.754E+00   -9.779E+00   -9.804E+00   -9.828E+00   -9.852E+00   -9.876E+00   -9.899E+00   -9.922E+00   -9.945E+00   -9.968E+00
    -9.991E+00   -1.001E+01   -1.004E+01   -1.006E+01   -1.008E+01   -1.010E+01   -1.012E+01   -1.014E+01   -1.016E+01   -1.018E+01
    -1.020E+01   -1.022E+01   -1.024E+01   -1.026E+01   -1.028E+01   -1.030E+01   -1.032E+01   -1.034E+01   -1.035E+01   -1.037E+01
    -1.039E+01   -1.041E+01   -1.042E+01   -1.044E+01   -1.046E+01   -1.047E+01   -1.049E+01   -1.050E+01   -1.052E+01   -1.053E+01
    -1.055E+01   -1.056E+01   -1.058E+01   -1.059E+01   -1.060E+01   -1.062E+01   -1.063E+01   -1.064E+01   -1.066E+01   -1.067E+01
    -1.068E+01   -1.069E+01   -1.070E+01   -1.071E+01   -1.072E+01   -1.073E+01   -1.074E+01   -1.075E+01   -1.076E+01   -1.077E+01
    -1.078E+01   -1.079E+01   -1.080E+01   -1.080E+01   -1.081E+01   -1.082E+01   -1.083E+01   -1.083E+01   -1.084E+01   -1.085E+01
    -1.085E+01   -1.086E+01   -1.086E+01   -1.087E+01   -1.087E+01   -1.087E+01   -1.088E+01   -1.088E+01   -1.088E+01   -1.089E+01
    -1.089E+01   -1.089E+01   -1.089E+01   -1.090E+01   -1.090E+01   -1.090E+01   -1.090E+01   -1.090E+01   -1.090E+01   -1.090E+01
    -1.090E+01   -1.090E+01   -1.089E+01   -1.089E+01   -1.089E+01   -1.089E+01   -1.088E+01   -1.088E+01   -1.088E+01   -1.087E+01
    -1.087E+01   -1.087E+01   -1.086E+01   -1.086E+01   -1.085E+01   -1.084E+01   -1.084E+01   -1.083E+01   -1.082E+01   -1.082E+01
    -1.081E+01   -1.080E+01   -1.079E+01   -1.078E+01   -1.077E+01   -1.077E+01   -1.076E+01   -1.075E+01   -1.074E+01   -1.072E+01
    -1.071E+01   -1.070E+01   -1.069E+01   -1.068E+01   -1.067E+01   -1.065E+01   -1.064E+01   -1.063E+01   -1.061E+01   -1.060E+01
    -1.058E+01   -1.057E+01   -1.055E+01   -1.054E+01   -1.052E+01   -1.050E+01   -1.049E+01   -1.047E+01   -1.045E+01   -1.043E+01
    -1.042E+01   -1.040E+01   -1.038E+01   -1.036E+01   -1.034E+01   -1.032E+01   -1.030E+01   -1.028E+01   -1.026E+01   -1.024E+01
    -1.021E+01   -1.019E+01   -1.017E+01   -1.015E+01   -1.012E+01   -1.010E+01   -1.008E+01   -1.005E+01   -1.003E+01   -1.000E+01
    -9.976E+00   -9.950E+00   -9.924E+00   -9.898E+00   -9.871E+00   -9.843E+00   -9.816E+00   -9.788E+00   -9.760E+00   -9.731E+00
    -9.702E+00   -9.672E+00   -9.643E+00   -9.613E+00   -9.582E+00   -9.551E+00   -9.520E+00   -9.489E+00   -9.457E+00   -9.424E+00
    -9.392E+00   -9.359E+00   -9.325E+00   -9.292E+00   -9.258E+00   -9.223E+00   -9.188E+00   -9.153E+00   -9.118E+00   -9.082E+00
    -9.046E+00   -9.009E+00   -8.972E+00   -8.935E+00   -8.898E+00   -8.860E+00   -8.821E+00   -8.783E+00   -8.744E+00   -8.704E+00
    -8.664E+00   -8.624E+00   -8.584E+00   -8.543E+00   -8.502E+00   -8.461E+00   -8.419E+00   -8.377E+00   -8.334E+00   -8.291E+00
    -8.248E+00   -8.205E+00   -8.161E+00   -8.117E+00   -8.072E+00   -8.027E+00   -7.982E+00   -7.936E+00   -7.890E+00   -7.844E+00
    -7.797E+00   -7.751E+00   -7.703E+00   -7.656E+00   -7.608E+00   -7.559E+00   -7.511E+00   -7.462E+00   -7.413E+00   -7.363E+00
    -7.313E+00   -7.263E+00   -7.212E+00   -7.161E+00   -7.110E+00   -7.058E+00   -7.007E+00   -6.954E+00   -6.902E+00   -6.849E+00
    -6.796E+00   -6.742E+00   -6.688E+00   -6.634E+00   -6.580E+00   -6.525E+00   -6.470E+00   -6.415E+00   -6.359E+00   -6.303E+00
    -6.247E+00   -6.190E+00   -6.133E+00   -6.076E+00   -6.018E+00   -5.960E+00   -5.902E+00   -5.844E+00   -5.785E+00   -5.726E+00
    -5.667E+00   -5.607E+00   -5.547E+00   -5.487E+00   -5.426E+00   -5.365E+00   -5.304E+00   -5.243E+00   -5.181E+00   -5.119E+00
    -5.057E+00   -4.994E+00   -4.931E+00   -4.868E+00   -4.805E+00   -4.741E+00   -4.677E+00   -4.613E+00   -4.549E+00   -4.484E+00
    -4.419E+00   -4.353E+00   -4.288E+00   -4.222E+00   -4.156E+00   -4.089E+00   -4.023E+00   -3.956E+00   -3.889E+00   -3.821E+00
    -3.754E+00   -3.686E+00   -3.618E+00   -3.549E+00   -3.480E+00   -3.412E+00   -3.342E+00   -3.273E+00   -3.203E+00   -3.133E+00
    -3.063E+00   -2.993E+00   -2.922E+00   -2.851E+00   -2.780E+00   -2.709E+00   -2.638E+00   -2.566E+00   -2.494E+00   -2.422E+00
    -2.349E+00   -2.276E+00   -2.204E+00   -2.130E+00   -2.057E+00   -1.984E+00   -1.910E+00   -1.836E+00
 Ala      Conc. = 8.32E+02
