 LCModel (Version 6.3-1L) Copyright: S.W. Provencher.          Ref.: Magn. Reson. Med. 30:672-679 (1993).                
 Slice#1 Row#9 Col#1  K_02_press_1_raw_act
 36 lines in following concentration table = NCONC+1
    Conc.  %SD /Cr+PCr  Metabolite                                         
    0.322 999% 2.8E-03 Ala                                                 
   16.447  98%   0.141 Asp                                                 
   62.953  70%   0.539 Cr                                                  
   53.811  82%   0.461 PCr                                                 
    9.370 103% 8.0E-02 GABA                                                
    8.781 111% 7.5E-02 Glc                                                 
    8.905 722% 7.6E-02 Gln                                                 
  209.415  35%   1.793 Glu                                                 
   31.531  21%   0.270 GPC                                                 
    0.000 999%   0.000 PCh                                                 
   13.651 171%   0.117 GSH                                                 
   59.802 130%   0.512 Ins                                                 
    0.000 999%   0.000 Lac                                                 
  133.047  17%   1.139 NAA                                                 
   22.203 107%   0.190 NAAG                                                
    2.048 152% 1.8E-02 Scyllo                                              
    3.438 466% 2.9E-02 Tau                                                 
    0.000 999%   0.000 -CrCH2                                              
   31.531  21%   0.270 GPC+PCh                                             
  155.250  15%   1.330 NAA+NAAG                                            
  116.765  15%   1.000 Cr+PCr                                              
  218.320  43%   1.870 Glu+Gln                                             
    0.000 999%   0.000 Lip13a                                              
    0.000 999%   0.000 Lip13b                                              
    0.000 999%   0.000 Lip09                                               
    0.000 999%   0.000 MM09                                                
    4.243 477% 3.6E-02 Lip20                                               
    0.000 999%   0.000 MM20                                                
    0.416 999% 3.6E-03 MM12                                                
    8.267 749% 7.1E-02 MM14                                                
   46.122  96%   0.395 MM17                                                
    0.000 999%   0.000 Lip13a+Lip13b                                       
    8.683 741% 7.4E-02 MM14+Lip13a+Lip13b+MM12                             
    0.000 999%   0.000 MM09+Lip09                                          
    4.243 477% 3.6E-02 MM20+Lip20                                          
   6 lines in following misc. output table
  FWHM = 0.046 ppm    S/N =   2                                            
  Data shift = 0.023 ppm                                                   
  Ph:  85 deg      -7.9 deg/ppm                                            
  alphaB,S = 8.0E-01,   2.4E+01                                            
   14 spline knots.   Ns = 5(1)                                            
  ( 9) 2 infls.   ( 9) 1 extrs.                                            
  498 points on ppm-axis = NY
      4.000000     3.992357     3.984714     3.977070     3.969427     3.961784     3.954141     3.946497     3.938854     3.931211
      3.923568     3.915925     3.908281     3.900638     3.892995     3.885352     3.877708     3.870065     3.862422     3.854779
      3.847136     3.839492     3.831849     3.824206     3.816563     3.808919     3.801276     3.793633     3.785990     3.778347
      3.770703     3.763060     3.755417     3.747774     3.740130     3.732487     3.724844     3.717201     3.709558     3.701914
      3.694271     3.686628     3.678985     3.671341     3.663698     3.656055     3.648412     3.640769     3.633125     3.625482
      3.617839     3.610196     3.602552     3.594909     3.587266     3.579623     3.571980     3.564336     3.556693     3.549050
      3.541407     3.533763     3.526120     3.518477     3.510834     3.503191     3.495547     3.487904     3.480261     3.472618
      3.464974     3.457331     3.449688     3.442045     3.434402     3.426758     3.419115     3.411472     3.403829     3.396185
      3.388542     3.380899     3.373256     3.365613     3.357969     3.350326     3.342683     3.335040     3.327396     3.319753
      3.312110     3.304467     3.296824     3.289180     3.281537     3.273894     3.266251     3.258607     3.250964     3.243321
      3.235678     3.228034     3.220391     3.212748     3.205105     3.197462     3.189818     3.182175     3.174532     3.166889
      3.159245     3.151602     3.143959     3.136316     3.128673     3.121029     3.113386     3.105743     3.098100     3.090456
      3.082813     3.075170     3.067527     3.059884     3.052240     3.044597     3.036954     3.029311     3.021667     3.014024
      3.006381     2.998738     2.991095     2.983451     2.975808     2.968165     2.960522     2.952878     2.945235     2.937592
      2.929949     2.922306     2.914662     2.907019     2.899376     2.891733     2.884089     2.876446     2.868803     2.861160
      2.853517     2.845873     2.838230     2.830587     2.822944     2.815300     2.807657     2.800014     2.792371     2.784728
      2.777084     2.769441     2.761798     2.754155     2.746511     2.738868     2.731225     2.723582     2.715939     2.708295
      2.700652     2.693009     2.685366     2.677722     2.670079     2.662436     2.654793     2.647150     2.639506     2.631863
      2.624220     2.616577     2.608933     2.601290     2.593647     2.586004     2.578361     2.570717     2.563074     2.555431
      2.547788     2.540144     2.532501     2.524858     2.517215     2.509572     2.501928     2.494285     2.486642     2.478999
      2.471355     2.463712     2.456069     2.448426     2.440783     2.433139     2.425496     2.417853     2.410210     2.402566
      2.394923     2.387280     2.379637     2.371994     2.364350     2.356707     2.349064     2.341421     2.333777     2.326134
      2.318491     2.310848     2.303205     2.295561     2.287918     2.280275     2.272632     2.264988     2.257345     2.249702
      2.242059     2.234416     2.226772     2.219129     2.211486     2.203843     2.196199     2.188556     2.180913     2.173270
      2.165627     2.157983     2.150340     2.142697     2.135054     2.127410     2.119767     2.112124     2.104481     2.096838
      2.089194     2.081551     2.073908     2.066265     2.058621     2.050978     2.043335     2.035692     2.028049     2.020405
      2.012762     2.005119     1.997476     1.989833     1.982190     1.974546     1.966903     1.959260     1.951617     1.943974
      1.936331     1.928688     1.921045     1.913402     1.905759     1.898115     1.890472     1.882829     1.875186     1.867543
      1.859900     1.852257     1.844614     1.836971     1.829327     1.821684     1.814041     1.806398     1.798755     1.791112
      1.783469     1.775826     1.768183     1.760540     1.752896     1.745253     1.737610     1.729967     1.722324     1.714681
      1.707038     1.699395     1.691752     1.684108     1.676465     1.668822     1.661179     1.653536     1.645893     1.638250
      1.630607     1.622964     1.615321     1.607677     1.600034     1.592391     1.584748     1.577105     1.569462     1.561819
      1.554176     1.546533     1.538890     1.531246     1.523603     1.515960     1.508317     1.500674     1.493031     1.485388
      1.477745     1.470102     1.462458     1.454815     1.447172     1.439529     1.431886     1.424243     1.416600     1.408957
      1.401314     1.393671     1.386027     1.378384     1.370741     1.363098     1.355455     1.347812     1.340169     1.332526
      1.324883     1.317240     1.309596     1.301953     1.294310     1.286667     1.279024     1.271381     1.263738     1.256095
      1.248452     1.240808     1.233165     1.225522     1.217879     1.210236     1.202593     1.194950     1.187307     1.179664
      1.172021     1.164377     1.156734     1.149091     1.141448     1.133805     1.126162     1.118519     1.110876     1.103233
      1.095590     1.087946     1.080303     1.072660     1.065017     1.057374     1.049731     1.042088     1.034445     1.026802
      1.019158     1.011515     1.003872     0.996229     0.988586     0.980943     0.973300     0.965657     0.958014     0.950371
      0.942727     0.935084     0.927441     0.919798     0.912155     0.904512     0.896869     0.889226     0.881583     0.873940
      0.866296     0.858653     0.851010     0.843367     0.835724     0.828081     0.820438     0.812795     0.805152     0.797508
      0.789865     0.782222     0.774579     0.766936     0.759293     0.751650     0.744007     0.736364     0.728721     0.721077
      0.713434     0.705791     0.698148     0.690505     0.682862     0.675219     0.667576     0.659933     0.652290     0.644646
      0.637003     0.629360     0.621717     0.614074     0.606431     0.598788     0.591145     0.583502     0.575858     0.568215
      0.560572     0.552929     0.545286     0.537643     0.530000     0.522357     0.514714     0.507071     0.499427     0.491784
      0.484141     0.476498     0.468855     0.461212     0.453569     0.445925     0.438282     0.430639     0.422996     0.415353
      0.407710     0.400067     0.392424     0.384780     0.377137     0.369494     0.361851     0.354208     0.346565     0.338922
      0.331278     0.323635     0.315992     0.308349     0.300706     0.293063     0.285420     0.277777     0.270133     0.262490
      0.254847     0.247204     0.239561     0.231918     0.224275     0.216631     0.208988     0.201345
 NY phased data points follow
   6.16707E+01  5.78836E+01  5.87222E+01  5.67929E+01  5.73813E+01  5.39798E+01  5.68577E+01  5.55751E+01  5.62686E+01  5.61420E+01
   5.55109E+01  5.63272E+01  5.45370E+01  5.35293E+01  5.37646E+01  5.33981E+01  5.15850E+01  5.13273E+01  4.97500E+01  5.15866E+01
   4.94537E+01  4.78610E+01  4.83572E+01  4.70912E+01  4.91106E+01  4.81294E+01  4.92611E+01  4.61233E+01  4.60945E+01  4.73292E+01
   4.48342E+01  4.52751E+01  4.82577E+01  4.78390E+01  4.46332E+01  4.61708E+01  4.22891E+01  4.31614E+01  4.40916E+01  4.27124E+01
   4.37424E+01  4.42848E+01  4.10680E+01  4.21151E+01  4.24249E+01  4.43130E+01  4.26558E+01  4.08524E+01  4.09236E+01  4.13560E+01
   4.22821E+01  3.88329E+01  4.10321E+01  3.76030E+01  3.84458E+01  3.74385E+01  3.81945E+01  3.77211E+01  3.77094E+01  3.72811E+01
   3.88458E+01  3.51205E+01  3.66403E+01  3.50951E+01  3.45929E+01  3.43258E+01  3.44004E+01  3.28055E+01  3.37617E+01  3.36140E+01
   3.50306E+01  3.55345E+01  3.28790E+01  3.15204E+01  3.28975E+01  3.39523E+01  3.30439E+01  3.40711E+01  2.98267E+01  3.12040E+01
   3.26104E+01  3.26238E+01  3.12183E+01  3.20285E+01  3.06509E+01  3.04612E+01  3.15804E+01  2.98901E+01  3.15221E+01  2.81028E+01
   2.95669E+01  3.06851E+01  2.61469E+01  2.82487E+01  3.07766E+01  2.76857E+01  3.01957E+01  2.86314E+01  2.85154E+01  2.88229E+01
   2.87214E+01  3.33454E+01  3.24347E+01  3.30966E+01  2.95492E+01  3.16412E+01  2.83272E+01  2.83979E+01  2.56467E+01  2.85398E+01
   2.76916E+01  2.78469E+01  2.55634E+01  2.59593E+01  2.61138E+01  2.51046E+01  2.53496E+01  2.31101E+01  2.44323E+01  2.75526E+01
   2.47958E+01  2.57967E+01  2.53332E+01  2.49664E+01  2.79715E+01  2.79661E+01  2.82182E+01  3.04584E+01  2.75565E+01  2.69726E+01
   2.81356E+01  2.92402E+01  2.48098E+01  2.42949E+01  2.27511E+01  2.57521E+01  2.51895E+01  2.42947E+01  2.42255E+01  2.38614E+01
   2.40189E+01  2.31962E+01  2.05198E+01  2.46978E+01  2.13751E+01  2.22999E+01  2.57183E+01  2.31130E+01  2.26047E+01  2.10157E+01
   2.21585E+01  2.26308E+01  2.04355E+01  2.38538E+01  2.32233E+01  2.29640E+01  2.07161E+01  2.41422E+01  2.38662E+01  2.27075E+01
   2.38499E+01  2.31606E+01  2.32988E+01  2.39107E+01  2.20867E+01  2.14868E+01  2.30721E+01  2.49551E+01  2.42124E+01  2.47177E+01
   2.11332E+01  2.19606E+01  2.27352E+01  2.04338E+01  2.20315E+01  2.13703E+01  2.16159E+01  2.11629E+01  1.97455E+01  1.87647E+01
   2.10767E+01  2.02968E+01  2.26148E+01  1.92706E+01  2.19555E+01  1.86316E+01  1.82091E+01  1.95651E+01  2.07769E+01  2.01444E+01
   2.18679E+01  2.01744E+01  2.05119E+01  2.05203E+01  2.09175E+01  1.89045E+01  1.99137E+01  1.88795E+01  1.89262E+01  1.81656E+01
   1.98399E+01  1.95190E+01  1.81960E+01  1.73072E+01  1.81663E+01  2.00871E+01  1.91975E+01  1.93557E+01  1.94964E+01  1.73272E+01
   1.98299E+01  1.71781E+01  1.94726E+01  1.74776E+01  1.94690E+01  1.90061E+01  1.96592E+01  2.02829E+01  1.87037E+01  1.71755E+01
   1.63988E+01  1.73933E+01  1.63678E+01  1.74666E+01  1.52939E+01  1.95496E+01  1.87004E+01  1.77069E+01  1.93336E+01  1.80028E+01
   2.06009E+01  1.82319E+01  1.86550E+01  1.77762E+01  1.86496E+01  1.83475E+01  1.93180E+01  1.79448E+01  1.69416E+01  1.60294E+01
   1.75344E+01  1.56976E+01  1.52098E+01  1.86223E+01  1.55503E+01  1.59729E+01  1.44345E+01  1.68965E+01  1.67056E+01  1.51635E+01
   1.61363E+01  1.77852E+01  1.77876E+01  1.95476E+01  1.77811E+01  1.70918E+01  1.65167E+01  2.02994E+01  2.25606E+01  2.34500E+01
   2.06197E+01  2.08030E+01  2.09095E+01  1.80446E+01  1.77880E+01  1.44298E+01  1.25104E+01  1.65895E+01  1.47341E+01  1.66080E+01
   1.66631E+01  1.53079E+01  1.30211E+01  1.51958E+01  1.39155E+01  1.31196E+01  1.62051E+01  1.54743E+01  1.78482E+01  1.56584E+01
   1.36505E+01  1.54575E+01  1.31078E+01  1.59263E+01  1.43279E+01  1.47101E+01  1.45307E+01  1.62524E+01  1.38690E+01  1.53672E+01
   1.55141E+01  1.56173E+01  1.44494E+01  1.54291E+01  1.43441E+01  1.48863E+01  1.33907E+01  1.51461E+01  1.25721E+01  1.37151E+01
   1.73015E+01  1.67087E+01  1.59466E+01  1.41936E+01  1.62897E+01  1.31431E+01  1.37722E+01  1.45403E+01  1.52778E+01  1.23266E+01
   1.37318E+01  1.36765E+01  1.45783E+01  1.35130E+01  1.41269E+01  1.34118E+01  1.48700E+01  1.47918E+01  1.47650E+01  1.25579E+01
   1.36489E+01  1.29798E+01  1.70623E+01  1.43758E+01  1.41986E+01  1.12959E+01  1.28778E+01  1.15865E+01  9.84868E+00  1.40983E+01
   1.37300E+01  1.32946E+01  1.17140E+01  1.39518E+01  1.50772E+01  1.29489E+01  1.13324E+01  1.27061E+01  1.32685E+01  1.43030E+01
   1.18591E+01  1.18685E+01  1.08207E+01  1.10847E+01  1.04840E+01  9.87359E+00  1.16134E+01  9.67800E+00  1.27178E+01  1.12348E+01
   1.40200E+01  1.33128E+01  1.35618E+01  1.43496E+01  1.10799E+01  1.12737E+01  1.03731E+01  1.12301E+01  8.98944E+00  9.23952E+00
   1.05705E+01  1.22401E+01  1.14420E+01  1.35062E+01  1.24972E+01  1.20927E+01  1.03662E+01  1.18322E+01  1.14683E+01  1.14775E+01
   8.80579E+00  1.22502E+01  1.14644E+01  1.25538E+01  1.12593E+01  1.04831E+01  1.24114E+01  1.11780E+01  1.07014E+01  1.14989E+01
   1.11003E+01  9.70881E+00  1.22935E+01  9.71659E+00  1.00487E+01  1.14575E+01  1.05750E+01  7.73229E+00  9.20522E+00  8.59579E+00
   8.68297E+00  8.52298E+00  6.64573E+00  9.10888E+00  7.31387E+00  8.84037E+00  9.47821E+00  1.14549E+01  8.47897E+00  9.73674E+00
   9.52130E+00  1.12407E+01  9.71213E+00  1.11467E+01  1.03557E+01  8.06769E+00  1.00266E+01  1.26367E+01  7.96877E+00  1.12536E+01
   9.34535E+00  7.74588E+00  9.47490E+00  8.82491E+00  1.08493E+01  1.11642E+01  1.02832E+01  1.19340E+01  1.13077E+01  8.13519E+00
   7.90905E+00  1.01286E+01  1.05626E+01  1.09742E+01  1.18578E+01  6.67658E+00  8.03121E+00  6.21425E+00  1.10176E+01  7.97264E+00
   7.49584E+00  9.70053E+00  7.86557E+00  1.10006E+01  9.30429E+00  7.81019E+00  1.01852E+01  1.10968E+01  8.02429E+00  7.55215E+00
   1.00253E+01  6.16481E+00  8.27128E+00  9.63100E+00  7.55926E+00  8.59720E+00  7.68352E+00  6.61254E+00  8.06200E+00  8.40232E+00
   7.96967E+00  8.12172E+00  1.05066E+01  7.69311E+00  7.39525E+00  7.58414E+00  8.72303E+00  5.13829E+00  5.69312E+00  7.65644E+00
   9.54767E+00  9.88608E+00  7.13404E+00  6.70391E+00  1.01274E+01  9.80604E+00  8.74510E+00  8.48963E+00  9.64140E+00  8.36453E+00
   8.11469E+00  8.49891E+00  9.16999E+00  7.11338E+00  7.74601E+00  5.63668E+00  6.70476E+00  7.83256E+00  7.48745E+00  7.24673E+00
   4.69592E+00  7.81952E+00  7.08654E+00  6.38605E+00  9.11922E+00  5.57182E+00  7.29720E+00  8.32691E+00  7.32604E+00  7.48462E+00
   7.44791E+00  7.32749E+00  7.16374E+00  6.09203E+00  7.38009E+00  7.85152E+00  5.31393E+00  5.72695E+00
 NY points of the fit to the data follow
   5.56642E+01  5.53398E+01  5.50472E+01  5.47864E+01  5.45721E+01  5.44969E+01  5.46165E+01  5.48629E+01  5.51693E+01  5.53968E+01
   5.53683E+01  5.49906E+01  5.43093E+01  5.34648E+01  5.25938E+01  5.17741E+01  5.10240E+01  5.04192E+01  5.00060E+01  4.96699E+01
   4.93520E+01  4.90473E+01  4.87705E+01  4.85173E+01  4.82122E+01  4.78058E+01  4.73669E+01  4.70001E+01  4.67428E+01  4.65781E+01
   4.64846E+01  4.64328E+01  4.63305E+01  4.60628E+01  4.55921E+01  4.50055E+01  4.44250E+01  4.39145E+01  4.35096E+01  4.32271E+01
   4.30331E+01  4.28629E+01  4.26787E+01  4.24963E+01  4.23285E+01  4.21573E+01  4.19487E+01  4.16650E+01  4.13187E+01  4.09373E+01
   4.05227E+01  4.00885E+01  3.96788E+01  3.93262E+01  3.90234E+01  3.87519E+01  3.85111E+01  3.82965E+01  3.80892E+01  3.78614E+01
   3.75990E+01  3.73076E+01  3.69986E+01  3.66829E+01  3.63737E+01  3.60887E+01  3.58335E+01  3.56013E+01  3.53889E+01  3.51878E+01
   3.49847E+01  3.47693E+01  3.45422E+01  3.43105E+01  3.40745E+01  3.38314E+01  3.35809E+01  3.33311E+01  3.30899E+01  3.28549E+01
   3.26256E+01  3.24065E+01  3.22067E+01  3.20191E+01  3.18174E+01  3.15826E+01  3.13241E+01  3.10694E+01  3.08369E+01  3.06262E+01
   3.04347E+01  3.02678E+01  3.01280E+01  2.99973E+01  2.98563E+01  2.97013E+01  2.95435E+01  2.94117E+01  2.94180E+01  2.98733E+01
   3.07941E+01  3.16973E+01  3.20851E+01  3.18733E+01  3.13030E+01  3.05525E+01  2.96190E+01  2.85855E+01  2.77572E+01  2.73504E+01
   2.71613E+01  2.70114E+01  2.68736E+01  2.67419E+01  2.66145E+01  2.64895E+01  2.63644E+01  2.62401E+01  2.61219E+01  2.60150E+01
   2.59260E+01  2.58732E+01  2.59379E+01  2.64210E+01  2.75190E+01  2.88134E+01  2.96354E+01  2.96959E+01  2.91952E+01  2.84165E+01
   2.74246E+01  2.62482E+01  2.51640E+01  2.45160E+01  2.42365E+01  2.40562E+01  2.39152E+01  2.38085E+01  2.37306E+01  2.36712E+01
   2.36168E+01  2.35565E+01  2.34894E+01  2.34128E+01  2.33221E+01  2.32216E+01  2.31192E+01  2.30197E+01  2.29235E+01  2.28271E+01
   2.27303E+01  2.26343E+01  2.25430E+01  2.24592E+01  2.23844E+01  2.23170E+01  2.22439E+01  2.21443E+01  2.20185E+01  2.18920E+01
   2.17928E+01  2.17346E+01  2.16984E+01  2.16577E+01  2.16051E+01  2.15426E+01  2.14634E+01  2.13634E+01  2.12565E+01  2.11583E+01
   2.10770E+01  2.10028E+01  2.09077E+01  2.07950E+01  2.06986E+01  2.06398E+01  2.06055E+01  2.05597E+01  2.04896E+01  2.04180E+01
   2.03686E+01  2.03329E+01  2.02838E+01  2.02138E+01  2.01493E+01  2.01202E+01  2.01304E+01  2.01556E+01  2.01773E+01  2.01861E+01
   2.01780E+01  2.01445E+01  2.00806E+01  1.99967E+01  1.99026E+01  1.97992E+01  1.96994E+01  1.96219E+01  1.95684E+01  1.95336E+01
   1.95263E+01  1.95503E+01  1.95884E+01  1.95933E+01  1.95232E+01  1.93860E+01  1.91792E+01  1.89100E+01  1.86244E+01  1.83860E+01
   1.82677E+01  1.83294E+01  1.86352E+01  1.91080E+01  1.95175E+01  1.96586E+01  1.94829E+01  1.90686E+01  1.84337E+01  1.75977E+01
   1.67865E+01  1.63374E+01  1.63835E+01  1.67360E+01  1.71835E+01  1.76442E+01  1.80665E+01  1.83357E+01  1.83493E+01  1.81704E+01
   1.79613E+01  1.78088E+01  1.77083E+01  1.76568E+01  1.76465E+01  1.76544E+01  1.76314E+01  1.75294E+01  1.73574E+01  1.71456E+01
   1.69419E+01  1.68104E+01  1.67878E+01  1.68508E+01  1.69496E+01  1.70434E+01  1.70907E+01  1.70520E+01  1.69196E+01  1.67488E+01
   1.66438E+01  1.66662E+01  1.68555E+01  1.71754E+01  1.75061E+01  1.78094E+01  1.84638E+01  1.97453E+01  2.11514E+01  2.19046E+01
   2.17587E+01  2.10761E+01  2.01959E+01  1.90791E+01  1.77312E+01  1.65455E+01  1.59326E+01  1.57207E+01  1.55854E+01  1.54867E+01
   1.54342E+01  1.54175E+01  1.54206E+01  1.54330E+01  1.54373E+01  1.54258E+01  1.53955E+01  1.53416E+01  1.52662E+01  1.51866E+01
   1.51185E+01  1.50641E+01  1.50196E+01  1.49821E+01  1.49495E+01  1.49186E+01  1.48853E+01  1.48480E+01  1.48103E+01  1.47743E+01
   1.47401E+01  1.47073E+01  1.46759E+01  1.46451E+01  1.46141E+01  1.45818E+01  1.45478E+01  1.45127E+01  1.44780E+01  1.44439E+01
   1.44096E+01  1.43746E+01  1.43383E+01  1.43001E+01  1.42592E+01  1.42151E+01  1.41682E+01  1.41186E+01  1.40667E+01  1.40130E+01
   1.39577E+01  1.39010E+01  1.38433E+01  1.37849E+01  1.37260E+01  1.36671E+01  1.36084E+01  1.35501E+01  1.34925E+01  1.34358E+01
   1.33801E+01  1.33254E+01  1.32720E+01  1.32199E+01  1.31689E+01  1.31179E+01  1.30664E+01  1.30148E+01  1.29637E+01  1.29134E+01
   1.28635E+01  1.28147E+01  1.27678E+01  1.27228E+01  1.26783E+01  1.26333E+01  1.25874E+01  1.25410E+01  1.24941E+01  1.24463E+01
   1.23980E+01  1.23499E+01  1.23022E+01  1.22546E+01  1.22072E+01  1.21598E+01  1.21126E+01  1.20655E+01  1.20186E+01  1.19719E+01
   1.19254E+01  1.18791E+01  1.18330E+01  1.17873E+01  1.17418E+01  1.16965E+01  1.16516E+01  1.16069E+01  1.15625E+01  1.15185E+01
   1.14747E+01  1.14312E+01  1.13880E+01  1.13450E+01  1.13024E+01  1.12600E+01  1.12179E+01  1.11760E+01  1.11344E+01  1.10930E+01
   1.10518E+01  1.10109E+01  1.09702E+01  1.09297E+01  1.08894E+01  1.08493E+01  1.08095E+01  1.07699E+01  1.07305E+01  1.06913E+01
   1.06523E+01  1.06135E+01  1.05749E+01  1.05366E+01  1.04984E+01  1.04604E+01  1.04226E+01  1.03851E+01  1.03477E+01  1.03105E+01
   1.02735E+01  1.02367E+01  1.02001E+01  1.01636E+01  1.01274E+01  1.00913E+01  1.00554E+01  1.00197E+01  9.98421E+00  9.94887E+00
   9.91369E+00  9.87868E+00  9.84386E+00  9.80921E+00  9.77474E+00  9.74043E+00  9.70627E+00  9.67229E+00  9.63848E+00  9.60483E+00
   9.57134E+00  9.53798E+00  9.50477E+00  9.47171E+00  9.43880E+00  9.40602E+00  9.37336E+00  9.34081E+00  9.30839E+00  9.27609E+00
   9.24391E+00  9.21183E+00  9.17984E+00  9.14794E+00  9.11615E+00  9.08445E+00  9.05284E+00  9.02130E+00  8.98982E+00  8.95842E+00
   8.92709E+00  8.89583E+00  8.86462E+00  8.83346E+00  8.80235E+00  8.77128E+00  8.74026E+00  8.70928E+00  8.67832E+00  8.64738E+00
   8.61646E+00  8.58557E+00  8.55470E+00  8.52384E+00  8.49298E+00  8.46210E+00  8.43123E+00  8.40036E+00  8.36948E+00  8.33858E+00
   8.30764E+00  8.27668E+00  8.24570E+00  8.21469E+00  8.18364E+00  8.15256E+00  8.12144E+00  8.09029E+00  8.05911E+00  8.02791E+00
   7.99668E+00  7.96540E+00  7.93409E+00  7.90276E+00  7.87141E+00  7.84003E+00  7.80862E+00  7.77717E+00  7.74570E+00  7.71421E+00
   7.68270E+00  7.65116E+00  7.61959E+00  7.58799E+00  7.55637E+00  7.52474E+00  7.49309E+00  7.46141E+00  7.42971E+00  7.39798E+00
   7.36624E+00  7.33449E+00  7.30272E+00  7.27092E+00  7.23910E+00  7.20728E+00  7.17544E+00  7.14360E+00  7.11174E+00  7.07985E+00
   7.04796E+00  7.01606E+00  6.98417E+00  6.95227E+00  6.92035E+00  6.88843E+00  6.85651E+00  6.82460E+00
 NY background values follow
     5.543E+01    5.510E+01    5.478E+01    5.446E+01    5.414E+01    5.382E+01    5.350E+01    5.318E+01    5.285E+01    5.253E+01
     5.221E+01    5.189E+01    5.157E+01    5.125E+01    5.093E+01    5.061E+01    5.029E+01    4.997E+01    4.966E+01    4.934E+01
     4.902E+01    4.870E+01    4.839E+01    4.807E+01    4.776E+01    4.745E+01    4.713E+01    4.682E+01    4.651E+01    4.620E+01
     4.589E+01    4.558E+01    4.528E+01    4.497E+01    4.467E+01    4.436E+01    4.406E+01    4.376E+01    4.346E+01    4.316E+01
     4.286E+01    4.257E+01    4.228E+01    4.198E+01    4.169E+01    4.140E+01    4.111E+01    4.083E+01    4.054E+01    4.026E+01
     3.998E+01    3.970E+01    3.942E+01    3.915E+01    3.887E+01    3.860E+01    3.833E+01    3.806E+01    3.780E+01    3.753E+01
     3.727E+01    3.701E+01    3.675E+01    3.649E+01    3.624E+01    3.599E+01    3.574E+01    3.549E+01    3.524E+01    3.500E+01
     3.476E+01    3.452E+01    3.428E+01    3.405E+01    3.381E+01    3.358E+01    3.336E+01    3.313E+01    3.291E+01    3.269E+01
     3.247E+01    3.225E+01    3.204E+01    3.183E+01    3.162E+01    3.142E+01    3.121E+01    3.101E+01    3.082E+01    3.062E+01
     3.043E+01    3.024E+01    3.005E+01    2.987E+01    2.969E+01    2.951E+01    2.933E+01    2.916E+01    2.899E+01    2.882E+01
     2.865E+01    2.849E+01    2.833E+01    2.817E+01    2.801E+01    2.786E+01    2.771E+01    2.756E+01    2.741E+01    2.726E+01
     2.712E+01    2.698E+01    2.684E+01    2.670E+01    2.657E+01    2.644E+01    2.630E+01    2.618E+01    2.605E+01    2.592E+01
     2.580E+01    2.568E+01    2.556E+01    2.544E+01    2.532E+01    2.521E+01    2.509E+01    2.498E+01    2.487E+01    2.477E+01
     2.466E+01    2.455E+01    2.445E+01    2.435E+01    2.425E+01    2.415E+01    2.405E+01    2.395E+01    2.385E+01    2.376E+01
     2.367E+01    2.357E+01    2.348E+01    2.339E+01    2.330E+01    2.322E+01    2.313E+01    2.304E+01    2.296E+01    2.288E+01
     2.279E+01    2.271E+01    2.263E+01    2.255E+01    2.247E+01    2.240E+01    2.232E+01    2.224E+01    2.217E+01    2.209E+01
     2.202E+01    2.194E+01    2.187E+01    2.180E+01    2.173E+01    2.165E+01    2.158E+01    2.151E+01    2.144E+01    2.138E+01
     2.131E+01    2.124E+01    2.117E+01    2.110E+01    2.104E+01    2.097E+01    2.090E+01    2.084E+01    2.077E+01    2.070E+01
     2.064E+01    2.057E+01    2.051E+01    2.044E+01    2.038E+01    2.031E+01    2.025E+01    2.018E+01    2.012E+01    2.005E+01
     1.999E+01    1.992E+01    1.986E+01    1.980E+01    1.973E+01    1.967E+01    1.961E+01    1.954E+01    1.948E+01    1.942E+01
     1.936E+01    1.929E+01    1.923E+01    1.917E+01    1.911E+01    1.905E+01    1.898E+01    1.892E+01    1.886E+01    1.880E+01
     1.874E+01    1.868E+01    1.862E+01    1.856E+01    1.850E+01    1.844E+01    1.838E+01    1.832E+01    1.826E+01    1.820E+01
     1.815E+01    1.809E+01    1.803E+01    1.797E+01    1.791E+01    1.786E+01    1.780E+01    1.774E+01    1.769E+01    1.763E+01
     1.757E+01    1.752E+01    1.746E+01    1.741E+01    1.735E+01    1.730E+01    1.724E+01    1.719E+01    1.713E+01    1.708E+01
     1.703E+01    1.697E+01    1.692E+01    1.687E+01    1.681E+01    1.676E+01    1.671E+01    1.666E+01    1.660E+01    1.655E+01
     1.650E+01    1.645E+01    1.640E+01    1.635E+01    1.630E+01    1.625E+01    1.620E+01    1.615E+01    1.610E+01    1.605E+01
     1.600E+01    1.595E+01    1.590E+01    1.585E+01    1.580E+01    1.575E+01    1.570E+01    1.566E+01    1.561E+01    1.556E+01
     1.551E+01    1.547E+01    1.542E+01    1.537E+01    1.533E+01    1.528E+01    1.523E+01    1.519E+01    1.514E+01    1.510E+01
     1.505E+01    1.501E+01    1.496E+01    1.491E+01    1.487E+01    1.482E+01    1.478E+01    1.474E+01    1.469E+01    1.465E+01
     1.460E+01    1.456E+01    1.451E+01    1.447E+01    1.442E+01    1.438E+01    1.434E+01    1.429E+01    1.425E+01    1.420E+01
     1.416E+01    1.411E+01    1.407E+01    1.403E+01    1.398E+01    1.394E+01    1.389E+01    1.385E+01    1.381E+01    1.376E+01
     1.372E+01    1.367E+01    1.363E+01    1.358E+01    1.354E+01    1.349E+01    1.345E+01    1.340E+01    1.336E+01    1.331E+01
     1.327E+01    1.322E+01    1.318E+01    1.313E+01    1.309E+01    1.304E+01    1.300E+01    1.295E+01    1.291E+01    1.286E+01
     1.281E+01    1.277E+01    1.272E+01    1.268E+01    1.263E+01    1.259E+01    1.254E+01    1.249E+01    1.245E+01    1.240E+01
     1.236E+01    1.231E+01    1.227E+01    1.222E+01    1.218E+01    1.213E+01    1.209E+01    1.204E+01    1.200E+01    1.195E+01
     1.191E+01    1.186E+01    1.182E+01    1.178E+01    1.173E+01    1.169E+01    1.164E+01    1.160E+01    1.156E+01    1.151E+01
     1.147E+01    1.143E+01    1.139E+01    1.134E+01    1.130E+01    1.126E+01    1.122E+01    1.118E+01    1.114E+01    1.110E+01
     1.106E+01    1.101E+01    1.097E+01    1.093E+01    1.089E+01    1.085E+01    1.081E+01    1.078E+01    1.074E+01    1.070E+01
     1.066E+01    1.062E+01    1.058E+01    1.054E+01    1.051E+01    1.047E+01    1.043E+01    1.039E+01    1.036E+01    1.032E+01
     1.028E+01    1.025E+01    1.021E+01    1.017E+01    1.014E+01    1.010E+01    1.006E+01    1.003E+01    9.993E+00    9.958E+00
     9.923E+00    9.888E+00    9.853E+00    9.819E+00    9.784E+00    9.750E+00    9.716E+00    9.682E+00    9.648E+00    9.615E+00
     9.581E+00    9.548E+00    9.515E+00    9.482E+00    9.449E+00    9.416E+00    9.384E+00    9.351E+00    9.319E+00    9.286E+00
     9.254E+00    9.222E+00    9.190E+00    9.158E+00    9.127E+00    9.095E+00    9.063E+00    9.032E+00    9.000E+00    8.969E+00
     8.938E+00    8.907E+00    8.875E+00    8.844E+00    8.813E+00    8.782E+00    8.751E+00    8.720E+00    8.689E+00    8.658E+00
     8.627E+00    8.597E+00    8.566E+00    8.535E+00    8.504E+00    8.473E+00    8.442E+00    8.411E+00    8.380E+00    8.350E+00
     8.319E+00    8.288E+00    8.257E+00    8.226E+00    8.195E+00    8.164E+00    8.132E+00    8.101E+00    8.070E+00    8.039E+00
     8.008E+00    7.976E+00    7.945E+00    7.914E+00    7.882E+00    7.851E+00    7.820E+00    7.788E+00    7.757E+00    7.725E+00
     7.694E+00    7.662E+00    7.630E+00    7.599E+00    7.567E+00    7.535E+00    7.504E+00    7.472E+00    7.440E+00    7.409E+00
     7.377E+00    7.345E+00    7.313E+00    7.281E+00    7.249E+00    7.217E+00    7.185E+00    7.154E+00    7.122E+00    7.090E+00
     7.058E+00    7.026E+00    6.994E+00    6.961E+00    6.929E+00    6.897E+00    6.865E+00    6.833E+00
 Ala      Conc. = 3.22E-01
