 LCModel (Version 6.3-1L) Copyright: S.W. Provencher.          Ref.: Magn. Reson. Med. 30:672-679 (1993).                
 Slice#1 Row#7 Col#10  K_02_press_1_raw_act
 36 lines in following concentration table = NCONC+1
    Conc.  %SD /Cr+PCr  Metabolite                                         
  326.788  41%   0.305 Ala                                                 
    0.000 999%   0.000 Asp                                                 
  239.752 109%   0.224 Cr                                                  
  830.803  33%   0.776 PCr                                                 
   36.203 424% 3.4E-02 GABA                                                
    0.000 999%   0.000 Glc                                                 
  415.480  63%   0.388 Gln                                                 
 1.28E+03  24%   1.192 Glu                                                 
  483.172   5%   0.451 GPC                                                 
    0.000 999%   0.000 PCh                                                 
  292.375  30%   0.273 GSH                                                 
 1.03E+03  29%   0.964 Ins                                                 
    0.000 999%   0.000 Lac                                                 
 2.22E+03   6%   2.070 NAA                                                 
  617.693  21%   0.577 NAAG                                                
   54.476  57% 5.1E-02 Scyllo                                              
    0.000 999%   0.000 Tau                                                 
  409.941  31%   0.383 -CrCH2                                              
  483.172   5%   0.451 GPC+PCh                                             
 2.83E+03   4%   2.647 NAA+NAAG                                            
 1.07E+03   7%   1.000 Cr+PCr                                              
 1.69E+03  25%   1.580 Glu+Gln                                             
    0.000 999%   0.000 Lip13a                                              
    0.000 999%   0.000 Lip13b                                              
    0.000 999%   0.000 Lip09                                               
 1.37E+03  15%   1.279 MM09                                                
 6.81E-03 999% 6.4E-06 Lip20                                               
 3.30E+03  12%   3.081 MM20                                                
  227.628  56%   0.213 MM12                                                
 1.09E+03  29%   1.021 MM14                                                
 1.34E+03  18%   1.247 MM17                                                
    0.000 999%   0.000 Lip13a+Lip13b                                       
 1.32E+03  27%   1.234 MM14+Lip13a+Lip13b+MM12                             
 1.37E+03  15%   1.279 MM09+Lip09                                          
 3.30E+03  12%   3.081 MM20+Lip20                                          
   6 lines in following misc. output table
  FWHM = 0.046 ppm    S/N =  11                                            
  Data shift = 0.008 ppm                                                   
  Ph: -18 deg       4.3 deg/ppm                                            
  alphaB,S = 9.7E-01,   1.1E+02                                            
   14 spline knots.   Ns = 7(1)                                            
  ( 7) 4 infls.   ( 5) 1 extrs.                                            
  498 points on ppm-axis = NY
      4.000000     3.992357     3.984714     3.977070     3.969427     3.961784     3.954141     3.946497     3.938854     3.931211
      3.923568     3.915925     3.908281     3.900638     3.892995     3.885352     3.877708     3.870065     3.862422     3.854779
      3.847136     3.839492     3.831849     3.824206     3.816563     3.808919     3.801276     3.793633     3.785990     3.778347
      3.770703     3.763060     3.755417     3.747774     3.740130     3.732487     3.724844     3.717201     3.709558     3.701914
      3.694271     3.686628     3.678985     3.671341     3.663698     3.656055     3.648412     3.640769     3.633125     3.625482
      3.617839     3.610196     3.602552     3.594909     3.587266     3.579623     3.571980     3.564336     3.556693     3.549050
      3.541407     3.533763     3.526120     3.518477     3.510834     3.503191     3.495547     3.487904     3.480261     3.472618
      3.464974     3.457331     3.449688     3.442045     3.434402     3.426758     3.419115     3.411472     3.403829     3.396185
      3.388542     3.380899     3.373256     3.365613     3.357969     3.350326     3.342683     3.335040     3.327396     3.319753
      3.312110     3.304467     3.296824     3.289180     3.281537     3.273894     3.266251     3.258607     3.250964     3.243321
      3.235678     3.228034     3.220391     3.212748     3.205105     3.197462     3.189818     3.182175     3.174532     3.166889
      3.159245     3.151602     3.143959     3.136316     3.128673     3.121029     3.113386     3.105743     3.098100     3.090456
      3.082813     3.075170     3.067527     3.059884     3.052240     3.044597     3.036954     3.029311     3.021667     3.014024
      3.006381     2.998738     2.991095     2.983451     2.975808     2.968165     2.960522     2.952878     2.945235     2.937592
      2.929949     2.922306     2.914662     2.907019     2.899376     2.891733     2.884089     2.876446     2.868803     2.861160
      2.853517     2.845873     2.838230     2.830587     2.822944     2.815300     2.807657     2.800014     2.792371     2.784728
      2.777084     2.769441     2.761798     2.754155     2.746511     2.738868     2.731225     2.723582     2.715939     2.708295
      2.700652     2.693009     2.685366     2.677722     2.670079     2.662436     2.654793     2.647150     2.639506     2.631863
      2.624220     2.616577     2.608933     2.601290     2.593647     2.586004     2.578361     2.570717     2.563074     2.555431
      2.547788     2.540144     2.532501     2.524858     2.517215     2.509572     2.501928     2.494285     2.486642     2.478999
      2.471355     2.463712     2.456069     2.448426     2.440783     2.433139     2.425496     2.417853     2.410210     2.402566
      2.394923     2.387280     2.379637     2.371994     2.364350     2.356707     2.349064     2.341421     2.333777     2.326134
      2.318491     2.310848     2.303205     2.295561     2.287918     2.280275     2.272632     2.264988     2.257345     2.249702
      2.242059     2.234416     2.226772     2.219129     2.211486     2.203843     2.196199     2.188556     2.180913     2.173270
      2.165627     2.157983     2.150340     2.142697     2.135054     2.127410     2.119767     2.112124     2.104481     2.096838
      2.089194     2.081551     2.073908     2.066265     2.058621     2.050978     2.043335     2.035692     2.028049     2.020405
      2.012762     2.005119     1.997476     1.989833     1.982190     1.974546     1.966903     1.959260     1.951617     1.943974
      1.936331     1.928688     1.921045     1.913402     1.905759     1.898115     1.890472     1.882829     1.875186     1.867543
      1.859900     1.852257     1.844614     1.836971     1.829327     1.821684     1.814041     1.806398     1.798755     1.791112
      1.783469     1.775826     1.768183     1.760540     1.752896     1.745253     1.737610     1.729967     1.722324     1.714681
      1.707038     1.699395     1.691752     1.684108     1.676465     1.668822     1.661179     1.653536     1.645893     1.638250
      1.630607     1.622964     1.615321     1.607677     1.600034     1.592391     1.584748     1.577105     1.569462     1.561819
      1.554176     1.546533     1.538890     1.531246     1.523603     1.515960     1.508317     1.500674     1.493031     1.485388
      1.477745     1.470102     1.462458     1.454815     1.447172     1.439529     1.431886     1.424243     1.416600     1.408957
      1.401314     1.393671     1.386027     1.378384     1.370741     1.363098     1.355455     1.347812     1.340169     1.332526
      1.324883     1.317240     1.309596     1.301953     1.294310     1.286667     1.279024     1.271381     1.263738     1.256095
      1.248452     1.240808     1.233165     1.225522     1.217879     1.210236     1.202593     1.194950     1.187307     1.179664
      1.172021     1.164377     1.156734     1.149091     1.141448     1.133805     1.126162     1.118519     1.110876     1.103233
      1.095590     1.087946     1.080303     1.072660     1.065017     1.057374     1.049731     1.042088     1.034445     1.026802
      1.019158     1.011515     1.003872     0.996229     0.988586     0.980943     0.973300     0.965657     0.958014     0.950371
      0.942727     0.935084     0.927441     0.919798     0.912155     0.904512     0.896869     0.889226     0.881583     0.873940
      0.866296     0.858653     0.851010     0.843367     0.835724     0.828081     0.820438     0.812795     0.805152     0.797508
      0.789865     0.782222     0.774579     0.766936     0.759293     0.751650     0.744007     0.736364     0.728721     0.721077
      0.713434     0.705791     0.698148     0.690505     0.682862     0.675219     0.667576     0.659933     0.652290     0.644646
      0.637003     0.629360     0.621717     0.614074     0.606431     0.598788     0.591145     0.583502     0.575858     0.568215
      0.560572     0.552929     0.545286     0.537643     0.530000     0.522357     0.514714     0.507071     0.499427     0.491784
      0.484141     0.476498     0.468855     0.461212     0.453569     0.445925     0.438282     0.430639     0.422996     0.415353
      0.407710     0.400067     0.392424     0.384780     0.377137     0.369494     0.361851     0.354208     0.346565     0.338922
      0.331278     0.323635     0.315992     0.308349     0.300706     0.293063     0.285420     0.277777     0.270133     0.262490
      0.254847     0.247204     0.239561     0.231918     0.224275     0.216631     0.208988     0.201345
 NY phased data points follow
   1.42577E+01  9.99385E+00  1.52890E+01  1.41437E+01  1.43632E+01  1.33598E+01  1.56078E+01  1.75758E+01  2.06237E+01  2.21676E+01
   3.12391E+01  2.41032E+01  2.52578E+01  2.03585E+01  1.23407E+01  1.72597E+01  4.91918E+00  9.52314E+00  1.15040E+01  9.35592E+00
   1.06560E+01  1.38038E+01  9.07962E+00  1.52032E+01  1.04001E+01  1.38969E+01  6.83190E+00  1.21796E+01  8.40191E+00  1.54507E+01
   1.25476E+01  1.68456E+01  1.13461E+01  1.09721E+01  1.01240E+01  1.23088E+01  8.94229E+00  8.66423E+00  1.17320E+01  1.60000E+01
   1.36455E+01  1.25926E+01  1.30705E+01  1.11764E+01  1.35125E+01  2.22234E+01  1.99246E+01  1.80503E+01  1.36170E+01  1.69065E+01
   1.32686E+01  7.81744E+00  1.23219E+01  1.37913E+01  1.26844E+01  1.03878E+01  1.61205E+01  1.52914E+01  9.28131E+00  1.35351E+01
   7.47011E+00  7.12265E+00  8.05499E+00  1.36702E+00  3.01945E+00  1.84139E+00  2.72007E+00  7.51318E+00  1.03873E+01  6.35868E+00
   7.73458E+00  4.69322E+00  5.08605E+00  5.88941E+00  2.07348E+00  4.22464E+00  6.92093E+00  7.18785E-01  6.42858E+00 -5.49737E-01
   1.33933E+00  6.09035E+00  9.69736E+00  5.90574E+00  1.14977E+01  3.14181E-01  4.33281E+00  5.70676E+00  6.99475E+00  9.12108E+00
   7.63918E+00  1.11340E+01  6.32533E+00  1.04070E+01  1.43548E+01  5.56660E+00  1.43256E+01  1.49742E+01  1.49060E+01  2.82129E+01
   3.60279E+01  5.03157E+01  5.53678E+01  5.07604E+01  4.86199E+01  2.85777E+01  2.59245E+01  2.06951E+01  8.44871E+00  1.39583E+01
   8.74736E+00  9.47593E+00  1.01969E+01  2.91207E+00  7.12538E+00  7.48816E+00  1.07315E+01  5.50713E+00  8.24987E+00  7.28991E+00
   1.13826E+01  9.85883E+00  1.24282E+01  1.61955E+01  2.53797E+01  3.84441E+01  4.12672E+01  4.78612E+01  3.87550E+01  3.60257E+01
   2.54246E+01  2.04307E+01  2.05322E+01  1.00569E+01  1.37090E+01  6.11539E+00  1.09521E+01  3.88848E+00  8.81771E+00  1.24862E+01
   9.28258E+00  4.74031E+00  2.12194E+00  5.24237E+00  6.68011E+00  4.44646E+00  7.44935E+00  4.12759E+00  4.34381E+00  2.78577E+00
   2.38154E+00  2.86971E+00  4.85969E+00  2.83668E+00  1.68404E+00  2.58733E+00  5.22495E+00  5.33250E+00  7.72952E+00  9.08975E-01
   9.91982E+00  2.04818E+00  1.34647E+00 -1.48060E-01  5.89279E+00  3.30076E+00  2.84293E+00 -5.65952E+00 -2.74464E+00 -3.82855E+00
  -1.30860E+01 -1.01260E+01 -8.15567E+00 -1.22788E+01 -1.19251E+01 -1.35302E+01 -1.34423E+01 -7.41896E+00 -5.66559E+00 -6.62829E+00
  -9.35609E+00 -1.81218E+00 -8.22874E+00 -1.14766E+00 -4.04215E+00  4.95320E-01 -2.37271E+00 -5.32298E+00  4.29491E+00  1.82928E+00
   3.36588E+00  3.15310E+00  1.94468E+00 -2.96511E+00  1.57656E+00 -2.87339E+00 -9.74319E+00 -4.35815E+00 -8.89215E+00 -4.50155E+00
  -1.54169E+00 -2.55341E+00  4.96209E+00  5.78153E+00  7.59937E+00  5.34037E+00  3.11362E+00  7.04201E+00  3.74997E+00 -3.18447E-01
   2.71274E+00  1.11786E+01  7.98750E+00  6.70492E+00  1.12880E+01  1.41428E+01  1.58764E+01  1.16053E+01  1.04929E+01  1.00781E+01
  -6.48392E-02 -3.10417E+00  4.42177E+00 -1.39912E+00  6.69767E+00  6.60487E+00  8.06089E+00  1.23062E+01  8.98079E+00  1.41407E+01
   9.19555E+00  1.24650E+01  9.35010E+00  4.89028E+00  1.10153E+01  9.47339E+00  1.19455E+01  1.16029E+01  1.11852E+01  1.15692E+01
   4.14733E+00  6.10131E+00  5.50389E+00  5.98599E+00  8.46326E+00  1.21731E+01  1.22422E+01  1.85446E+01  2.01131E+01  2.49718E+01
   2.41959E+01  2.56926E+01  2.78897E+01  3.70700E+01  5.05410E+01  5.35139E+01  5.33623E+01  6.33135E+01  8.16213E+01  1.03549E+02
   1.01613E+02  9.28889E+01  7.59896E+01  4.91244E+01  3.44269E+01  2.84514E+01  2.16754E+01  1.60320E+01  1.94346E+01  1.22750E+01
   2.45562E+00  4.43896E+00  1.33367E+01  1.04225E+01  1.23266E+01  9.10451E+00  6.45465E+00  1.83092E+00  3.31653E+00  1.00582E+01
   1.45950E+00  6.56662E-01  4.45547E+00 -2.28798E-01  6.36602E+00  3.12891E+00  7.15553E+00  5.92688E+00  1.41962E+01  7.22165E+00
   1.13497E+01  1.27384E+01  1.17142E+01  1.18088E+01  1.34539E+01  3.18039E+00  7.63745E+00  3.58439E+00  1.76329E+00  2.71094E+00
  -2.16982E+00 -1.95435E+00 -2.03127E+00 -2.49709E+00  2.48003E+00  7.71677E+00  9.92584E+00  7.70145E+00  1.19428E+01  9.76433E+00
   1.57506E+01  3.28419E+00  1.42630E+01  1.37114E+01  1.85191E+01  1.33187E+01  1.72190E+01  1.68245E+01  1.27911E+01  1.70700E+01
   1.28541E+01  1.51060E+01  1.59497E+01  1.01497E+01  7.33837E+00  1.22434E+00  8.90056E+00  4.71162E+00  3.81678E+00  4.56956E+00
  -3.05251E-01 -2.08258E+00  1.40860E+00  4.16330E+00  2.38653E+00  9.12062E+00 -8.61552E-01  1.13050E+00  2.47107E+00  7.62787E+00
   7.60094E+00  4.49126E+00  1.01157E+01  8.20369E+00  1.07134E+01  1.40455E-02  7.76185E+00  1.03127E+01  2.32285E+00  7.93518E+00
   3.52796E+00  3.57733E+00  2.69104E+00  4.14354E+00 -5.75304E+00  4.68571E+00 -4.69449E-01 -4.71108E+00  6.56350E-01 -1.64685E+00
  -6.07850E+00 -5.84087E+00  2.19626E-01 -5.70482E-01 -2.47945E+00 -6.51719E+00  3.57770E+00 -2.02479E+00 -4.74911E+00 -2.63242E+00
  -4.01594E+00 -5.43240E+00 -6.28917E+00 -1.65312E+00 -5.58551E+00 -4.54805E+00 -7.78126E+00 -1.52027E+00 -7.85916E-01 -5.08320E+00
  -2.32550E+00 -3.01682E+00  1.51063E+00 -1.18973E+01 -7.55174E+00 -4.79166E+00  8.91533E-01  2.12626E+00  1.55628E+00  5.34068E+00
   1.35191E-01  2.94563E+00  9.79796E+00  6.51733E+00  1.60834E+00  3.00712E+00  3.33149E+00  7.00387E+00  8.82760E+00  3.72523E+00
   1.07719E+01  8.93963E+00  1.08825E+01  8.83236E+00  1.33254E+01  1.36154E+01  7.98952E+00  1.17700E+01  1.10594E+01  1.01572E+01
   4.32440E+00  7.32517E+00  2.89252E+00  5.23736E+00  1.74178E+00  4.95113E+00  1.23837E+00  1.32669E+00 -5.10980E+00 -5.96493E+00
  -1.45099E+00  1.22180E+00  7.32877E-03 -4.84897E+00 -1.23441E+00 -2.85017E+00 -1.69971E+00 -2.76021E-01 -4.10605E+00  3.56577E+00
  -1.95885E+00 -3.58587E-01  2.09225E-01 -2.13525E+00 -5.01642E-01 -6.34812E+00  1.27700E-01  6.74249E-01  2.30376E+00 -5.17721E-02
  -2.86525E+00 -3.09677E+00 -3.67040E+00  2.40953E+00  1.05814E-01 -6.40651E+00 -5.16503E+00 -5.83285E+00 -2.38499E-01 -4.13805E+00
  -1.67877E+00 -3.29493E-01 -1.83198E+00 -7.71162E-01  5.89395E-01 -3.40719E+00  9.93633E-01  2.41194E+00 -4.37695E-01 -5.62723E+00
  -2.88989E+00 -4.95430E+00 -5.84849E+00 -5.99884E-01 -2.27668E+00 -1.71038E+00  5.64972E+00  4.11426E+00 -6.31501E+00  3.55609E-01
  -1.45525E+00  1.67143E-01 -3.49660E+00 -1.21701E+00 -5.27991E-01 -1.56098E-01 -2.84692E+00 -1.07939E+00  6.70259E-01 -3.37649E+00
   5.08720E-01 -7.80546E-01 -1.19932E+00  5.27668E-01 -2.02456E+00  9.57742E-01  2.40241E+00 -5.36961E+00  1.80730E-01  2.00946E+00
  -7.37440E+00 -5.94164E+00 -2.69395E+00  1.65189E+00 -3.75323E+00 -2.01417E+00 -5.75953E+00 -3.59376E+00
 NY points of the fit to the data follow
   9.79690E+00  9.69505E+00  9.93344E+00  1.08547E+01  1.21725E+01  1.38666E+01  1.61960E+01  1.93631E+01  2.28937E+01  2.56284E+01
   2.65262E+01  2.53062E+01  2.26204E+01  1.95882E+01  1.70237E+01  1.51751E+01  1.38844E+01  1.28083E+01  1.18502E+01  1.12801E+01
   1.09769E+01  1.07813E+01  1.05940E+01  1.05172E+01  1.03125E+01  1.00168E+01  1.01516E+01  1.11096E+01  1.27935E+01  1.46511E+01
   1.61854E+01  1.70283E+01  1.69624E+01  1.60764E+01  1.46168E+01  1.29116E+01  1.13324E+01  1.00016E+01  9.10219E+00  9.00517E+00
   9.62523E+00  1.05730E+01  1.16481E+01  1.30175E+01  1.47237E+01  1.63235E+01  1.71849E+01  1.68690E+01  1.54299E+01  1.33886E+01
   1.13417E+01  9.75789E+00  8.85278E+00  8.44007E+00  8.26914E+00  8.30537E+00  8.62567E+00  9.15139E+00  9.61691E+00  9.77608E+00
   9.49286E+00  8.79700E+00  7.90883E+00  7.10391E+00  6.63600E+00  6.57917E+00  6.78278E+00  7.09223E+00  7.44772E+00  7.78613E+00
   8.02994E+00  8.10070E+00  7.97404E+00  7.70302E+00  7.37696E+00  7.07907E+00  6.85585E+00  6.69973E+00  6.60166E+00  6.57650E+00
   6.61871E+00  6.66267E+00  6.77194E+00  6.98691E+00  7.15607E+00  7.04462E+00  6.56874E+00  5.88608E+00  5.27167E+00  4.97640E+00
   5.04216E+00  5.34259E+00  5.71291E+00  6.02925E+00  6.31635E+00  7.28002E+00  1.01555E+01  1.39908E+01  1.91329E+01  2.73121E+01
   3.83297E+01  4.87932E+01  5.42462E+01  5.24920E+01  4.47435E+01  3.44320E+01  2.50753E+01  1.83811E+01  1.41266E+01  1.12438E+01
   8.70068E+00  6.49135E+00  5.57468E+00  5.36932E+00  5.32421E+00  5.34134E+00  5.39173E+00  5.48209E+00  5.66859E+00  6.16405E+00
   7.83239E+00  1.08673E+01  1.45395E+01  1.97074E+01  2.72332E+01  3.58772E+01  4.25133E+01  4.43569E+01  4.09002E+01  3.39789E+01
   2.64070E+01  2.02288E+01  1.58557E+01  1.26515E+01  9.83854E+00  7.14524E+00  5.31086E+00  4.82285E+00  5.01813E+00  5.47510E+00
   5.88768E+00  6.05662E+00  5.96859E+00  5.71489E+00  5.37788E+00  5.04374E+00  4.74638E+00  4.44577E+00  4.13487E+00  3.81876E+00
   3.48862E+00  3.17246E+00  2.90516E+00  2.72929E+00  2.62934E+00  2.59876E+00  2.58389E+00  2.39806E+00  1.94995E+00  1.28508E+00
   6.58465E-01  4.30405E-01  6.66241E-01  1.05106E+00  1.18993E+00  8.57649E-01  1.37432E-01 -6.67368E-01 -1.26829E+00 -1.58256E+00
  -1.77002E+00 -1.95716E+00 -2.32953E+00 -2.93444E+00 -3.52596E+00 -3.77881E+00 -3.52772E+00 -2.99048E+00 -2.61016E+00 -2.59184E+00
  -2.78106E+00 -2.82197E+00 -2.49411E+00 -1.96006E+00 -1.41664E+00 -8.36331E-01 -2.77414E-02  1.21797E+00  2.79134E+00  4.28580E+00
   5.23426E+00  5.35240E+00  4.86538E+00  4.17130E+00  3.54088E+00  3.11223E+00  2.91540E+00  3.05841E+00  3.56309E+00  4.32098E+00
   5.24648E+00  6.20127E+00  6.95319E+00  7.11758E+00  6.54924E+00  5.24157E+00  3.28486E+00  1.10731E+00 -6.05796E-01 -1.32042E+00
  -9.78970E-01  1.85802E-01  2.15857E+00  4.77498E+00  7.33331E+00  8.84673E+00  8.67917E+00  6.99447E+00  4.41388E+00  1.47158E+00
  -1.05377E+00 -2.36641E+00 -2.09307E+00 -4.01142E-01  2.06181E+00  4.59050E+00  6.62866E+00  7.81476E+00  8.20370E+00  8.10246E+00
   7.98184E+00  8.10515E+00  8.44392E+00  8.98709E+00  9.69749E+00  1.03712E+01  1.07659E+01  1.08147E+01  1.05432E+01  1.00190E+01
   9.39328E+00  9.02276E+00  9.26573E+00  1.01720E+01  1.14674E+01  1.27617E+01  1.38265E+01  1.46433E+01  1.56562E+01  1.73642E+01
   1.95463E+01  2.26842E+01  2.75684E+01  3.52867E+01  4.52271E+01  5.34939E+01  6.10467E+01  7.14691E+01  8.48220E+01  9.59822E+01
   9.86800E+01  9.05994E+01  7.44889E+01  5.59530E+01  4.03578E+01  2.98072E+01  2.30165E+01  1.79573E+01  1.31770E+01  9.40314E+00
   7.92349E+00  7.30746E+00  6.92769E+00  6.61816E+00  6.27127E+00  5.83229E+00  5.35067E+00  4.87282E+00  4.43696E+00  4.06956E+00
   3.78028E+00  3.54505E+00  3.33374E+00  3.13088E+00  2.93314E+00  2.73280E+00  2.52916E+00  2.34108E+00  2.19915E+00  2.12499E+00
   2.11486E+00  2.15045E+00  2.21418E+00  2.29249E+00  2.38208E+00  2.49260E+00  2.64279E+00  2.85557E+00  3.15003E+00  3.53179E+00
   4.00094E+00  4.55154E+00  5.16855E+00  5.83647E+00  6.54240E+00  7.27382E+00  8.01696E+00  8.75247E+00  9.45822E+00  1.01154E+01
   1.07039E+01  1.12050E+01  1.16044E+01  1.18925E+01  1.20653E+01  1.21248E+01  1.20805E+01  1.19505E+01  1.17663E+01  1.15858E+01
   1.14932E+01  1.13840E+01  1.12012E+01  1.10626E+01  1.08646E+01  1.02334E+01  8.84318E+00  6.74236E+00  4.47959E+00  2.65064E+00
   1.46629E+00  1.04701E+00  1.48894E+00  2.71159E+00  4.32991E+00  5.82324E+00  6.84295E+00  7.19156E+00  6.94478E+00  6.43129E+00
   5.90045E+00  5.43936E+00  5.00859E+00  4.51736E+00  4.01651E+00  3.61013E+00  3.26156E+00  2.94475E+00  2.65057E+00  2.37509E+00
   2.11704E+00  1.87603E+00  1.65239E+00  1.44599E+00  1.25665E+00  1.08353E+00  9.26075E-01  7.83346E-01  6.54527E-01  5.38145E-01
   4.32763E-01  3.36677E-01  2.48744E-01  1.67760E-01  9.28808E-02  2.29436E-02 -4.27721E-02 -1.04896E-01 -1.63285E-01 -2.17774E-01
  -2.67788E-01 -3.12952E-01 -3.52313E-01 -3.84755E-01 -4.08434E-01 -4.21570E-01 -4.21977E-01 -4.07561E-01 -3.75497E-01 -3.22713E-01
  -2.45412E-01 -1.39870E-01 -1.93833E-03  1.72449E-01  3.87909E-01  6.48847E-01  9.59618E-01  1.32350E+00  1.74293E+00  2.21875E+00
   2.75047E+00  3.33516E+00  3.96758E+00  4.63924E+00  5.33899E+00  6.05273E+00  6.76429E+00  7.45520E+00  8.10584E+00  8.69577E+00
   9.20547E+00  9.61696E+00  9.91534E+00  1.00890E+01  1.01308E+01  1.00380E+01  9.81321E+00  9.46383E+00  9.00179E+00  8.44225E+00
   7.80320E+00  7.10401E+00  6.36504E+00  5.60601E+00  4.84556E+00  4.09986E+00  3.38268E+00  2.70474E+00  2.07425E+00  1.49636E+00
   9.73836E-01  5.06805E-01  9.38573E-02 -2.67964E-01 -5.82175E-01 -8.53182E-01 -1.08550E+00 -1.28405E+00 -1.45320E+00 -1.59719E+00
  -1.71949E+00 -1.82353E+00 -1.91211E+00 -1.98798E+00 -2.05310E+00 -2.10927E+00 -2.15768E+00 -2.19969E+00 -2.23625E+00 -2.26840E+00
  -2.29662E+00 -2.32149E+00 -2.34325E+00 -2.36250E+00 -2.37951E+00 -2.39474E+00 -2.40818E+00 -2.42006E+00 -2.43040E+00 -2.43957E+00
  -2.44766E+00 -2.45489E+00 -2.46109E+00 -2.46644E+00 -2.47089E+00 -2.47476E+00 -2.47802E+00 -2.48079E+00 -2.48287E+00 -2.48442E+00
  -2.48543E+00 -2.48615E+00 -2.48647E+00 -2.48647E+00 -2.48595E+00 -2.48510E+00 -2.48390E+00 -2.48258E+00 -2.48097E+00 -2.47911E+00
  -2.47685E+00 -2.47440E+00 -2.47174E+00 -2.46903E+00 -2.46605E+00 -2.46288E+00 -2.45939E+00 -2.45583E+00 -2.45213E+00 -2.44842E+00
  -2.44446E+00 -2.44035E+00 -2.43600E+00 -2.43166E+00 -2.42723E+00 -2.42277E+00 -2.41806E+00 -2.41324E+00 -2.40826E+00 -2.40333E+00
  -2.39831E+00 -2.39323E+00 -2.38790E+00 -2.38250E+00 -2.37698E+00 -2.37151E+00 -2.36590E+00 -2.36018E+00
 NY background values follow
     6.901E+00    6.868E+00    6.835E+00    6.801E+00    6.768E+00    6.735E+00    6.702E+00    6.669E+00    6.636E+00    6.603E+00
     6.570E+00    6.537E+00    6.504E+00    6.471E+00    6.438E+00    6.405E+00    6.372E+00    6.339E+00    6.306E+00    6.273E+00
     6.240E+00    6.207E+00    6.174E+00    6.141E+00    6.108E+00    6.075E+00    6.043E+00    6.010E+00    5.977E+00    5.944E+00
     5.911E+00    5.879E+00    5.846E+00    5.813E+00    5.781E+00    5.748E+00    5.715E+00    5.682E+00    5.650E+00    5.617E+00
     5.585E+00    5.552E+00    5.519E+00    5.487E+00    5.454E+00    5.422E+00    5.389E+00    5.357E+00    5.324E+00    5.292E+00
     5.259E+00    5.227E+00    5.194E+00    5.162E+00    5.130E+00    5.097E+00    5.065E+00    5.033E+00    5.000E+00    4.968E+00
     4.936E+00    4.903E+00    4.871E+00    4.839E+00    4.807E+00    4.775E+00    4.743E+00    4.711E+00    4.678E+00    4.646E+00
     4.614E+00    4.582E+00    4.550E+00    4.519E+00    4.487E+00    4.455E+00    4.423E+00    4.391E+00    4.359E+00    4.328E+00
     4.296E+00    4.264E+00    4.233E+00    4.201E+00    4.169E+00    4.138E+00    4.106E+00    4.075E+00    4.043E+00    4.012E+00
     3.980E+00    3.949E+00    3.918E+00    3.886E+00    3.855E+00    3.824E+00    3.793E+00    3.762E+00    3.731E+00    3.700E+00
     3.669E+00    3.638E+00    3.607E+00    3.576E+00    3.545E+00    3.514E+00    3.483E+00    3.453E+00    3.422E+00    3.391E+00
     3.361E+00    3.330E+00    3.300E+00    3.269E+00    3.239E+00    3.209E+00    3.178E+00    3.148E+00    3.118E+00    3.088E+00
     3.058E+00    3.028E+00    2.998E+00    2.968E+00    2.938E+00    2.908E+00    2.879E+00    2.849E+00    2.819E+00    2.790E+00
     2.760E+00    2.731E+00    2.701E+00    2.672E+00    2.643E+00    2.613E+00    2.584E+00    2.555E+00    2.526E+00    2.497E+00
     2.468E+00    2.440E+00    2.411E+00    2.382E+00    2.354E+00    2.326E+00    2.297E+00    2.269E+00    2.241E+00    2.213E+00
     2.186E+00    2.158E+00    2.131E+00    2.103E+00    2.076E+00    2.049E+00    2.023E+00    1.996E+00    1.970E+00    1.943E+00
     1.917E+00    1.892E+00    1.866E+00    1.841E+00    1.815E+00    1.790E+00    1.766E+00    1.741E+00    1.717E+00    1.693E+00
     1.669E+00    1.646E+00    1.623E+00    1.600E+00    1.577E+00    1.555E+00    1.533E+00    1.511E+00    1.489E+00    1.468E+00
     1.447E+00    1.427E+00    1.407E+00    1.387E+00    1.367E+00    1.348E+00    1.329E+00    1.310E+00    1.292E+00    1.273E+00
     1.255E+00    1.238E+00    1.220E+00    1.203E+00    1.186E+00    1.169E+00    1.152E+00    1.136E+00    1.120E+00    1.104E+00
     1.088E+00    1.072E+00    1.056E+00    1.041E+00    1.025E+00    1.010E+00    9.950E-01    9.799E-01    9.650E-01    9.501E-01
     9.354E-01    9.206E-01    9.060E-01    8.914E-01    8.768E-01    8.623E-01    8.478E-01    8.333E-01    8.188E-01    8.043E-01
     7.899E-01    7.753E-01    7.608E-01    7.462E-01    7.316E-01    7.169E-01    7.022E-01    6.874E-01    6.725E-01    6.576E-01
     6.425E-01    6.274E-01    6.122E-01    5.969E-01    5.815E-01    5.660E-01    5.505E-01    5.348E-01    5.190E-01    5.031E-01
     4.871E-01    4.710E-01    4.548E-01    4.384E-01    4.220E-01    4.054E-01    3.887E-01    3.718E-01    3.548E-01    3.377E-01
     3.204E-01    3.030E-01    2.855E-01    2.678E-01    2.500E-01    2.320E-01    2.138E-01    1.955E-01    1.770E-01    1.583E-01
     1.395E-01    1.205E-01    1.014E-01    8.203E-02    6.251E-02    4.280E-02    2.290E-02    2.813E-03   -1.747E-02   -3.794E-02
    -5.862E-02   -7.950E-02   -1.006E-01   -1.219E-01   -1.434E-01   -1.650E-01   -1.869E-01   -2.090E-01   -2.312E-01   -2.536E-01
    -2.763E-01   -2.990E-01   -3.220E-01   -3.451E-01   -3.684E-01   -3.919E-01   -4.155E-01   -4.393E-01   -4.632E-01   -4.873E-01
    -5.115E-01   -5.359E-01   -5.604E-01   -5.850E-01   -6.098E-01   -6.347E-01   -6.597E-01   -6.849E-01   -7.102E-01   -7.356E-01
    -7.611E-01   -7.867E-01   -8.124E-01   -8.382E-01   -8.641E-01   -8.902E-01   -9.163E-01   -9.425E-01   -9.688E-01   -9.951E-01
    -1.022E+00   -1.048E+00   -1.075E+00   -1.101E+00   -1.128E+00   -1.155E+00   -1.182E+00   -1.209E+00   -1.236E+00   -1.263E+00
    -1.290E+00   -1.317E+00   -1.344E+00   -1.371E+00   -1.398E+00   -1.425E+00   -1.452E+00   -1.479E+00   -1.506E+00   -1.533E+00
    -1.560E+00   -1.587E+00   -1.613E+00   -1.640E+00   -1.667E+00   -1.693E+00   -1.719E+00   -1.745E+00   -1.771E+00   -1.797E+00
    -1.823E+00   -1.849E+00   -1.874E+00   -1.899E+00   -1.924E+00   -1.949E+00   -1.974E+00   -1.998E+00   -2.023E+00   -2.047E+00
    -2.070E+00   -2.094E+00   -2.117E+00   -2.140E+00   -2.163E+00   -2.185E+00   -2.207E+00   -2.229E+00   -2.250E+00   -2.271E+00
    -2.292E+00   -2.313E+00   -2.333E+00   -2.353E+00   -2.372E+00   -2.391E+00   -2.410E+00   -2.428E+00   -2.446E+00   -2.464E+00
    -2.481E+00   -2.498E+00   -2.514E+00   -2.530E+00   -2.546E+00   -2.562E+00   -2.577E+00   -2.591E+00   -2.606E+00   -2.620E+00
    -2.634E+00   -2.647E+00   -2.660E+00   -2.672E+00   -2.685E+00   -2.696E+00   -2.708E+00   -2.719E+00   -2.730E+00   -2.740E+00
    -2.750E+00   -2.760E+00   -2.769E+00   -2.778E+00   -2.787E+00   -2.795E+00   -2.803E+00   -2.811E+00   -2.818E+00   -2.825E+00
    -2.831E+00   -2.837E+00   -2.843E+00   -2.848E+00   -2.853E+00   -2.858E+00   -2.862E+00   -2.866E+00   -2.870E+00   -2.873E+00
    -2.876E+00   -2.878E+00   -2.880E+00   -2.882E+00   -2.884E+00   -2.885E+00   -2.886E+00   -2.886E+00   -2.887E+00   -2.887E+00
    -2.886E+00   -2.886E+00   -2.885E+00   -2.884E+00   -2.883E+00   -2.881E+00   -2.879E+00   -2.877E+00   -2.875E+00   -2.872E+00
    -2.869E+00   -2.866E+00   -2.863E+00   -2.860E+00   -2.856E+00   -2.853E+00   -2.849E+00   -2.844E+00   -2.840E+00   -2.836E+00
    -2.831E+00   -2.826E+00   -2.821E+00   -2.816E+00   -2.811E+00   -2.806E+00   -2.801E+00   -2.795E+00   -2.789E+00   -2.784E+00
    -2.778E+00   -2.772E+00   -2.766E+00   -2.760E+00   -2.754E+00   -2.748E+00   -2.741E+00   -2.735E+00   -2.729E+00   -2.722E+00
    -2.716E+00   -2.709E+00   -2.703E+00   -2.696E+00   -2.689E+00   -2.683E+00   -2.676E+00   -2.669E+00   -2.662E+00   -2.655E+00
    -2.648E+00   -2.641E+00   -2.634E+00   -2.627E+00   -2.620E+00   -2.613E+00   -2.606E+00   -2.599E+00   -2.592E+00   -2.585E+00
    -2.577E+00   -2.570E+00   -2.563E+00   -2.556E+00   -2.549E+00   -2.542E+00   -2.534E+00   -2.527E+00   -2.520E+00   -2.513E+00
    -2.506E+00   -2.499E+00   -2.492E+00   -2.484E+00   -2.477E+00   -2.470E+00   -2.463E+00   -2.456E+00
 Ala      Conc. = 3.27E+02
