 LCModel (Version 6.3-1L) Copyright: S.W. Provencher.          Ref.: Magn. Reson. Med. 30:672-679 (1993).                
 Slice#2 Row#13 Col#4  K_02_press_1_raw_act
 36 lines in following concentration table = NCONC+1
    Conc.  %SD /Cr+PCr  Metabolite                                         
  179.631  94%   0.701 Ala                                                 
    0.000 999%   0.000 Asp                                                 
    0.000 999%   0.000 Cr                                                  
  256.306  18%   1.000 PCr                                                 
   55.414 105%   0.216 GABA                                                
    0.000 999%   0.000 Glc                                                 
 2.27E+03  22%   8.858 Gln                                                 
 2.08E+03  28%   8.107 Glu                                                 
  195.793   9%   0.764 GPC                                                 
    0.000 999%   0.000 PCh                                                 
  308.236  25%   1.203 GSH                                                 
 1.55E+03  19%   6.030 Ins                                                 
    0.000 999%   0.000 Lac                                                 
  434.867  21%   1.697 NAA                                                 
   71.052 145%   0.277 NAAG                                                
   54.642  31%   0.213 Scyllo                                              
    0.000 999%   0.000 Tau                                                 
    0.000 999%   0.000 -CrCH2                                              
  195.793   9%   0.764 GPC+PCh                                             
  505.919  11%   1.974 NAA+NAAG                                            
  256.306  18%   1.000 Cr+PCr                                              
 4.35E+03  24%  16.965 Glu+Gln                                             
  155.863 303%   0.608 Lip13a                                              
    2.193 999% 8.6E-03 Lip13b                                              
   15.546 749% 6.1E-02 Lip09                                               
  582.267  21%   2.272 MM09                                                
   31.847 223%   0.124 Lip20                                               
  761.270  29%   2.970 MM20                                                
  172.007  36%   0.671 MM12                                                
  864.798  18%   3.374 MM14                                                
  497.395  21%   1.941 MM17                                                
  158.056 234%   0.617 Lip13a+Lip13b                                       
 1.19E+03  31%   4.662 MM14+Lip13a+Lip13b+MM12                             
  597.813  21%   2.332 MM09+Lip09                                          
  793.117  27%   3.094 MM20+Lip20                                          
   6 lines in following misc. output table
  FWHM = 0.099 ppm    S/N =   3                                            
  Data shift = 0.015 ppm                                                   
  Ph: -10 deg      -1.2 deg/ppm                                            
  alphaB,S = 6.8E-01,   5.1E+01                                            
   14 spline knots.   Ns =11(1)                                            
  (20)11 infls.   (23) 3 extrs.                                            
  498 points on ppm-axis = NY
      4.000000     3.992357     3.984714     3.977070     3.969427     3.961784     3.954141     3.946497     3.938854     3.931211
      3.923568     3.915925     3.908281     3.900638     3.892995     3.885352     3.877708     3.870065     3.862422     3.854779
      3.847136     3.839492     3.831849     3.824206     3.816563     3.808919     3.801276     3.793633     3.785990     3.778347
      3.770703     3.763060     3.755417     3.747774     3.740130     3.732487     3.724844     3.717201     3.709558     3.701914
      3.694271     3.686628     3.678985     3.671341     3.663698     3.656055     3.648412     3.640769     3.633125     3.625482
      3.617839     3.610196     3.602552     3.594909     3.587266     3.579623     3.571980     3.564336     3.556693     3.549050
      3.541407     3.533763     3.526120     3.518477     3.510834     3.503191     3.495547     3.487904     3.480261     3.472618
      3.464974     3.457331     3.449688     3.442045     3.434402     3.426758     3.419115     3.411472     3.403829     3.396185
      3.388542     3.380899     3.373256     3.365613     3.357969     3.350326     3.342683     3.335040     3.327396     3.319753
      3.312110     3.304467     3.296824     3.289180     3.281537     3.273894     3.266251     3.258607     3.250964     3.243321
      3.235678     3.228034     3.220391     3.212748     3.205105     3.197462     3.189818     3.182175     3.174532     3.166889
      3.159245     3.151602     3.143959     3.136316     3.128673     3.121029     3.113386     3.105743     3.098100     3.090456
      3.082813     3.075170     3.067527     3.059884     3.052240     3.044597     3.036954     3.029311     3.021667     3.014024
      3.006381     2.998738     2.991095     2.983451     2.975808     2.968165     2.960522     2.952878     2.945235     2.937592
      2.929949     2.922306     2.914662     2.907019     2.899376     2.891733     2.884089     2.876446     2.868803     2.861160
      2.853517     2.845873     2.838230     2.830587     2.822944     2.815300     2.807657     2.800014     2.792371     2.784728
      2.777084     2.769441     2.761798     2.754155     2.746511     2.738868     2.731225     2.723582     2.715939     2.708295
      2.700652     2.693009     2.685366     2.677722     2.670079     2.662436     2.654793     2.647150     2.639506     2.631863
      2.624220     2.616577     2.608933     2.601290     2.593647     2.586004     2.578361     2.570717     2.563074     2.555431
      2.547788     2.540144     2.532501     2.524858     2.517215     2.509572     2.501928     2.494285     2.486642     2.478999
      2.471355     2.463712     2.456069     2.448426     2.440783     2.433139     2.425496     2.417853     2.410210     2.402566
      2.394923     2.387280     2.379637     2.371994     2.364350     2.356707     2.349064     2.341421     2.333777     2.326134
      2.318491     2.310848     2.303205     2.295561     2.287918     2.280275     2.272632     2.264988     2.257345     2.249702
      2.242059     2.234416     2.226772     2.219129     2.211486     2.203843     2.196199     2.188556     2.180913     2.173270
      2.165627     2.157983     2.150340     2.142697     2.135054     2.127410     2.119767     2.112124     2.104481     2.096838
      2.089194     2.081551     2.073908     2.066265     2.058621     2.050978     2.043335     2.035692     2.028049     2.020405
      2.012762     2.005119     1.997476     1.989833     1.982190     1.974546     1.966903     1.959260     1.951617     1.943974
      1.936331     1.928688     1.921045     1.913402     1.905759     1.898115     1.890472     1.882829     1.875186     1.867543
      1.859900     1.852257     1.844614     1.836971     1.829327     1.821684     1.814041     1.806398     1.798755     1.791112
      1.783469     1.775826     1.768183     1.760540     1.752896     1.745253     1.737610     1.729967     1.722324     1.714681
      1.707038     1.699395     1.691752     1.684108     1.676465     1.668822     1.661179     1.653536     1.645893     1.638250
      1.630607     1.622964     1.615321     1.607677     1.600034     1.592391     1.584748     1.577105     1.569462     1.561819
      1.554176     1.546533     1.538890     1.531246     1.523603     1.515960     1.508317     1.500674     1.493031     1.485388
      1.477745     1.470102     1.462458     1.454815     1.447172     1.439529     1.431886     1.424243     1.416600     1.408957
      1.401314     1.393671     1.386027     1.378384     1.370741     1.363098     1.355455     1.347812     1.340169     1.332526
      1.324883     1.317240     1.309596     1.301953     1.294310     1.286667     1.279024     1.271381     1.263738     1.256095
      1.248452     1.240808     1.233165     1.225522     1.217879     1.210236     1.202593     1.194950     1.187307     1.179664
      1.172021     1.164377     1.156734     1.149091     1.141448     1.133805     1.126162     1.118519     1.110876     1.103233
      1.095590     1.087946     1.080303     1.072660     1.065017     1.057374     1.049731     1.042088     1.034445     1.026802
      1.019158     1.011515     1.003872     0.996229     0.988586     0.980943     0.973300     0.965657     0.958014     0.950371
      0.942727     0.935084     0.927441     0.919798     0.912155     0.904512     0.896869     0.889226     0.881583     0.873940
      0.866296     0.858653     0.851010     0.843367     0.835724     0.828081     0.820438     0.812795     0.805152     0.797508
      0.789865     0.782222     0.774579     0.766936     0.759293     0.751650     0.744007     0.736364     0.728721     0.721077
      0.713434     0.705791     0.698148     0.690505     0.682862     0.675219     0.667576     0.659933     0.652290     0.644646
      0.637003     0.629360     0.621717     0.614074     0.606431     0.598788     0.591145     0.583502     0.575858     0.568215
      0.560572     0.552929     0.545286     0.537643     0.530000     0.522357     0.514714     0.507071     0.499427     0.491784
      0.484141     0.476498     0.468855     0.461212     0.453569     0.445925     0.438282     0.430639     0.422996     0.415353
      0.407710     0.400067     0.392424     0.384780     0.377137     0.369494     0.361851     0.354208     0.346565     0.338922
      0.331278     0.323635     0.315992     0.308349     0.300706     0.293063     0.285420     0.277777     0.270133     0.262490
      0.254847     0.247204     0.239561     0.231918     0.224275     0.216631     0.208988     0.201345
 NY phased data points follow
  -2.02706E+02 -2.01943E+02 -2.00499E+02 -1.94739E+02 -1.90387E+02 -1.91567E+02 -1.84915E+02 -1.84433E+02 -1.82384E+02 -1.80845E+02
  -1.76453E+02 -1.77347E+02 -1.74184E+02 -1.72399E+02 -1.72378E+02 -1.73454E+02 -1.70492E+02 -1.71007E+02 -1.68965E+02 -1.67687E+02
  -1.65704E+02 -1.65997E+02 -1.62884E+02 -1.60393E+02 -1.58055E+02 -1.54169E+02 -1.52955E+02 -1.53493E+02 -1.48905E+02 -1.46716E+02
  -1.45659E+02 -1.45162E+02 -1.44397E+02 -1.40547E+02 -1.37446E+02 -1.36361E+02 -1.36736E+02 -1.33781E+02 -1.33087E+02 -1.32165E+02
  -1.28659E+02 -1.27056E+02 -1.27066E+02 -1.26141E+02 -1.25105E+02 -1.24808E+02 -1.19055E+02 -1.19473E+02 -1.21355E+02 -1.18412E+02
  -1.16742E+02 -1.18721E+02 -1.19804E+02 -1.14481E+02 -1.17102E+02 -1.16287E+02 -1.15534E+02 -1.14303E+02 -1.12770E+02 -1.14580E+02
  -1.12108E+02 -1.14493E+02 -1.13574E+02 -1.11194E+02 -1.10113E+02 -1.10556E+02 -1.11836E+02 -1.09621E+02 -1.08297E+02 -1.06679E+02
  -1.08511E+02 -1.03639E+02 -1.04564E+02 -1.03881E+02 -1.03107E+02 -1.00527E+02 -1.04488E+02 -1.00813E+02 -9.83238E+01 -9.75372E+01
  -9.67749E+01 -9.75337E+01 -9.90119E+01 -9.50828E+01 -9.58344E+01 -9.29477E+01 -9.37655E+01 -9.27247E+01 -9.14577E+01 -9.09827E+01
  -9.01188E+01 -8.87781E+01 -8.65543E+01 -8.80334E+01 -8.74994E+01 -8.74640E+01 -8.54090E+01 -8.19347E+01 -8.30306E+01 -8.10249E+01
  -7.84804E+01 -7.79738E+01 -7.61517E+01 -7.44326E+01 -7.55565E+01 -7.35573E+01 -7.60524E+01 -7.54091E+01 -7.66985E+01 -7.70523E+01
  -7.55254E+01 -7.47932E+01 -7.56939E+01 -7.55899E+01 -7.54980E+01 -7.65768E+01 -7.33335E+01 -7.62990E+01 -7.63778E+01 -7.28891E+01
  -7.33548E+01 -7.28489E+01 -6.94506E+01 -7.02568E+01 -6.86258E+01 -6.84353E+01 -6.81341E+01 -6.43476E+01 -6.35547E+01 -6.58295E+01
  -6.53515E+01 -6.51051E+01 -6.53922E+01 -6.87425E+01 -6.98222E+01 -6.86549E+01 -6.82885E+01 -6.81734E+01 -6.63401E+01 -6.74370E+01
  -6.52513E+01 -6.54997E+01 -6.34227E+01 -6.58760E+01 -6.52120E+01 -6.38496E+01 -6.23270E+01 -6.42909E+01 -6.30284E+01 -6.22064E+01
  -6.11309E+01 -6.26232E+01 -6.08587E+01 -6.04177E+01 -5.94071E+01 -5.96801E+01 -5.82710E+01 -5.72052E+01 -5.69706E+01 -5.51616E+01
  -5.86066E+01 -5.69874E+01 -5.49795E+01 -5.52815E+01 -5.70806E+01 -6.05676E+01 -5.83131E+01 -5.68451E+01 -5.61217E+01 -5.88705E+01
  -5.91759E+01 -5.76201E+01 -5.59014E+01 -5.78383E+01 -5.96991E+01 -6.21027E+01 -5.59366E+01 -5.93235E+01 -5.89497E+01 -5.75316E+01
  -5.80165E+01 -5.71891E+01 -5.59213E+01 -5.66642E+01 -5.53308E+01 -5.55796E+01 -5.59363E+01 -5.48990E+01 -5.37647E+01 -5.41509E+01
  -5.35881E+01 -5.44015E+01 -5.19571E+01 -5.31323E+01 -5.08811E+01 -5.08574E+01 -5.13294E+01 -5.05018E+01 -5.25435E+01 -5.07184E+01
  -5.15393E+01 -5.01658E+01 -4.82001E+01 -4.88656E+01 -4.80596E+01 -5.07395E+01 -4.72650E+01 -5.01237E+01 -5.24829E+01 -4.79931E+01
  -4.79929E+01 -5.00353E+01 -5.05948E+01 -4.55603E+01 -4.98179E+01 -4.87840E+01 -4.92051E+01 -4.45606E+01 -4.50300E+01 -4.44069E+01
  -4.86891E+01 -4.55424E+01 -4.70805E+01 -4.72536E+01 -4.52752E+01 -4.19029E+01 -4.54363E+01 -4.35244E+01 -4.36208E+01 -4.63767E+01
  -4.33886E+01 -4.44043E+01 -4.50474E+01 -4.48730E+01 -4.27515E+01 -4.27745E+01 -4.29062E+01 -4.35336E+01 -4.27545E+01 -4.49680E+01
  -4.20051E+01 -4.06176E+01 -4.16867E+01 -4.38288E+01 -4.33854E+01 -4.27638E+01 -4.16959E+01 -4.10018E+01 -4.03586E+01 -3.86363E+01
  -3.80771E+01 -3.85092E+01 -4.04748E+01 -3.78395E+01 -3.61032E+01 -3.42291E+01 -3.13223E+01 -3.26437E+01 -2.82516E+01 -2.81728E+01
  -2.83443E+01 -2.96214E+01 -2.69264E+01 -3.06951E+01 -3.28331E+01 -2.98993E+01 -3.41493E+01 -3.38117E+01 -3.59908E+01 -3.82970E+01
  -3.29553E+01 -3.65059E+01 -3.50374E+01 -3.68210E+01 -3.59940E+01 -3.62476E+01 -3.47489E+01 -3.55333E+01 -3.49507E+01 -3.49374E+01
  -3.70362E+01 -3.68380E+01 -3.56349E+01 -3.65059E+01 -3.77043E+01 -3.48517E+01 -3.50464E+01 -3.65955E+01 -3.54055E+01 -3.61963E+01
  -3.68545E+01 -3.20991E+01 -3.49588E+01 -3.10371E+01 -3.61370E+01 -3.17619E+01 -3.49263E+01 -3.04056E+01 -3.10148E+01 -3.17966E+01
  -3.49931E+01 -3.09022E+01 -2.93769E+01 -3.33639E+01 -3.01049E+01 -2.97403E+01 -2.71735E+01 -2.73647E+01 -2.67930E+01 -2.67716E+01
  -2.66263E+01 -2.48037E+01 -2.42968E+01 -2.53825E+01 -2.54594E+01 -2.54858E+01 -2.79727E+01 -2.83011E+01 -2.75964E+01 -2.87460E+01
  -2.84164E+01 -2.64678E+01 -2.28479E+01 -2.49946E+01 -2.43439E+01 -2.84771E+01 -2.71082E+01 -2.44617E+01 -2.56512E+01 -2.53327E+01
  -2.75700E+01 -2.89891E+01 -2.78043E+01 -2.77762E+01 -2.80113E+01 -2.36732E+01 -2.73450E+01 -2.87597E+01 -2.53067E+01 -2.63105E+01
  -2.53216E+01 -2.76827E+01 -2.74560E+01 -2.77713E+01 -2.59032E+01 -2.86821E+01 -3.03500E+01 -3.14766E+01 -2.91518E+01 -2.80529E+01
  -2.94498E+01 -2.93265E+01 -3.02645E+01 -2.90911E+01 -3.09697E+01 -3.00821E+01 -3.08847E+01 -3.17251E+01 -3.23013E+01 -3.12648E+01
  -3.23482E+01 -3.09602E+01 -3.28105E+01 -3.44491E+01 -3.42315E+01 -3.41152E+01 -3.22772E+01 -3.18301E+01 -3.45250E+01 -2.97071E+01
  -3.31552E+01 -3.25914E+01 -3.33194E+01 -3.05691E+01 -3.31808E+01 -3.29110E+01 -3.33689E+01 -3.44530E+01 -3.46985E+01 -3.47645E+01
  -3.41146E+01 -3.72157E+01 -3.36048E+01 -3.53190E+01 -3.73283E+01 -3.84956E+01 -3.49291E+01 -3.47827E+01 -3.14075E+01 -3.43035E+01
  -3.57363E+01 -3.28469E+01 -3.20255E+01 -3.31293E+01 -3.41823E+01 -3.18954E+01 -3.12747E+01 -3.14327E+01 -3.15796E+01 -3.02430E+01
  -3.02946E+01 -3.04950E+01 -3.22916E+01 -2.94074E+01 -2.86136E+01 -3.08852E+01 -3.05693E+01 -3.18100E+01 -3.03115E+01 -2.95136E+01
  -3.18299E+01 -3.01810E+01 -3.00625E+01 -2.81896E+01 -3.01299E+01 -3.27315E+01 -3.13806E+01 -3.00133E+01 -3.17618E+01 -3.18881E+01
  -3.16471E+01 -3.07260E+01 -3.56937E+01 -3.41738E+01 -3.28029E+01 -3.16751E+01 -3.47321E+01 -3.36679E+01 -3.03431E+01 -3.14525E+01
  -3.13096E+01 -3.13660E+01 -3.05909E+01 -2.92667E+01 -2.90718E+01 -2.97090E+01 -3.14712E+01 -2.62255E+01 -2.92536E+01 -2.89019E+01
  -2.99610E+01 -3.15310E+01 -2.96199E+01 -3.18208E+01 -2.67586E+01 -2.70022E+01 -2.91312E+01 -2.63666E+01 -2.75041E+01 -2.84023E+01
  -2.92391E+01 -2.70345E+01 -2.63166E+01 -2.84843E+01 -2.67693E+01 -2.88781E+01 -2.74290E+01 -2.78463E+01 -2.71547E+01 -2.87903E+01
  -2.69052E+01 -2.77472E+01 -2.39798E+01 -2.58660E+01 -2.73675E+01 -2.67813E+01 -2.82946E+01 -2.71618E+01 -2.64155E+01 -2.78535E+01
  -2.86295E+01 -2.76838E+01 -2.47480E+01 -2.73314E+01 -2.60561E+01 -2.72818E+01 -2.46736E+01 -2.51423E+01 -2.59370E+01 -2.50091E+01
  -2.63859E+01 -2.62718E+01 -2.31005E+01 -2.45270E+01 -2.43224E+01 -2.60385E+01 -2.56660E+01 -2.29295E+01 -2.48653E+01 -2.63176E+01
  -2.29942E+01 -2.06119E+01 -2.36647E+01 -2.37446E+01 -2.00683E+01 -2.17665E+01 -2.10092E+01 -2.18141E+01
 NY points of the fit to the data follow
  -1.97902E+02 -1.96323E+02 -1.94428E+02 -1.92705E+02 -1.91160E+02 -1.89394E+02 -1.87452E+02 -1.85637E+02 -1.83819E+02 -1.81898E+02
  -1.80069E+02 -1.78447E+02 -1.76866E+02 -1.75230E+02 -1.73583E+02 -1.72119E+02 -1.71034E+02 -1.69831E+02 -1.68093E+02 -1.66180E+02
  -1.64530E+02 -1.63021E+02 -1.61213E+02 -1.59419E+02 -1.57599E+02 -1.55443E+02 -1.53117E+02 -1.51249E+02 -1.49543E+02 -1.47396E+02
  -1.45291E+02 -1.43560E+02 -1.41852E+02 -1.40056E+02 -1.38520E+02 -1.37326E+02 -1.36310E+02 -1.35726E+02 -1.35401E+02 -1.34329E+02
  -1.32279E+02 -1.30155E+02 -1.28675E+02 -1.27588E+02 -1.26449E+02 -1.25275E+02 -1.24075E+02 -1.22781E+02 -1.21427E+02 -1.20345E+02
  -1.19604E+02 -1.19155E+02 -1.18793E+02 -1.18367E+02 -1.17910E+02 -1.17214E+02 -1.16230E+02 -1.15338E+02 -1.14746E+02 -1.14202E+02
  -1.13302E+02 -1.12239E+02 -1.11318E+02 -1.10483E+02 -1.09598E+02 -1.08685E+02 -1.07853E+02 -1.07045E+02 -1.06132E+02 -1.05183E+02
  -1.04330E+02 -1.03567E+02 -1.02819E+02 -1.02099E+02 -1.01380E+02 -1.00618E+02 -9.98816E+01 -9.93595E+01 -9.88484E+01 -9.82195E+01
  -9.75860E+01 -9.70843E+01 -9.66458E+01 -9.61730E+01 -9.56333E+01 -9.50807E+01 -9.45760E+01 -9.40637E+01 -9.35228E+01 -9.29490E+01
  -9.22957E+01 -9.12337E+01 -8.94489E+01 -8.83891E+01 -8.79084E+01 -8.66202E+01 -8.44371E+01 -8.25398E+01 -8.14262E+01 -8.02976E+01
  -7.87085E+01 -7.72973E+01 -7.61807E+01 -7.51083E+01 -7.43565E+01 -7.42636E+01 -7.45178E+01 -7.48057E+01 -7.52338E+01 -7.57972E+01
  -7.63207E+01 -7.65287E+01 -7.63526E+01 -7.63029E+01 -7.66358E+01 -7.67375E+01 -7.60665E+01 -7.55539E+01 -7.50558E+01 -7.40269E+01
  -7.26729E+01 -7.15451E+01 -7.06831E+01 -6.96877E+01 -6.86211E+01 -6.77990E+01 -6.70445E+01 -6.62413E+01 -6.56850E+01 -6.54945E+01
  -6.54613E+01 -6.54175E+01 -6.54850E+01 -6.56748E+01 -6.57952E+01 -6.57120E+01 -6.55352E+01 -6.55298E+01 -6.56941E+01 -6.57293E+01
  -6.54532E+01 -6.50646E+01 -6.46324E+01 -6.41816E+01 -6.37873E+01 -6.34905E+01 -6.32297E+01 -6.29499E+01 -6.26591E+01 -6.23748E+01
  -6.21091E+01 -6.18477E+01 -6.16046E+01 -6.13932E+01 -6.12106E+01 -6.10334E+01 -6.08279E+01 -6.05724E+01 -6.02952E+01 -6.00385E+01
  -5.98089E+01 -5.95830E+01 -5.93461E+01 -5.91090E+01 -5.88914E+01 -5.86927E+01 -5.84767E+01 -5.82326E+01 -5.80208E+01 -5.78634E+01
  -5.77354E+01 -5.75688E+01 -5.73487E+01 -5.71268E+01 -5.69467E+01 -5.68156E+01 -5.66781E+01 -5.64740E+01 -5.62299E+01 -5.59977E+01
  -5.57533E+01 -5.54605E+01 -5.51595E+01 -5.49650E+01 -5.47578E+01 -5.45073E+01 -5.43668E+01 -5.42833E+01 -5.41591E+01 -5.39838E+01
  -5.38010E+01 -5.35426E+01 -5.32818E+01 -5.31122E+01 -5.27200E+01 -5.20726E+01 -5.16236E+01 -5.12622E+01 -5.08924E+01 -5.08816E+01
  -5.06076E+01 -4.95504E+01 -4.89235E+01 -4.93516E+01 -4.98826E+01 -4.95223E+01 -4.94566E+01 -5.01735E+01 -5.05615E+01 -5.02104E+01
  -5.01057E+01 -5.04739E+01 -5.00787E+01 -4.86838E+01 -4.76669E+01 -4.73834E+01 -4.70137E+01 -4.64591E+01 -4.62580E+01 -4.66384E+01
  -4.70843E+01 -4.69541E+01 -4.64513E+01 -4.61205E+01 -4.58841E+01 -4.56753E+01 -4.53887E+01 -4.47273E+01 -4.41288E+01 -4.38454E+01
  -4.35421E+01 -4.30753E+01 -4.30471E+01 -4.27884E+01 -4.19905E+01 -4.15401E+01 -4.18973E+01 -4.23188E+01 -4.22879E+01 -4.22819E+01
  -4.25093E+01 -4.25937E+01 -4.25577E+01 -4.27586E+01 -4.30450E+01 -4.30686E+01 -4.30354E+01 -4.28922E+01 -4.21685E+01 -4.06561E+01
  -3.91313E+01 -3.85935E+01 -3.81094E+01 -3.66103E+01 -3.46193E+01 -3.30841E+01 -3.21239E+01 -3.10987E+01 -3.01775E+01 -2.97411E+01
  -2.94137E+01 -2.90325E+01 -2.90806E+01 -2.97011E+01 -3.04741E+01 -3.12819E+01 -3.22789E+01 -3.33730E+01 -3.42970E+01 -3.47705E+01
  -3.49612E+01 -3.53913E+01 -3.61409E+01 -3.66752E+01 -3.67475E+01 -3.66900E+01 -3.65845E+01 -3.64333E+01 -3.62942E+01 -3.61773E+01
  -3.60676E+01 -3.59601E+01 -3.58260E+01 -3.56608E+01 -3.54990E+01 -3.53610E+01 -3.52202E+01 -3.50549E+01 -3.48736E+01 -3.46797E+01
  -3.44670E+01 -3.42315E+01 -3.39731E+01 -3.36983E+01 -3.34099E+01 -3.31026E+01 -3.27744E+01 -3.24268E+01 -3.20598E+01 -3.16715E+01
  -3.12643E+01 -3.08439E+01 -3.04147E+01 -2.99820E+01 -2.95537E+01 -2.91368E+01 -2.87374E+01 -2.83629E+01 -2.80200E+01 -2.77132E+01
  -2.74451E+01 -2.72168E+01 -2.70272E+01 -2.68714E+01 -2.67391E+01 -2.66056E+01 -2.64441E+01 -2.64138E+01 -2.65147E+01 -2.65052E+01
  -2.63909E+01 -2.63722E+01 -2.65207E+01 -2.67052E+01 -2.67189E+01 -2.66447E+01 -2.67623E+01 -2.69783E+01 -2.71009E+01 -2.71380E+01
  -2.71857E+01 -2.72593E+01 -2.72916E+01 -2.72610E+01 -2.72063E+01 -2.71018E+01 -2.69322E+01 -2.68365E+01 -2.69097E+01 -2.70407E+01
  -2.71175E+01 -2.72176E+01 -2.74223E+01 -2.76961E+01 -2.79608E+01 -2.81861E+01 -2.84469E+01 -2.88037E+01 -2.91887E+01 -2.95130E+01
  -2.97970E+01 -3.00566E+01 -3.02979E+01 -3.05237E+01 -3.07363E+01 -3.09375E+01 -3.11287E+01 -3.13115E+01 -3.14870E+01 -3.16563E+01
  -3.18203E+01 -3.19798E+01 -3.21354E+01 -3.22875E+01 -3.24365E+01 -3.25826E+01 -3.27259E+01 -3.28663E+01 -3.30037E+01 -3.31375E+01
  -3.32671E+01 -3.33920E+01 -3.35113E+01 -3.36242E+01 -3.37295E+01 -3.38264E+01 -3.39136E+01 -3.39900E+01 -3.40545E+01 -3.41056E+01
  -3.41423E+01 -3.41629E+01 -3.41662E+01 -3.41507E+01 -3.41150E+01 -3.40577E+01 -3.39776E+01 -3.38736E+01 -3.37450E+01 -3.35915E+01
  -3.34133E+01 -3.32113E+01 -3.29871E+01 -3.27432E+01 -3.24831E+01 -3.22111E+01 -3.19323E+01 -3.16527E+01 -3.13786E+01 -3.11167E+01
  -3.08738E+01 -3.06563E+01 -3.04697E+01 -3.03188E+01 -3.02069E+01 -3.01362E+01 -3.01070E+01 -3.01181E+01 -3.01667E+01 -3.02490E+01
  -3.03600E+01 -3.04937E+01 -3.06437E+01 -3.08034E+01 -3.09663E+01 -3.11263E+01 -3.12780E+01 -3.14167E+01 -3.15387E+01 -3.16412E+01
  -3.17225E+01 -3.17815E+01 -3.18180E+01 -3.18325E+01 -3.18258E+01 -3.17993E+01 -3.17545E+01 -3.16930E+01 -3.16167E+01 -3.15271E+01
  -3.14261E+01 -3.13150E+01 -3.11953E+01 -3.10683E+01 -3.09351E+01 -3.07968E+01 -3.06543E+01 -3.05084E+01 -3.03598E+01 -3.02091E+01
  -3.00568E+01 -2.99036E+01 -2.97498E+01 -2.95958E+01 -2.94421E+01 -2.92891E+01 -2.91369E+01 -2.89860E+01 -2.88367E+01 -2.86892E+01
  -2.85438E+01 -2.84008E+01 -2.82605E+01 -2.81230E+01 -2.79881E+01 -2.78558E+01 -2.77259E+01 -2.75983E+01 -2.74728E+01 -2.73493E+01
  -2.72275E+01 -2.71074E+01 -2.69887E+01 -2.68714E+01 -2.67552E+01 -2.66400E+01 -2.65257E+01 -2.64120E+01 -2.62987E+01 -2.61859E+01
  -2.60731E+01 -2.59603E+01 -2.58474E+01 -2.57341E+01 -2.56202E+01 -2.55057E+01 -2.53902E+01 -2.52737E+01 -2.51560E+01 -2.50370E+01
  -2.49163E+01 -2.47939E+01 -2.46695E+01 -2.45431E+01 -2.44144E+01 -2.42832E+01 -2.41495E+01 -2.40129E+01 -2.38733E+01 -2.37305E+01
  -2.35845E+01 -2.34349E+01 -2.32815E+01 -2.31243E+01 -2.29630E+01 -2.27974E+01 -2.26274E+01 -2.24527E+01
 NY background values follow
    -2.033E+02   -2.016E+02   -1.998E+02   -1.981E+02   -1.964E+02   -1.947E+02   -1.930E+02   -1.913E+02   -1.896E+02   -1.879E+02
    -1.862E+02   -1.846E+02   -1.829E+02   -1.812E+02   -1.796E+02   -1.779E+02   -1.763E+02   -1.746E+02   -1.730E+02   -1.714E+02
    -1.698E+02   -1.682E+02   -1.666E+02   -1.650E+02   -1.635E+02   -1.619E+02   -1.604E+02   -1.588E+02   -1.573E+02   -1.558E+02
    -1.543E+02   -1.528E+02   -1.514E+02   -1.499E+02   -1.485E+02   -1.471E+02   -1.457E+02   -1.443E+02   -1.429E+02   -1.415E+02
    -1.402E+02   -1.389E+02   -1.376E+02   -1.363E+02   -1.350E+02   -1.338E+02   -1.326E+02   -1.314E+02   -1.302E+02   -1.290E+02
    -1.279E+02   -1.267E+02   -1.256E+02   -1.245E+02   -1.234E+02   -1.224E+02   -1.213E+02   -1.203E+02   -1.193E+02   -1.183E+02
    -1.173E+02   -1.164E+02   -1.154E+02   -1.145E+02   -1.135E+02   -1.126E+02   -1.117E+02   -1.109E+02   -1.100E+02   -1.091E+02
    -1.083E+02   -1.074E+02   -1.066E+02   -1.058E+02   -1.050E+02   -1.042E+02   -1.034E+02   -1.026E+02   -1.019E+02   -1.011E+02
    -1.004E+02   -9.964E+01   -9.891E+01   -9.819E+01   -9.748E+01   -9.677E+01   -9.607E+01   -9.537E+01   -9.468E+01   -9.400E+01
    -9.332E+01   -9.265E+01   -9.198E+01   -9.131E+01   -9.065E+01   -9.000E+01   -8.935E+01   -8.871E+01   -8.807E+01   -8.743E+01
    -8.680E+01   -8.618E+01   -8.556E+01   -8.495E+01   -8.434E+01   -8.374E+01   -8.314E+01   -8.255E+01   -8.196E+01   -8.138E+01
    -8.080E+01   -8.023E+01   -7.967E+01   -7.911E+01   -7.855E+01   -7.800E+01   -7.746E+01   -7.692E+01   -7.639E+01   -7.586E+01
    -7.534E+01   -7.483E+01   -7.432E+01   -7.381E+01   -7.332E+01   -7.282E+01   -7.234E+01   -7.186E+01   -7.138E+01   -7.091E+01
    -7.045E+01   -7.000E+01   -6.955E+01   -6.910E+01   -6.866E+01   -6.823E+01   -6.781E+01   -6.739E+01   -6.697E+01   -6.656E+01
    -6.616E+01   -6.577E+01   -6.538E+01   -6.499E+01   -6.461E+01   -6.424E+01   -6.387E+01   -6.351E+01   -6.316E+01   -6.280E+01
    -6.246E+01   -6.212E+01   -6.178E+01   -6.145E+01   -6.113E+01   -6.081E+01   -6.049E+01   -6.018E+01   -5.988E+01   -5.958E+01
    -5.928E+01   -5.899E+01   -5.871E+01   -5.842E+01   -5.815E+01   -5.787E+01   -5.760E+01   -5.734E+01   -5.708E+01   -5.682E+01
    -5.657E+01   -5.632E+01   -5.608E+01   -5.584E+01   -5.560E+01   -5.537E+01   -5.514E+01   -5.492E+01   -5.470E+01   -5.448E+01
    -5.426E+01   -5.405E+01   -5.384E+01   -5.364E+01   -5.344E+01   -5.324E+01   -5.304E+01   -5.285E+01   -5.266E+01   -5.248E+01
    -5.229E+01   -5.211E+01   -5.193E+01   -5.176E+01   -5.158E+01   -5.141E+01   -5.124E+01   -5.108E+01   -5.091E+01   -5.075E+01
    -5.059E+01   -5.043E+01   -5.027E+01   -5.012E+01   -4.996E+01   -4.981E+01   -4.966E+01   -4.951E+01   -4.937E+01   -4.922E+01
    -4.908E+01   -4.893E+01   -4.879E+01   -4.865E+01   -4.851E+01   -4.837E+01   -4.823E+01   -4.809E+01   -4.796E+01   -4.782E+01
    -4.768E+01   -4.755E+01   -4.741E+01   -4.728E+01   -4.714E+01   -4.701E+01   -4.687E+01   -4.674E+01   -4.660E+01   -4.647E+01
    -4.633E+01   -4.619E+01   -4.606E+01   -4.592E+01   -4.579E+01   -4.565E+01   -4.551E+01   -4.537E+01   -4.523E+01   -4.510E+01
    -4.495E+01   -4.481E+01   -4.467E+01   -4.453E+01   -4.439E+01   -4.424E+01   -4.409E+01   -4.395E+01   -4.380E+01   -4.365E+01
    -4.350E+01   -4.335E+01   -4.319E+01   -4.304E+01   -4.288E+01   -4.272E+01   -4.256E+01   -4.240E+01   -4.224E+01   -4.208E+01
    -4.191E+01   -4.174E+01   -4.157E+01   -4.140E+01   -4.122E+01   -4.104E+01   -4.087E+01   -4.068E+01   -4.050E+01   -4.031E+01
    -4.013E+01   -3.993E+01   -3.974E+01   -3.955E+01   -3.935E+01   -3.915E+01   -3.895E+01   -3.874E+01   -3.854E+01   -3.834E+01
    -3.813E+01   -3.792E+01   -3.772E+01   -3.751E+01   -3.731E+01   -3.710E+01   -3.690E+01   -3.669E+01   -3.649E+01   -3.629E+01
    -3.609E+01   -3.589E+01   -3.570E+01   -3.551E+01   -3.532E+01   -3.513E+01   -3.495E+01   -3.477E+01   -3.459E+01   -3.442E+01
    -3.425E+01   -3.408E+01   -3.393E+01   -3.377E+01   -3.362E+01   -3.348E+01   -3.334E+01   -3.320E+01   -3.308E+01   -3.295E+01
    -3.284E+01   -3.273E+01   -3.263E+01   -3.254E+01   -3.245E+01   -3.237E+01   -3.230E+01   -3.224E+01   -3.218E+01   -3.213E+01
    -3.209E+01   -3.206E+01   -3.204E+01   -3.202E+01   -3.201E+01   -3.200E+01   -3.200E+01   -3.201E+01   -3.203E+01   -3.204E+01
    -3.207E+01   -3.210E+01   -3.213E+01   -3.217E+01   -3.222E+01   -3.227E+01   -3.232E+01   -3.238E+01   -3.244E+01   -3.250E+01
    -3.257E+01   -3.264E+01   -3.271E+01   -3.279E+01   -3.287E+01   -3.295E+01   -3.303E+01   -3.312E+01   -3.320E+01   -3.329E+01
    -3.338E+01   -3.347E+01   -3.356E+01   -3.365E+01   -3.374E+01   -3.383E+01   -3.392E+01   -3.402E+01   -3.411E+01   -3.420E+01
    -3.429E+01   -3.437E+01   -3.446E+01   -3.454E+01   -3.463E+01   -3.471E+01   -3.479E+01   -3.487E+01   -3.494E+01   -3.502E+01
    -3.509E+01   -3.516E+01   -3.522E+01   -3.529E+01   -3.535E+01   -3.541E+01   -3.546E+01   -3.552E+01   -3.556E+01   -3.561E+01
    -3.565E+01   -3.569E+01   -3.573E+01   -3.576E+01   -3.579E+01   -3.582E+01   -3.584E+01   -3.586E+01   -3.587E+01   -3.588E+01
    -3.589E+01   -3.589E+01   -3.588E+01   -3.587E+01   -3.586E+01   -3.584E+01   -3.582E+01   -3.579E+01   -3.576E+01   -3.572E+01
    -3.568E+01   -3.563E+01   -3.558E+01   -3.552E+01   -3.545E+01   -3.538E+01   -3.530E+01   -3.522E+01   -3.513E+01   -3.503E+01
    -3.493E+01   -3.483E+01   -3.472E+01   -3.460E+01   -3.448E+01   -3.435E+01   -3.423E+01   -3.409E+01   -3.395E+01   -3.381E+01
    -3.367E+01   -3.352E+01   -3.337E+01   -3.321E+01   -3.306E+01   -3.290E+01   -3.274E+01   -3.257E+01   -3.241E+01   -3.224E+01
    -3.207E+01   -3.190E+01   -3.173E+01   -3.156E+01   -3.139E+01   -3.121E+01   -3.104E+01   -3.087E+01   -3.070E+01   -3.053E+01
    -3.035E+01   -3.018E+01   -3.001E+01   -2.985E+01   -2.968E+01   -2.951E+01   -2.935E+01   -2.919E+01   -2.903E+01   -2.888E+01
    -2.872E+01   -2.857E+01   -2.842E+01   -2.828E+01   -2.814E+01   -2.800E+01   -2.787E+01   -2.773E+01   -2.760E+01   -2.747E+01
    -2.735E+01   -2.722E+01   -2.710E+01   -2.698E+01   -2.686E+01   -2.674E+01   -2.662E+01   -2.651E+01   -2.639E+01   -2.628E+01
    -2.616E+01   -2.605E+01   -2.593E+01   -2.581E+01   -2.570E+01   -2.558E+01   -2.546E+01   -2.535E+01   -2.523E+01   -2.511E+01
    -2.498E+01   -2.486E+01   -2.473E+01   -2.461E+01   -2.448E+01   -2.434E+01   -2.421E+01   -2.407E+01   -2.393E+01   -2.379E+01
    -2.364E+01   -2.349E+01   -2.334E+01   -2.318E+01   -2.302E+01   -2.285E+01   -2.268E+01   -2.251E+01
 Ala      Conc. = 1.80E+02
