 LCModel (Version 6.3-1L) Copyright: S.W. Provencher.          Ref.: Magn. Reson. Med. 30:672-679 (1993).                
 Slice#1 Row#2 Col#10  K_02_press_1_raw_act
 36 lines in following concentration table = NCONC+1
    Conc.  %SD /Cr+PCr  Metabolite                                         
    0.000 999%   0.000 Ala                                                 
   47.221 211%   0.107 Asp                                                 
    0.000 999%   0.000 Cr                                                  
  440.020  15%   1.000 PCr                                                 
   41.746 147% 9.5E-02 GABA                                                
   37.455 163% 8.5E-02 Glc                                                 
    0.000 999%   0.000 Gln                                                 
    0.000 999%   0.000 Glu                                                 
  147.679  15%   0.336 GPC                                                 
    0.000 999%   0.000 PCh                                                 
  200.826  46%   0.456 GSH                                                 
    0.000 999%   0.000 Ins                                                 
    0.000 999%   0.000 Lac                                                 
    0.000 999%   0.000 NAA                                                 
  602.779  17%   1.370 NAAG                                                
   39.965  45% 9.1E-02 Scyllo                                              
   93.671 103%   0.213 Tau                                                 
  280.042  36%   0.636 -CrCH2                                              
  147.679  15%   0.336 GPC+PCh                                             
  602.779  17%   1.370 NAA+NAAG                                            
  440.020  15%   1.000 Cr+PCr                                              
    0.000 999%   0.000 Glu+Gln                                             
    0.000 999%   0.000 Lip13a                                              
    0.000 999%   0.000 Lip13b                                              
 1.58E-03 999% 3.6E-06 Lip09                                               
  490.804  21%   1.115 MM09                                                
    0.000 999%   0.000 Lip20                                               
  376.471  77%   0.856 MM20                                                
    0.000 999%   0.000 MM12                                                
    0.000 999%   0.000 MM14                                                
 1.81E+03   5%   4.122+MM17                                                
    0.000 999%   0.000 Lip13a+Lip13b                                       
    0.000 999%   0.000 MM14+Lip13a+Lip13b+MM12                             
  490.805  21%   1.115 MM09+Lip09                                          
  376.471  77%   0.856 MM20+Lip20                                          
   6 lines in following misc. output table
  FWHM = 0.122 ppm    S/N =   3                                            
  Data shift = 0.153 ppm                                                   
  Ph:  61 deg      16.5 deg/ppm                                            
  alphaB,S = 8.5E+01,   1.0E+02                                            
   11 spline knots.   Ns = 9(2)                                            
   2 inflections.     1 extrema                                            
  498 points on ppm-axis = NY
      4.000000     3.992357     3.984714     3.977070     3.969427     3.961784     3.954141     3.946497     3.938854     3.931211
      3.923568     3.915925     3.908281     3.900638     3.892995     3.885352     3.877708     3.870065     3.862422     3.854779
      3.847136     3.839492     3.831849     3.824206     3.816563     3.808919     3.801276     3.793633     3.785990     3.778347
      3.770703     3.763060     3.755417     3.747774     3.740130     3.732487     3.724844     3.717201     3.709558     3.701914
      3.694271     3.686628     3.678985     3.671341     3.663698     3.656055     3.648412     3.640769     3.633125     3.625482
      3.617839     3.610196     3.602552     3.594909     3.587266     3.579623     3.571980     3.564336     3.556693     3.549050
      3.541407     3.533763     3.526120     3.518477     3.510834     3.503191     3.495547     3.487904     3.480261     3.472618
      3.464974     3.457331     3.449688     3.442045     3.434402     3.426758     3.419115     3.411472     3.403829     3.396185
      3.388542     3.380899     3.373256     3.365613     3.357969     3.350326     3.342683     3.335040     3.327396     3.319753
      3.312110     3.304467     3.296824     3.289180     3.281537     3.273894     3.266251     3.258607     3.250964     3.243321
      3.235678     3.228034     3.220391     3.212748     3.205105     3.197462     3.189818     3.182175     3.174532     3.166889
      3.159245     3.151602     3.143959     3.136316     3.128673     3.121029     3.113386     3.105743     3.098100     3.090456
      3.082813     3.075170     3.067527     3.059884     3.052240     3.044597     3.036954     3.029311     3.021667     3.014024
      3.006381     2.998738     2.991095     2.983451     2.975808     2.968165     2.960522     2.952878     2.945235     2.937592
      2.929949     2.922306     2.914662     2.907019     2.899376     2.891733     2.884089     2.876446     2.868803     2.861160
      2.853517     2.845873     2.838230     2.830587     2.822944     2.815300     2.807657     2.800014     2.792371     2.784728
      2.777084     2.769441     2.761798     2.754155     2.746511     2.738868     2.731225     2.723582     2.715939     2.708295
      2.700652     2.693009     2.685366     2.677722     2.670079     2.662436     2.654793     2.647150     2.639506     2.631863
      2.624220     2.616577     2.608933     2.601290     2.593647     2.586004     2.578361     2.570717     2.563074     2.555431
      2.547788     2.540144     2.532501     2.524858     2.517215     2.509572     2.501928     2.494285     2.486642     2.478999
      2.471355     2.463712     2.456069     2.448426     2.440783     2.433139     2.425496     2.417853     2.410210     2.402566
      2.394923     2.387280     2.379637     2.371994     2.364350     2.356707     2.349064     2.341421     2.333777     2.326134
      2.318491     2.310848     2.303205     2.295561     2.287918     2.280275     2.272632     2.264988     2.257345     2.249702
      2.242059     2.234416     2.226772     2.219129     2.211486     2.203843     2.196199     2.188556     2.180913     2.173270
      2.165627     2.157983     2.150340     2.142697     2.135054     2.127410     2.119767     2.112124     2.104481     2.096838
      2.089194     2.081551     2.073908     2.066265     2.058621     2.050978     2.043335     2.035692     2.028049     2.020405
      2.012762     2.005119     1.997476     1.989833     1.982190     1.974546     1.966903     1.959260     1.951617     1.943974
      1.936331     1.928688     1.921045     1.913402     1.905759     1.898115     1.890472     1.882829     1.875186     1.867543
      1.859900     1.852257     1.844614     1.836971     1.829327     1.821684     1.814041     1.806398     1.798755     1.791112
      1.783469     1.775826     1.768183     1.760540     1.752896     1.745253     1.737610     1.729967     1.722324     1.714681
      1.707038     1.699395     1.691752     1.684108     1.676465     1.668822     1.661179     1.653536     1.645893     1.638250
      1.630607     1.622964     1.615321     1.607677     1.600034     1.592391     1.584748     1.577105     1.569462     1.561819
      1.554176     1.546533     1.538890     1.531246     1.523603     1.515960     1.508317     1.500674     1.493031     1.485388
      1.477745     1.470102     1.462458     1.454815     1.447172     1.439529     1.431886     1.424243     1.416600     1.408957
      1.401314     1.393671     1.386027     1.378384     1.370741     1.363098     1.355455     1.347812     1.340169     1.332526
      1.324883     1.317240     1.309596     1.301953     1.294310     1.286667     1.279024     1.271381     1.263738     1.256095
      1.248452     1.240808     1.233165     1.225522     1.217879     1.210236     1.202593     1.194950     1.187307     1.179664
      1.172021     1.164377     1.156734     1.149091     1.141448     1.133805     1.126162     1.118519     1.110876     1.103233
      1.095590     1.087946     1.080303     1.072660     1.065017     1.057374     1.049731     1.042088     1.034445     1.026802
      1.019158     1.011515     1.003872     0.996229     0.988586     0.980943     0.973300     0.965657     0.958014     0.950371
      0.942727     0.935084     0.927441     0.919798     0.912155     0.904512     0.896869     0.889226     0.881583     0.873940
      0.866296     0.858653     0.851010     0.843367     0.835724     0.828081     0.820438     0.812795     0.805152     0.797508
      0.789865     0.782222     0.774579     0.766936     0.759293     0.751650     0.744007     0.736364     0.728721     0.721077
      0.713434     0.705791     0.698148     0.690505     0.682862     0.675219     0.667576     0.659933     0.652290     0.644646
      0.637003     0.629360     0.621717     0.614074     0.606431     0.598788     0.591145     0.583502     0.575858     0.568215
      0.560572     0.552929     0.545286     0.537643     0.530000     0.522357     0.514714     0.507071     0.499427     0.491784
      0.484141     0.476498     0.468855     0.461212     0.453569     0.445925     0.438282     0.430639     0.422996     0.415353
      0.407710     0.400067     0.392424     0.384780     0.377137     0.369494     0.361851     0.354208     0.346565     0.338922
      0.331278     0.323635     0.315992     0.308349     0.300706     0.293063     0.285420     0.277777     0.270133     0.262490
      0.254847     0.247204     0.239561     0.231918     0.224275     0.216631     0.208988     0.201345
 NY phased data points follow
  -4.08246E-01 -2.75086E+00  1.34535E+00  1.64418E+00  1.25451E+00 -3.63607E-01  1.59215E+00 -9.77459E-01  1.52663E+00 -3.18746E+00
   1.28475E+00 -7.76637E-01 -2.60399E-01 -2.72853E-01 -5.44794E+00 -1.28426E+00 -2.25290E+00 -4.73542E+00 -2.77454E-02 -5.20894E+00
  -5.90507E+00 -2.73080E+00  1.05590E+00 -1.59842E+00 -1.26878E+00 -1.77361E+00  4.58728E+00 -4.55886E+00  2.52030E+00  1.21834E+00
   1.03230E+00  5.27963E-01 -1.49894E-01  1.06842E+00  8.40993E-01  1.19476E+00  7.72555E-01  9.13802E-01  5.30923E+00 -1.51128E+00
   1.78944E+00  3.97653E-01  2.91910E-02 -1.72806E-02 -5.56012E-01  2.01316E-01 -1.87843E+00  1.55892E+00  1.56590E+00 -5.86736E+00
   1.10243E+00 -6.23678E-01 -3.51392E+00 -2.64556E+00 -8.86831E-01 -1.16331E+00 -3.03918E+00 -4.27414E+00  1.32732E+00 -5.91146E+00
  -3.78534E+00  1.78632E+00 -2.97053E+00 -5.47109E+00 -6.99960E+00  2.35194E-01 -3.46209E+00 -7.25487E-01 -5.89830E-01 -5.71148E+00
  -3.50406E+00 -6.20081E-03 -1.85927E+00  2.12477E+00 -2.57168E+00 -1.59646E+00 -3.60115E+00 -2.37805E+00 -4.01274E-01 -2.57603E+00
   5.42837E-01  2.29249E+00  5.21759E+00  5.71403E+00  1.32900E+00  3.19659E+00  1.62520E+00 -4.27794E+00 -1.86279E+00  1.66137E+00
   3.87017E+00  1.21007E-02  7.24876E+00  6.19115E+00  5.38759E+00  4.39536E+00  2.43762E+00  5.54596E+00  4.10802E+00  7.31369E+00
   9.42808E-01  4.23247E+00  1.71123E+00  5.55752E+00  4.70169E+00  3.73506E+00 -1.26427E-01  4.80981E+00  5.15610E+00  1.00539E+00
   9.50597E-01  4.23767E-01  3.07556E+00  1.84768E+00  4.81414E+00  2.50803E+00  4.48672E+00  5.43975E+00  6.70158E+00  3.12620E+00
   5.95898E+00  1.06087E+01  4.79378E+00  5.66119E+00  1.88661E+00  2.07981E+00  4.00023E+00  5.27236E+00 -5.43116E-01  4.31402E+00
   6.09669E+00  1.62319E+00  8.47903E-01  1.17575E+00  4.02700E+00  2.14386E+00  5.83435E+00  1.77681E+00 -3.66195E-01  1.75094E+00
  -5.84583E-01  2.15889E+00  2.50059E+00 -1.82602E+00 -1.46381E+00  3.00242E+00  3.19562E+00 -9.72378E-01 -5.68498E-01 -5.47819E+00
  -2.87840E+00 -2.47629E+00 -4.20979E+00 -3.98570E-01  1.90555E+00 -1.05062E+00 -1.38183E+00 -1.32442E-01 -2.48220E+00 -8.92658E-02
  -7.88391E-01 -3.25121E+00 -2.94061E+00 -1.69096E+00 -3.28989E+00 -3.36020E+00 -2.46361E+00  1.61230E+00 -3.52544E+00 -1.99988E+00
   1.46327E+00 -5.76628E-01 -1.35835E+00 -4.50346E+00 -1.06520E+00 -4.74885E+00 -5.96008E+00 -1.02198E-01 -9.87553E-01 -6.20433E+00
  -2.82734E-01 -2.65917E+00 -9.39266E-02 -2.56025E-01 -5.35348E-03  1.39760E+00 -6.54776E+00 -9.38354E+00 -4.24810E+00 -3.11465E+00
  -1.72616E+00 -1.47953E+00 -1.77582E-01  5.14248E-01 -2.10973E+00 -3.08163E+00 -1.08107E+00 -1.71541E-01 -4.87862E+00 -6.10661E-01
  -2.67120E+00 -2.99914E+00 -4.57371E+00 -4.17219E+00  4.53247E+00  2.81486E-01  4.72457E-01  1.37788E+00 -2.50143E+00 -5.19967E-01
  -4.12034E+00  9.49734E-01 -4.95432E+00 -1.28086E-02  1.70983E+00 -3.27827E+00 -5.30875E+00  2.83889E-01 -3.02069E+00 -3.41052E+00
  -9.92173E-01 -2.03422E+00  1.72351E+00 -1.50865E-01 -2.79499E+00 -3.23241E+00 -2.46791E+00 -2.67955E+00  2.64365E-01  2.66817E+00
  -2.82150E+00  1.36597E+00 -1.21346E+00  3.67077E+00  7.27126E-01  2.18049E+00  2.79570E+00  9.90906E-02  2.42944E+00  2.08706E+00
   4.20849E-01  4.88772E+00  7.82991E-01 -5.89183E-01 -3.17100E+00 -1.12381E-01 -9.51726E-01  3.17475E+00  8.26211E+00  1.02783E+01
   1.18888E+01  1.17152E+01  1.51412E+01  1.22179E+01  1.29908E+01  1.33509E+01  8.74358E+00  4.47512E+00  6.57597E+00  6.76358E+00
   1.07318E+00  4.39641E+00  3.32490E+00  2.30896E+00  4.74429E+00 -2.38510E+00 -2.82238E+00  1.88016E+00  1.33011E+00 -1.10159E+00
  -2.73599E+00 -1.19642E+00 -3.80210E+00 -6.30164E+00 -2.88305E+00  5.06317E-02 -3.75028E+00  8.45040E-01 -2.24304E+00 -7.69311E-01
  -1.45151E+00  2.07188E+00 -2.79676E+00 -1.37483E+00 -4.25313E-01 -9.70289E-01 -2.95843E+00  8.67253E-01 -2.30110E+00  2.60455E+00
  -1.36257E-01  2.13802E+00  3.44363E+00  2.64137E+00  1.39855E+00  5.88788E+00  3.07480E+00  6.21607E+00  8.19716E+00  8.02374E+00
   8.09962E+00  7.97296E+00  1.02890E+01  8.75962E+00  1.35211E+01  1.07449E+01  1.45337E+01  1.46500E+01  1.07610E+01  1.86448E+01
   1.88337E+01  1.55764E+01  8.98137E+00  1.67732E+01  1.24762E+01  1.70792E+01  1.11870E+01  1.32582E+01  1.08770E+01  8.23034E+00
   9.94851E+00  7.76856E+00  6.26036E+00  4.68254E+00  2.86006E+00  4.40176E+00  2.39096E+00  3.65009E+00 -1.14731E+00  2.26467E+00
   2.23047E+00  2.16147E-01  5.69799E-01  2.84761E+00 -7.47291E-01 -1.79876E+00 -1.99896E+00 -5.52288E+00 -1.94612E+00 -6.22596E-01
  -2.34316E+00 -2.09026E+00 -1.76930E+00 -2.84520E+00 -3.85533E+00 -8.58967E+00 -3.72016E+00 -6.04002E+00 -3.81166E+00 -7.32437E-01
  -1.11489E+00 -6.91970E+00 -3.42909E+00 -3.01838E+00  2.24370E+00 -5.74251E+00  1.11827E-01 -1.86190E+00 -3.96468E+00 -3.14784E+00
  -4.75563E+00 -4.25156E+00 -4.03339E+00 -4.79550E+00 -5.04085E+00 -3.43751E+00 -1.14445E+00 -1.25594E+00 -3.27115E+00 -2.53097E+00
   1.41764E+00 -5.52293E+00 -4.41371E+00  5.57560E-02  5.77109E-01 -2.22930E+00 -1.22600E+00  3.23784E+00  2.41357E+00 -1.04387E+00
   4.74998E-01 -3.31923E+00  4.52291E-01 -2.44007E+00 -2.99667E-01 -6.30235E-01 -7.62628E-01  2.24602E+00 -2.25204E+00  1.41729E+00
   1.86349E+00 -1.73016E+00 -1.99547E+00 -9.19645E-01 -2.41615E-01  3.34838E+00 -1.72450E+00  1.76296E+00  4.09878E+00  2.33281E+00
   6.45923E+00  5.21171E-01 -5.58684E-02  3.97903E+00 -1.70445E+00  7.91489E+00  3.72859E+00  3.51728E+00  2.84561E+00  1.49805E+00
   2.57043E+00  2.52133E+00  4.54480E+00  7.13410E-01 -8.44955E-01  4.60741E+00 -1.00042E+00  4.68636E+00  1.44475E+00  4.60242E+00
   3.01240E-01  1.66251E+00  2.31137E+00  2.55850E+00  8.73830E+00  2.89993E+00  1.35068E+00  4.87464E+00  3.55863E+00  2.25093E-01
   5.59177E+00  9.53793E-01  2.31042E+00 -2.27054E+00 -1.50229E+00 -3.92309E+00 -4.16503E+00  5.08012E+00  3.48359E+00 -4.83438E+00
   1.60428E+00  1.24236E+00 -6.50396E-01  1.96532E+00  2.15126E+00 -2.26673E+00 -9.95470E-01  1.28415E+00 -1.10899E+00 -8.13702E-01
   1.50907E+00  1.27379E+00 -6.48343E-01  1.46820E+00 -3.71826E+00  1.94523E+00 -1.26020E+00 -1.32568E+00 -7.39068E+00  1.50978E-02
   2.11430E+00 -3.87050E-01  5.02308E+00  4.82439E-01 -1.10822E+00  4.30454E+00 -2.93702E+00  3.81005E+00 -6.02738E-01  8.38220E-01
   1.92445E+00 -3.20864E+00  4.49150E+00 -4.60635E+00  1.58784E+00  1.45399E+00  8.77893E-01 -6.18483E-01  1.13734E+00 -2.72719E+00
  -7.15036E-01 -2.51881E+00  1.60000E+00 -3.83832E+00 -2.58428E+00  3.20515E+00 -5.88345E+00  9.14698E-01 -5.23701E-01 -4.23177E+00
  -2.90762E-01  3.07137E+00  2.02711E+00 -3.03955E+00  2.24999E+00  6.00853E-01  2.04809E+00 -2.78491E+00
 NY points of the fit to the data follow
  -2.01307E-01 -1.72242E-01  1.67110E-01  1.23169E-01  3.08769E-01  2.13069E-01  2.28010E-01  1.19270E-01  3.18370E-02 -7.27985E-02
  -2.13499E-01 -2.91438E-01 -3.99393E-01 -4.71064E-01 -5.81857E-01 -6.29365E-01 -6.63186E-01 -6.74630E-01 -5.64216E-01 -5.42340E-01
  -2.46303E-01 -2.39416E-01  1.69844E-01  9.87777E-02  5.07933E-01  3.40188E-01  6.50804E-01  3.89726E-01  5.38750E-01  2.54848E-01
   2.96922E-01  4.01222E-02  2.81262E-02 -1.85183E-01 -2.25569E-01 -4.07175E-01 -4.74724E-01 -6.31080E-01 -7.02166E-01 -8.34908E-01
  -8.89280E-01 -1.00404E+00 -1.03406E+00 -1.13924E+00 -1.15436E+00 -1.25122E+00 -1.25635E+00 -1.33797E+00 -1.32165E+00 -1.39931E+00
  -1.39728E+00 -1.46643E+00 -1.47265E+00 -1.53080E+00 -1.54489E+00 -1.58396E+00 -1.60397E+00 -1.61608E+00 -1.64394E+00 -1.63701E+00
  -1.67618E+00 -1.64670E+00 -1.69710E+00 -1.64849E+00 -1.69384E+00 -1.63279E+00 -1.66867E+00 -1.59919E+00 -1.59025E+00 -1.53065E+00
  -1.50246E+00 -1.45768E+00 -1.38526E+00 -1.34332E+00 -1.20619E+00 -1.15932E+00 -9.55239E-01 -9.09692E-01 -6.76114E-01 -6.55413E-01
  -4.52660E-01 -4.74310E-01 -3.52119E-01 -4.00504E-01 -2.57527E-01 -1.81600E-01 -1.08100E-01  9.05158E-02  1.98770E-01  6.74429E-01
   8.46133E-01  1.73394E+00  1.88951E+00  3.25152E+00  3.16219E+00  4.85363E+00  4.27110E+00  6.00172E+00  4.84939E+00  6.33757E+00
   4.75465E+00  5.85410E+00  4.14130E+00  4.89916E+00  3.29930E+00  3.80520E+00  2.41908E+00  2.78610E+00  1.78334E+00  2.05027E+00
   1.33649E+00  1.55928E+00  1.26114E+00  1.54393E+00  1.73067E+00  2.13933E+00  2.77842E+00  3.25646E+00  4.09813E+00  4.53326E+00
   5.25806E+00  5.55443E+00  5.83146E+00  5.85809E+00  5.66085E+00  5.44472E+00  4.94530E+00  4.56678E+00  3.96230E+00  3.51359E+00
   2.93471E+00  2.47759E+00  1.96853E+00  1.53836E+00  1.14969E+00  7.60593E-01  4.86641E-01  1.30049E-01 -5.58665E-02 -3.80787E-01
  -5.24414E-01 -8.08133E-01 -9.18186E-01 -1.14472E+00 -1.16946E+00 -1.34919E+00 -1.37732E+00 -1.52806E+00 -1.54181E+00 -1.65479E+00
  -1.67815E+00 -1.75954E+00 -1.80653E+00 -1.86751E+00 -1.93863E+00 -1.98951E+00 -2.08376E+00 -2.13115E+00 -2.23381E+00 -2.26377E+00
  -2.35341E+00 -2.36504E+00 -2.43352E+00 -2.43047E+00 -2.48049E+00 -2.47559E+00 -2.50362E+00 -2.49697E+00 -2.52063E+00 -2.51594E+00
  -2.53670E+00 -2.53410E+00 -2.53021E+00 -2.52719E+00 -2.46086E+00 -2.45930E+00 -2.32707E+00 -2.31566E+00 -2.12493E+00 -2.09925E+00
  -1.87838E+00 -1.82009E+00 -1.59756E+00 -1.53855E+00 -1.37227E+00 -1.33668E+00 -1.25855E+00 -1.25090E+00 -1.25671E+00 -1.24887E+00
  -1.29377E+00 -1.26674E+00 -1.30369E+00 -1.25299E+00 -1.26782E+00 -1.21544E+00 -1.21843E+00 -1.19868E+00 -1.20830E+00 -1.23032E+00
  -1.24133E+00 -1.29392E+00 -1.28694E+00 -1.34755E+00 -1.31893E+00 -1.37356E+00 -1.32615E+00 -1.36349E+00 -1.30151E+00 -1.31576E+00
  -1.24492E+00 -1.23759E+00 -1.16490E+00 -1.14774E+00 -1.07882E+00 -1.04553E+00 -9.84230E-01 -9.34179E-01 -8.80239E-01 -8.34789E-01
  -8.02296E-01 -7.75432E-01 -7.58711E-01 -7.30133E-01 -7.16946E-01 -6.61229E-01 -6.33990E-01 -5.43726E-01 -5.15268E-01 -4.20547E-01
  -4.26209E-01 -3.66937E-01 -4.15126E-01 -3.91183E-01 -4.46460E-01 -4.16952E-01 -4.15033E-01 -2.73435E-01  4.53104E-02  2.53272E-01
   7.40703E-01  1.01153E+00  1.82613E+00  2.17666E+00  3.44967E+00  3.85194E+00  5.63052E+00  5.93451E+00  7.95840E+00  7.93988E+00
   9.74314E+00  9.26263E+00  1.04685E+01  9.55518E+00  1.00552E+01  8.89673E+00  8.89950E+00  7.69522E+00  7.42951E+00  6.30036E+00
   5.90876E+00  4.90428E+00  4.43237E+00  3.58506E+00  3.11148E+00  2.43147E+00  2.00669E+00  1.47379E+00  1.11908E+00  7.02125E-01
   4.03016E-01  8.74124E-02 -1.34443E-01 -3.37545E-01 -3.96484E-01 -5.38815E-01 -5.58650E-01 -6.69132E-01 -6.39054E-01 -7.34484E-01
  -6.88139E-01 -7.74552E-01 -7.11477E-01 -7.75803E-01 -6.87770E-01 -7.14843E-01 -5.91589E-01 -5.63138E-01 -3.87212E-01 -2.77832E-01
  -2.16741E-02  2.03287E-01  5.76725E-01  9.58759E-01  1.48978E+00  2.06298E+00  2.78095E+00  3.56362E+00  4.47118E+00  5.44363E+00
   6.50366E+00  7.60387E+00  8.73464E+00  9.85393E+00  1.09322E+01  1.19324E+01  1.28138E+01  1.35499E+01  1.41008E+01  1.44557E+01
   1.45876E+01  1.45033E+01  1.41933E+01  1.36841E+01  1.29839E+01  1.21341E+01  1.11546E+01  1.00941E+01  8.97777E+00  7.85236E+00
   6.73869E+00  5.67551E+00  4.67409E+00  3.76150E+00  2.93749E+00  2.21774E+00  1.59188E+00  1.06692E+00  6.25757E-01  2.70439E-01
  -1.91689E-02 -2.42542E-01 -4.19996E-01 -5.50112E-01 -6.51668E-01 -7.21224E-01 -7.75420E-01 -8.08592E-01 -8.35362E-01 -8.48185E-01
  -8.60126E-01 -8.62278E-01 -8.66670E-01 -8.63512E-01 -8.64223E-01 -8.58493E-01 -8.57419E-01 -8.50403E-01 -8.48395E-01 -8.40644E-01
  -8.38045E-01 -8.29759E-01 -8.26675E-01 -8.17899E-01 -8.14333E-01 -8.05043E-01 -8.00950E-01 -7.91083E-01 -7.86386E-01 -7.75854E-01
  -7.70453E-01 -7.59142E-01 -7.52906E-01 -7.40667E-01 -7.33428E-01 -7.20070E-01 -7.11609E-01 -6.96883E-01 -6.86912E-01 -6.70483E-01
  -6.58618E-01 -6.40040E-01 -6.25759E-01 -6.04424E-01 -5.87014E-01 -5.62085E-01 -5.40565E-01 -5.10893E-01 -4.83919E-01 -4.47935E-01
  -4.13684E-01 -3.69287E-01 -3.25358E-01 -2.69832E-01 -2.13194E-01 -1.43211E-01 -7.02802E-02  1.79241E-02  1.10979E-01  2.21152E-01
   3.37796E-01  4.72873E-01  6.15232E-01  7.76214E-01  9.43835E-01  1.12850E+00  1.31709E+00  1.51886E+00  1.71943E+00  1.92688E+00
   2.12572E+00  2.32314E+00  2.50300E+00  2.67223E+00  2.81478E+00  2.93813E+00  3.02716E+00  3.09076E+00  3.11550E+00  3.11224E+00
   3.06964E+00  3.00071E+00  2.89615E+00  2.77081E+00  2.61688E+00  2.45040E+00  2.26426E+00  2.07481E+00  1.87479E+00  1.68009E+00
   1.48263E+00  1.29731E+00  1.11486E+00  9.48967E-01  7.89144E-01  6.47952E-01  5.13847E-01  3.98537E-01  2.89741E-01  1.98638E-01
   1.12530E-01  4.23656E-02 -2.47064E-02 -7.77507E-02 -1.29598E-01 -1.69197E-01 -2.09267E-01 -2.38585E-01 -2.69735E-01 -2.91313E-01
  -3.15772E-01 -3.31552E-01 -3.50999E-01 -3.62420E-01 -3.78089E-01 -3.86206E-01 -3.98993E-01 -4.04572E-01 -4.15133E-01 -4.18732E-01
  -4.27546E-01 -4.29581E-01 -4.37004E-01 -4.37782E-01 -4.44084E-01 -4.43841E-01 -4.49228E-01 -4.48143E-01 -4.52774E-01 -4.50991E-01
  -4.54992E-01 -4.52622E-01 -4.56092E-01 -4.53226E-01 -4.56246E-01 -4.52956E-01 -4.55592E-01 -4.51937E-01 -4.54243E-01 -4.50271E-01
  -4.52291E-01 -4.48045E-01 -4.49816E-01 -4.45327E-01 -4.46880E-01 -4.42178E-01 -4.43539E-01 -4.38648E-01 -4.39839E-01 -4.34779E-01
  -4.35818E-01 -4.30605E-01 -4.31508E-01 -4.26157E-01 -4.26937E-01 -4.21459E-01 -4.22125E-01 -4.16530E-01 -4.17092E-01 -4.11386E-01
  -4.11848E-01 -4.06035E-01 -4.06400E-01 -4.00480E-01 -4.00743E-01 -3.94709E-01 -3.94861E-01 -3.88695E-01
 NY background values follow
    -2.401E+00   -2.397E+00   -2.393E+00   -2.390E+00   -2.386E+00   -2.382E+00   -2.378E+00   -2.374E+00   -2.370E+00   -2.366E+00
    -2.362E+00   -2.358E+00   -2.354E+00   -2.350E+00   -2.346E+00   -2.343E+00   -2.339E+00   -2.335E+00   -2.331E+00   -2.327E+00
    -2.323E+00   -2.319E+00   -2.315E+00   -2.311E+00   -2.307E+00   -2.303E+00   -2.299E+00   -2.296E+00   -2.292E+00   -2.288E+00
    -2.284E+00   -2.280E+00   -2.276E+00   -2.272E+00   -2.268E+00   -2.264E+00   -2.260E+00   -2.256E+00   -2.252E+00   -2.249E+00
    -2.245E+00   -2.241E+00   -2.237E+00   -2.233E+00   -2.229E+00   -2.225E+00   -2.221E+00   -2.217E+00   -2.213E+00   -2.209E+00
    -2.205E+00   -2.202E+00   -2.198E+00   -2.194E+00   -2.190E+00   -2.186E+00   -2.182E+00   -2.178E+00   -2.174E+00   -2.170E+00
    -2.166E+00   -2.162E+00   -2.158E+00   -2.155E+00   -2.151E+00   -2.147E+00   -2.143E+00   -2.139E+00   -2.135E+00   -2.131E+00
    -2.127E+00   -2.123E+00   -2.119E+00   -2.115E+00   -2.111E+00   -2.108E+00   -2.104E+00   -2.100E+00   -2.096E+00   -2.092E+00
    -2.088E+00   -2.084E+00   -2.080E+00   -2.076E+00   -2.072E+00   -2.068E+00   -2.064E+00   -2.061E+00   -2.057E+00   -2.053E+00
    -2.049E+00   -2.045E+00   -2.041E+00   -2.037E+00   -2.033E+00   -2.029E+00   -2.025E+00   -2.021E+00   -2.017E+00   -2.014E+00
    -2.010E+00   -2.006E+00   -2.002E+00   -1.998E+00   -1.994E+00   -1.990E+00   -1.986E+00   -1.982E+00   -1.978E+00   -1.974E+00
    -1.970E+00   -1.967E+00   -1.963E+00   -1.959E+00   -1.955E+00   -1.951E+00   -1.947E+00   -1.943E+00   -1.939E+00   -1.935E+00
    -1.931E+00   -1.927E+00   -1.923E+00   -1.920E+00   -1.916E+00   -1.912E+00   -1.908E+00   -1.904E+00   -1.900E+00   -1.896E+00
    -1.892E+00   -1.888E+00   -1.884E+00   -1.880E+00   -1.876E+00   -1.873E+00   -1.869E+00   -1.865E+00   -1.861E+00   -1.857E+00
    -1.853E+00   -1.849E+00   -1.845E+00   -1.841E+00   -1.837E+00   -1.833E+00   -1.829E+00   -1.826E+00   -1.822E+00   -1.818E+00
    -1.814E+00   -1.810E+00   -1.806E+00   -1.802E+00   -1.798E+00   -1.794E+00   -1.790E+00   -1.786E+00   -1.782E+00   -1.779E+00
    -1.775E+00   -1.771E+00   -1.767E+00   -1.763E+00   -1.759E+00   -1.755E+00   -1.751E+00   -1.747E+00   -1.743E+00   -1.739E+00
    -1.735E+00   -1.732E+00   -1.728E+00   -1.724E+00   -1.720E+00   -1.716E+00   -1.712E+00   -1.708E+00   -1.704E+00   -1.700E+00
    -1.696E+00   -1.692E+00   -1.688E+00   -1.685E+00   -1.681E+00   -1.677E+00   -1.673E+00   -1.669E+00   -1.665E+00   -1.661E+00
    -1.657E+00   -1.653E+00   -1.649E+00   -1.645E+00   -1.641E+00   -1.638E+00   -1.634E+00   -1.630E+00   -1.626E+00   -1.622E+00
    -1.618E+00   -1.614E+00   -1.610E+00   -1.606E+00   -1.602E+00   -1.598E+00   -1.594E+00   -1.591E+00   -1.587E+00   -1.583E+00
    -1.579E+00   -1.575E+00   -1.571E+00   -1.567E+00   -1.563E+00   -1.559E+00   -1.555E+00   -1.551E+00   -1.547E+00   -1.544E+00
    -1.540E+00   -1.536E+00   -1.532E+00   -1.528E+00   -1.524E+00   -1.520E+00   -1.516E+00   -1.512E+00   -1.508E+00   -1.504E+00
    -1.500E+00   -1.497E+00   -1.493E+00   -1.489E+00   -1.485E+00   -1.481E+00   -1.477E+00   -1.473E+00   -1.469E+00   -1.465E+00
    -1.461E+00   -1.457E+00   -1.453E+00   -1.450E+00   -1.446E+00   -1.442E+00   -1.438E+00   -1.434E+00   -1.430E+00   -1.426E+00
    -1.422E+00   -1.418E+00   -1.414E+00   -1.410E+00   -1.406E+00   -1.403E+00   -1.399E+00   -1.395E+00   -1.391E+00   -1.387E+00
    -1.383E+00   -1.379E+00   -1.375E+00   -1.371E+00   -1.367E+00   -1.363E+00   -1.359E+00   -1.356E+00   -1.352E+00   -1.348E+00
    -1.344E+00   -1.340E+00   -1.336E+00   -1.332E+00   -1.328E+00   -1.324E+00   -1.320E+00   -1.316E+00   -1.312E+00   -1.309E+00
    -1.305E+00   -1.301E+00   -1.297E+00   -1.293E+00   -1.289E+00   -1.285E+00   -1.281E+00   -1.277E+00   -1.273E+00   -1.269E+00
    -1.265E+00   -1.262E+00   -1.258E+00   -1.254E+00   -1.250E+00   -1.246E+00   -1.242E+00   -1.238E+00   -1.234E+00   -1.230E+00
    -1.226E+00   -1.222E+00   -1.218E+00   -1.215E+00   -1.211E+00   -1.207E+00   -1.203E+00   -1.199E+00   -1.195E+00   -1.191E+00
    -1.187E+00   -1.183E+00   -1.179E+00   -1.175E+00   -1.171E+00   -1.168E+00   -1.164E+00   -1.160E+00   -1.156E+00   -1.152E+00
    -1.148E+00   -1.144E+00   -1.140E+00   -1.136E+00   -1.132E+00   -1.128E+00   -1.124E+00   -1.121E+00   -1.117E+00   -1.113E+00
    -1.109E+00   -1.105E+00   -1.101E+00   -1.097E+00   -1.093E+00   -1.089E+00   -1.085E+00   -1.081E+00   -1.077E+00   -1.073E+00
    -1.070E+00   -1.066E+00   -1.062E+00   -1.058E+00   -1.054E+00   -1.050E+00   -1.046E+00   -1.042E+00   -1.038E+00   -1.034E+00
    -1.030E+00   -1.026E+00   -1.023E+00   -1.019E+00   -1.015E+00   -1.011E+00   -1.007E+00   -1.003E+00   -9.990E-01   -9.951E-01
    -9.912E-01   -9.873E-01   -9.834E-01   -9.794E-01   -9.755E-01   -9.716E-01   -9.677E-01   -9.638E-01   -9.599E-01   -9.559E-01
    -9.520E-01   -9.481E-01   -9.442E-01   -9.403E-01   -9.363E-01   -9.324E-01   -9.285E-01   -9.246E-01   -9.207E-01   -9.168E-01
    -9.128E-01   -9.089E-01   -9.050E-01   -9.011E-01   -8.972E-01   -8.932E-01   -8.893E-01   -8.854E-01   -8.815E-01   -8.776E-01
    -8.736E-01   -8.697E-01   -8.658E-01   -8.619E-01   -8.580E-01   -8.541E-01   -8.501E-01   -8.462E-01   -8.423E-01   -8.384E-01
    -8.345E-01   -8.305E-01   -8.266E-01   -8.227E-01   -8.188E-01   -8.149E-01   -8.109E-01   -8.070E-01   -8.031E-01   -7.992E-01
    -7.953E-01   -7.913E-01   -7.874E-01   -7.835E-01   -7.796E-01   -7.757E-01   -7.718E-01   -7.678E-01   -7.639E-01   -7.600E-01
    -7.561E-01   -7.522E-01   -7.482E-01   -7.443E-01   -7.404E-01   -7.365E-01   -7.326E-01   -7.286E-01   -7.247E-01   -7.208E-01
    -7.169E-01   -7.130E-01   -7.090E-01   -7.051E-01   -7.012E-01   -6.973E-01   -6.934E-01   -6.894E-01   -6.855E-01   -6.816E-01
    -6.777E-01   -6.738E-01   -6.699E-01   -6.659E-01   -6.620E-01   -6.581E-01   -6.542E-01   -6.503E-01   -6.463E-01   -6.424E-01
    -6.385E-01   -6.346E-01   -6.307E-01   -6.267E-01   -6.228E-01   -6.189E-01   -6.150E-01   -6.111E-01   -6.071E-01   -6.032E-01
    -5.993E-01   -5.954E-01   -5.915E-01   -5.876E-01   -5.836E-01   -5.797E-01   -5.758E-01   -5.719E-01   -5.680E-01   -5.640E-01
    -5.601E-01   -5.562E-01   -5.523E-01   -5.484E-01   -5.444E-01   -5.405E-01   -5.366E-01   -5.327E-01   -5.288E-01   -5.248E-01
    -5.209E-01   -5.170E-01   -5.131E-01   -5.092E-01   -5.052E-01   -5.013E-01   -4.974E-01   -4.935E-01   -4.896E-01   -4.857E-01
    -4.817E-01   -4.778E-01   -4.739E-01   -4.700E-01   -4.661E-01   -4.621E-01   -4.582E-01   -4.543E-01
 Asp      Conc. = 4.72E+01
