 LCModel (Version 6.3-1L) Copyright: S.W. Provencher.          Ref.: Magn. Reson. Med. 30:672-679 (1993).                
 Slice#2 Row#5 Col#12  K_02_press_1_raw_act
 36 lines in following concentration table = NCONC+1
    Conc.  %SD /Cr+PCr  Metabolite                                         
  119.542 184%   0.160 Ala                                                 
    0.000 999%   0.000 Asp                                                 
   23.999 971% 3.2E-02 Cr                                                  
  725.400  32%   0.968 PCr                                                 
   30.572 427% 4.1E-02 GABA                                                
   18.717 667% 2.5E-02 Glc                                                 
 1.34E+03  30%   1.782 Gln                                                 
 1.65E+03  28%   2.204 Glu                                                 
  219.254  10%   0.293 GPC                                                 
    0.000 999%   0.000 PCh                                                 
  182.894  53%   0.244 GSH                                                 
  586.345  56%   0.782 Ins                                                 
  890.578  34%   1.188 Lac                                                 
 2.40E+03   4%   3.204 NAA                                                 
    0.000 999%   0.000 NAAG                                                
   98.622  28%   0.132 Scyllo                                              
  364.324  51%   0.486 Tau                                                 
  561.040  23%   0.749 -CrCH2                                              
  219.254  10%   0.293 GPC+PCh                                             
 2.40E+03   4%   3.204 NAA+NAAG                                            
  749.399   8%   1.000 Cr+PCr                                              
 2.99E+03  25%   3.986 Glu+Gln                                             
    0.000 999%   0.000 Lip13a                                              
 1.47E+03   9%   1.958 Lip13b                                              
   32.332 436% 4.3E-02 Lip09                                               
 1.25E+03  18%   1.663 MM09                                                
  235.568  42%   0.314 Lip20                                               
 2.44E+03  16%   3.258 MM20                                                
  340.254  37%   0.454 MM12                                                
 2.88E+03  14%   3.849+MM14                                                
 1.72E+03  16%   2.297+MM17                                                
 1.47E+03   9%   1.958 Lip13a+Lip13b                                       
 4.69E+03   9%   6.261 MM14+Lip13a+Lip13b+MM12                             
 1.28E+03  16%   1.706 MM09+Lip09                                          
 2.68E+03  14%   3.572 MM20+Lip20                                          
   6 lines in following misc. output table
  FWHM = 0.076 ppm    S/N =  11                                            
  Data shift = 0.015 ppm                                                   
  Ph: -63 deg     -30.4 deg/ppm                                            
  alphaB,S = 3.3E-01,   4.1E+02                                            
   14 spline knots.   Ns =11(1)                                            
  (19) 2 infls.   (11) 1 extrs.                                            
  498 points on ppm-axis = NY
      4.000000     3.992357     3.984714     3.977070     3.969427     3.961784     3.954141     3.946497     3.938854     3.931211
      3.923568     3.915925     3.908281     3.900638     3.892995     3.885352     3.877708     3.870065     3.862422     3.854779
      3.847136     3.839492     3.831849     3.824206     3.816563     3.808919     3.801276     3.793633     3.785990     3.778347
      3.770703     3.763060     3.755417     3.747774     3.740130     3.732487     3.724844     3.717201     3.709558     3.701914
      3.694271     3.686628     3.678985     3.671341     3.663698     3.656055     3.648412     3.640769     3.633125     3.625482
      3.617839     3.610196     3.602552     3.594909     3.587266     3.579623     3.571980     3.564336     3.556693     3.549050
      3.541407     3.533763     3.526120     3.518477     3.510834     3.503191     3.495547     3.487904     3.480261     3.472618
      3.464974     3.457331     3.449688     3.442045     3.434402     3.426758     3.419115     3.411472     3.403829     3.396185
      3.388542     3.380899     3.373256     3.365613     3.357969     3.350326     3.342683     3.335040     3.327396     3.319753
      3.312110     3.304467     3.296824     3.289180     3.281537     3.273894     3.266251     3.258607     3.250964     3.243321
      3.235678     3.228034     3.220391     3.212748     3.205105     3.197462     3.189818     3.182175     3.174532     3.166889
      3.159245     3.151602     3.143959     3.136316     3.128673     3.121029     3.113386     3.105743     3.098100     3.090456
      3.082813     3.075170     3.067527     3.059884     3.052240     3.044597     3.036954     3.029311     3.021667     3.014024
      3.006381     2.998738     2.991095     2.983451     2.975808     2.968165     2.960522     2.952878     2.945235     2.937592
      2.929949     2.922306     2.914662     2.907019     2.899376     2.891733     2.884089     2.876446     2.868803     2.861160
      2.853517     2.845873     2.838230     2.830587     2.822944     2.815300     2.807657     2.800014     2.792371     2.784728
      2.777084     2.769441     2.761798     2.754155     2.746511     2.738868     2.731225     2.723582     2.715939     2.708295
      2.700652     2.693009     2.685366     2.677722     2.670079     2.662436     2.654793     2.647150     2.639506     2.631863
      2.624220     2.616577     2.608933     2.601290     2.593647     2.586004     2.578361     2.570717     2.563074     2.555431
      2.547788     2.540144     2.532501     2.524858     2.517215     2.509572     2.501928     2.494285     2.486642     2.478999
      2.471355     2.463712     2.456069     2.448426     2.440783     2.433139     2.425496     2.417853     2.410210     2.402566
      2.394923     2.387280     2.379637     2.371994     2.364350     2.356707     2.349064     2.341421     2.333777     2.326134
      2.318491     2.310848     2.303205     2.295561     2.287918     2.280275     2.272632     2.264988     2.257345     2.249702
      2.242059     2.234416     2.226772     2.219129     2.211486     2.203843     2.196199     2.188556     2.180913     2.173270
      2.165627     2.157983     2.150340     2.142697     2.135054     2.127410     2.119767     2.112124     2.104481     2.096838
      2.089194     2.081551     2.073908     2.066265     2.058621     2.050978     2.043335     2.035692     2.028049     2.020405
      2.012762     2.005119     1.997476     1.989833     1.982190     1.974546     1.966903     1.959260     1.951617     1.943974
      1.936331     1.928688     1.921045     1.913402     1.905759     1.898115     1.890472     1.882829     1.875186     1.867543
      1.859900     1.852257     1.844614     1.836971     1.829327     1.821684     1.814041     1.806398     1.798755     1.791112
      1.783469     1.775826     1.768183     1.760540     1.752896     1.745253     1.737610     1.729967     1.722324     1.714681
      1.707038     1.699395     1.691752     1.684108     1.676465     1.668822     1.661179     1.653536     1.645893     1.638250
      1.630607     1.622964     1.615321     1.607677     1.600034     1.592391     1.584748     1.577105     1.569462     1.561819
      1.554176     1.546533     1.538890     1.531246     1.523603     1.515960     1.508317     1.500674     1.493031     1.485388
      1.477745     1.470102     1.462458     1.454815     1.447172     1.439529     1.431886     1.424243     1.416600     1.408957
      1.401314     1.393671     1.386027     1.378384     1.370741     1.363098     1.355455     1.347812     1.340169     1.332526
      1.324883     1.317240     1.309596     1.301953     1.294310     1.286667     1.279024     1.271381     1.263738     1.256095
      1.248452     1.240808     1.233165     1.225522     1.217879     1.210236     1.202593     1.194950     1.187307     1.179664
      1.172021     1.164377     1.156734     1.149091     1.141448     1.133805     1.126162     1.118519     1.110876     1.103233
      1.095590     1.087946     1.080303     1.072660     1.065017     1.057374     1.049731     1.042088     1.034445     1.026802
      1.019158     1.011515     1.003872     0.996229     0.988586     0.980943     0.973300     0.965657     0.958014     0.950371
      0.942727     0.935084     0.927441     0.919798     0.912155     0.904512     0.896869     0.889226     0.881583     0.873940
      0.866296     0.858653     0.851010     0.843367     0.835724     0.828081     0.820438     0.812795     0.805152     0.797508
      0.789865     0.782222     0.774579     0.766936     0.759293     0.751650     0.744007     0.736364     0.728721     0.721077
      0.713434     0.705791     0.698148     0.690505     0.682862     0.675219     0.667576     0.659933     0.652290     0.644646
      0.637003     0.629360     0.621717     0.614074     0.606431     0.598788     0.591145     0.583502     0.575858     0.568215
      0.560572     0.552929     0.545286     0.537643     0.530000     0.522357     0.514714     0.507071     0.499427     0.491784
      0.484141     0.476498     0.468855     0.461212     0.453569     0.445925     0.438282     0.430639     0.422996     0.415353
      0.407710     0.400067     0.392424     0.384780     0.377137     0.369494     0.361851     0.354208     0.346565     0.338922
      0.331278     0.323635     0.315992     0.308349     0.300706     0.293063     0.285420     0.277777     0.270133     0.262490
      0.254847     0.247204     0.239561     0.231918     0.224275     0.216631     0.208988     0.201345
 NY phased data points follow
   4.55133E+00  5.39363E+00  3.18912E+00  3.87921E+00  4.20804E+00  3.69208E+00  3.67190E+00  5.28782E+00  4.41382E+00  3.38846E+00
   6.93263E+00  4.31069E+00  5.96648E+00  5.46276E+00  5.01688E+00  5.12133E+00  3.64553E+00  4.57463E+00  6.56479E-01  3.50325E+00
   8.57282E+00  8.49799E+00  5.52303E+00  7.02051E+00  2.86390E+00  1.30944E+00  6.04743E+00  6.18039E+00  1.02340E+01  8.09158E+00
   4.53213E+00  5.92420E+00  4.45974E+00  6.02163E+00  6.31176E+00  1.03051E+01  6.16267E+00  8.31599E+00  6.03093E+00  7.97481E+00
   6.92520E+00  8.04897E+00  7.32917E+00  6.80782E+00  9.55907E+00  6.48809E+00  8.77627E+00  7.36564E+00  9.73281E+00  5.71840E+00
   7.44105E+00  7.53897E+00  7.97463E+00  4.83780E+00  7.95142E+00  1.06694E+01  7.11596E+00  2.23075E+00  3.51129E+00  3.47608E+00
   5.80750E+00  6.79274E+00  5.08355E+00  7.00239E+00  8.29424E+00  2.62356E+00  3.76564E+00  8.16186E+00  3.61447E+00  8.91592E+00
   5.52904E+00  7.40192E+00  7.20069E+00  4.68011E+00  6.12983E+00  4.98443E+00  6.70922E+00  5.23419E+00  8.55390E+00  2.48888E+00
   3.57486E+00  6.49289E+00  7.95771E+00  6.32030E+00  7.91033E+00  1.11908E+01  4.44296E+00  1.13853E+01  8.49508E+00  9.37992E+00
   7.23430E+00  7.74585E+00  1.01075E+01  9.75938E+00  1.22795E+01  1.07756E+01  1.54825E+01  1.67945E+01  1.53219E+01  1.84093E+01
   1.57492E+01  2.14492E+01  1.85695E+01  1.86886E+01  1.63918E+01  1.19295E+01  1.15546E+01  1.37347E+01  8.88427E+00  1.02689E+01
   8.91268E+00  6.47867E+00  8.72114E+00  1.04279E+01  9.43672E+00  7.54888E+00  8.30050E+00  9.88834E+00  9.79509E+00  1.47207E+01
   1.21893E+01  1.36402E+01  1.89062E+01  2.18991E+01  2.53525E+01  2.17432E+01  2.37212E+01  1.94474E+01  2.00512E+01  1.78781E+01
   1.35188E+01  1.60484E+01  1.34986E+01  1.13923E+01  1.05648E+01  6.30528E+00  8.65127E+00  7.94422E+00  8.54845E+00  7.38730E+00
   8.48043E+00  8.50180E+00  7.17058E+00  7.22098E+00  7.49145E+00  4.65638E+00  9.40981E+00  4.78050E+00 -9.50371E-01  4.81954E+00
   5.64094E+00  6.16537E+00  8.29509E+00  4.00355E+00  6.45918E+00  6.37800E+00  4.39398E+00  6.02299E+00  3.63689E+00  6.36500E+00
   5.54761E+00  3.69089E+00  2.35076E+00  3.90369E+00  5.63049E+00  2.95015E+00  4.25524E-01  3.02311E-01  3.04375E-01 -3.97831E+00
  -3.47919E+00 -5.35554E+00 -3.72040E+00 -4.31036E+00 -4.77115E+00 -1.22740E+00 -2.86543E+00 -2.68788E+00  1.11487E-01 -1.65045E+00
  -7.17381E-01  2.92697E-01  9.50245E-01 -4.67401E-01 -1.78494E+00  1.45194E+00  1.33585E+00  8.83507E-01  3.71937E+00  3.44495E+00
   5.21114E+00  4.83358E+00  5.23970E+00  1.27471E+00  1.40568E+00  6.59246E-01  3.42596E+00  3.42048E+00  1.11729E+00 -9.56546E-01
   2.28701E+00  5.09098E+00  7.60435E+00  6.89480E+00  7.08522E+00  8.65003E+00  5.73478E+00  4.13818E+00  9.28762E+00  6.41729E+00
   1.25410E+01  9.85723E+00  1.36871E+01  1.34832E+01  1.13066E+01  1.61980E+01  1.37191E+01  1.47302E+01  1.48289E+01  1.20568E+01
   1.08905E+01  9.60809E+00  7.42236E+00  1.22691E+01  1.20802E+01  1.29643E+01  1.32379E+01  1.13809E+01  1.22626E+01  1.41325E+01
   1.50144E+01  1.84110E+01  1.47953E+01  1.54119E+01  1.54988E+01  1.72520E+01  1.85011E+01  1.61135E+01  1.67057E+01  1.47049E+01
   1.41248E+01  1.71518E+01  1.70103E+01  1.72244E+01  1.65510E+01  1.52380E+01  2.10843E+01  2.05953E+01  2.53932E+01  2.80099E+01
   2.48897E+01  2.99403E+01  3.22114E+01  3.45103E+01  3.77301E+01  4.38852E+01  5.14744E+01  6.65579E+01  7.33564E+01  7.73368E+01
   7.62638E+01  7.28898E+01  7.17934E+01  6.31623E+01  5.90067E+01  5.11068E+01  4.48629E+01  3.69200E+01  3.70861E+01  3.40393E+01
   2.87292E+01  2.52865E+01  2.26237E+01  2.14161E+01  2.24178E+01  1.95865E+01  1.95923E+01  1.94595E+01  1.85397E+01  1.66021E+01
   1.88140E+01  1.92270E+01  1.91489E+01  2.29047E+01  1.97420E+01  1.95117E+01  1.32738E+01  2.29189E+01  1.92236E+01  1.67972E+01
   1.87029E+01  2.09148E+01  2.18849E+01  2.15265E+01  2.26585E+01  2.43237E+01  1.98140E+01  2.33898E+01  2.56203E+01  2.24272E+01
   2.50464E+01  2.22008E+01  2.39780E+01  2.64120E+01  2.88801E+01  2.56719E+01  2.81703E+01  2.86247E+01  2.59263E+01  2.79837E+01
   2.77313E+01  3.05142E+01  3.37006E+01  3.13693E+01  3.07861E+01  2.96972E+01  3.24308E+01  3.29692E+01  3.39474E+01  2.83771E+01
   3.13129E+01  2.80404E+01  3.38730E+01  2.84300E+01  2.90441E+01  3.32176E+01  2.92032E+01  3.01333E+01  3.07966E+01  3.16147E+01
   3.23322E+01  3.14189E+01  3.24024E+01  2.91863E+01  3.13024E+01  2.99334E+01  2.96616E+01  2.91895E+01  2.82793E+01  2.62978E+01
   2.89829E+01  2.52370E+01  2.93320E+01  3.02783E+01  2.93770E+01  3.32877E+01  3.30889E+01  3.29152E+01  3.28767E+01  3.32196E+01
   3.29326E+01  2.97645E+01  3.07925E+01  3.38570E+01  2.93833E+01  2.55314E+01  2.66714E+01  2.22659E+01  2.22433E+01  1.91443E+01
   1.83520E+01  1.65350E+01  1.73038E+01  1.50792E+01  1.20569E+01  1.04804E+01  1.55854E+01  1.29643E+01  7.97245E+00  1.18690E+01
   8.34283E+00  9.32297E+00  9.02889E+00  1.12705E+01  1.03583E+01  9.11527E+00  8.44631E+00  7.89061E+00  6.41226E+00  8.10271E+00
   9.86716E+00  6.30075E+00  9.34129E+00  7.42482E+00  8.81583E-01  3.81761E+00  5.61908E+00  8.83812E+00  2.94942E+00  8.60036E+00
   5.39219E+00  4.56540E+00  1.03636E+01  2.04768E+00  7.96272E+00  8.93462E+00  1.13716E+01  1.23003E+01  9.63603E+00  1.03329E+01
   1.15249E+01  1.34765E+01  9.98016E+00  1.57264E+01  1.05164E+01  1.23900E+01  1.49779E+01  1.11893E+01  1.35802E+01  1.34276E+01
   1.53726E+01  1.43075E+01  1.39162E+01  1.09504E+01  1.37548E+01  1.43341E+01  1.23918E+01  1.04044E+01  1.27439E+01  8.61546E+00
   8.73261E+00  9.67091E+00  9.88631E+00  9.35215E+00  9.13681E+00  7.43178E+00  6.35235E+00  6.44307E+00  2.77806E+00  1.04472E+01
   8.58794E+00  5.71155E+00  5.01750E+00  4.14997E+00  3.59112E+00  3.63190E+00  4.90308E+00  4.69302E+00  5.81987E+00  5.16039E+00
   5.08289E+00  3.40714E+00  9.06426E+00  3.89358E+00  6.21891E+00  5.95218E+00  4.42605E+00  2.42912E+00  5.85306E+00  3.85950E+00
   1.89241E+00  4.52657E+00  5.44555E+00  1.26478E+00  3.88763E+00  4.03246E+00  7.41541E+00  3.98017E+00  4.50857E+00  6.16176E+00
   5.44642E+00  5.01850E+00  5.91684E+00  4.19715E+00  5.60948E+00  6.34134E+00  6.52386E+00  5.17207E+00  5.53144E+00  5.24572E+00
   5.52749E+00  7.07517E+00  6.00168E+00  6.52009E+00  6.13665E+00  5.21158E+00  8.45977E-01  5.94939E+00  4.76238E+00  7.77188E-01
   4.18255E+00  2.81044E+00  2.20202E+00  4.38159E+00  1.97971E+00  4.05586E+00  2.63140E+00  2.65191E+00  4.23899E+00  3.64167E+00
   2.79492E+00  2.84732E-01  5.52200E+00  3.91181E+00  3.88276E+00  3.43639E+00  3.06624E+00  6.24555E+00
 NY points of the fit to the data follow
   3.40474E+00  3.68156E+00  4.08950E+00  4.56597E+00  5.01587E+00  5.35804E+00  5.53647E+00  5.55234E+00  5.45931E+00  5.31529E+00
   5.14925E+00  4.98253E+00  4.84623E+00  4.76627E+00  4.73608E+00  4.70533E+00  4.65984E+00  4.58102E+00  4.46404E+00  4.38509E+00
   4.42926E+00  4.59336E+00  4.70084E+00  4.76163E+00  4.88887E+00  5.15420E+00  5.60145E+00  6.26427E+00  7.06732E+00  7.85471E+00
   8.48902E+00  8.85122E+00  8.85656E+00  8.51126E+00  7.92735E+00  7.26993E+00  6.71315E+00  6.39111E+00  6.31600E+00  6.39958E+00
   6.57639E+00  6.78766E+00  7.01257E+00  7.28337E+00  7.57427E+00  7.81997E+00  7.94657E+00  7.93063E+00  7.78537E+00  7.51812E+00
   7.15828E+00  6.77002E+00  6.38901E+00  6.05583E+00  5.82815E+00  5.71357E+00  5.67504E+00  5.65988E+00  5.64161E+00  5.60293E+00
   5.55608E+00  5.53724E+00  5.54560E+00  5.55559E+00  5.57797E+00  5.63472E+00  5.71217E+00  5.79580E+00  5.88053E+00  5.96517E+00
   6.04945E+00  6.13585E+00  6.21266E+00  6.24835E+00  6.21908E+00  6.16423E+00  6.15438E+00  6.17746E+00  6.23072E+00  6.35695E+00
   6.60516E+00  6.99199E+00  7.47652E+00  7.94476E+00  8.27721E+00  8.41584E+00  8.35277E+00  8.13051E+00  7.82962E+00  7.49812E+00
   7.25518E+00  7.36908E+00  7.79039E+00  8.39505E+00  9.21350E+00  1.03571E+01  1.18930E+01  1.37677E+01  1.57484E+01  1.75031E+01
   1.87238E+01  1.92095E+01  1.89762E+01  1.81670E+01  1.69609E+01  1.55429E+01  1.40717E+01  1.26633E+01  1.13879E+01  1.02581E+01
   9.22636E+00  8.24999E+00  7.32954E+00  6.51905E+00  6.06624E+00  6.34753E+00  7.11787E+00  8.08700E+00  9.24469E+00  1.07284E+01
   1.26686E+01  1.50480E+01  1.76093E+01  1.99268E+01  2.15894E+01  2.23813E+01  2.23084E+01  2.15105E+01  2.01851E+01  1.85474E+01
   1.67923E+01  1.50746E+01  1.34852E+01  1.20538E+01  1.07492E+01  9.52913E+00  8.38907E+00  7.38355E+00  6.65302E+00  6.32034E+00
   6.19317E+00  6.10427E+00  6.00541E+00  5.88627E+00  5.75096E+00  5.61281E+00  5.48702E+00  5.37734E+00  5.27233E+00  5.16513E+00
   5.03499E+00  4.86337E+00  4.67855E+00  4.50826E+00  4.36812E+00  4.24382E+00  4.07801E+00  3.85951E+00  3.62599E+00  3.43155E+00
   3.30815E+00  3.24608E+00  3.20148E+00  3.12412E+00  2.98102E+00  2.75547E+00  2.44112E+00  2.08577E+00  1.73140E+00  1.38713E+00
   1.04055E+00  6.85583E-01  3.68673E-01  1.31366E-01 -3.05044E-02 -1.38605E-01 -2.10774E-01 -2.57472E-01 -2.24632E-01 -9.60180E-02
   9.09404E-02  3.11424E-01  5.50549E-01  8.26645E-01  1.18653E+00  1.65630E+00  2.23996E+00  2.87521E+00  3.46391E+00  3.94908E+00
   4.33973E+00  4.68633E+00  5.01040E+00  5.37161E+00  5.82253E+00  6.37926E+00  7.06742E+00  7.83901E+00  8.57730E+00  9.17152E+00
   9.59646E+00  9.78402E+00  9.62055E+00  9.02674E+00  8.08817E+00  7.02583E+00  6.11446E+00  5.49601E+00  5.27410E+00  5.51941E+00
   6.26096E+00  7.39338E+00  8.67543E+00  9.87223E+00  1.08080E+01  1.13136E+01  1.12963E+01  1.08429E+01  1.01304E+01  9.38313E+00
   8.83871E+00  8.64506E+00  8.85257E+00  9.42485E+00  1.02458E+01  1.11281E+01  1.19452E+01  1.26374E+01  1.32131E+01  1.37333E+01
   1.42504E+01  1.47231E+01  1.52198E+01  1.58191E+01  1.65220E+01  1.72191E+01  1.77458E+01  1.80226E+01  1.80655E+01  1.79255E+01
   1.76910E+01  1.74828E+01  1.74173E+01  1.75783E+01  1.79819E+01  1.85879E+01  1.93450E+01  2.01695E+01  2.10241E+01  2.23406E+01
   2.49950E+01  2.85673E+01  3.24857E+01  3.68454E+01  4.21148E+01  4.86174E+01  5.61716E+01  6.38586E+01  7.02958E+01  7.43076E+01
   7.53929E+01  7.37189E+01  6.98314E+01  6.44224E+01  5.82263E+01  5.19227E+01  4.60421E+01  4.08784E+01  3.64448E+01  3.25076E+01
   2.88265E+01  2.53316E+01  2.22061E+01  1.99794E+01  1.90329E+01  1.86567E+01  1.84040E+01  1.81988E+01  1.80241E+01  1.78667E+01
   1.77373E+01  1.76467E+01  1.75952E+01  1.75808E+01  1.76013E+01  1.76544E+01  1.77440E+01  1.78803E+01  1.80702E+01  1.83151E+01
   1.86162E+01  1.89742E+01  1.93892E+01  1.98591E+01  2.03787E+01  2.09438E+01  2.15493E+01  2.21877E+01  2.28497E+01  2.35244E+01
   2.41995E+01  2.48617E+01  2.54980E+01  2.60964E+01  2.66466E+01  2.71406E+01  2.75728E+01  2.79415E+01  2.82482E+01  2.84981E+01
   2.86993E+01  2.88627E+01  2.90010E+01  2.91284E+01  2.92600E+01  2.94138E+01  2.96075E+01  2.98299E+01  3.00660E+01  3.03188E+01
   3.05902E+01  3.08680E+01  3.11203E+01  3.13038E+01  3.13990E+01  3.14030E+01  3.13096E+01  3.11260E+01  3.08739E+01  3.05847E+01
   3.02899E+01  3.00084E+01  2.97371E+01  2.94578E+01  2.91567E+01  2.88501E+01  2.86175E+01  2.85157E+01  2.84157E+01  2.83322E+01
   2.84031E+01  2.87259E+01  2.92916E+01  2.99624E+01  3.06149E+01  3.12285E+01  3.16856E+01  3.19185E+01  3.19635E+01  3.18966E+01
   3.17839E+01  3.16490E+01  3.14107E+01  3.08937E+01  2.99275E+01  2.84377E+01  2.64763E+01  2.42083E+01  2.18605E+01  1.96700E+01
   1.78344E+01  1.63949E+01  1.52180E+01  1.42657E+01  1.34858E+01  1.27930E+01  1.21148E+01  1.14307E+01  1.08346E+01  1.04209E+01
   1.01146E+01  9.86212E+00  9.64187E+00  9.44382E+00  9.26298E+00  9.09700E+00  8.94487E+00  8.80646E+00  8.68209E+00  8.57243E+00
   8.47829E+00  8.40066E+00  8.34057E+00  8.29925E+00  8.27799E+00  8.27824E+00  8.30151E+00  8.34943E+00  8.42362E+00  8.52580E+00
   8.65754E+00  8.82029E+00  9.01515E+00  9.24279E+00  9.50322E+00  9.79572E+00  1.01185E+01  1.04687E+01  1.08422E+01  1.12335E+01
   1.16356E+01  1.20406E+01  1.24391E+01  1.28210E+01  1.31756E+01  1.34921E+01  1.37600E+01  1.39698E+01  1.41131E+01  1.41833E+01
   1.41760E+01  1.40890E+01  1.39229E+01  1.36805E+01  1.33673E+01  1.29906E+01  1.25596E+01  1.20846E+01  1.15767E+01  1.10473E+01
   1.05072E+01  9.96687E+00  9.43555E+00  8.92123E+00  8.43038E+00  7.96804E+00  7.53769E+00  7.14149E+00  6.78028E+00  6.45392E+00
   6.16136E+00  5.90096E+00  5.67056E+00  5.46779E+00  5.29004E+00  5.13478E+00  4.99948E+00  4.88180E+00  4.77953E+00  4.69070E+00
   4.61350E+00  4.54638E+00  4.48793E+00  4.43699E+00  4.39248E+00  4.35354E+00  4.31936E+00  4.28931E+00  4.26279E+00  4.23933E+00
   4.21849E+00  4.19992E+00  4.18326E+00  4.16827E+00  4.15472E+00  4.14246E+00  4.13132E+00  4.12119E+00  4.11193E+00  4.10347E+00
   4.09570E+00  4.08857E+00  4.08199E+00  4.07591E+00  4.07027E+00  4.06504E+00  4.06016E+00  4.05562E+00  4.05135E+00  4.04736E+00
   4.04360E+00  4.04006E+00  4.03672E+00  4.03357E+00  4.03057E+00  4.02774E+00  4.02503E+00  4.02247E+00  4.02003E+00  4.01772E+00
   4.01550E+00  4.01340E+00  4.01141E+00  4.00953E+00  4.00776E+00  4.00610E+00  4.00454E+00  4.00312E+00  4.00181E+00  4.00066E+00
   3.99965E+00  3.99880E+00  3.99812E+00  3.99766E+00  3.99742E+00  3.99745E+00  3.99776E+00  3.99841E+00
 NY background values follow
     1.320E+00    1.361E+00    1.401E+00    1.442E+00    1.482E+00    1.523E+00    1.563E+00    1.604E+00    1.645E+00    1.686E+00
     1.726E+00    1.767E+00    1.808E+00    1.848E+00    1.889E+00    1.930E+00    1.970E+00    2.011E+00    2.051E+00    2.091E+00
     2.131E+00    2.171E+00    2.211E+00    2.251E+00    2.291E+00    2.330E+00    2.369E+00    2.409E+00    2.447E+00    2.486E+00
     2.525E+00    2.563E+00    2.601E+00    2.639E+00    2.676E+00    2.714E+00    2.750E+00    2.787E+00    2.824E+00    2.860E+00
     2.895E+00    2.931E+00    2.966E+00    3.001E+00    3.035E+00    3.069E+00    3.102E+00    3.136E+00    3.168E+00    3.201E+00
     3.233E+00    3.264E+00    3.295E+00    3.326E+00    3.356E+00    3.385E+00    3.414E+00    3.443E+00    3.471E+00    3.498E+00
     3.525E+00    3.552E+00    3.578E+00    3.603E+00    3.628E+00    3.652E+00    3.675E+00    3.698E+00    3.721E+00    3.742E+00
     3.763E+00    3.784E+00    3.803E+00    3.822E+00    3.840E+00    3.858E+00    3.875E+00    3.891E+00    3.906E+00    3.921E+00
     3.935E+00    3.948E+00    3.961E+00    3.972E+00    3.983E+00    3.993E+00    4.002E+00    4.010E+00    4.018E+00    4.025E+00
     4.030E+00    4.035E+00    4.039E+00    4.042E+00    4.045E+00    4.046E+00    4.047E+00    4.047E+00    4.046E+00    4.045E+00
     4.042E+00    4.039E+00    4.036E+00    4.032E+00    4.027E+00    4.021E+00    4.015E+00    4.008E+00    4.001E+00    3.993E+00
     3.984E+00    3.976E+00    3.966E+00    3.956E+00    3.946E+00    3.935E+00    3.924E+00    3.912E+00    3.900E+00    3.888E+00
     3.875E+00    3.862E+00    3.849E+00    3.835E+00    3.821E+00    3.807E+00    3.792E+00    3.778E+00    3.763E+00    3.748E+00
     3.733E+00    3.717E+00    3.702E+00    3.686E+00    3.671E+00    3.655E+00    3.639E+00    3.623E+00    3.608E+00    3.592E+00
     3.577E+00    3.562E+00    3.547E+00    3.532E+00    3.518E+00    3.505E+00    3.492E+00    3.480E+00    3.469E+00    3.458E+00
     3.449E+00    3.440E+00    3.432E+00    3.426E+00    3.420E+00    3.416E+00    3.413E+00    3.412E+00    3.411E+00    3.413E+00
     3.416E+00    3.420E+00    3.427E+00    3.435E+00    3.445E+00    3.457E+00    3.470E+00    3.486E+00    3.504E+00    3.524E+00
     3.547E+00    3.572E+00    3.599E+00    3.628E+00    3.661E+00    3.695E+00    3.733E+00    3.773E+00    3.816E+00    3.862E+00
     3.911E+00    3.962E+00    4.017E+00    4.075E+00    4.136E+00    4.199E+00    4.266E+00    4.335E+00    4.406E+00    4.480E+00
     4.557E+00    4.636E+00    4.717E+00    4.801E+00    4.886E+00    4.974E+00    5.064E+00    5.156E+00    5.250E+00    5.345E+00
     5.442E+00    5.541E+00    5.642E+00    5.744E+00    5.847E+00    5.952E+00    6.058E+00    6.165E+00    6.274E+00    6.383E+00
     6.494E+00    6.606E+00    6.718E+00    6.831E+00    6.945E+00    7.060E+00    7.175E+00    7.290E+00    7.406E+00    7.523E+00
     7.640E+00    7.756E+00    7.873E+00    7.991E+00    8.108E+00    8.225E+00    8.341E+00    8.458E+00    8.574E+00    8.690E+00
     8.806E+00    8.921E+00    9.036E+00    9.150E+00    9.264E+00    9.377E+00    9.489E+00    9.601E+00    9.712E+00    9.822E+00
     9.931E+00    1.004E+01    1.015E+01    1.025E+01    1.036E+01    1.046E+01    1.057E+01    1.067E+01    1.077E+01    1.087E+01
     1.097E+01    1.106E+01    1.116E+01    1.125E+01    1.134E+01    1.143E+01    1.152E+01    1.161E+01    1.169E+01    1.178E+01
     1.186E+01    1.194E+01    1.202E+01    1.209E+01    1.217E+01    1.224E+01    1.231E+01    1.238E+01    1.244E+01    1.250E+01
     1.257E+01    1.262E+01    1.268E+01    1.273E+01    1.278E+01    1.283E+01    1.288E+01    1.292E+01    1.296E+01    1.300E+01
     1.304E+01    1.307E+01    1.310E+01    1.313E+01    1.316E+01    1.318E+01    1.321E+01    1.322E+01    1.324E+01    1.326E+01
     1.327E+01    1.328E+01    1.328E+01    1.329E+01    1.329E+01    1.329E+01    1.328E+01    1.328E+01    1.327E+01    1.326E+01
     1.324E+01    1.323E+01    1.321E+01    1.319E+01    1.316E+01    1.314E+01    1.311E+01    1.308E+01    1.304E+01    1.301E+01
     1.297E+01    1.293E+01    1.288E+01    1.284E+01    1.279E+01    1.273E+01    1.268E+01    1.262E+01    1.256E+01    1.250E+01
     1.244E+01    1.237E+01    1.230E+01    1.223E+01    1.215E+01    1.208E+01    1.200E+01    1.192E+01    1.184E+01    1.176E+01
     1.167E+01    1.159E+01    1.150E+01    1.141E+01    1.132E+01    1.123E+01    1.113E+01    1.104E+01    1.094E+01    1.084E+01
     1.075E+01    1.065E+01    1.055E+01    1.045E+01    1.035E+01    1.024E+01    1.014E+01    1.004E+01    9.936E+00    9.832E+00
     9.729E+00    9.624E+00    9.520E+00    9.416E+00    9.312E+00    9.207E+00    9.103E+00    8.999E+00    8.896E+00    8.792E+00
     8.689E+00    8.587E+00    8.485E+00    8.384E+00    8.284E+00    8.184E+00    8.085E+00    7.986E+00    7.889E+00    7.792E+00
     7.696E+00    7.601E+00    7.506E+00    7.413E+00    7.321E+00    7.230E+00    7.140E+00    7.050E+00    6.962E+00    6.876E+00
     6.790E+00    6.705E+00    6.622E+00    6.540E+00    6.460E+00    6.380E+00    6.303E+00    6.226E+00    6.151E+00    6.077E+00
     6.005E+00    5.935E+00    5.866E+00    5.799E+00    5.733E+00    5.669E+00    5.607E+00    5.546E+00    5.487E+00    5.430E+00
     5.375E+00    5.322E+00    5.271E+00    5.221E+00    5.174E+00    5.129E+00    5.085E+00    5.044E+00    5.005E+00    4.967E+00
     4.932E+00    4.899E+00    4.868E+00    4.838E+00    4.810E+00    4.784E+00    4.760E+00    4.737E+00    4.716E+00    4.696E+00
     4.678E+00    4.661E+00    4.645E+00    4.631E+00    4.618E+00    4.607E+00    4.596E+00    4.587E+00    4.579E+00    4.571E+00
     4.565E+00    4.560E+00    4.555E+00    4.552E+00    4.549E+00    4.547E+00    4.545E+00    4.544E+00    4.544E+00    4.544E+00
     4.545E+00    4.546E+00    4.547E+00    4.549E+00    4.551E+00    4.553E+00    4.556E+00    4.558E+00    4.561E+00    4.564E+00
     4.566E+00    4.569E+00    4.571E+00    4.574E+00    4.576E+00    4.578E+00    4.579E+00    4.581E+00    4.583E+00    4.584E+00
     4.585E+00    4.586E+00    4.587E+00    4.588E+00    4.588E+00    4.589E+00    4.589E+00    4.589E+00    4.589E+00    4.589E+00
     4.589E+00    4.588E+00    4.588E+00    4.587E+00    4.586E+00    4.585E+00    4.584E+00    4.583E+00    4.582E+00    4.580E+00
     4.579E+00    4.577E+00    4.576E+00    4.574E+00    4.572E+00    4.570E+00    4.568E+00    4.565E+00    4.563E+00    4.561E+00
     4.558E+00    4.556E+00    4.553E+00    4.550E+00    4.547E+00    4.544E+00    4.541E+00    4.538E+00
 Ala      Conc. = 1.20E+02
