 LCModel (Version 6.3-1L) Copyright: S.W. Provencher.          Ref.: Magn. Reson. Med. 30:672-679 (1993).                
 Slice#1 Row#1 Col#9  K_02_press_1_raw_act
 36 lines in following concentration table = NCONC+1
    Conc.  %SD /Cr+PCr  Metabolite                                         
  194.151  98%   1.050 Ala                                                 
   20.173  57%   0.109 Asp                                                 
  184.968  31%   1.000 Cr                                                  
    0.000 999%   0.000 PCr                                                 
   12.175  57% 6.6E-02 GABA                                                
   12.318  56% 6.7E-02 Glc                                                 
  419.073  83%   2.266 Gln                                                 
  644.710  62%   3.486 Glu                                                 
   74.254  30%   0.401 GPC                                                 
    0.000 999%   0.000 PCh                                                 
  163.746  51%   0.885 GSH                                                 
  799.878  30%   4.324 Ins                                                 
  345.172  60%   1.866 Lac                                                 
    0.000 999%   0.000 NAA                                                 
    0.000 999%   0.000 NAAG                                                
    4.070  57% 2.2E-02 Scyllo                                              
   20.205  57%   0.109 Tau                                                 
   11.088 153% 6.0E-02 -CrCH2                                              
   74.254  30%   0.401 GPC+PCh                                             
    0.000 999%   0.000 NAA+NAAG                                            
  184.968  31%   1.000 Cr+PCr                                              
 1.06E+03  56%   5.751 Glu+Gln                                             
 3.61E+03  10%  19.492 Lip13a                                              
    0.000 999%   0.000 Lip13b                                              
  962.637  10%   5.204 Lip09                                               
 1.91E-03 999% 1.0E-05 MM09                                                
  540.807  10%   2.924 Lip20                                               
    0.000 999%   0.000 MM20                                                
    0.000 999%   0.000 MM12                                                
    0.121 999% 6.5E-04 MM14                                                
    0.000 999%   0.000 MM17                                                
 3.61E+03  10%  19.492 Lip13a+Lip13b                                       
 3.61E+03  10%  19.493 MM14+Lip13a+Lip13b+MM12                             
  962.639  10%   5.204 MM09+Lip09                                          
  540.807  10%   2.924 MM20+Lip20                                          
   6 lines in following misc. output table
  FWHM = 0.084 ppm    S/N =   3                                            
  Data shift = 0.084 ppm                                                   
  Ph: 158 deg     -48.2 deg/ppm                                            
  alphaB,S = 1.7E+00,   5.4E+00                                            
   14 spline knots.   Ns =10(1)                                            
  (15)11 infls.   (16)10 extrs.                                            
  498 points on ppm-axis = NY
      4.000000     3.992357     3.984714     3.977070     3.969427     3.961784     3.954141     3.946497     3.938854     3.931211
      3.923568     3.915925     3.908281     3.900638     3.892995     3.885352     3.877708     3.870065     3.862422     3.854779
      3.847136     3.839492     3.831849     3.824206     3.816563     3.808919     3.801276     3.793633     3.785990     3.778347
      3.770703     3.763060     3.755417     3.747774     3.740130     3.732487     3.724844     3.717201     3.709558     3.701914
      3.694271     3.686628     3.678985     3.671341     3.663698     3.656055     3.648412     3.640769     3.633125     3.625482
      3.617839     3.610196     3.602552     3.594909     3.587266     3.579623     3.571980     3.564336     3.556693     3.549050
      3.541407     3.533763     3.526120     3.518477     3.510834     3.503191     3.495547     3.487904     3.480261     3.472618
      3.464974     3.457331     3.449688     3.442045     3.434402     3.426758     3.419115     3.411472     3.403829     3.396185
      3.388542     3.380899     3.373256     3.365613     3.357969     3.350326     3.342683     3.335040     3.327396     3.319753
      3.312110     3.304467     3.296824     3.289180     3.281537     3.273894     3.266251     3.258607     3.250964     3.243321
      3.235678     3.228034     3.220391     3.212748     3.205105     3.197462     3.189818     3.182175     3.174532     3.166889
      3.159245     3.151602     3.143959     3.136316     3.128673     3.121029     3.113386     3.105743     3.098100     3.090456
      3.082813     3.075170     3.067527     3.059884     3.052240     3.044597     3.036954     3.029311     3.021667     3.014024
      3.006381     2.998738     2.991095     2.983451     2.975808     2.968165     2.960522     2.952878     2.945235     2.937592
      2.929949     2.922306     2.914662     2.907019     2.899376     2.891733     2.884089     2.876446     2.868803     2.861160
      2.853517     2.845873     2.838230     2.830587     2.822944     2.815300     2.807657     2.800014     2.792371     2.784728
      2.777084     2.769441     2.761798     2.754155     2.746511     2.738868     2.731225     2.723582     2.715939     2.708295
      2.700652     2.693009     2.685366     2.677722     2.670079     2.662436     2.654793     2.647150     2.639506     2.631863
      2.624220     2.616577     2.608933     2.601290     2.593647     2.586004     2.578361     2.570717     2.563074     2.555431
      2.547788     2.540144     2.532501     2.524858     2.517215     2.509572     2.501928     2.494285     2.486642     2.478999
      2.471355     2.463712     2.456069     2.448426     2.440783     2.433139     2.425496     2.417853     2.410210     2.402566
      2.394923     2.387280     2.379637     2.371994     2.364350     2.356707     2.349064     2.341421     2.333777     2.326134
      2.318491     2.310848     2.303205     2.295561     2.287918     2.280275     2.272632     2.264988     2.257345     2.249702
      2.242059     2.234416     2.226772     2.219129     2.211486     2.203843     2.196199     2.188556     2.180913     2.173270
      2.165627     2.157983     2.150340     2.142697     2.135054     2.127410     2.119767     2.112124     2.104481     2.096838
      2.089194     2.081551     2.073908     2.066265     2.058621     2.050978     2.043335     2.035692     2.028049     2.020405
      2.012762     2.005119     1.997476     1.989833     1.982190     1.974546     1.966903     1.959260     1.951617     1.943974
      1.936331     1.928688     1.921045     1.913402     1.905759     1.898115     1.890472     1.882829     1.875186     1.867543
      1.859900     1.852257     1.844614     1.836971     1.829327     1.821684     1.814041     1.806398     1.798755     1.791112
      1.783469     1.775826     1.768183     1.760540     1.752896     1.745253     1.737610     1.729967     1.722324     1.714681
      1.707038     1.699395     1.691752     1.684108     1.676465     1.668822     1.661179     1.653536     1.645893     1.638250
      1.630607     1.622964     1.615321     1.607677     1.600034     1.592391     1.584748     1.577105     1.569462     1.561819
      1.554176     1.546533     1.538890     1.531246     1.523603     1.515960     1.508317     1.500674     1.493031     1.485388
      1.477745     1.470102     1.462458     1.454815     1.447172     1.439529     1.431886     1.424243     1.416600     1.408957
      1.401314     1.393671     1.386027     1.378384     1.370741     1.363098     1.355455     1.347812     1.340169     1.332526
      1.324883     1.317240     1.309596     1.301953     1.294310     1.286667     1.279024     1.271381     1.263738     1.256095
      1.248452     1.240808     1.233165     1.225522     1.217879     1.210236     1.202593     1.194950     1.187307     1.179664
      1.172021     1.164377     1.156734     1.149091     1.141448     1.133805     1.126162     1.118519     1.110876     1.103233
      1.095590     1.087946     1.080303     1.072660     1.065017     1.057374     1.049731     1.042088     1.034445     1.026802
      1.019158     1.011515     1.003872     0.996229     0.988586     0.980943     0.973300     0.965657     0.958014     0.950371
      0.942727     0.935084     0.927441     0.919798     0.912155     0.904512     0.896869     0.889226     0.881583     0.873940
      0.866296     0.858653     0.851010     0.843367     0.835724     0.828081     0.820438     0.812795     0.805152     0.797508
      0.789865     0.782222     0.774579     0.766936     0.759293     0.751650     0.744007     0.736364     0.728721     0.721077
      0.713434     0.705791     0.698148     0.690505     0.682862     0.675219     0.667576     0.659933     0.652290     0.644646
      0.637003     0.629360     0.621717     0.614074     0.606431     0.598788     0.591145     0.583502     0.575858     0.568215
      0.560572     0.552929     0.545286     0.537643     0.530000     0.522357     0.514714     0.507071     0.499427     0.491784
      0.484141     0.476498     0.468855     0.461212     0.453569     0.445925     0.438282     0.430639     0.422996     0.415353
      0.407710     0.400067     0.392424     0.384780     0.377137     0.369494     0.361851     0.354208     0.346565     0.338922
      0.331278     0.323635     0.315992     0.308349     0.300706     0.293063     0.285420     0.277777     0.270133     0.262490
      0.254847     0.247204     0.239561     0.231918     0.224275     0.216631     0.208988     0.201345
 NY phased data points follow
  -2.62038E+00 -9.02257E-01  2.67938E+00  6.21141E-01  1.41148E+00  6.17676E+00  2.88253E+00  9.31527E+00  8.63446E+00  2.36280E+00
   3.38241E+00  2.54971E+00  2.90394E+00  4.76944E+00  3.79744E+00 -8.89104E-02  4.78291E+00 -4.66430E-01  4.35317E+00  4.29764E+00
   1.39748E+00  1.23457E+00  4.24448E+00  5.79767E+00  1.95395E+00 -1.74107E-01  5.29865E+00  4.40281E+00  2.26359E+00  2.58526E+00
   2.81552E+00  4.68099E+00  1.41739E+00  7.84874E+00  3.87670E-02 -2.14860E+00  8.08676E-01  1.81700E+00  1.74391E+00 -5.97552E+00
   4.33078E+00 -8.34842E-01  6.47665E+00 -1.60170E+00 -6.74910E-01  1.89652E+00  1.62199E+00 -1.93650E+00  1.14199E+00  2.69491E+00
   1.34268E+00  3.52236E+00 -2.71836E+00  1.48882E+00  3.31253E+00  2.90966E+00  3.50110E+00  9.28200E-01  4.07039E+00  8.25815E-01
   4.77287E+00  6.50113E+00  2.85096E+00 -2.06005E+00 -9.99630E-01  1.63587E+00  5.45210E-01  6.31393E+00  4.25510E+00 -3.99830E-01
  -6.54993E-01  4.38495E+00  1.41495E+00 -9.06314E-01 -8.34512E-01 -3.41731E+00 -6.39289E-02 -9.76448E-01 -3.02077E+00  3.29169E+00
  -2.26507E-01  1.05432E+00  1.26992E+00 -1.48809E+00  4.29390E-01 -1.89823E+00 -9.54964E-01 -3.24606E+00  1.29120E+00 -1.85438E+00
  -2.19039E+00  1.70040E+00 -9.23801E-01 -6.65050E-01 -3.10561E+00 -6.63855E+00 -7.97438E-01 -3.96900E+00  9.14469E-01 -1.53901E+00
  -3.48232E+00  3.83129E+00  2.41915E-01  4.31800E+00  2.48495E+00  1.44774E+00  1.46765E-01  1.89158E+00 -1.01068E+00  3.65119E+00
   2.25438E+00  3.34819E+00  3.04346E-02  1.82961E+00  6.30451E-01  1.58510E+00 -4.85289E+00 -1.95609E+00 -1.99197E+00 -5.76887E+00
  -1.01006E+00 -4.54202E+00 -2.29785E+00 -2.00594E+00 -2.35340E+00 -1.27993E+00  2.29767E+00 -5.25246E-01 -2.15017E+00  2.56266E+00
   1.01913E+00  1.44191E+00  7.18070E+00  4.70408E+00 -1.63562E+00  1.32942E+00  2.38454E+00 -1.21904E+00 -7.74149E-01  2.29969E-01
  -2.76663E+00  2.05779E+00  3.56651E+00 -3.55614E-01 -7.24388E+00  1.77380E+00 -3.57060E+00  1.45869E+00 -2.75773E-01  6.81614E-01
  -2.19627E+00  6.29736E+00 -1.51476E+00 -1.10108E+00  2.60555E+00 -3.10462E+00 -2.78987E+00 -2.60051E+00  4.50914E+00  2.18470E-02
  -5.56071E+00 -2.77793E+00  2.48417E+00  1.81101E+00 -1.29258E+00  5.72210E+00 -1.83830E+00  3.50867E-01  1.13754E+00  1.65024E+00
  -4.32206E-01 -3.52066E+00 -1.58344E-01  2.90797E+00  2.84116E+00 -2.04141E-01  3.44092E+00 -9.13011E-01  9.64173E-01  6.79276E-01
  -7.61664E-01 -2.09643E+00 -9.27812E-01 -4.17704E-01 -2.00593E+00 -1.45564E-01 -2.61905E+00  2.10401E+00  2.10252E+00 -2.86520E+00
   8.83922E-01  2.39134E+00 -9.07792E-01  1.45327E+00 -8.80952E-01  2.59620E+00 -4.06288E+00 -3.81365E+00  1.35842E+00 -1.99331E+00
   1.93795E+00 -3.63298E+00 -1.82751E+00 -1.57321E+00 -2.92328E+00 -1.81963E+00 -4.24329E+00  6.16315E-01  7.17296E-02 -1.39149E+00
  -2.11075E+00 -5.11186E+00  1.64542E+00 -1.19790E+00 -1.06173E+00 -4.55957E+00  7.92182E-01  2.38857E-01  5.96095E-01  2.01391E+00
  -1.62881E+00 -3.18593E+00  1.43652E+00 -1.99201E+00 -1.39611E+00 -5.29778E+00  9.36229E-01  1.28851E+00 -4.21837E+00 -3.54691E+00
  -1.68594E+00 -7.21047E+00 -4.63342E+00  1.61444E+00 -1.95020E+00  6.17694E+00 -7.03623E-01 -3.73758E+00 -2.78847E+00  5.28796E-01
   3.62158E+00 -1.04515E+00 -4.65623E+00 -7.24576E-01  3.82776E+00  3.79372E+00  2.02560E+00 -1.96613E+00 -5.37275E+00  4.22335E+00
  -1.58084E+00 -9.48098E+00 -7.71447E+00 -1.22762E+00 -3.96060E+00 -8.22468E+00 -1.00327E+01 -5.08823E+00 -5.66832E+00 -6.55145E-01
  -3.58589E+00  3.40881E+00 -4.53223E+00 -1.10464E+00 -2.92799E+00 -3.62558E+00  1.01923E+00  1.27847E+00  9.88312E-03  2.09804E+00
   3.73365E+00 -3.88368E-01 -2.08262E+00 -4.07040E+00 -3.61726E+00 -1.94379E+00  4.91717E-01 -5.71130E+00 -4.71674E+00  7.52295E-01
  -2.26841E+00  3.12213E-01 -1.57138E-01  5.23501E+00 -2.84412E+00  3.55673E+00 -3.75653E+00 -2.73950E+00 -4.24724E+00 -1.55091E+00
  -5.93347E+00 -2.16389E+00  8.24696E-01 -2.79996E+00  7.20350E-01 -3.82064E+00 -4.44662E+00 -2.36303E+00 -2.84446E+00 -2.90469E+00
  -3.64179E+00 -5.08301E+00 -8.32023E-01 -1.33103E+00 -1.61611E+00  1.65162E+00 -4.07182E+00 -4.14965E+00  1.58511E+00 -4.93961E+00
   6.60113E-01 -3.26074E+00 -1.19118E+00  1.27632E+00 -2.60571E+00 -2.32932E+00 -3.06105E-01 -4.24794E+00  3.66192E+00  2.60004E+00
   6.50357E-02  4.30431E+00  3.34060E+00  6.16465E+00  6.25291E+00  5.73328E+00  9.13604E+00  7.48979E+00  1.13834E+01  1.10508E+01
   8.33927E+00  7.12245E+00  1.09592E+01  1.18132E+01  1.23004E+01  1.05594E+01  8.81345E+00  9.94125E+00  1.18669E+01  9.60618E+00
   1.61697E+01  1.25456E+01  1.53344E+01  1.83605E+01  1.01207E+01  1.25556E+01  1.44490E+01  1.58297E+01  2.12410E+01  1.29965E+01
   1.77850E+01  1.53718E+01  1.53955E+01  1.49310E+01  1.28417E+01  1.30796E+01  1.12109E+01  1.61277E+01  1.23627E+01  8.04082E+00
   7.38216E+00  5.90640E+00  7.61497E+00  1.36386E+01  1.04921E+01  7.27036E+00  4.27762E+00  3.92465E+00  7.55517E+00  3.19655E+00
   5.55590E+00  3.48459E+00  3.90660E+00  2.56322E-01  3.00891E+00  3.98996E+00  7.39000E+00  5.53420E+00  7.15903E+00  8.11402E+00
   2.73529E+00  7.21917E+00  8.81280E+00  4.17964E+00  7.71725E-01  4.74637E+00  6.65667E+00 -1.26461E+00  6.72314E+00  3.78476E+00
   4.96002E+00  1.13407E+00  4.14436E+00  5.19072E+00  5.48126E+00  9.92077E+00  2.90060E+00  9.19801E-01  4.24824E+00  4.62082E+00
   3.64798E+00  3.08767E+00  5.03626E+00  2.09573E+00  2.07444E+00  3.47983E+00  9.52491E+00  3.35683E+00  1.42967E+00  2.37004E+00
   8.00152E-01  3.99916E+00  2.01976E+00  2.42477E+00 -1.17677E+00  5.15278E+00  3.85177E-01  7.16582E-01  6.07010E+00  2.60581E+00
   3.73000E+00  1.40830E-01  3.86342E+00  3.83271E+00  1.16208E+00  8.17875E-01  3.52520E+00 -8.39538E-01  3.38635E+00  2.15055E+00
   2.51076E+00  2.34277E+00  1.18422E+00  3.45821E+00  1.87652E+00 -2.51219E-01  4.00349E+00  6.95164E-01 -1.57811E+00  3.04320E+00
   1.96546E+00  2.93090E+00 -2.81071E+00  1.58729E+00  8.81312E-02  4.32724E+00 -1.59435E+00  2.58341E+00 -3.22962E-01  1.89179E+00
  -8.29056E-01  9.24335E-01  6.37960E-01  2.16816E-01  2.05333E+00  2.52281E+00  1.13258E+00 -3.53942E+00 -1.32759E+00 -1.35806E-01
   6.96992E-01 -9.39858E-03  2.38869E-01 -1.09274E+00  4.28512E+00 -2.17466E+00 -3.37199E-01  2.53738E+00  1.27963E+00  3.73524E+00
   2.24888E+00  7.32770E+00  2.73783E+00 -9.97708E-01 -8.63977E-01  4.48313E+00  5.32964E+00 -1.54157E+00  1.02774E+00 -1.83473E+00
   4.87789E+00  2.64072E+00 -1.82905E+00  6.15882E+00  2.06847E+00  3.03524E+00  3.61400E+00  2.98158E+00 -1.36028E+00  2.33630E+00
   2.42847E+00  1.19184E+00  3.71748E-01  3.81032E+00  8.90716E-01 -1.30239E+00 -9.76745E-01 -7.11418E-01
 NY points of the fit to the data follow
   2.61950E+00  2.75204E+00  1.68757E+00  1.66969E+00  2.44937E+00  1.52003E+00  8.87743E-01  1.43448E+00  1.09830E+00  7.33727E-01
   9.72975E-01  1.26402E+00  2.01387E+00  2.52579E+00  1.98422E+00  1.26498E+00  1.38298E+00  2.21881E+00  2.95427E+00  2.82475E+00
   1.51431E+00  8.65880E-01  1.69651E+00  1.20054E+00  5.09847E-01  1.05017E+00  1.67763E+00  1.49476E+00  1.19993E+00  1.02877E+00
   1.77431E+00  2.90612E+00  3.25372E+00  2.54148E+00  1.86933E+00  2.11689E+00  2.08000E+00  2.14445E+00  1.72865E+00  1.67337E+00
   3.25606E+00  3.53055E+00  2.57568E+00  1.75689E+00  1.70084E+00  1.54169E+00  1.04997E+00  1.27926E+00  2.03504E+00  3.10768E+00
   3.16384E+00  1.87609E+00  1.10399E+00  1.66190E+00  2.60104E+00  3.39792E+00  3.24134E+00  2.12075E+00  1.57220E+00  1.01558E+00
   1.93835E-01 -8.94773E-02  1.17358E-01  1.73907E-01  1.20493E-01  2.49068E-01  4.18413E-01  7.80301E-01  1.10186E+00  9.99797E-01
   9.80288E-01  7.25973E-01  3.80240E-01  3.06460E-01  2.88931E-01  3.32899E-01  2.84424E-01  3.87376E-01  7.23752E-01  8.69842E-01
   7.58251E-01  2.88052E-01  2.95939E-02 -1.28409E-01 -5.07182E-01 -7.40407E-01 -8.56889E-01 -9.55095E-01 -1.22568E+00 -1.52092E+00
  -1.60324E+00 -1.62944E+00 -1.66109E+00 -2.14950E+00 -2.50590E+00 -1.49798E+00 -4.48357E-01 -9.49939E-01 -4.96118E-01  3.08919E-01
  -1.41782E-01  2.60054E-01  1.09958E+00  2.06520E+00  3.22013E+00  2.80514E+00  1.08875E+00  5.52988E-01  1.29630E+00  2.17244E+00
   2.83500E+00  2.12619E+00  6.62125E-01  1.19126E+00  2.78009E-01 -1.19213E+00 -1.51376E+00 -1.81242E+00 -2.18675E+00 -1.62105E+00
  -3.70374E-01 -2.85808E-01 -5.94489E-01  2.34861E-01  2.28611E-01  9.85645E-02  8.72155E-01  1.43133E+00  2.35263E+00  2.92216E+00
   1.90758E+00  8.20812E-01  1.20068E+00  2.20463E+00  3.07594E+00  3.25231E+00  1.65385E+00  9.53791E-01  1.21963E+00 -1.56575E-01
  -5.18902E-01 -5.14819E-01 -7.08476E-01 -8.84162E-01 -9.08769E-01 -1.12506E+00 -1.11495E+00 -8.31224E-01 -6.88920E-01 -5.36948E-01
  -4.67895E-01 -5.95516E-01 -5.86754E-01 -7.59013E-01 -8.53921E-01 -9.05797E-01 -9.30871E-01 -9.55226E-01 -9.89017E-01 -1.00385E+00
  -1.05158E+00 -1.09916E+00 -1.11181E+00 -1.10155E+00 -1.10643E+00 -1.13806E+00 -1.14468E+00 -1.15300E+00 -1.17409E+00 -1.19298E+00
  -1.23363E+00 -1.27094E+00 -1.29699E+00 -1.31632E+00 -1.33629E+00 -1.35402E+00 -1.38202E+00 -1.43025E+00 -1.51188E+00 -1.54138E+00
  -1.59340E+00 -1.70461E+00 -1.71518E+00 -1.64076E+00 -1.55492E+00 -1.52200E+00 -1.57737E+00 -1.58638E+00 -1.57057E+00 -1.77129E+00
  -1.92392E+00 -1.89863E+00 -1.89303E+00 -1.92624E+00 -1.82182E+00 -1.85262E+00 -1.90911E+00 -1.60716E+00 -1.32955E+00 -1.31315E+00
  -9.73919E-01 -8.09808E-01 -1.45309E+00 -2.03068E+00 -1.88559E+00 -2.04362E+00 -2.09919E+00 -1.32715E+00 -8.33472E-01 -3.87641E-01
  -8.10951E-01 -1.03538E+00 -1.98768E-01  9.60535E-02 -5.87491E-01 -1.49486E+00 -1.67092E+00 -1.34712E+00 -1.27120E+00 -1.16644E+00
  -1.38833E+00 -4.17479E-01  3.72520E-01  1.79514E-01 -4.55795E-01 -6.41291E-01  2.05985E-01 -4.82909E-01 -2.10642E+00 -2.42206E+00
  -1.81357E+00 -1.14262E+00 -7.44260E-01 -1.83949E-01  6.57514E-01  1.02351E+00  4.88104E-01  3.16917E-01  1.81507E-01  1.64288E-01
   2.94286E-01 -5.41904E-02 -4.76815E-01 -6.09790E-01 -5.21134E-01 -3.19124E-01 -2.32793E-01  1.24280E-01  1.10725E-01 -3.10977E-01
  -8.77155E-01 -9.75607E-01 -6.82016E-01 -7.43443E-01 -3.72160E-01  5.41809E-02  3.31101E-01  1.35465E-01  1.17346E-02 -2.79627E-02
   1.00101E-01  2.85359E-01  4.31838E-01  4.61738E-01  1.99679E-01 -5.90569E-03 -1.15055E-01 -4.66478E-02 -5.71790E-03  1.60498E-02
   1.54970E-01  1.64344E-01  3.47848E-02 -1.79734E-01 -1.55792E-01 -1.20546E-01 -3.20220E-01 -3.30247E-01 -3.75572E-01 -4.12332E-01
  -3.89796E-01 -3.31804E-01 -3.47581E-01 -3.38204E-01 -2.92710E-01 -3.04652E-01 -3.55032E-01 -3.95884E-01 -4.26688E-01 -4.31661E-01
  -4.25226E-01 -4.30616E-01 -4.02879E-01 -3.77825E-01 -3.60810E-01 -3.41303E-01 -3.17802E-01 -2.91835E-01 -2.66995E-01 -2.39732E-01
  -2.02747E-01 -1.65152E-01 -1.25783E-01 -7.86447E-02 -2.77562E-02  2.81543E-02  8.79860E-02  1.52795E-01  2.23865E-01  3.01907E-01
   3.87607E-01  4.81205E-01  5.82143E-01  6.93059E-01  8.13494E-01  9.39890E-01  1.06287E+00  1.15684E+00  1.42266E+00  2.12632E+00
   2.70435E+00  2.58182E+00  2.67660E+00  3.23311E+00  3.24810E+00  3.33459E+00  3.51105E+00  3.77787E+00  4.77903E+00  5.09313E+00
   4.51257E+00  5.09669E+00  6.19663E+00  6.82490E+00  7.39105E+00  7.59288E+00  7.94657E+00  9.28251E+00  1.03823E+01  1.10477E+01
   1.21785E+01  1.26220E+01  1.40378E+01  1.57882E+01  1.55949E+01  1.53919E+01  1.60385E+01  1.65521E+01  1.74163E+01  1.60341E+01
   1.45757E+01  1.48236E+01  1.50306E+01  1.49388E+01  1.43580E+01  1.31769E+01  1.26356E+01  1.31441E+01  1.14570E+01  9.16665E+00
   9.14493E+00  9.66274E+00  1.05152E+01  1.05450E+01  9.30906E+00  9.48045E+00  8.99988E+00  7.64036E+00  6.74899E+00  6.09886E+00
   5.57172E+00  5.12778E+00  4.74876E+00  4.42445E+00  4.14797E+00  3.91413E+00  3.71858E+00  3.55786E+00  3.42903E+00  3.32971E+00
   3.25755E+00  3.21043E+00  3.18625E+00  3.18331E+00  3.19999E+00  3.23485E+00  3.28622E+00  3.35238E+00  3.43150E+00  3.52188E+00
   3.62165E+00  3.72887E+00  3.84124E+00  3.95639E+00  4.07182E+00  4.18515E+00  4.29385E+00  4.39547E+00  4.48740E+00  4.56732E+00
   4.63303E+00  4.68281E+00  4.71509E+00  4.72872E+00  4.72276E+00  4.69688E+00  4.65113E+00  4.58611E+00  4.50268E+00  4.40210E+00
   4.28581E+00  4.15567E+00  4.01369E+00  3.86209E+00  3.70296E+00  3.53847E+00  3.37060E+00  3.20139E+00  3.03264E+00  2.86604E+00
   2.70290E+00  2.54442E+00  2.39147E+00  2.24490E+00  2.10526E+00  1.97296E+00  1.84810E+00  1.73077E+00  1.62086E+00  1.51833E+00
   1.42292E+00  1.33439E+00  1.25230E+00  1.17636E+00  1.10616E+00  1.04145E+00  9.81811E-01  9.26899E-01  8.76300E-01  8.29748E-01
   7.86915E-01  7.47596E-01  7.11465E-01  6.78286E-01  6.47768E-01  6.19770E-01  5.94073E-01  5.70571E-01  5.49027E-01  5.29316E-01
   5.11250E-01  4.94775E-01  4.79753E-01  4.66139E-01  4.53747E-01  4.42517E-01  4.32338E-01  4.23222E-01  4.15052E-01  4.07807E-01
   4.01351E-01  3.95672E-01  3.90695E-01  3.86453E-01  3.82855E-01  3.79885E-01  3.77434E-01  3.75537E-01  3.74124E-01  3.73237E-01
   3.72789E-01  3.72787E-01  3.73146E-01  3.73905E-01  3.75018E-01  3.76522E-01  3.78332E-01  3.80461E-01  3.82844E-01  3.85539E-01
   3.88491E-01  3.91743E-01  3.95211E-01  3.98917E-01  4.02811E-01  4.06954E-01  4.11292E-01  4.15858E-01  4.20574E-01  4.25478E-01
   4.30527E-01  4.35782E-01  4.41187E-01  4.46770E-01  4.52463E-01  4.58313E-01  4.64283E-01  4.70432E-01
 NY background values follow
    -1.339E+00   -1.342E+00   -1.346E+00   -1.350E+00   -1.353E+00   -1.357E+00   -1.361E+00   -1.364E+00   -1.368E+00   -1.372E+00
    -1.375E+00   -1.379E+00   -1.383E+00   -1.386E+00   -1.390E+00   -1.394E+00   -1.398E+00   -1.401E+00   -1.405E+00   -1.409E+00
    -1.412E+00   -1.416E+00   -1.420E+00   -1.423E+00   -1.427E+00   -1.431E+00   -1.434E+00   -1.438E+00   -1.442E+00   -1.445E+00
    -1.449E+00   -1.453E+00   -1.456E+00   -1.460E+00   -1.463E+00   -1.467E+00   -1.471E+00   -1.474E+00   -1.478E+00   -1.481E+00
    -1.485E+00   -1.489E+00   -1.492E+00   -1.496E+00   -1.499E+00   -1.503E+00   -1.507E+00   -1.510E+00   -1.514E+00   -1.517E+00
    -1.521E+00   -1.524E+00   -1.528E+00   -1.531E+00   -1.535E+00   -1.538E+00   -1.542E+00   -1.545E+00   -1.549E+00   -1.552E+00
    -1.555E+00   -1.559E+00   -1.562E+00   -1.566E+00   -1.569E+00   -1.573E+00   -1.576E+00   -1.579E+00   -1.583E+00   -1.586E+00
    -1.589E+00   -1.593E+00   -1.596E+00   -1.599E+00   -1.602E+00   -1.606E+00   -1.609E+00   -1.612E+00   -1.615E+00   -1.618E+00
    -1.622E+00   -1.625E+00   -1.628E+00   -1.631E+00   -1.634E+00   -1.637E+00   -1.640E+00   -1.643E+00   -1.646E+00   -1.649E+00
    -1.652E+00   -1.655E+00   -1.658E+00   -1.661E+00   -1.664E+00   -1.667E+00   -1.670E+00   -1.673E+00   -1.676E+00   -1.679E+00
    -1.681E+00   -1.684E+00   -1.687E+00   -1.690E+00   -1.692E+00   -1.695E+00   -1.698E+00   -1.700E+00   -1.703E+00   -1.706E+00
    -1.708E+00   -1.711E+00   -1.713E+00   -1.716E+00   -1.718E+00   -1.721E+00   -1.723E+00   -1.726E+00   -1.728E+00   -1.731E+00
    -1.733E+00   -1.735E+00   -1.738E+00   -1.740E+00   -1.742E+00   -1.745E+00   -1.747E+00   -1.749E+00   -1.751E+00   -1.753E+00
    -1.755E+00   -1.758E+00   -1.760E+00   -1.762E+00   -1.764E+00   -1.766E+00   -1.768E+00   -1.770E+00   -1.772E+00   -1.774E+00
    -1.775E+00   -1.777E+00   -1.779E+00   -1.781E+00   -1.783E+00   -1.784E+00   -1.786E+00   -1.788E+00   -1.789E+00   -1.791E+00
    -1.793E+00   -1.794E+00   -1.796E+00   -1.797E+00   -1.799E+00   -1.800E+00   -1.802E+00   -1.803E+00   -1.805E+00   -1.806E+00
    -1.807E+00   -1.809E+00   -1.810E+00   -1.811E+00   -1.812E+00   -1.813E+00   -1.815E+00   -1.816E+00   -1.817E+00   -1.818E+00
    -1.819E+00   -1.820E+00   -1.821E+00   -1.822E+00   -1.823E+00   -1.824E+00   -1.825E+00   -1.825E+00   -1.826E+00   -1.827E+00
    -1.828E+00   -1.828E+00   -1.829E+00   -1.830E+00   -1.830E+00   -1.831E+00   -1.832E+00   -1.832E+00   -1.833E+00   -1.833E+00
    -1.833E+00   -1.834E+00   -1.834E+00   -1.835E+00   -1.835E+00   -1.835E+00   -1.835E+00   -1.835E+00   -1.836E+00   -1.836E+00
    -1.836E+00   -1.836E+00   -1.836E+00   -1.836E+00   -1.835E+00   -1.835E+00   -1.835E+00   -1.835E+00   -1.835E+00   -1.834E+00
    -1.834E+00   -1.833E+00   -1.833E+00   -1.832E+00   -1.832E+00   -1.831E+00   -1.831E+00   -1.830E+00   -1.829E+00   -1.828E+00
    -1.828E+00   -1.827E+00   -1.826E+00   -1.825E+00   -1.824E+00   -1.822E+00   -1.821E+00   -1.820E+00   -1.819E+00   -1.817E+00
    -1.816E+00   -1.815E+00   -1.813E+00   -1.812E+00   -1.810E+00   -1.808E+00   -1.807E+00   -1.805E+00   -1.803E+00   -1.801E+00
    -1.799E+00   -1.797E+00   -1.795E+00   -1.793E+00   -1.791E+00   -1.788E+00   -1.786E+00   -1.784E+00   -1.781E+00   -1.779E+00
    -1.776E+00   -1.774E+00   -1.771E+00   -1.768E+00   -1.766E+00   -1.763E+00   -1.760E+00   -1.757E+00   -1.754E+00   -1.751E+00
    -1.748E+00   -1.744E+00   -1.741E+00   -1.738E+00   -1.734E+00   -1.731E+00   -1.727E+00   -1.724E+00   -1.720E+00   -1.716E+00
    -1.712E+00   -1.708E+00   -1.704E+00   -1.700E+00   -1.696E+00   -1.692E+00   -1.688E+00   -1.684E+00   -1.679E+00   -1.675E+00
    -1.671E+00   -1.666E+00   -1.661E+00   -1.657E+00   -1.652E+00   -1.647E+00   -1.642E+00   -1.637E+00   -1.632E+00   -1.627E+00
    -1.622E+00   -1.617E+00   -1.612E+00   -1.607E+00   -1.601E+00   -1.596E+00   -1.591E+00   -1.585E+00   -1.579E+00   -1.574E+00
    -1.568E+00   -1.562E+00   -1.557E+00   -1.551E+00   -1.545E+00   -1.539E+00   -1.533E+00   -1.527E+00   -1.521E+00   -1.515E+00
    -1.508E+00   -1.502E+00   -1.496E+00   -1.490E+00   -1.483E+00   -1.477E+00   -1.470E+00   -1.464E+00   -1.457E+00   -1.450E+00
    -1.443E+00   -1.437E+00   -1.430E+00   -1.423E+00   -1.416E+00   -1.409E+00   -1.402E+00   -1.395E+00   -1.388E+00   -1.381E+00
    -1.374E+00   -1.366E+00   -1.359E+00   -1.352E+00   -1.344E+00   -1.337E+00   -1.330E+00   -1.322E+00   -1.315E+00   -1.307E+00
    -1.299E+00   -1.292E+00   -1.284E+00   -1.276E+00   -1.268E+00   -1.261E+00   -1.253E+00   -1.245E+00   -1.237E+00   -1.229E+00
    -1.221E+00   -1.213E+00   -1.205E+00   -1.197E+00   -1.189E+00   -1.180E+00   -1.172E+00   -1.164E+00   -1.155E+00   -1.147E+00
    -1.139E+00   -1.130E+00   -1.122E+00   -1.113E+00   -1.105E+00   -1.096E+00   -1.088E+00   -1.079E+00   -1.071E+00   -1.062E+00
    -1.053E+00   -1.045E+00   -1.036E+00   -1.027E+00   -1.018E+00   -1.009E+00   -1.000E+00   -9.916E-01   -9.826E-01   -9.737E-01
    -9.647E-01   -9.557E-01   -9.466E-01   -9.375E-01   -9.284E-01   -9.193E-01   -9.101E-01   -9.009E-01   -8.917E-01   -8.825E-01
    -8.732E-01   -8.639E-01   -8.546E-01   -8.452E-01   -8.359E-01   -8.265E-01   -8.170E-01   -8.076E-01   -7.981E-01   -7.886E-01
    -7.791E-01   -7.695E-01   -7.600E-01   -7.504E-01   -7.407E-01   -7.311E-01   -7.214E-01   -7.118E-01   -7.020E-01   -6.923E-01
    -6.826E-01   -6.728E-01   -6.630E-01   -6.532E-01   -6.433E-01   -6.335E-01   -6.236E-01   -6.137E-01   -6.038E-01   -5.938E-01
    -5.839E-01   -5.739E-01   -5.639E-01   -5.539E-01   -5.439E-01   -5.339E-01   -5.238E-01   -5.137E-01   -5.037E-01   -4.936E-01
    -4.834E-01   -4.733E-01   -4.632E-01   -4.530E-01   -4.428E-01   -4.326E-01   -4.224E-01   -4.122E-01   -4.020E-01   -3.918E-01
    -3.815E-01   -3.713E-01   -3.610E-01   -3.507E-01   -3.404E-01   -3.301E-01   -3.198E-01   -3.095E-01   -2.992E-01   -2.889E-01
    -2.785E-01   -2.682E-01   -2.578E-01   -2.474E-01   -2.371E-01   -2.267E-01   -2.163E-01   -2.059E-01   -1.955E-01   -1.851E-01
    -1.747E-01   -1.643E-01   -1.539E-01   -1.435E-01   -1.330E-01   -1.226E-01   -1.122E-01   -1.017E-01   -9.129E-02   -8.084E-02
    -7.039E-02   -5.994E-02   -4.948E-02   -3.902E-02   -2.856E-02   -1.809E-02   -7.621E-03    2.850E-03    1.332E-02    2.380E-02
     3.427E-02    4.475E-02    5.523E-02    6.571E-02    7.619E-02    8.667E-02    9.715E-02    1.076E-01    1.181E-01    1.286E-01
     1.391E-01    1.496E-01    1.600E-01    1.705E-01    1.810E-01    1.915E-01    2.019E-01    2.124E-01
 Ala      Conc. = 1.94E+02
