 LCModel (Version 6.3-1L) Copyright: S.W. Provencher.          Ref.: Magn. Reson. Med. 30:672-679 (1993).                
 Slice#2 Row#5 Col#6  K_02_press_1_raw_act
 36 lines in following concentration table = NCONC+1
    Conc.  %SD /Cr+PCr  Metabolite                                         
    0.000 999%   0.000 Ala                                                 
    0.000 999%   0.000 Asp                                                 
 1.28E+03  24%   0.566 Cr                                                  
  977.578  32%   0.434 PCr                                                 
    0.000 999%   0.000 GABA                                                
    0.000 999%   0.000 Glc                                                 
  677.856  44%   0.301 Gln                                                 
 2.04E+03  16%   0.907 Glu                                                 
  897.023   4%   0.398 GPC                                                 
    0.000 999%   0.000 PCh                                                 
  698.194  14%   0.310 GSH                                                 
 1.35E+03  28%   0.600 Ins                                                 
  419.909  47%   0.186 Lac                                                 
 2.97E+03   6%   1.318 NAA                                                 
  750.440  24%   0.333 NAAG                                                
   38.892  98% 1.7E-02 Scyllo                                              
    0.000 999%   0.000 Tau                                                 
   63.016 252% 2.8E-02 -CrCH2                                              
  897.023   4%   0.398 GPC+PCh                                             
 3.72E+03   3%   1.651 NAA+NAAG                                            
 2.25E+03   4%   1.000 Cr+PCr                                              
 2.72E+03  18%   1.208 Glu+Gln                                             
 4.29E+03  35%   1.903 Lip13a                                              
  499.405  52%   0.222 Lip13b                                              
  970.199  61%   0.431 Lip09                                               
 1.81E+03  31%   0.802 MM09                                                
 1.15E+03  32%   0.512 Lip20                                               
 3.92E+03  19%   1.738 MM20                                                
  599.933  63%   0.266 MM12                                                
 2.07E+03  34%   0.918 MM14                                                
  926.648  41%   0.411 MM17                                                
 4.79E+03  30%   2.125 Lip13a+Lip13b                                       
 7.45E+03  16%   3.309 MM14+Lip13a+Lip13b+MM12                             
 2.78E+03  16%   1.233 MM09+Lip09                                          
 5.07E+03  14%   2.250 MM20+Lip20                                          
   6 lines in following misc. output table
  FWHM = 0.061 ppm    S/N =  14                                            
  Data shift = 0.015 ppm                                                   
  Ph:   6 deg      -1.4 deg/ppm                                            
  alphaB,S = 6.2E-01,   1.6E+02                                            
   14 spline knots.   Ns = 7(1)                                            
  (11) 2 infls.   ( 5) 1 extrs.                                            
  498 points on ppm-axis = NY
      4.000000     3.992357     3.984714     3.977070     3.969427     3.961784     3.954141     3.946497     3.938854     3.931211
      3.923568     3.915925     3.908281     3.900638     3.892995     3.885352     3.877708     3.870065     3.862422     3.854779
      3.847136     3.839492     3.831849     3.824206     3.816563     3.808919     3.801276     3.793633     3.785990     3.778347
      3.770703     3.763060     3.755417     3.747774     3.740130     3.732487     3.724844     3.717201     3.709558     3.701914
      3.694271     3.686628     3.678985     3.671341     3.663698     3.656055     3.648412     3.640769     3.633125     3.625482
      3.617839     3.610196     3.602552     3.594909     3.587266     3.579623     3.571980     3.564336     3.556693     3.549050
      3.541407     3.533763     3.526120     3.518477     3.510834     3.503191     3.495547     3.487904     3.480261     3.472618
      3.464974     3.457331     3.449688     3.442045     3.434402     3.426758     3.419115     3.411472     3.403829     3.396185
      3.388542     3.380899     3.373256     3.365613     3.357969     3.350326     3.342683     3.335040     3.327396     3.319753
      3.312110     3.304467     3.296824     3.289180     3.281537     3.273894     3.266251     3.258607     3.250964     3.243321
      3.235678     3.228034     3.220391     3.212748     3.205105     3.197462     3.189818     3.182175     3.174532     3.166889
      3.159245     3.151602     3.143959     3.136316     3.128673     3.121029     3.113386     3.105743     3.098100     3.090456
      3.082813     3.075170     3.067527     3.059884     3.052240     3.044597     3.036954     3.029311     3.021667     3.014024
      3.006381     2.998738     2.991095     2.983451     2.975808     2.968165     2.960522     2.952878     2.945235     2.937592
      2.929949     2.922306     2.914662     2.907019     2.899376     2.891733     2.884089     2.876446     2.868803     2.861160
      2.853517     2.845873     2.838230     2.830587     2.822944     2.815300     2.807657     2.800014     2.792371     2.784728
      2.777084     2.769441     2.761798     2.754155     2.746511     2.738868     2.731225     2.723582     2.715939     2.708295
      2.700652     2.693009     2.685366     2.677722     2.670079     2.662436     2.654793     2.647150     2.639506     2.631863
      2.624220     2.616577     2.608933     2.601290     2.593647     2.586004     2.578361     2.570717     2.563074     2.555431
      2.547788     2.540144     2.532501     2.524858     2.517215     2.509572     2.501928     2.494285     2.486642     2.478999
      2.471355     2.463712     2.456069     2.448426     2.440783     2.433139     2.425496     2.417853     2.410210     2.402566
      2.394923     2.387280     2.379637     2.371994     2.364350     2.356707     2.349064     2.341421     2.333777     2.326134
      2.318491     2.310848     2.303205     2.295561     2.287918     2.280275     2.272632     2.264988     2.257345     2.249702
      2.242059     2.234416     2.226772     2.219129     2.211486     2.203843     2.196199     2.188556     2.180913     2.173270
      2.165627     2.157983     2.150340     2.142697     2.135054     2.127410     2.119767     2.112124     2.104481     2.096838
      2.089194     2.081551     2.073908     2.066265     2.058621     2.050978     2.043335     2.035692     2.028049     2.020405
      2.012762     2.005119     1.997476     1.989833     1.982190     1.974546     1.966903     1.959260     1.951617     1.943974
      1.936331     1.928688     1.921045     1.913402     1.905759     1.898115     1.890472     1.882829     1.875186     1.867543
      1.859900     1.852257     1.844614     1.836971     1.829327     1.821684     1.814041     1.806398     1.798755     1.791112
      1.783469     1.775826     1.768183     1.760540     1.752896     1.745253     1.737610     1.729967     1.722324     1.714681
      1.707038     1.699395     1.691752     1.684108     1.676465     1.668822     1.661179     1.653536     1.645893     1.638250
      1.630607     1.622964     1.615321     1.607677     1.600034     1.592391     1.584748     1.577105     1.569462     1.561819
      1.554176     1.546533     1.538890     1.531246     1.523603     1.515960     1.508317     1.500674     1.493031     1.485388
      1.477745     1.470102     1.462458     1.454815     1.447172     1.439529     1.431886     1.424243     1.416600     1.408957
      1.401314     1.393671     1.386027     1.378384     1.370741     1.363098     1.355455     1.347812     1.340169     1.332526
      1.324883     1.317240     1.309596     1.301953     1.294310     1.286667     1.279024     1.271381     1.263738     1.256095
      1.248452     1.240808     1.233165     1.225522     1.217879     1.210236     1.202593     1.194950     1.187307     1.179664
      1.172021     1.164377     1.156734     1.149091     1.141448     1.133805     1.126162     1.118519     1.110876     1.103233
      1.095590     1.087946     1.080303     1.072660     1.065017     1.057374     1.049731     1.042088     1.034445     1.026802
      1.019158     1.011515     1.003872     0.996229     0.988586     0.980943     0.973300     0.965657     0.958014     0.950371
      0.942727     0.935084     0.927441     0.919798     0.912155     0.904512     0.896869     0.889226     0.881583     0.873940
      0.866296     0.858653     0.851010     0.843367     0.835724     0.828081     0.820438     0.812795     0.805152     0.797508
      0.789865     0.782222     0.774579     0.766936     0.759293     0.751650     0.744007     0.736364     0.728721     0.721077
      0.713434     0.705791     0.698148     0.690505     0.682862     0.675219     0.667576     0.659933     0.652290     0.644646
      0.637003     0.629360     0.621717     0.614074     0.606431     0.598788     0.591145     0.583502     0.575858     0.568215
      0.560572     0.552929     0.545286     0.537643     0.530000     0.522357     0.514714     0.507071     0.499427     0.491784
      0.484141     0.476498     0.468855     0.461212     0.453569     0.445925     0.438282     0.430639     0.422996     0.415353
      0.407710     0.400067     0.392424     0.384780     0.377137     0.369494     0.361851     0.354208     0.346565     0.338922
      0.331278     0.323635     0.315992     0.308349     0.300706     0.293063     0.285420     0.277777     0.270133     0.262490
      0.254847     0.247204     0.239561     0.231918     0.224275     0.216631     0.208988     0.201345
 NY phased data points follow
   4.67475E+01  4.25556E+01  4.81036E+01  4.80129E+01  5.50996E+01  5.96845E+01  6.52569E+01  7.74839E+01  8.40008E+01  8.54526E+01
   8.72356E+01  9.08982E+01  8.42142E+01  8.16523E+01  7.36978E+01  5.68322E+01  4.93369E+01  5.10142E+01  4.64798E+01  3.88009E+01
   4.20842E+01  3.95392E+01  4.24907E+01  4.24859E+01  4.42455E+01  4.56351E+01  4.71634E+01  4.96357E+01  5.09794E+01  5.32790E+01
   4.83889E+01  5.43980E+01  5.07981E+01  4.68081E+01  4.85042E+01  4.76794E+01  4.22929E+01  4.89646E+01  4.10768E+01  4.31554E+01
   4.51903E+01  5.10539E+01  4.96286E+01  4.93465E+01  4.81134E+01  4.67467E+01  5.14894E+01  4.77305E+01  5.30896E+01  4.69663E+01
   3.94695E+01  4.29762E+01  3.84678E+01  3.79324E+01  3.76946E+01  3.86206E+01  3.34174E+01  2.77885E+01  3.76376E+01  3.38329E+01
   3.00195E+01  2.66804E+01  2.86508E+01  2.54069E+01  2.18638E+01  1.96020E+01  1.81813E+01  1.88343E+01  2.22895E+01  2.37775E+01
   2.44399E+01  2.08924E+01  2.26880E+01  2.29646E+01  2.10887E+01  2.25049E+01  2.67184E+01  1.49185E+01  2.45099E+01  2.14450E+01
   2.41943E+01  2.17331E+01  2.33053E+01  2.35386E+01  2.04039E+01  2.12193E+01  1.68011E+01  2.12128E+01  2.12454E+01  2.21042E+01
   2.51221E+01  2.33497E+01  2.39844E+01  2.44644E+01  2.76578E+01  2.65069E+01  3.37392E+01  4.00420E+01  5.33918E+01  6.06544E+01
   7.53537E+01  8.67375E+01  1.01661E+02  1.04029E+02  8.87294E+01  8.02610E+01  6.67639E+01  4.91235E+01  4.19231E+01  3.61314E+01
   2.76711E+01  2.30290E+01  2.23875E+01  2.46241E+01  2.54395E+01  2.31628E+01  2.17571E+01  1.85722E+01  2.61213E+01  2.97445E+01
   3.62815E+01  3.42877E+01  4.34544E+01  5.28867E+01  6.54985E+01  7.48946E+01  8.93672E+01  9.15763E+01  8.81456E+01  7.75169E+01
   7.01306E+01  4.58387E+01  4.01636E+01  3.20895E+01  2.76468E+01  2.47526E+01  1.51007E+01  1.74643E+01  1.92171E+01  1.10179E+01
   1.96981E+01  1.79497E+01  1.40396E+01  1.49479E+01  1.68569E+01  1.76951E+01  1.59573E+01  2.00603E+01  1.48488E+01  1.88035E+01
   2.00650E+01  1.28552E+01  1.55287E+01  1.50739E+01  1.68190E+01  1.49288E+01  1.56516E+01  9.48651E+00  1.52673E+01  1.27806E+01
   1.24933E+01  1.01463E+01  7.91072E+00  1.16298E+01  1.53669E+01  1.09186E+01  1.89079E+01  7.93626E+00  5.60961E+00  6.20283E-01
  -9.60243E-01 -6.41646E-01 -1.01811E+01 -3.04435E+00 -5.83586E+00 -9.03951E+00 -6.82405E+00 -1.00492E+01 -7.36405E+00 -7.29754E+00
  -8.35679E+00 -8.46225E+00 -1.05092E+01 -7.08024E+00 -5.42413E+00 -6.42373E+00 -2.05553E+00 -9.02657E+00  3.96165E+00  5.92475E+00
   6.57717E+00  7.34745E+00  1.72059E+01  1.17867E+01  9.99812E+00  9.15044E+00  5.79647E+00  3.06838E+00  3.06003E+00  5.62433E+00
   4.87937E+00  2.42975E+00  1.56353E+01  1.12690E+01  5.71827E+00  7.81753E+00  4.37240E+00  3.26246E+00  2.09061E+00  2.74572E+00
   3.10615E+00  1.97899E+00  6.70547E+00  1.33422E+01  1.94869E+01  2.07182E+01  1.81206E+01  2.08202E+01  9.66049E+00  1.92183E+00
   5.57493E+00  5.69556E+00  2.13782E-01  4.44269E+00  2.72190E+00  1.49362E+01  1.29719E+01  1.30409E+01  1.98063E+01  1.47707E+01
   1.52193E+01  1.24921E+01  1.16696E+01  1.16916E+01  1.63562E+01  1.15605E+01  1.55381E+01  1.37250E+01  1.33645E+01  8.19102E+00
   8.54373E+00  8.66609E+00  5.84944E+00  1.30047E+01  5.79985E+00  1.71091E+01  1.77576E+01  2.01517E+01  2.09972E+01  2.85700E+01
   3.25234E+01  3.40327E+01  4.16901E+01  4.32059E+01  5.19893E+01  7.30640E+01  9.36723E+01  9.73566E+01  1.04330E+02  1.17674E+02
   1.23788E+02  1.20939E+02  9.83069E+01  8.01419E+01  6.00694E+01  3.85980E+01  3.17988E+01  2.08083E+01  1.74859E+01  1.23970E+01
   1.55639E+01  1.27156E+01  1.45247E+01  1.38881E+01  1.05596E+01  7.36217E+00  1.27586E+01  6.76483E+00  7.91408E+00  5.68085E+00
   2.99858E+00  2.47651E+00  4.79766E-01  1.29170E+00 -1.80825E+00 -5.41707E+00  3.89211E+00  8.22847E+00  3.48785E+00  3.24939E+00
   5.76996E+00  7.53757E+00  5.12625E+00  2.24463E+00  2.93986E+00  2.61029E+00  3.51069E+00  3.58268E+00  7.06285E+00  9.12764E+00
   1.11164E+01  7.99509E+00  5.22606E+00  7.59723E+00  5.99250E+00  6.95306E+00  8.92800E+00  1.28423E+01  5.08392E+00  1.04528E+01
   2.29454E+00  6.82139E+00  5.56829E+00  2.81178E+00  4.24345E+00 -4.29383E-01  1.05188E+00  1.62044E+00 -7.32173E-01  2.50634E+00
  -8.49404E-02  3.99356E+00  4.98470E+00  4.34920E+00  9.35707E+00  5.99275E+00  1.37919E+01  7.18697E+00  1.13170E+01  1.37489E+01
   1.77794E+01  1.65285E+01  1.37764E+01  9.91600E+00  1.76834E+01  7.96329E+00  1.63988E+01  1.86515E+01  2.23889E+01  2.01421E+01
   2.83361E+01  2.54425E+01  3.41965E+01  3.20059E+01  3.08860E+01  2.54117E+01  3.39249E+01  2.83277E+01  3.12209E+01  2.68553E+01
   2.57071E+01  2.87257E+01  3.14993E+01  2.74856E+01  3.29788E+01  3.71791E+01  2.76149E+01  3.06061E+01  3.61774E+01  3.03783E+01
   2.60666E+01  3.10204E+01  2.18356E+01  1.44783E+01  2.28046E+01  1.43339E+01  1.95939E+01  2.06170E+01  1.68122E+01  1.82854E+01
   1.94173E+01  1.91678E+01  2.33605E+01  1.88417E+01  2.24722E+01  1.52172E+01  1.51764E+01  2.42261E+01  1.94140E+01  2.21753E+01
   2.43165E+01  1.91918E+01  1.70585E+01  1.97485E+01  1.78990E+01  1.30701E+01  2.00569E+01  1.29583E+01  1.92699E+01  2.11398E+01
   7.82561E+00  2.27489E+01  1.86362E+01  2.01562E+01  2.09010E+01  2.63568E+01  2.35018E+01  2.32216E+01  2.55184E+01  2.29745E+01
   2.33463E+01  2.71513E+01  2.27905E+01  2.69897E+01  2.95684E+01  3.06209E+01  2.67853E+01  2.17590E+01  2.33692E+01  2.42267E+01
   2.75655E+01  2.66408E+01  2.06371E+01  2.50550E+01  2.46800E+01  2.11653E+01  2.21038E+01  1.84477E+01  1.88223E+01  1.87093E+01
   1.69371E+01  1.74833E+01  1.87399E+01  1.62372E+01  1.82699E+01  1.10160E+01  1.25335E+01  1.16521E+01  1.37794E+01  1.23046E+01
   1.06278E+01  1.09692E+01  1.02694E+01  1.01708E+01  1.53462E+01  1.00634E+01  1.17236E+01  1.80020E+01  1.21843E+01  1.47634E+01
   1.13607E+01  9.94887E+00  1.50269E+01  1.16947E+01  9.03326E+00  1.46172E+01  1.60906E+01  1.46346E+01  6.73682E+00  7.33333E+00
   1.16317E+01  1.01817E+01  1.32618E+01  1.20111E+01  9.16899E+00  1.55427E+01  9.47029E+00  1.21916E+01  8.91278E+00  1.10004E+01
   9.49814E+00  9.81577E+00  1.06972E+01  7.80435E+00  1.07360E+01  6.96199E+00  9.09009E+00  1.06736E+01  6.22568E+00  1.00027E+01
   1.34643E+01  8.60964E+00  1.39068E+01  1.57302E+01  1.14752E+01  7.62608E+00  1.05354E+01  9.26604E+00  1.12526E+01  1.25351E+01
   1.04431E+01  9.94243E+00  1.53342E+01  8.96824E+00  1.57841E+01  8.58374E+00  2.14212E+00  7.79024E+00  1.11970E+01  1.17800E+01
   1.13611E+01  5.43410E+00  9.75498E+00  9.62368E+00  1.23769E+01  6.58452E+00  8.69275E+00  7.58167E+00
 NY points of the fit to the data follow
   4.47554E+01  4.49574E+01  4.64343E+01  4.94194E+01  5.42653E+01  6.06816E+01  6.77742E+01  7.49737E+01  8.17240E+01  8.71367E+01
   8.99774E+01  8.91454E+01  8.45192E+01  7.72862E+01  6.92780E+01  6.19762E+01  5.61165E+01  5.17123E+01  4.85088E+01  4.61735E+01
   4.45865E+01  4.33418E+01  4.22429E+01  4.18571E+01  4.23428E+01  4.35065E+01  4.52087E+01  4.74656E+01  5.03298E+01  5.33410E+01
   5.56130E+01  5.63280E+01  5.52297E+01  5.26318E+01  4.90981E+01  4.54334E+01  4.23208E+01  3.99295E+01  3.83752E+01  3.79699E+01
   3.86794E+01  4.00815E+01  4.16786E+01  4.31645E+01  4.44355E+01  4.54586E+01  4.60168E+01  4.57337E+01  4.44508E+01  4.23714E+01
   3.98643E+01  3.74205E+01  3.54943E+01  3.41916E+01  3.34335E+01  3.31101E+01  3.30731E+01  3.31449E+01  3.31569E+01  3.29818E+01
   3.25179E+01  3.17231E+01  3.06783E+01  2.95544E+01  2.86154E+01  2.80416E+01  2.78234E+01  2.78564E+01  2.80161E+01  2.81909E+01
   2.83011E+01  2.82685E+01  2.80364E+01  2.76126E+01  2.70637E+01  2.64747E+01  2.59240E+01  2.54497E+01  2.50582E+01  2.47425E+01
   2.44739E+01  2.41503E+01  2.37318E+01  2.32427E+01  2.27159E+01  2.21530E+01  2.15460E+01  2.09448E+01  2.04702E+01  2.02668E+01
   2.03444E+01  2.06294E+01  2.10260E+01  2.14913E+01  2.22392E+01  2.47062E+01  3.14305E+01  4.13180E+01  5.26181E+01  6.44819E+01
   7.68386E+01  8.90669E+01  9.83222E+01  1.00680E+02  9.45150E+01  8.18141E+01  6.63215E+01  5.16511E+01  4.01019E+01  3.18544E+01
   2.60519E+01  2.23561E+01  2.07740E+01  2.01646E+01  1.98332E+01  1.96333E+01  1.95402E+01  1.95887E+01  1.99427E+01  2.14781E+01
   2.66593E+01  3.52090E+01  4.53098E+01  5.59319E+01  6.68672E+01  7.78850E+01  8.70725E+01  9.10422E+01  8.75950E+01  7.77321E+01
   6.45523E+01  5.13192E+01  4.03590E+01  3.21257E+01  2.58352E+01  2.11811E+01  1.85441E+01  1.73822E+01  1.70771E+01  1.74107E+01
   1.80692E+01  1.86865E+01  1.90135E+01  1.89472E+01  1.85038E+01  1.78195E+01  1.70501E+01  1.62731E+01  1.55173E+01  1.48140E+01
   1.41782E+01  1.36381E+01  1.31839E+01  1.27676E+01  1.22937E+01  1.17843E+01  1.13001E+01  1.08589E+01  1.04556E+01  9.93234E+00
   9.24514E+00  8.57166E+00  8.09056E+00  7.79120E+00  7.51304E+00  7.04729E+00  6.28873E+00  5.32718E+00  4.30139E+00  3.26904E+00
   2.30945E+00  1.56274E+00  9.80919E-01  4.39701E-01 -1.89996E-01 -8.52252E-01 -1.29250E+00 -1.34242E+00 -1.18141E+00 -1.12491E+00
  -1.34580E+00 -1.65003E+00 -1.69578E+00 -1.31666E+00 -5.56832E-01  4.77834E-01  1.75374E+00  3.30139E+00  5.06225E+00  6.78066E+00
   8.09150E+00  8.57454E+00  8.18700E+00  7.21111E+00  6.03639E+00  4.98755E+00  4.29918E+00  4.26785E+00  5.01042E+00  6.38895E+00
   8.02901E+00  9.50663E+00  1.04441E+01  1.04659E+01  9.59922E+00  7.96151E+00  5.68191E+00  3.15506E+00  1.05011E+00  2.25041E-01
   9.28194E-01  2.80657E+00  5.42260E+00  8.39618E+00  1.12051E+01  1.29592E+01  1.28727E+01  1.09400E+01  7.82186E+00  4.28566E+00
   1.17096E+00 -8.37498E-01 -1.23182E+00  2.05409E-01  3.05504E+00  6.49839E+00  9.68718E+00  1.20378E+01  1.33598E+01  1.37874E+01
   1.37400E+01  1.36229E+01  1.37154E+01  1.41634E+01  1.49025E+01  1.56553E+01  1.60906E+01  1.60274E+01  1.54514E+01  1.45394E+01
   1.34896E+01  1.26321E+01  1.23740E+01  1.29642E+01  1.43100E+01  1.60623E+01  1.78992E+01  1.95834E+01  2.13159E+01  2.39078E+01
   2.72849E+01  3.11441E+01  3.59107E+01  4.45300E+01  5.83182E+01  7.38183E+01  8.80405E+01  9.99515E+01  1.10254E+02  1.18454E+02
   1.21326E+02  1.15570E+02  1.01291E+02  8.18704E+01  6.17534E+01  4.47247E+01  3.20996E+01  2.30233E+01  1.65285E+01  1.26970E+01
   1.09776E+01  9.94004E+00  9.18511E+00  8.59988E+00  8.05878E+00  7.46819E+00  6.83142E+00  6.18453E+00  5.57260E+00  5.03610E+00
   4.59857E+00  4.26245E+00  4.01783E+00  3.84289E+00  3.71182E+00  3.61239E+00  3.54148E+00  3.51203E+00  3.54191E+00  3.64319E+00
   3.82171E+00  4.07525E+00  4.38176E+00  4.71312E+00  5.04360E+00  5.35708E+00  5.64453E+00  5.90300E+00  6.13354E+00  6.33749E+00
   6.51376E+00  6.65758E+00  6.75738E+00  6.80131E+00  6.78183E+00  6.69916E+00  6.55977E+00  6.37251E+00  6.14813E+00  5.90184E+00
   5.64858E+00  5.40203E+00  5.17538E+00  4.98095E+00  4.83028E+00  4.73393E+00  4.70090E+00  4.73849E+00  4.85232E+00  5.04669E+00
   5.32477E+00  5.68857E+00  6.13870E+00  6.67443E+00  7.29410E+00  7.99511E+00  8.77388E+00  9.62547E+00  1.05435E+01  1.15202E+01
   1.25470E+01  1.36146E+01  1.47131E+01  1.58323E+01  1.69625E+01  1.80958E+01  1.92280E+01  2.03621E+01  2.15161E+01  2.27467E+01
   2.41675E+01  2.56431E+01  2.69201E+01  2.79379E+01  2.87103E+01  2.92172E+01  2.92920E+01  2.87688E+01  2.79539E+01  2.73168E+01
   2.71520E+01  2.75635E+01  2.85246E+01  2.99143E+01  3.14691E+01  3.27956E+01  3.35110E+01  3.33685E+01  3.23948E+01  3.08693E+01
   2.91322E+01  2.74266E+01  2.58412E+01  2.44065E+01  2.31972E+01  2.22015E+01  2.13514E+01  2.06057E+01  1.99378E+01  1.93299E+01
   1.87707E+01  1.82543E+01  1.77786E+01  1.73443E+01  1.69536E+01  1.66097E+01  1.63163E+01  1.60773E+01  1.58964E+01  1.57769E+01
   1.57221E+01  1.57347E+01  1.58172E+01  1.59715E+01  1.61989E+01  1.64999E+01  1.68740E+01  1.73199E+01  1.78348E+01  1.84144E+01
   1.90527E+01  1.97419E+01  2.04722E+01  2.12322E+01  2.20083E+01  2.27858E+01  2.35482E+01  2.42785E+01  2.49596E+01  2.55745E+01
   2.61075E+01  2.65442E+01  2.68727E+01  2.70838E+01  2.71718E+01  2.71341E+01  2.69719E+01  2.66897E+01  2.62951E+01  2.57988E+01
   2.52136E+01  2.45539E+01  2.38351E+01  2.30730E+01  2.22830E+01  2.14800E+01  2.06775E+01  1.98874E+01  1.91199E+01  1.83832E+01
   1.76836E+01  1.70260E+01  1.64131E+01  1.58464E+01  1.53260E+01  1.48510E+01  1.44199E+01  1.40305E+01  1.36800E+01  1.33655E+01
   1.30840E+01  1.28325E+01  1.26082E+01  1.24082E+01  1.22299E+01  1.20709E+01  1.19290E+01  1.18022E+01  1.16887E+01  1.15871E+01
   1.14957E+01  1.14134E+01  1.13390E+01  1.12716E+01  1.12104E+01  1.11545E+01  1.11033E+01  1.10561E+01  1.10125E+01  1.09719E+01
   1.09341E+01  1.08986E+01  1.08650E+01  1.08331E+01  1.08026E+01  1.07734E+01  1.07453E+01  1.07181E+01  1.06917E+01  1.06658E+01
   1.06405E+01  1.06157E+01  1.05912E+01  1.05669E+01  1.05429E+01  1.05189E+01  1.04951E+01  1.04714E+01  1.04476E+01  1.04238E+01
   1.03999E+01  1.03760E+01  1.03520E+01  1.03279E+01  1.03037E+01  1.02793E+01  1.02548E+01  1.02302E+01  1.02055E+01  1.01806E+01
   1.01555E+01  1.01303E+01  1.01050E+01  1.00796E+01  1.00542E+01  1.00287E+01  1.00030E+01  9.97728E+00  9.95156E+00  9.92588E+00
   9.90022E+00  9.87454E+00  9.84890E+00  9.82335E+00  9.79798E+00  9.77280E+00  9.74781E+00  9.72299E+00
 NY background values follow
     4.110E+01    4.087E+01    4.064E+01    4.041E+01    4.018E+01    3.994E+01    3.971E+01    3.948E+01    3.924E+01    3.901E+01
     3.877E+01    3.854E+01    3.830E+01    3.807E+01    3.783E+01    3.759E+01    3.736E+01    3.712E+01    3.688E+01    3.664E+01
     3.640E+01    3.616E+01    3.592E+01    3.568E+01    3.544E+01    3.520E+01    3.496E+01    3.472E+01    3.448E+01    3.423E+01
     3.399E+01    3.375E+01    3.350E+01    3.326E+01    3.302E+01    3.277E+01    3.253E+01    3.228E+01    3.203E+01    3.179E+01
     3.154E+01    3.129E+01    3.105E+01    3.080E+01    3.055E+01    3.030E+01    3.005E+01    2.980E+01    2.955E+01    2.930E+01
     2.905E+01    2.880E+01    2.855E+01    2.830E+01    2.805E+01    2.780E+01    2.756E+01    2.731E+01    2.706E+01    2.681E+01
     2.657E+01    2.632E+01    2.608E+01    2.584E+01    2.560E+01    2.536E+01    2.512E+01    2.488E+01    2.464E+01    2.441E+01
     2.418E+01    2.395E+01    2.372E+01    2.349E+01    2.327E+01    2.304E+01    2.282E+01    2.260E+01    2.239E+01    2.218E+01
     2.196E+01    2.176E+01    2.155E+01    2.135E+01    2.115E+01    2.095E+01    2.076E+01    2.057E+01    2.038E+01    2.020E+01
     2.002E+01    1.984E+01    1.967E+01    1.950E+01    1.934E+01    1.917E+01    1.901E+01    1.885E+01    1.870E+01    1.854E+01
     1.839E+01    1.824E+01    1.810E+01    1.795E+01    1.781E+01    1.766E+01    1.752E+01    1.738E+01    1.724E+01    1.710E+01
     1.696E+01    1.682E+01    1.668E+01    1.654E+01    1.640E+01    1.626E+01    1.612E+01    1.597E+01    1.583E+01    1.568E+01
     1.554E+01    1.539E+01    1.524E+01    1.509E+01    1.494E+01    1.478E+01    1.462E+01    1.446E+01    1.430E+01    1.413E+01
     1.396E+01    1.379E+01    1.361E+01    1.343E+01    1.325E+01    1.306E+01    1.287E+01    1.267E+01    1.247E+01    1.227E+01
     1.206E+01    1.185E+01    1.164E+01    1.142E+01    1.120E+01    1.098E+01    1.076E+01    1.053E+01    1.031E+01    1.008E+01
     9.851E+00    9.621E+00    9.392E+00    9.162E+00    8.932E+00    8.702E+00    8.473E+00    8.244E+00    8.017E+00    7.790E+00
     7.565E+00    7.342E+00    7.121E+00    6.901E+00    6.685E+00    6.471E+00    6.259E+00    6.051E+00    5.847E+00    5.646E+00
     5.449E+00    5.256E+00    5.067E+00    4.883E+00    4.704E+00    4.530E+00    4.362E+00    4.199E+00    4.041E+00    3.890E+00
     3.746E+00    3.607E+00    3.476E+00    3.351E+00    3.232E+00    3.119E+00    3.013E+00    2.911E+00    2.816E+00    2.725E+00
     2.640E+00    2.559E+00    2.483E+00    2.412E+00    2.344E+00    2.281E+00    2.221E+00    2.165E+00    2.112E+00    2.063E+00
     2.016E+00    1.972E+00    1.931E+00    1.892E+00    1.855E+00    1.820E+00    1.786E+00    1.754E+00    1.724E+00    1.694E+00
     1.665E+00    1.637E+00    1.609E+00    1.582E+00    1.555E+00    1.527E+00    1.499E+00    1.470E+00    1.441E+00    1.410E+00
     1.379E+00    1.346E+00    1.311E+00    1.274E+00    1.235E+00    1.194E+00    1.151E+00    1.104E+00    1.056E+00    1.005E+00
     9.509E-01    8.950E-01    8.369E-01    7.767E-01    7.145E-01    6.504E-01    5.844E-01    5.168E-01    4.475E-01    3.768E-01
     3.046E-01    2.310E-01    1.563E-01    8.035E-02    3.390E-03   -7.451E-02   -1.533E-01   -2.328E-01   -3.129E-01   -3.937E-01
    -4.749E-01   -5.565E-01   -6.383E-01   -7.203E-01   -8.025E-01   -8.846E-01   -9.666E-01   -1.048E+00   -1.130E+00   -1.211E+00
    -1.292E+00   -1.372E+00   -1.451E+00   -1.530E+00   -1.607E+00   -1.684E+00   -1.760E+00   -1.834E+00   -1.907E+00   -1.979E+00
    -2.050E+00   -2.119E+00   -2.186E+00   -2.251E+00   -2.315E+00   -2.377E+00   -2.437E+00   -2.496E+00   -2.552E+00   -2.606E+00
    -2.659E+00   -2.709E+00   -2.757E+00   -2.803E+00   -2.847E+00   -2.888E+00   -2.927E+00   -2.964E+00   -2.998E+00   -3.030E+00
    -3.060E+00   -3.086E+00   -3.111E+00   -3.132E+00   -3.151E+00   -3.167E+00   -3.180E+00   -3.191E+00   -3.198E+00   -3.203E+00
    -3.204E+00   -3.203E+00   -3.198E+00   -3.190E+00   -3.179E+00   -3.165E+00   -3.147E+00   -3.127E+00   -3.102E+00   -3.075E+00
    -3.043E+00   -3.009E+00   -2.970E+00   -2.928E+00   -2.883E+00   -2.834E+00   -2.780E+00   -2.724E+00   -2.663E+00   -2.598E+00
    -2.531E+00   -2.459E+00   -2.384E+00   -2.306E+00   -2.225E+00   -2.141E+00   -2.053E+00   -1.963E+00   -1.870E+00   -1.774E+00
    -1.676E+00   -1.575E+00   -1.472E+00   -1.366E+00   -1.259E+00   -1.149E+00   -1.037E+00   -9.231E-01   -8.074E-01   -6.901E-01
    -5.711E-01   -4.506E-01   -3.287E-01   -2.054E-01   -8.085E-02    4.481E-02    1.715E-01    2.992E-01    4.277E-01    5.569E-01
     6.869E-01    8.173E-01    9.483E-01    1.080E+00    1.211E+00    1.343E+00    1.475E+00    1.606E+00    1.738E+00    1.870E+00
     2.001E+00    2.131E+00    2.262E+00    2.391E+00    2.520E+00    2.649E+00    2.777E+00    2.904E+00    3.030E+00    3.156E+00
     3.281E+00    3.406E+00    3.529E+00    3.652E+00    3.774E+00    3.896E+00    4.016E+00    4.136E+00    4.255E+00    4.373E+00
     4.490E+00    4.606E+00    4.721E+00    4.836E+00    4.949E+00    5.062E+00    5.173E+00    5.283E+00    5.393E+00    5.501E+00
     5.608E+00    5.714E+00    5.819E+00    5.923E+00    6.026E+00    6.127E+00    6.227E+00    6.326E+00    6.424E+00    6.521E+00
     6.616E+00    6.710E+00    6.803E+00    6.895E+00    6.985E+00    7.073E+00    7.161E+00    7.247E+00    7.331E+00    7.414E+00
     7.496E+00    7.576E+00    7.655E+00    7.732E+00    7.808E+00    7.883E+00    7.956E+00    8.028E+00    8.098E+00    8.167E+00
     8.234E+00    8.300E+00    8.365E+00    8.428E+00    8.489E+00    8.549E+00    8.608E+00    8.665E+00    8.721E+00    8.775E+00
     8.828E+00    8.880E+00    8.930E+00    8.978E+00    9.025E+00    9.071E+00    9.115E+00    9.157E+00    9.198E+00    9.238E+00
     9.276E+00    9.312E+00    9.348E+00    9.381E+00    9.413E+00    9.444E+00    9.473E+00    9.501E+00    9.527E+00    9.552E+00
     9.575E+00    9.596E+00    9.616E+00    9.635E+00    9.652E+00    9.668E+00    9.682E+00    9.695E+00    9.706E+00    9.717E+00
     9.725E+00    9.733E+00    9.739E+00    9.745E+00    9.749E+00    9.752E+00    9.753E+00    9.754E+00    9.754E+00    9.752E+00
     9.750E+00    9.746E+00    9.742E+00    9.737E+00    9.731E+00    9.724E+00    9.716E+00    9.707E+00    9.698E+00    9.688E+00
     9.677E+00    9.666E+00    9.654E+00    9.641E+00    9.628E+00    9.615E+00    9.600E+00    9.586E+00    9.570E+00    9.555E+00
     9.539E+00    9.523E+00    9.506E+00    9.489E+00    9.472E+00    9.454E+00    9.437E+00    9.419E+00
 Cr       Conc. = 1.28E+03
