 LCModel (Version 6.3-1L) Copyright: S.W. Provencher.          Ref.: Magn. Reson. Med. 30:672-679 (1993).                
 Slice#2 Row#1 Col#10  K_02_press_1_raw_act
 36 lines in following concentration table = NCONC+1
    Conc.  %SD /Cr+PCr  Metabolite                                         
    0.000 999%   0.000 Ala                                                 
   22.185 122%   0.133 Asp                                                 
  166.657  17%   1.000 Cr                                                  
    0.000 999%   0.000 PCr                                                 
   14.851 110% 8.9E-02 GABA                                                
   14.932 110% 9.0E-02 Glc                                                 
    0.000 999%   0.000 Gln                                                 
  182.916  60%   1.098 Glu                                                 
   41.325  25%   0.248 GPC                                                 
    0.000 999%   0.000 PCh                                                 
  104.587  35%   0.628 GSH                                                 
   58.717 188%   0.352 Ins                                                 
    0.000 999%   0.000 Lac                                                 
   96.073  35%   0.576 NAA                                                 
   78.297  44%   0.470 NAAG                                                
    2.903 179% 1.7E-02 Scyllo                                              
   17.990 149%   0.108 Tau                                                 
   36.239  99%   0.217 -CrCH2                                              
   41.325  25%   0.248 GPC+PCh                                             
  174.370  21%   1.046 NAA+NAAG                                            
  166.657  17%   1.000 Cr+PCr                                              
  182.916  60%   1.098 Glu+Gln                                             
 3.04E+03  13%  18.248 Lip13a                                              
    0.000 999%   0.000 Lip13b                                              
  652.973  22%   3.918 Lip09                                               
    0.000 999%   0.000 MM09                                                
  380.196  38%   2.281 Lip20                                               
    0.000 999%   0.000 MM20                                                
   38.791 281%   0.233 MM12                                                
  550.414  45%   3.303 MM14                                                
  303.567  49%   1.822 MM17                                                
 3.04E+03  13%  18.248 Lip13a+Lip13b                                       
 3.63E+03   8%  21.784 MM14+Lip13a+Lip13b+MM12                             
  652.973  22%   3.918 MM09+Lip09                                          
  380.196  38%   2.281 MM20+Lip20                                          
   6 lines in following misc. output table
  FWHM = 0.046 ppm    S/N =   2                                            
  Data shift = 0.023 ppm                                                   
  Ph:-179 deg      31.4 deg/ppm                                            
  alphaB,S = 8.5E+01,   2.6E+01                                            
   14 spline knots.   Ns = 5(1)                                            
   2 inflections.     1 extrema                                            
  498 points on ppm-axis = NY
      4.000000     3.992357     3.984714     3.977070     3.969427     3.961784     3.954141     3.946497     3.938854     3.931211
      3.923568     3.915925     3.908281     3.900638     3.892995     3.885352     3.877708     3.870065     3.862422     3.854779
      3.847136     3.839492     3.831849     3.824206     3.816563     3.808919     3.801276     3.793633     3.785990     3.778347
      3.770703     3.763060     3.755417     3.747774     3.740130     3.732487     3.724844     3.717201     3.709558     3.701914
      3.694271     3.686628     3.678985     3.671341     3.663698     3.656055     3.648412     3.640769     3.633125     3.625482
      3.617839     3.610196     3.602552     3.594909     3.587266     3.579623     3.571980     3.564336     3.556693     3.549050
      3.541407     3.533763     3.526120     3.518477     3.510834     3.503191     3.495547     3.487904     3.480261     3.472618
      3.464974     3.457331     3.449688     3.442045     3.434402     3.426758     3.419115     3.411472     3.403829     3.396185
      3.388542     3.380899     3.373256     3.365613     3.357969     3.350326     3.342683     3.335040     3.327396     3.319753
      3.312110     3.304467     3.296824     3.289180     3.281537     3.273894     3.266251     3.258607     3.250964     3.243321
      3.235678     3.228034     3.220391     3.212748     3.205105     3.197462     3.189818     3.182175     3.174532     3.166889
      3.159245     3.151602     3.143959     3.136316     3.128673     3.121029     3.113386     3.105743     3.098100     3.090456
      3.082813     3.075170     3.067527     3.059884     3.052240     3.044597     3.036954     3.029311     3.021667     3.014024
      3.006381     2.998738     2.991095     2.983451     2.975808     2.968165     2.960522     2.952878     2.945235     2.937592
      2.929949     2.922306     2.914662     2.907019     2.899376     2.891733     2.884089     2.876446     2.868803     2.861160
      2.853517     2.845873     2.838230     2.830587     2.822944     2.815300     2.807657     2.800014     2.792371     2.784728
      2.777084     2.769441     2.761798     2.754155     2.746511     2.738868     2.731225     2.723582     2.715939     2.708295
      2.700652     2.693009     2.685366     2.677722     2.670079     2.662436     2.654793     2.647150     2.639506     2.631863
      2.624220     2.616577     2.608933     2.601290     2.593647     2.586004     2.578361     2.570717     2.563074     2.555431
      2.547788     2.540144     2.532501     2.524858     2.517215     2.509572     2.501928     2.494285     2.486642     2.478999
      2.471355     2.463712     2.456069     2.448426     2.440783     2.433139     2.425496     2.417853     2.410210     2.402566
      2.394923     2.387280     2.379637     2.371994     2.364350     2.356707     2.349064     2.341421     2.333777     2.326134
      2.318491     2.310848     2.303205     2.295561     2.287918     2.280275     2.272632     2.264988     2.257345     2.249702
      2.242059     2.234416     2.226772     2.219129     2.211486     2.203843     2.196199     2.188556     2.180913     2.173270
      2.165627     2.157983     2.150340     2.142697     2.135054     2.127410     2.119767     2.112124     2.104481     2.096838
      2.089194     2.081551     2.073908     2.066265     2.058621     2.050978     2.043335     2.035692     2.028049     2.020405
      2.012762     2.005119     1.997476     1.989833     1.982190     1.974546     1.966903     1.959260     1.951617     1.943974
      1.936331     1.928688     1.921045     1.913402     1.905759     1.898115     1.890472     1.882829     1.875186     1.867543
      1.859900     1.852257     1.844614     1.836971     1.829327     1.821684     1.814041     1.806398     1.798755     1.791112
      1.783469     1.775826     1.768183     1.760540     1.752896     1.745253     1.737610     1.729967     1.722324     1.714681
      1.707038     1.699395     1.691752     1.684108     1.676465     1.668822     1.661179     1.653536     1.645893     1.638250
      1.630607     1.622964     1.615321     1.607677     1.600034     1.592391     1.584748     1.577105     1.569462     1.561819
      1.554176     1.546533     1.538890     1.531246     1.523603     1.515960     1.508317     1.500674     1.493031     1.485388
      1.477745     1.470102     1.462458     1.454815     1.447172     1.439529     1.431886     1.424243     1.416600     1.408957
      1.401314     1.393671     1.386027     1.378384     1.370741     1.363098     1.355455     1.347812     1.340169     1.332526
      1.324883     1.317240     1.309596     1.301953     1.294310     1.286667     1.279024     1.271381     1.263738     1.256095
      1.248452     1.240808     1.233165     1.225522     1.217879     1.210236     1.202593     1.194950     1.187307     1.179664
      1.172021     1.164377     1.156734     1.149091     1.141448     1.133805     1.126162     1.118519     1.110876     1.103233
      1.095590     1.087946     1.080303     1.072660     1.065017     1.057374     1.049731     1.042088     1.034445     1.026802
      1.019158     1.011515     1.003872     0.996229     0.988586     0.980943     0.973300     0.965657     0.958014     0.950371
      0.942727     0.935084     0.927441     0.919798     0.912155     0.904512     0.896869     0.889226     0.881583     0.873940
      0.866296     0.858653     0.851010     0.843367     0.835724     0.828081     0.820438     0.812795     0.805152     0.797508
      0.789865     0.782222     0.774579     0.766936     0.759293     0.751650     0.744007     0.736364     0.728721     0.721077
      0.713434     0.705791     0.698148     0.690505     0.682862     0.675219     0.667576     0.659933     0.652290     0.644646
      0.637003     0.629360     0.621717     0.614074     0.606431     0.598788     0.591145     0.583502     0.575858     0.568215
      0.560572     0.552929     0.545286     0.537643     0.530000     0.522357     0.514714     0.507071     0.499427     0.491784
      0.484141     0.476498     0.468855     0.461212     0.453569     0.445925     0.438282     0.430639     0.422996     0.415353
      0.407710     0.400067     0.392424     0.384780     0.377137     0.369494     0.361851     0.354208     0.346565     0.338922
      0.331278     0.323635     0.315992     0.308349     0.300706     0.293063     0.285420     0.277777     0.270133     0.262490
      0.254847     0.247204     0.239561     0.231918     0.224275     0.216631     0.208988     0.201345
 NY phased data points follow
   5.56276E+00  4.22750E+00  4.62637E+00  4.69063E+00  5.89330E+00  6.29263E+00  3.48699E+00  4.07218E+00 -7.60009E-01  5.26735E+00
   5.03817E+00  1.03768E+01  3.37723E+00  1.05234E+01  7.02470E+00  8.71227E+00  3.11976E+00  8.14691E+00  6.88014E+00  5.08968E+00
   8.82278E-01  5.65322E+00  3.37189E+00  6.30409E+00  3.37126E+00  6.21115E+00  6.81811E+00  4.66638E+00  3.88365E+00  6.58051E+00
   5.37855E+00  6.77411E+00  5.86627E+00  5.47017E+00  5.13435E+00  5.86559E+00  3.38799E+00  1.54921E+00  4.06083E+00  3.82279E+00
   3.68946E+00  2.95288E+00  2.55714E+00  1.49366E+00  2.40179E+00  2.30497E+00  5.56465E+00  4.19174E+00  3.74232E+00 -3.63246E-01
   5.55745E+00 -1.00547E+00  5.15745E+00  5.22155E+00  2.74881E+00  6.54017E+00  3.21768E+00  2.18491E+00  3.19738E+00  2.82569E+00
   1.54973E+00  1.27592E+00  1.80578E+00  6.39746E+00  3.08773E+00  4.77281E+00  3.92124E+00  2.02365E-01  5.55317E+00  2.63898E+00
   4.83902E-01 -1.75934E+00  4.69251E+00  2.65947E+00  4.30639E+00 -3.63114E-01  4.22082E+00  5.22041E-01  4.83019E+00  3.29116E+00
   1.49986E-01 -1.27268E+00  6.46714E-01  1.68542E+00  1.07410E+00  1.83946E+00  3.24283E+00 -8.84846E-01  3.58055E+00  3.32646E+00
   4.07991E+00  1.00365E+00  2.55277E+00  8.95219E-01  4.09186E+00  2.28643E+00  3.84168E+00  2.40655E+00  5.32018E+00  2.29620E+00
   5.78951E-01  3.86529E+00  7.07930E+00  9.02971E+00  8.73029E+00  5.33116E+00  5.09062E+00  2.62882E+00  5.55331E+00  1.88048E+00
   1.44067E+00  1.55663E+00  3.70124E+00 -1.13429E+00  1.84102E+00  6.29677E+00  3.11396E+00  4.43873E+00  7.10434E-01 -1.21221E+00
  -1.16477E+00  1.42853E+00  1.42776E+00  7.20284E-01  9.80335E-01  4.65710E+00  1.05229E+01  7.62754E+00  1.20172E+01  7.16933E+00
   7.35134E+00  5.37458E+00  1.83619E+00  7.16318E+00  2.74728E+00  7.96759E-01  8.40389E-01 -1.90857E+00  3.64337E+00  1.74874E+00
   1.96687E+00  4.31894E+00  2.34564E-01  3.45511E+00  2.80373E+00  6.65688E+00 -1.15529E+00  6.95133E+00  9.55087E-01  3.73550E+00
   2.38863E+00  2.82517E+00  2.72434E+00  1.99410E+00  4.23173E+00  7.55545E-01  1.51900E+00  4.64474E+00  4.36111E+00  5.01527E+00
   3.05569E+00  5.27983E+00 -7.45297E-01  3.40614E+00 -3.78651E-01  3.19503E+00  3.50554E+00  1.53368E+00 -3.97074E-01 -2.87148E-01
  -2.05792E+00  2.44827E+00  3.52699E+00  4.77306E-01 -1.92964E+00  1.02820E+00  7.78372E-01 -1.49964E-01  1.61479E+00  2.83137E-01
   3.94214E-01  1.22532E+00  1.90940E+00  3.19363E+00 -8.09588E-01  6.71879E+00  2.69982E+00  3.36643E+00  2.37510E+00 -4.17616E-01
   1.89263E-01  6.39474E+00  2.64854E+00 -5.05723E-01  1.51644E+00  7.51339E+00  4.55355E+00  4.33576E+00  3.57933E+00  6.27565E-01
   4.60761E+00  1.51215E+00  1.15628E+00  2.67324E+00  6.51974E-01  4.16895E+00  2.06329E+00  2.69697E+00  2.38916E+00  7.11096E-01
   4.48214E+00  2.67073E+00  6.55551E+00  4.14202E+00  3.93061E-01  2.10088E+00  2.81076E+00  3.79523E+00  6.12158E+00  2.25156E+00
  -1.71753E+00  2.24123E+00  5.38544E-01  2.58084E+00  2.38394E-02  3.38274E+00  2.70025E+00  4.80601E+00  3.85715E+00  5.65614E+00
   1.07361E+00  2.71803E+00  1.40676E+00  3.54628E+00  2.55619E+00  3.08770E+00  5.41493E+00  4.81867E+00  6.69826E+00  3.52519E+00
   7.25232E+00  2.08286E+00  4.13650E+00  2.61679E+00  3.48955E+00  3.02664E+00  1.35635E+00  3.13159E+00  2.33569E+00  4.41311E+00
   1.39181E+00  6.34896E-04  6.33888E+00  4.59257E+00  6.25067E+00  9.71745E+00  2.48273E+00  2.52233E+00  5.56525E+00  1.42968E+01
   1.20284E+01  5.52299E+00  5.76134E+00  1.82361E+00  3.58408E+00 -7.15537E-01  7.91609E-01 -2.39065E+00  6.84533E-01 -5.07975E-01
  -1.43260E+00  1.36734E+00  2.96075E+00  2.47310E+00  2.02330E+00 -5.49628E-01  1.87033E+00  5.13510E-01 -4.76614E-01  3.00833E+00
   4.32411E+00  5.14843E+00  8.61376E+00  2.38294E+00  2.81949E+00  1.61478E+00  5.38396E+00  3.83072E+00  3.50230E+00  4.98594E+00
   2.92644E+00  4.39359E+00  3.52743E+00  1.12845E+00  2.38581E+00  5.98342E+00  4.45201E+00  3.23863E+00  3.49000E+00  2.50446E+00
   2.30805E+00  2.80961E+00  4.54076E+00  4.52145E+00  5.77945E+00  9.78314E-01  4.80202E+00  3.60443E+00  5.10184E+00  1.74888E+00
   4.96156E+00  5.89657E+00  5.41974E+00  4.58414E+00  7.22403E+00  5.46128E+00  8.01001E+00  4.56301E+00 -9.31812E-01  2.32728E+00
   3.01913E+00  2.53789E+00  6.72522E+00  6.91344E+00  9.75667E+00  7.62219E+00  4.87421E+00  9.77210E+00  5.52405E+00  7.19758E+00
   8.44251E+00  1.04395E+01  4.02176E+00  1.13697E+01  6.22502E+00  6.55106E+00  1.02417E+01  1.04562E+01  8.48384E+00  9.30445E+00
   4.35145E+00  7.09799E+00  9.10780E+00  5.98802E+00  1.10853E+01  5.29840E+00  1.14317E+01  1.05345E+01  1.10986E+01  1.27703E+01
   1.32435E+01  1.57522E+01  1.28900E+01  1.18553E+01  1.06896E+01  1.10306E+01  8.52955E+00  1.04137E+01  9.45569E+00  1.29319E+01
   1.09697E+01  9.98115E+00  1.17539E+01  9.89566E+00  8.52430E+00  6.27753E+00  8.21517E+00  9.40172E+00  1.29940E+01  1.22414E+01
   2.84908E+00  7.92509E+00  9.18775E+00  7.28145E+00  8.91627E+00  7.06751E+00  1.00243E+01  6.56471E+00  7.87496E+00  5.54497E+00
   8.13713E+00  2.83161E+00  4.16481E+00  1.94332E+00  6.02381E+00  5.45273E+00  5.75473E+00  1.09505E+01  6.13311E+00  2.82112E+00
   5.14202E+00  5.11589E+00  5.35020E+00 -3.87091E+00  4.76347E+00  3.61191E+00  3.92159E+00  5.19481E+00  5.13915E+00  1.61965E+00
   7.03261E+00  4.06077E+00  4.21262E+00  4.96361E+00  7.19371E+00  3.33910E-01  5.49845E+00  3.80892E+00  6.44916E+00  4.62959E+00
   2.70991E+00  2.33320E+00  1.65322E+00  1.15390E+00  3.83776E-02  4.16609E+00  1.16842E+00  5.56209E+00  6.09668E+00  3.99511E+00
   3.11670E+00  4.34117E-01  3.82032E+00 -3.29285E-01  2.29996E+00  3.89403E+00  5.17681E+00  6.25014E-01 -1.60926E+00  1.10103E+00
   1.67133E+00  8.08134E-01  6.37050E+00 -2.81156E+00  2.08180E+00  2.51834E-01  4.02342E+00  2.13115E+00  1.05624E+00  4.50340E+00
   8.32458E-01  1.40174E+00  8.36071E-01  3.24669E+00  4.17634E+00  2.50021E+00  1.47386E+00  5.79199E-01  1.27951E+00  1.83016E+00
   1.42457E+00  2.96837E+00  1.36022E+00 -3.08307E+00 -3.11156E+00  3.56821E+00  1.35526E+00 -6.64044E-02 -4.36166E-01 -6.48911E-01
  -7.98158E-01  2.32402E+00 -1.32446E+00  4.32800E+00 -8.73254E-02  2.40358E+00  6.95112E-01  6.22506E-01 -3.33562E+00 -7.92540E-01
   3.20390E+00 -1.72296E+00 -2.51693E-01 -3.09355E+00  3.88126E+00 -2.09536E+00 -3.22310E+00  3.43228E+00  4.47154E-02  6.08795E-01
  -4.17248E-01 -2.03935E+00 -1.97555E+00 -6.97177E-01  2.60842E+00 -2.98760E+00 -3.40943E-01  4.53356E+00 -4.91341E+00  5.53013E-01
   2.31712E-02 -1.70453E+00  6.13764E-01 -3.71699E+00 -9.63052E-01  2.17959E+00 -1.47667E+00  5.87337E-01
 NY points of the fit to the data follow
   3.35922E+00  3.35051E+00  3.36548E+00  3.41592E+00  3.48850E+00  3.50057E+00  3.35363E+00  3.16189E+00  3.44218E+00  4.54558E+00
   6.08679E+00  7.23401E+00  7.53665E+00  7.17404E+00  6.49276E+00  5.66035E+00  4.73172E+00  3.88332E+00  3.34660E+00  3.23002E+00
   3.26311E+00  3.29266E+00  3.28496E+00  3.26833E+00  3.24954E+00  3.17916E+00  3.17956E+00  3.58672E+00  4.50913E+00  5.56682E+00
   6.25284E+00  6.38870E+00  6.08914E+00  5.49065E+00  4.68037E+00  3.79701E+00  3.07082E+00  2.71223E+00  2.66523E+00  2.73175E+00
   2.85339E+00  2.99498E+00  3.10086E+00  3.15850E+00  3.22677E+00  3.33797E+00  3.44517E+00  3.49813E+00  3.46511E+00  3.36878E+00
   3.24295E+00  3.10179E+00  2.96072E+00  2.85475E+00  2.80002E+00  2.77924E+00  2.77782E+00  2.80395E+00  2.85595E+00  2.90850E+00
   2.93273E+00  2.91639E+00  2.86915E+00  2.81155E+00  2.75888E+00  2.72149E+00  2.70677E+00  2.71044E+00  2.72482E+00  2.74944E+00
   2.77919E+00  2.80722E+00  2.83615E+00  2.87269E+00  2.90881E+00  2.92022E+00  2.89668E+00  2.84328E+00  2.77962E+00  2.72891E+00
   2.69844E+00  2.68551E+00  2.69807E+00  2.74289E+00  2.79770E+00  2.82142E+00  2.78992E+00  2.72061E+00  2.65421E+00  2.61768E+00
   2.60803E+00  2.61069E+00  2.62091E+00  2.64748E+00  2.68630E+00  2.73414E+00  2.79285E+00  2.85197E+00  2.89268E+00  3.14656E+00
   4.03205E+00  5.54484E+00  7.01581E+00  7.70769E+00  7.48452E+00  6.69262E+00  5.67550E+00  4.59222E+00  3.56999E+00  2.77843E+00
   2.41982E+00  2.37102E+00  2.38128E+00  2.40158E+00  2.42604E+00  2.45766E+00  2.49089E+00  2.51563E+00  2.52938E+00  2.54231E+00
   2.56866E+00  2.61831E+00  2.67540E+00  2.89264E+00  3.81781E+00  5.72311E+00  7.96764E+00  9.43221E+00  9.59716E+00  8.79394E+00
   7.58706E+00  6.30047E+00  5.01777E+00  3.80732E+00  2.87500E+00  2.34770E+00  1.97548E+00  1.75389E+00  1.74108E+00  1.93393E+00
   2.26368E+00  2.62226E+00  2.88979E+00  3.02173E+00  3.03833E+00  2.97067E+00  2.86095E+00  2.76135E+00  2.68314E+00  2.63645E+00
   2.59755E+00  2.54731E+00  2.48182E+00  2.41900E+00  2.38614E+00  2.39988E+00  2.44854E+00  2.48900E+00  2.48352E+00  2.43350E+00
   2.36941E+00  2.31999E+00  2.29261E+00  2.27880E+00  2.26616E+00  2.24886E+00  2.22212E+00  2.17523E+00  2.11755E+00  2.07879E+00
   2.07586E+00  2.09402E+00  2.09512E+00  2.04400E+00  1.95716E+00  1.88216E+00  1.84630E+00  1.83103E+00  1.80684E+00  1.75993E+00
   1.71155E+00  1.69738E+00  1.71500E+00  1.72359E+00  1.70481E+00  1.68684E+00  1.71576E+00  1.82883E+00  2.03666E+00  2.31751E+00
   2.59409E+00  2.77404E+00  2.79636E+00  2.67030E+00  2.41849E+00  2.06635E+00  1.71058E+00  1.50657E+00  1.53328E+00  1.72693E+00
   1.97530E+00  2.21638E+00  2.43868E+00  2.60994E+00  2.68160E+00  2.62765E+00  2.49351E+00  2.32654E+00  2.14548E+00  1.98064E+00
   1.87762E+00  1.88530E+00  2.08114E+00  2.49375E+00  2.98756E+00  3.33937E+00  3.40949E+00  3.21450E+00  2.81369E+00  2.22543E+00
   1.54516E+00  1.03149E+00  9.07733E-01  1.20223E+00  1.70401E+00  2.23285E+00  2.70764E+00  3.06040E+00  3.19434E+00  3.05810E+00
   2.76481E+00  2.52655E+00  2.47061E+00  2.59328E+00  2.86191E+00  3.21461E+00  3.52431E+00  3.62448E+00  3.42414E+00  2.98572E+00
   2.47738E+00  2.05758E+00  1.85237E+00  1.92680E+00  2.25075E+00  2.71058E+00  3.14134E+00  3.41458E+00  3.49489E+00  3.42597E+00
   3.28240E+00  3.17026E+00  3.34501E+00  4.05478E+00  5.13796E+00  6.04377E+00  6.51455E+00  6.92260E+00  7.58541E+00  8.20460E+00
   8.24813E+00  7.61928E+00  6.65709E+00  5.72144E+00  4.80273E+00  3.89326E+00  3.12359E+00  2.67287E+00  2.48598E+00  2.37106E+00
   2.30140E+00  2.28559E+00  2.31138E+00  2.35609E+00  2.39774E+00  2.41758E+00  2.41393E+00  2.39204E+00  2.35876E+00  2.32352E+00
   2.30239E+00  2.30718E+00  2.33628E+00  2.38147E+00  2.43522E+00  2.49385E+00  2.55474E+00  2.61499E+00  2.67561E+00  2.74412E+00
   2.82755E+00  2.92524E+00  3.03095E+00  3.14063E+00  3.25140E+00  3.35953E+00  3.46125E+00  3.55513E+00  3.64361E+00  3.73131E+00
   3.81834E+00  3.90195E+00  3.97972E+00  4.04984E+00  4.11089E+00  4.16194E+00  4.20262E+00  4.23502E+00  4.26155E+00  4.28446E+00
   4.30624E+00  4.32928E+00  4.35591E+00  4.38855E+00  4.42953E+00  4.48099E+00  4.54476E+00  4.62231E+00  4.71475E+00  4.82275E+00
   4.94653E+00  5.08581E+00  5.23998E+00  5.40815E+00  5.58917E+00  5.78163E+00  5.98395E+00  6.19447E+00  6.41155E+00  6.63365E+00
   6.85937E+00  7.08745E+00  7.31683E+00  7.54669E+00  7.77649E+00  8.00592E+00  8.23486E+00  8.46328E+00  8.69125E+00  8.91883E+00
   9.14601E+00  9.37261E+00  9.59819E+00  9.82191E+00  1.00426E+01  1.02586E+01  1.04679E+01  1.06681E+01  1.08565E+01  1.10297E+01
   1.11846E+01  1.13176E+01  1.14256E+01  1.15053E+01  1.15539E+01  1.15688E+01  1.15484E+01  1.14913E+01  1.13971E+01  1.12662E+01
   1.10993E+01  1.08984E+01  1.06658E+01  1.04045E+01  1.01181E+01  9.81042E+00  9.48562E+00  9.14800E+00  8.80190E+00  8.45160E+00
   8.10114E+00  7.75430E+00  7.41455E+00  7.08497E+00  6.76832E+00  6.46687E+00  6.18251E+00  5.91671E+00  5.67058E+00  5.44492E+00
   5.24026E+00  5.05679E+00  4.89449E+00  4.75310E+00  4.63222E+00  4.53130E+00  4.44962E+00  4.38628E+00  4.34026E+00  4.31037E+00
   4.29532E+00  4.29366E+00  4.30376E+00  4.32380E+00  4.35185E+00  4.38582E+00  4.42354E+00  4.46274E+00  4.50110E+00  4.53627E+00
   4.56596E+00  4.58802E+00  4.60051E+00  4.60166E+00  4.59000E+00  4.56436E+00  4.52398E+00  4.46848E+00  4.39791E+00  4.31262E+00
   4.21336E+00  4.10119E+00  3.97747E+00  3.84378E+00  3.70185E+00  3.55348E+00  3.40049E+00  3.24467E+00  3.08778E+00  2.93142E+00
   2.77703E+00  2.62584E+00  2.47889E+00  2.33705E+00  2.20099E+00  2.07120E+00  1.94798E+00  1.83143E+00  1.72160E+00  1.61840E+00
   1.52168E+00  1.43120E+00  1.34664E+00  1.26767E+00  1.19395E+00  1.12515E+00  1.06093E+00  1.00094E+00  9.44839E-01  8.92299E-01
   8.43048E-01  7.96824E-01  7.53386E-01  7.12475E-01  6.73872E-01  6.37376E-01  6.02838E-01  5.70100E-01  5.39018E-01  5.09432E-01
   4.81221E-01  4.54278E-01  4.28531E-01  4.03885E-01  3.80256E-01  3.57544E-01  3.35690E-01  3.14640E-01  2.94361E-01  2.74786E-01
   2.55861E-01  2.37520E-01  2.19744E-01  2.02504E-01  1.85783E-01  1.69529E-01  1.53707E-01  1.38276E-01  1.23239E-01  1.08576E-01
   9.42760E-02  8.02928E-02  6.66064E-02  5.31965E-02  4.00751E-02  2.72265E-02  1.46373E-02  2.26703E-03 -9.89100E-03 -2.18453E-02
  -3.35801E-02 -4.51142E-02 -5.64621E-02 -6.76562E-02 -7.86909E-02 -8.95671E-02 -1.00271E-01 -1.10826E-01 -1.21247E-01 -1.31556E-01
  -1.41739E-01 -1.51794E-01 -1.61712E-01 -1.71522E-01 -1.81232E-01 -1.90858E-01 -2.00376E-01 -2.09787E-01
 NY background values follow
     2.588E+00    2.582E+00    2.576E+00    2.570E+00    2.564E+00    2.558E+00    2.552E+00    2.547E+00    2.541E+00    2.535E+00
     2.529E+00    2.523E+00    2.517E+00    2.511E+00    2.506E+00    2.500E+00    2.494E+00    2.488E+00    2.482E+00    2.476E+00
     2.470E+00    2.464E+00    2.458E+00    2.453E+00    2.447E+00    2.441E+00    2.435E+00    2.429E+00    2.423E+00    2.417E+00
     2.411E+00    2.405E+00    2.400E+00    2.394E+00    2.388E+00    2.382E+00    2.376E+00    2.370E+00    2.364E+00    2.358E+00
     2.352E+00    2.346E+00    2.340E+00    2.334E+00    2.329E+00    2.323E+00    2.317E+00    2.311E+00    2.305E+00    2.299E+00
     2.293E+00    2.287E+00    2.281E+00    2.275E+00    2.269E+00    2.263E+00    2.257E+00    2.251E+00    2.246E+00    2.240E+00
     2.234E+00    2.228E+00    2.222E+00    2.216E+00    2.210E+00    2.204E+00    2.198E+00    2.192E+00    2.186E+00    2.180E+00
     2.174E+00    2.168E+00    2.162E+00    2.156E+00    2.150E+00    2.144E+00    2.138E+00    2.132E+00    2.126E+00    2.120E+00
     2.114E+00    2.108E+00    2.102E+00    2.096E+00    2.090E+00    2.084E+00    2.078E+00    2.072E+00    2.067E+00    2.061E+00
     2.055E+00    2.049E+00    2.043E+00    2.037E+00    2.031E+00    2.025E+00    2.019E+00    2.013E+00    2.007E+00    2.001E+00
     1.995E+00    1.989E+00    1.983E+00    1.977E+00    1.971E+00    1.965E+00    1.958E+00    1.952E+00    1.946E+00    1.940E+00
     1.934E+00    1.928E+00    1.922E+00    1.916E+00    1.910E+00    1.904E+00    1.898E+00    1.892E+00    1.886E+00    1.880E+00
     1.874E+00    1.868E+00    1.862E+00    1.856E+00    1.850E+00    1.844E+00    1.838E+00    1.832E+00    1.826E+00    1.820E+00
     1.814E+00    1.808E+00    1.802E+00    1.796E+00    1.790E+00    1.784E+00    1.778E+00    1.771E+00    1.765E+00    1.759E+00
     1.753E+00    1.747E+00    1.741E+00    1.735E+00    1.729E+00    1.723E+00    1.717E+00    1.711E+00    1.705E+00    1.699E+00
     1.693E+00    1.687E+00    1.681E+00    1.675E+00    1.668E+00    1.662E+00    1.656E+00    1.650E+00    1.644E+00    1.638E+00
     1.632E+00    1.626E+00    1.620E+00    1.614E+00    1.608E+00    1.602E+00    1.595E+00    1.589E+00    1.583E+00    1.577E+00
     1.571E+00    1.565E+00    1.559E+00    1.553E+00    1.547E+00    1.541E+00    1.535E+00    1.528E+00    1.522E+00    1.516E+00
     1.510E+00    1.504E+00    1.498E+00    1.492E+00    1.486E+00    1.480E+00    1.474E+00    1.467E+00    1.461E+00    1.455E+00
     1.449E+00    1.443E+00    1.437E+00    1.431E+00    1.425E+00    1.419E+00    1.412E+00    1.406E+00    1.400E+00    1.394E+00
     1.388E+00    1.382E+00    1.376E+00    1.370E+00    1.363E+00    1.357E+00    1.351E+00    1.345E+00    1.339E+00    1.333E+00
     1.327E+00    1.321E+00    1.314E+00    1.308E+00    1.302E+00    1.296E+00    1.290E+00    1.284E+00    1.278E+00    1.271E+00
     1.265E+00    1.259E+00    1.253E+00    1.247E+00    1.241E+00    1.235E+00    1.228E+00    1.222E+00    1.216E+00    1.210E+00
     1.204E+00    1.198E+00    1.192E+00    1.185E+00    1.179E+00    1.173E+00    1.167E+00    1.161E+00    1.155E+00    1.149E+00
     1.142E+00    1.136E+00    1.130E+00    1.124E+00    1.118E+00    1.112E+00    1.105E+00    1.099E+00    1.093E+00    1.087E+00
     1.081E+00    1.075E+00    1.068E+00    1.062E+00    1.056E+00    1.050E+00    1.044E+00    1.038E+00    1.031E+00    1.025E+00
     1.019E+00    1.013E+00    1.007E+00    1.001E+00    9.944E-01    9.882E-01    9.820E-01    9.758E-01    9.696E-01    9.635E-01
     9.573E-01    9.511E-01    9.449E-01    9.387E-01    9.326E-01    9.264E-01    9.202E-01    9.140E-01    9.078E-01    9.016E-01
     8.954E-01    8.893E-01    8.831E-01    8.769E-01    8.707E-01    8.645E-01    8.583E-01    8.521E-01    8.459E-01    8.397E-01
     8.335E-01    8.273E-01    8.211E-01    8.149E-01    8.087E-01    8.025E-01    7.963E-01    7.901E-01    7.839E-01    7.777E-01
     7.715E-01    7.653E-01    7.591E-01    7.529E-01    7.467E-01    7.405E-01    7.343E-01    7.281E-01    7.219E-01    7.157E-01
     7.095E-01    7.033E-01    6.971E-01    6.909E-01    6.847E-01    6.785E-01    6.722E-01    6.660E-01    6.598E-01    6.536E-01
     6.474E-01    6.412E-01    6.350E-01    6.288E-01    6.225E-01    6.163E-01    6.101E-01    6.039E-01    5.977E-01    5.915E-01
     5.852E-01    5.790E-01    5.728E-01    5.666E-01    5.604E-01    5.542E-01    5.479E-01    5.417E-01    5.355E-01    5.293E-01
     5.230E-01    5.168E-01    5.106E-01    5.044E-01    4.981E-01    4.919E-01    4.857E-01    4.795E-01    4.732E-01    4.670E-01
     4.608E-01    4.546E-01    4.483E-01    4.421E-01    4.359E-01    4.296E-01    4.234E-01    4.172E-01    4.110E-01    4.047E-01
     3.985E-01    3.923E-01    3.860E-01    3.798E-01    3.736E-01    3.673E-01    3.611E-01    3.549E-01    3.486E-01    3.424E-01
     3.362E-01    3.299E-01    3.237E-01    3.174E-01    3.112E-01    3.050E-01    2.987E-01    2.925E-01    2.863E-01    2.800E-01
     2.738E-01    2.675E-01    2.613E-01    2.551E-01    2.488E-01    2.426E-01    2.363E-01    2.301E-01    2.239E-01    2.176E-01
     2.114E-01    2.051E-01    1.989E-01    1.927E-01    1.864E-01    1.802E-01    1.739E-01    1.677E-01    1.614E-01    1.552E-01
     1.490E-01    1.427E-01    1.365E-01    1.302E-01    1.240E-01    1.177E-01    1.115E-01    1.052E-01    9.899E-02    9.274E-02
     8.649E-02    8.025E-02    7.400E-02    6.775E-02    6.151E-02    5.526E-02    4.901E-02    4.276E-02    3.651E-02    3.027E-02
     2.402E-02    1.777E-02    1.152E-02    5.270E-03   -9.796E-04   -7.229E-03   -1.348E-02   -1.973E-02   -2.598E-02   -3.223E-02
    -3.848E-02   -4.473E-02   -5.098E-02   -5.723E-02   -6.348E-02   -6.973E-02   -7.598E-02   -8.223E-02   -8.848E-02   -9.474E-02
    -1.010E-01   -1.072E-01   -1.135E-01   -1.197E-01   -1.260E-01   -1.322E-01   -1.385E-01   -1.447E-01   -1.510E-01   -1.573E-01
    -1.635E-01   -1.698E-01   -1.760E-01   -1.823E-01   -1.885E-01   -1.948E-01   -2.010E-01   -2.073E-01   -2.135E-01   -2.198E-01
    -2.260E-01   -2.323E-01   -2.385E-01   -2.448E-01   -2.510E-01   -2.573E-01   -2.635E-01   -2.698E-01   -2.761E-01   -2.823E-01
    -2.886E-01   -2.948E-01   -3.011E-01   -3.073E-01   -3.136E-01   -3.198E-01   -3.261E-01   -3.323E-01   -3.386E-01   -3.448E-01
    -3.511E-01   -3.573E-01   -3.636E-01   -3.698E-01   -3.761E-01   -3.823E-01   -3.886E-01   -3.949E-01   -4.011E-01   -4.074E-01
    -4.136E-01   -4.199E-01   -4.261E-01   -4.324E-01   -4.386E-01   -4.449E-01   -4.511E-01   -4.574E-01
 Asp      Conc. = 2.22E+01
