 LCModel (Version 6.3-1L) Copyright: S.W. Provencher.          Ref.: Magn. Reson. Med. 30:672-679 (1993).                
 Slice#1 Row#13 Col#12  K_02_press_1_raw_act
 36 lines in following concentration table = NCONC+1
    Conc.  %SD /Cr+PCr  Metabolite                                         
    0.000 999%   0.000 Ala                                                 
    6.028  77%   0.223 Asp                                                 
   27.022  40%   1.000 Cr                                                  
    0.000 999%   0.000 PCr                                                 
    3.414  82%   0.126 GABA                                                
    3.577  79%   0.132 Glc                                                 
    7.167 498%   0.265 Gln                                                 
   18.410 213%   0.681 Glu                                                 
    0.000 999%   0.000 GPC                                                 
    6.648  61%   0.246 PCh                                                 
    0.432 999% 1.6E-02 GSH                                                 
    0.000 999%   0.000 Ins                                                 
   62.627  36%   2.318 Lac                                                 
   70.018  20%   2.591 NAA                                                 
    0.000 999%   0.000 NAAG                                                
    1.183  78% 4.4E-02 Scyllo                                              
    6.376  73%   0.236 Tau                                                 
    3.329 165%   0.123 -CrCH2                                              
    6.648  61%   0.246 GPC+PCh                                             
   70.018  20%   2.591 NAA+NAAG                                            
   27.022  40%   1.000 Cr+PCr                                              
   25.577 188%   0.947 Glu+Gln                                             
  358.324  20%  13.261 Lip13a                                              
    0.000 999%   0.000 Lip13b                                              
   47.367  67%   1.753 Lip09                                               
    0.000 999%   0.000 MM09                                                
   21.910 121%   0.811 Lip20                                               
    0.000 999%   0.000 MM20                                                
 1.81E-04 999% 6.7E-06 MM12                                                
 3.25E-03 999% 1.2E-04 MM14                                                
    0.000 999%   0.000 MM17                                                
  358.324  20%  13.261 Lip13a+Lip13b                                       
  358.328  20%  13.261 MM14+Lip13a+Lip13b+MM12                             
   47.367  67%   1.753 MM09+Lip09                                          
   21.910 121%   0.811 MM20+Lip20                                          
   6 lines in following misc. output table
  FWHM = 0.038 ppm    S/N =   2                                            
  Data shift = 0.000 ppm                                                   
  Ph:  77 deg       7.7 deg/ppm                                            
  alphaB,S = 8.5E+01,   1.3E+01                                            
   14 spline knots.   Ns = 5(1)                                            
   2 inflections.     1 extrema                                            
  498 points on ppm-axis = NY
      4.000000     3.992357     3.984714     3.977070     3.969427     3.961784     3.954141     3.946497     3.938854     3.931211
      3.923568     3.915925     3.908281     3.900638     3.892995     3.885352     3.877708     3.870065     3.862422     3.854779
      3.847136     3.839492     3.831849     3.824206     3.816563     3.808919     3.801276     3.793633     3.785990     3.778347
      3.770703     3.763060     3.755417     3.747774     3.740130     3.732487     3.724844     3.717201     3.709558     3.701914
      3.694271     3.686628     3.678985     3.671341     3.663698     3.656055     3.648412     3.640769     3.633125     3.625482
      3.617839     3.610196     3.602552     3.594909     3.587266     3.579623     3.571980     3.564336     3.556693     3.549050
      3.541407     3.533763     3.526120     3.518477     3.510834     3.503191     3.495547     3.487904     3.480261     3.472618
      3.464974     3.457331     3.449688     3.442045     3.434402     3.426758     3.419115     3.411472     3.403829     3.396185
      3.388542     3.380899     3.373256     3.365613     3.357969     3.350326     3.342683     3.335040     3.327396     3.319753
      3.312110     3.304467     3.296824     3.289180     3.281537     3.273894     3.266251     3.258607     3.250964     3.243321
      3.235678     3.228034     3.220391     3.212748     3.205105     3.197462     3.189818     3.182175     3.174532     3.166889
      3.159245     3.151602     3.143959     3.136316     3.128673     3.121029     3.113386     3.105743     3.098100     3.090456
      3.082813     3.075170     3.067527     3.059884     3.052240     3.044597     3.036954     3.029311     3.021667     3.014024
      3.006381     2.998738     2.991095     2.983451     2.975808     2.968165     2.960522     2.952878     2.945235     2.937592
      2.929949     2.922306     2.914662     2.907019     2.899376     2.891733     2.884089     2.876446     2.868803     2.861160
      2.853517     2.845873     2.838230     2.830587     2.822944     2.815300     2.807657     2.800014     2.792371     2.784728
      2.777084     2.769441     2.761798     2.754155     2.746511     2.738868     2.731225     2.723582     2.715939     2.708295
      2.700652     2.693009     2.685366     2.677722     2.670079     2.662436     2.654793     2.647150     2.639506     2.631863
      2.624220     2.616577     2.608933     2.601290     2.593647     2.586004     2.578361     2.570717     2.563074     2.555431
      2.547788     2.540144     2.532501     2.524858     2.517215     2.509572     2.501928     2.494285     2.486642     2.478999
      2.471355     2.463712     2.456069     2.448426     2.440783     2.433139     2.425496     2.417853     2.410210     2.402566
      2.394923     2.387280     2.379637     2.371994     2.364350     2.356707     2.349064     2.341421     2.333777     2.326134
      2.318491     2.310848     2.303205     2.295561     2.287918     2.280275     2.272632     2.264988     2.257345     2.249702
      2.242059     2.234416     2.226772     2.219129     2.211486     2.203843     2.196199     2.188556     2.180913     2.173270
      2.165627     2.157983     2.150340     2.142697     2.135054     2.127410     2.119767     2.112124     2.104481     2.096838
      2.089194     2.081551     2.073908     2.066265     2.058621     2.050978     2.043335     2.035692     2.028049     2.020405
      2.012762     2.005119     1.997476     1.989833     1.982190     1.974546     1.966903     1.959260     1.951617     1.943974
      1.936331     1.928688     1.921045     1.913402     1.905759     1.898115     1.890472     1.882829     1.875186     1.867543
      1.859900     1.852257     1.844614     1.836971     1.829327     1.821684     1.814041     1.806398     1.798755     1.791112
      1.783469     1.775826     1.768183     1.760540     1.752896     1.745253     1.737610     1.729967     1.722324     1.714681
      1.707038     1.699395     1.691752     1.684108     1.676465     1.668822     1.661179     1.653536     1.645893     1.638250
      1.630607     1.622964     1.615321     1.607677     1.600034     1.592391     1.584748     1.577105     1.569462     1.561819
      1.554176     1.546533     1.538890     1.531246     1.523603     1.515960     1.508317     1.500674     1.493031     1.485388
      1.477745     1.470102     1.462458     1.454815     1.447172     1.439529     1.431886     1.424243     1.416600     1.408957
      1.401314     1.393671     1.386027     1.378384     1.370741     1.363098     1.355455     1.347812     1.340169     1.332526
      1.324883     1.317240     1.309596     1.301953     1.294310     1.286667     1.279024     1.271381     1.263738     1.256095
      1.248452     1.240808     1.233165     1.225522     1.217879     1.210236     1.202593     1.194950     1.187307     1.179664
      1.172021     1.164377     1.156734     1.149091     1.141448     1.133805     1.126162     1.118519     1.110876     1.103233
      1.095590     1.087946     1.080303     1.072660     1.065017     1.057374     1.049731     1.042088     1.034445     1.026802
      1.019158     1.011515     1.003872     0.996229     0.988586     0.980943     0.973300     0.965657     0.958014     0.950371
      0.942727     0.935084     0.927441     0.919798     0.912155     0.904512     0.896869     0.889226     0.881583     0.873940
      0.866296     0.858653     0.851010     0.843367     0.835724     0.828081     0.820438     0.812795     0.805152     0.797508
      0.789865     0.782222     0.774579     0.766936     0.759293     0.751650     0.744007     0.736364     0.728721     0.721077
      0.713434     0.705791     0.698148     0.690505     0.682862     0.675219     0.667576     0.659933     0.652290     0.644646
      0.637003     0.629360     0.621717     0.614074     0.606431     0.598788     0.591145     0.583502     0.575858     0.568215
      0.560572     0.552929     0.545286     0.537643     0.530000     0.522357     0.514714     0.507071     0.499427     0.491784
      0.484141     0.476498     0.468855     0.461212     0.453569     0.445925     0.438282     0.430639     0.422996     0.415353
      0.407710     0.400067     0.392424     0.384780     0.377137     0.369494     0.361851     0.354208     0.346565     0.338922
      0.331278     0.323635     0.315992     0.308349     0.300706     0.293063     0.285420     0.277777     0.270133     0.262490
      0.254847     0.247204     0.239561     0.231918     0.224275     0.216631     0.208988     0.201345
 NY phased data points follow
  -1.69115E+00 -1.90033E+00 -3.93581E+00 -2.54498E+00 -9.60237E-01 -1.80548E+00 -3.16661E-01 -3.16153E+00 -1.20210E+00 -1.90844E+00
  -2.78437E-01  8.86770E-01 -1.05527E+00 -5.55880E-01 -8.56739E-01 -9.03450E-01 -8.12566E-01 -3.25954E+00  2.54227E-01 -3.97701E+00
  -1.15370E+00 -1.84625E+00 -2.09842E+00 -1.28619E+00 -1.07296E+00 -2.33391E+00 -5.78661E-01 -1.21523E-02 -1.13617E+00 -3.46120E-01
  -1.11560E+00 -2.26097E+00 -1.25840E+00 -1.26081E+00 -2.89851E+00 -1.91286E+00 -2.95508E+00  1.07318E+00 -1.96140E+00 -6.78085E-01
  -9.16070E-01 -3.39663E+00 -2.28289E+00 -1.20918E+00  6.48429E-01 -1.32984E+00  5.40023E-01 -2.48903E+00 -1.49053E+00 -5.88181E-01
  -1.95797E+00 -1.73118E+00  3.66690E-01 -6.25300E-01 -2.88796E-01 -1.42488E+00 -1.68630E+00 -2.27722E+00 -2.28447E+00 -5.53890E-01
  -8.85793E-01 -3.77551E+00 -9.09453E-01 -1.52558E+00 -2.41362E+00 -7.66734E-01  4.06602E-02 -2.42245E+00 -2.47359E+00 -1.90554E+00
  -1.43179E+00  1.84426E+00  3.07741E-02 -5.67266E-01 -3.22499E-01 -3.70501E-01  5.86746E-01 -5.36448E-01 -1.84438E-02 -1.98901E+00
  -2.47817E+00 -8.35656E-01 -2.31539E+00 -1.68798E+00 -5.28931E-01 -1.80805E+00 -1.29438E+00 -8.98899E-01 -1.61169E-01 -6.02160E-01
  -8.68700E-01 -1.62644E+00  1.38923E+00 -4.15134E-01 -1.85015E+00 -4.03755E-01  2.08781E+00 -9.21058E-02 -6.43843E-01 -4.71848E-01
  -1.21615E+00 -6.79206E-01 -1.02064E+00  1.55473E-01  9.02184E-01 -1.90429E-01 -1.35250E+00 -4.00630E-01  2.43657E-01 -8.06828E-01
  -1.30835E+00 -1.01624E+00  1.66746E-02  1.84612E-01 -8.95050E-01 -1.91718E+00 -2.15459E+00 -1.21258E+00 -9.13744E-01 -2.25817E+00
  -6.28304E-01 -1.15316E+00  7.80490E-01 -2.60292E+00 -1.41300E+00  7.07433E-02 -8.85332E-01  1.64805E+00 -2.34728E-02  1.30229E-01
  -9.43563E-01  3.05613E-01 -8.80366E-01 -1.01231E+00 -2.72347E+00 -1.03863E+00 -2.24608E+00 -4.75885E-01 -4.71535E+00 -8.60132E-01
  -1.16875E+00 -1.89501E+00 -1.54079E+00 -2.67234E+00 -3.71235E-01 -9.54648E-01  1.16971E-01 -7.79379E-01 -2.12567E+00 -1.58647E+00
  -1.82374E+00 -1.92734E+00 -1.33760E-01 -2.05468E+00 -1.22302E-01 -1.21303E+00 -3.79271E-01 -1.27313E+00 -7.10037E-01 -1.95851E+00
  -1.93990E-01  1.96271E-01 -2.62294E+00 -5.32642E-01 -2.77881E+00  5.40569E-02  1.18313E+00 -2.06219E+00 -6.32487E-01  1.06977E+00
  -5.70698E-01 -3.19007E+00 -8.86024E-01 -6.65661E-01  9.23245E-02  1.43420E-01 -3.31555E+00  5.74028E-01  9.30587E-01 -9.17279E-01
  -2.01381E+00 -7.12671E-01  1.97215E-01 -7.12071E-01 -9.73273E-01 -2.38260E+00 -2.63267E+00 -2.06007E+00 -2.11754E+00  5.22734E-01
   9.10620E-01 -1.20405E-01 -1.44626E+00 -2.03200E+00 -4.99004E-01 -2.47030E+00 -6.31881E-01  7.93427E-01  6.74538E-01 -4.82953E-01
  -3.37647E-01  4.15111E-01 -1.75709E+00  1.99324E+00 -1.09677E+00 -7.11979E-01  3.22817E-01 -1.07824E+00 -1.21978E+00  2.43359E-01
  -3.18486E+00 -1.26286E+00 -1.55990E+00 -1.19417E+00 -2.50738E+00  6.36674E-01 -9.98142E-01  1.91233E+00 -1.25741E+00 -1.03499E-01
  -8.79866E-01 -2.05158E+00 -1.74227E+00 -6.02734E-01 -1.96399E+00 -1.54000E-01 -2.65116E-01 -6.13872E-01 -7.10290E-01 -1.85825E+00
  -1.62026E+00 -1.68321E+00  3.09944E-02 -1.08321E+00 -9.05679E-01 -5.77106E-01 -2.08652E+00  1.13613E+00 -1.34579E+00 -1.86001E+00
  -1.95274E+00 -8.55185E-01 -8.38140E-01 -1.31332E+00 -2.29457E+00 -7.72056E-01 -5.51398E-01 -3.32707E+00 -9.81221E-01 -1.71705E+00
  -8.81621E-01 -5.71737E-01 -1.19046E+00 -1.98874E+00 -9.31751E-01 -6.70229E-01 -2.27422E+00 -1.30691E+00  1.31764E+00  3.61093E+00
   2.60942E+00  2.70890E+00  1.59728E+00  1.92926E+00 -2.44940E-01 -1.99185E+00 -1.39446E+00 -3.38289E+00 -2.20551E+00 -1.23180E+00
  -5.33976E-01 -1.39567E-01 -9.78320E-01 -5.53054E-01 -1.19454E+00 -1.35763E+00 -2.90399E+00 -1.91159E+00 -1.66183E+00 -1.68920E-02
   2.72901E-01 -1.66092E+00 -1.54034E+00 -1.23951E+00 -1.60753E-01 -2.30388E+00 -1.81228E+00 -8.69043E-01 -2.60758E+00 -2.79073E+00
  -1.12995E+00 -1.98318E+00  1.15541E-01 -5.78884E-01  8.73337E-01 -5.47132E-01  4.19407E-01  5.07616E-02 -2.10409E+00 -2.87529E+00
  -1.16076E+00 -2.28000E+00 -6.21350E-01  1.54086E-01 -1.55855E+00  3.69028E-01  1.25199E+00 -2.19936E+00 -2.75378E-01 -2.65663E+00
   9.90628E-01 -8.65666E-01  3.51458E-01 -2.94817E+00 -2.19597E+00 -1.47386E+00 -2.11517E-01 -1.13041E+00 -9.22501E-01 -1.82061E+00
  -3.69147E-01 -1.26300E+00 -1.10359E+00  3.70978E-01 -1.21468E+00 -7.63338E-01  1.11504E+00  2.73062E+00  1.36425E+00  7.82269E-02
   5.24008E-01  1.61717E+00  6.38403E-01  6.89409E-01 -4.01936E-01  6.51144E-01 -6.64184E-01 -6.01129E-01 -6.83580E-01  1.94532E+00
   1.77174E+00 -8.39030E-01 -6.82335E-01  2.29623E+00  4.24424E-01  1.69701E+00  1.91869E-01  2.46094E+00  1.73460E+00  3.41057E-01
  -5.64764E-01 -9.21878E-01 -7.30987E-01 -2.04929E-01  9.67052E-01  1.80001E+00 -1.24443E-01  2.20977E+00  1.84732E+00  1.79049E+00
   1.68793E+00  2.95949E+00 -5.35717E-01  2.56556E+00  1.88739E+00  8.67974E-01 -5.86641E-02  7.38299E-01  2.69998E+00  1.46254E+00
  -3.73804E-01  1.44600E+00  2.45666E+00  1.18970E+00  1.88080E+00  4.14086E-01  1.34094E+00  1.65344E+00 -6.54586E-01  9.14334E-01
   5.41560E-01 -6.40236E-01 -1.82047E+00 -2.15823E-01 -4.66891E-01 -5.86343E-01  2.41919E-01 -5.26753E-01  3.47057E-01  1.42424E-01
  -4.19035E-01 -2.68572E-02 -2.27095E-01  1.02678E+00  2.14027E+00 -3.87875E-01  2.31711E+00 -8.83805E-01  1.41072E+00 -2.15215E+00
   1.12454E+00 -1.17440E+00 -1.01484E+00 -1.15706E+00  1.08360E+00 -1.20391E+00 -6.42744E-01  3.31881E-01 -5.96350E-01 -7.77075E-01
  -3.77071E-01  7.54044E-02 -1.43911E+00 -1.23898E+00 -1.85689E+00 -1.58896E+00  4.18908E-01 -1.68616E+00 -1.38734E+00 -1.33523E+00
  -1.97533E+00  5.87735E-01  1.45046E+00  1.75833E-01 -4.86085E-01  4.03206E-01 -1.50861E-01 -2.33303E+00 -1.53927E+00  3.07322E-01
  -1.08167E+00 -1.64361E+00 -2.04514E-01  3.06876E-01 -6.57185E-01 -5.25756E-01 -1.18410E+00 -1.27143E+00 -4.89959E-01 -1.49458E+00
   8.38563E-02  3.72171E-01 -1.20693E+00 -1.63927E+00 -3.40232E-01  3.27934E-01 -5.40475E-02 -5.40758E-01  1.51557E-01  1.41460E+00
   1.93443E+00  2.03599E-01 -5.69871E-01 -6.38713E-01  2.52070E-01  2.80160E-02 -1.48247E+00  4.05743E-01  6.40923E-01  2.53569E-01
   1.06748E-01 -1.24763E+00  1.17995E+00 -6.54187E-01 -6.84721E-01 -2.44693E+00 -2.28991E-01  6.69573E-01 -2.79310E+00  1.71177E+00
   1.13203E+00 -9.60873E-01 -1.99566E+00 -1.33637E-01 -1.50542E+00 -1.67203E+00 -5.13320E-01 -5.20222E-02  3.60135E-01 -3.67807E-01
  -1.51576E+00  1.81944E-01  2.07535E-01  7.48467E-01  5.49630E-01  8.92995E-01  2.97464E-01  5.13981E-02 -1.89744E+00  2.25243E-01
   2.81847E-01 -1.03338E+00  1.00071E+00  2.60548E-01  1.07940E-02 -2.52184E-01  3.09575E-01  2.40289E-01
 NY points of the fit to the data follow
  -1.36388E+00 -1.32558E+00 -1.28474E+00 -1.25451E+00 -1.24128E+00 -1.25157E+00 -1.31468E+00 -1.37693E+00 -1.27637E+00 -9.80371E-01
  -6.29358E-01 -3.93898E-01 -3.52826E-01 -4.81671E-01 -7.15907E-01 -9.78866E-01 -1.17310E+00 -1.23631E+00 -1.22455E+00 -1.22158E+00
  -1.21605E+00 -1.20181E+00 -1.18026E+00 -1.15600E+00 -1.14235E+00 -1.15134E+00 -1.18009E+00 -1.21477E+00 -1.23787E+00 -1.23244E+00
  -1.19296E+00 -1.13120E+00 -1.07486E+00 -1.05128E+00 -1.07235E+00 -1.12793E+00 -1.19280E+00 -1.23673E+00 -1.24038E+00 -1.21296E+00
  -1.17696E+00 -1.14956E+00 -1.13949E+00 -1.14479E+00 -1.15828E+00 -1.16979E+00 -1.17210E+00 -1.16912E+00 -1.16707E+00 -1.16640E+00
  -1.16331E+00 -1.15755E+00 -1.15002E+00 -1.14214E+00 -1.13697E+00 -1.13595E+00 -1.13846E+00 -1.14283E+00 -1.14538E+00 -1.14469E+00
  -1.14256E+00 -1.13978E+00 -1.13593E+00 -1.12938E+00 -1.12201E+00 -1.11497E+00 -1.10968E+00 -1.10928E+00 -1.11448E+00 -1.12171E+00
  -1.12921E+00 -1.13265E+00 -1.12174E+00 -1.09553E+00 -1.06556E+00 -1.04502E+00 -1.04475E+00 -1.06379E+00 -1.09129E+00 -1.11488E+00
  -1.12558E+00 -1.12246E+00 -1.10537E+00 -1.07008E+00 -1.02203E+00 -9.80963E-01 -9.64170E-01 -9.73176E-01 -9.96167E-01 -1.02285E+00
  -1.04926E+00 -1.07139E+00 -1.08596E+00 -1.10085E+00 -1.11696E+00 -1.11861E+00 -1.10055E+00 -1.07476E+00 -1.07377E+00 -1.07986E+00
  -9.49620E-01 -6.38209E-01 -2.77564E-01 -4.18004E-02 -1.48344E-02 -1.71303E-01 -4.36881E-01 -7.26622E-01 -9.46696E-01 -1.02674E+00
  -1.01154E+00 -1.00808E+00 -1.01374E+00 -1.01852E+00 -1.02057E+00 -1.02153E+00 -1.02273E+00 -1.02523E+00 -1.02802E+00 -1.03039E+00
  -1.03348E+00 -1.04508E+00 -1.09489E+00 -1.08789E+00 -8.29058E-01 -3.36234E-01  1.60644E-01  4.34311E-01  4.04769E-01  1.36616E-01
  -2.54056E-01 -6.48271E-01 -9.13869E-01 -9.78698E-01 -9.56600E-01 -9.59466E-01 -9.64813E-01 -9.63731E-01 -9.58288E-01 -9.53636E-01
  -9.52748E-01 -9.54287E-01 -9.53417E-01 -9.48082E-01 -9.39884E-01 -9.31848E-01 -9.27274E-01 -9.27255E-01 -9.30771E-01 -9.34683E-01
  -9.36183E-01 -9.34451E-01 -9.30058E-01 -9.25395E-01 -9.21068E-01 -9.14735E-01 -9.04430E-01 -9.03235E-01 -9.26509E-01 -9.70024E-01
  -1.01367E+00 -1.02611E+00 -9.95945E-01 -9.43737E-01 -8.97842E-01 -8.76861E-01 -8.86871E-01 -9.20169E-01 -9.55667E-01 -9.79923E-01
  -9.88354E-01 -9.84063E-01 -9.89354E-01 -1.01915E+00 -1.05770E+00 -1.07645E+00 -1.05841E+00 -1.02067E+00 -9.95259E-01 -9.91980E-01
  -9.99240E-01 -1.00367E+00 -1.00000E+00 -9.94792E-01 -9.96004E-01 -1.00090E+00 -9.94002E-01 -9.67960E-01 -9.21641E-01 -8.69287E-01
  -8.29453E-01 -8.11494E-01 -8.17329E-01 -8.25709E-01 -8.13152E-01 -7.90541E-01 -7.82668E-01 -7.96232E-01 -8.25390E-01 -8.57088E-01
  -8.65875E-01 -8.35932E-01 -7.74173E-01 -7.09816E-01 -6.77635E-01 -6.82973E-01 -7.25550E-01 -7.99998E-01 -8.79682E-01 -9.44642E-01
  -9.90056E-01 -1.01421E+00 -9.92076E-01 -9.11856E-01 -8.01651E-01 -7.10676E-01 -6.70191E-01 -6.76210E-01 -7.27747E-01 -8.23989E-01
  -9.27001E-01 -9.86870E-01 -9.81106E-01 -9.28172E-01 -8.53263E-01 -7.76706E-01 -7.17437E-01 -6.92272E-01 -7.06214E-01 -7.38304E-01
  -7.61549E-01 -7.67831E-01 -7.66219E-01 -7.62841E-01 -7.59011E-01 -7.52064E-01 -7.41956E-01 -7.30671E-01 -7.15626E-01 -7.04582E-01
  -7.07946E-01 -7.24434E-01 -7.43605E-01 -7.55010E-01 -7.56142E-01 -7.48461E-01 -7.36253E-01 -7.26331E-01 -7.26100E-01 -7.34101E-01
  -7.35891E-01 -7.26870E-01 -7.10750E-01 -6.93068E-01 -6.96056E-01 -8.10709E-01 -8.39540E-01 -2.47936E-01  9.84244E-01  2.28267E+00
   3.03182E+00  2.99173E+00  2.31517E+00  1.30253E+00  2.63832E-01 -4.54978E-01 -6.44383E-01 -5.73058E-01 -5.74443E-01 -5.97728E-01
  -6.15630E-01 -6.25830E-01 -6.28100E-01 -6.22435E-01 -6.13411E-01 -6.06190E-01 -6.03708E-01 -6.06686E-01 -6.14406E-01 -6.23816E-01
  -6.32565E-01 -6.39715E-01 -6.43817E-01 -6.44291E-01 -6.42182E-01 -6.38705E-01 -6.34874E-01 -6.31460E-01 -6.28657E-01 -6.26643E-01
  -6.25362E-01 -6.24269E-01 -6.23073E-01 -6.21906E-01 -6.20658E-01 -6.18964E-01 -6.16760E-01 -6.14209E-01 -6.11365E-01 -6.08285E-01
  -6.05159E-01 -6.01901E-01 -5.98457E-01 -5.94813E-01 -5.91001E-01 -5.87045E-01 -5.82952E-01 -5.78675E-01 -5.74147E-01 -5.69316E-01
  -5.64192E-01 -5.58793E-01 -5.53092E-01 -5.47027E-01 -5.40534E-01 -5.33572E-01 -5.26123E-01 -5.18147E-01 -5.09566E-01 -5.00268E-01
  -4.90158E-01 -4.79158E-01 -4.67182E-01 -4.54087E-01 -4.39684E-01 -4.23758E-01 -4.06115E-01 -3.86555E-01 -3.64839E-01 -3.40640E-01
  -3.13571E-01 -2.83227E-01 -2.49217E-01 -2.11118E-01 -1.68416E-01 -1.20468E-01 -6.65466E-02 -5.86851E-03  6.24308E-02  1.39410E-01
   2.26199E-01  3.22129E-01  4.25483E-01  6.32988E-01  1.06132E+00  1.53163E+00  1.73616E+00  1.53737E+00  1.03633E+00  4.38913E-01
  -1.60495E-01 -6.32292E-01 -6.68769E-01 -1.49268E-01  6.42662E-01  1.35255E+00  1.84780E+00  2.06534E+00  2.01383E+00  1.75639E+00
   1.44140E+00  1.24960E+00  1.16701E+00  1.08792E+00  1.00632E+00  9.24433E-01  8.42719E-01  7.61604E-01  6.81640E-01  6.03481E-01
   5.27816E-01  4.55315E-01  3.86547E-01  3.21951E-01  2.61823E-01  2.06366E-01  1.55683E-01  1.09796E-01  6.86269E-02  3.20268E-02
  -2.04467E-04 -2.82745E-02 -5.24034E-02 -7.28164E-02 -8.97593E-02 -1.03472E-01 -1.14184E-01 -1.22096E-01 -1.27407E-01 -1.30314E-01
  -1.31032E-01 -1.29773E-01 -1.26752E-01 -1.22181E-01 -1.16300E-01 -1.09369E-01 -1.01679E-01 -9.35185E-02 -8.51875E-02 -7.69816E-02
  -6.92102E-02 -6.21746E-02 -5.61622E-02 -5.14165E-02 -4.81437E-02 -4.65020E-02 -4.66140E-02 -4.85443E-02 -5.23027E-02 -5.78290E-02
  -6.50169E-02 -7.37150E-02 -8.37483E-02 -9.49066E-02 -1.06961E-01 -1.19660E-01 -1.32767E-01 -1.46053E-01 -1.59318E-01 -1.72373E-01
  -1.85057E-01 -1.97225E-01 -2.08777E-01 -2.19638E-01 -2.29766E-01 -2.39129E-01 -2.47719E-01 -2.55539E-01 -2.62617E-01 -2.68989E-01
  -2.74702E-01 -2.79791E-01 -2.84300E-01 -2.88272E-01 -2.91761E-01 -2.94812E-01 -2.97469E-01 -2.99762E-01 -3.01724E-01 -3.03389E-01
  -3.04792E-01 -3.05959E-01 -3.06914E-01 -3.07667E-01 -3.08241E-01 -3.08652E-01 -3.08924E-01 -3.09064E-01 -3.09084E-01 -3.08987E-01
  -3.08787E-01 -3.08493E-01 -3.08120E-01 -3.07667E-01 -3.07139E-01 -3.06537E-01 -3.05872E-01 -3.05150E-01 -3.04379E-01 -3.03555E-01
  -3.02680E-01 -3.01755E-01 -3.00791E-01 -2.99791E-01 -2.98757E-01 -2.97683E-01 -2.96574E-01 -2.95431E-01 -2.94264E-01 -2.93071E-01
  -2.91853E-01 -2.90604E-01 -2.89330E-01 -2.88033E-01 -2.86720E-01 -2.85387E-01 -2.84034E-01 -2.82657E-01 -2.81262E-01 -2.79852E-01
  -2.78432E-01 -2.76994E-01 -2.75540E-01 -2.74066E-01 -2.72582E-01 -2.71087E-01 -2.69584E-01 -2.68065E-01 -2.66531E-01 -2.64984E-01
  -2.63432E-01 -2.61871E-01 -2.60302E-01 -2.58718E-01 -2.57124E-01 -2.55520E-01 -2.53914E-01 -2.52300E-01
 NY background values follow
    -1.261E+00   -1.259E+00   -1.258E+00   -1.256E+00   -1.254E+00   -1.252E+00   -1.250E+00   -1.248E+00   -1.246E+00   -1.244E+00
    -1.242E+00   -1.240E+00   -1.238E+00   -1.236E+00   -1.234E+00   -1.232E+00   -1.230E+00   -1.228E+00   -1.226E+00   -1.224E+00
    -1.222E+00   -1.220E+00   -1.218E+00   -1.216E+00   -1.214E+00   -1.212E+00   -1.210E+00   -1.208E+00   -1.206E+00   -1.204E+00
    -1.202E+00   -1.200E+00   -1.198E+00   -1.196E+00   -1.194E+00   -1.193E+00   -1.191E+00   -1.189E+00   -1.187E+00   -1.185E+00
    -1.183E+00   -1.181E+00   -1.179E+00   -1.177E+00   -1.175E+00   -1.173E+00   -1.171E+00   -1.169E+00   -1.167E+00   -1.165E+00
    -1.163E+00   -1.161E+00   -1.159E+00   -1.157E+00   -1.155E+00   -1.153E+00   -1.151E+00   -1.149E+00   -1.147E+00   -1.145E+00
    -1.143E+00   -1.141E+00   -1.139E+00   -1.137E+00   -1.135E+00   -1.133E+00   -1.131E+00   -1.129E+00   -1.127E+00   -1.125E+00
    -1.124E+00   -1.122E+00   -1.120E+00   -1.118E+00   -1.116E+00   -1.114E+00   -1.112E+00   -1.110E+00   -1.108E+00   -1.106E+00
    -1.104E+00   -1.102E+00   -1.100E+00   -1.098E+00   -1.096E+00   -1.094E+00   -1.092E+00   -1.090E+00   -1.088E+00   -1.086E+00
    -1.084E+00   -1.082E+00   -1.080E+00   -1.078E+00   -1.076E+00   -1.074E+00   -1.072E+00   -1.070E+00   -1.068E+00   -1.066E+00
    -1.064E+00   -1.062E+00   -1.060E+00   -1.058E+00   -1.056E+00   -1.054E+00   -1.052E+00   -1.051E+00   -1.049E+00   -1.047E+00
    -1.045E+00   -1.043E+00   -1.041E+00   -1.039E+00   -1.037E+00   -1.035E+00   -1.033E+00   -1.031E+00   -1.029E+00   -1.027E+00
    -1.025E+00   -1.023E+00   -1.021E+00   -1.019E+00   -1.017E+00   -1.015E+00   -1.013E+00   -1.011E+00   -1.009E+00   -1.007E+00
    -1.005E+00   -1.003E+00   -1.001E+00   -9.992E-01   -9.972E-01   -9.952E-01   -9.933E-01   -9.913E-01   -9.893E-01   -9.873E-01
    -9.854E-01   -9.834E-01   -9.814E-01   -9.794E-01   -9.775E-01   -9.755E-01   -9.735E-01   -9.715E-01   -9.696E-01   -9.676E-01
    -9.656E-01   -9.636E-01   -9.617E-01   -9.597E-01   -9.577E-01   -9.557E-01   -9.537E-01   -9.518E-01   -9.498E-01   -9.478E-01
    -9.458E-01   -9.439E-01   -9.419E-01   -9.399E-01   -9.379E-01   -9.360E-01   -9.340E-01   -9.320E-01   -9.300E-01   -9.281E-01
    -9.261E-01   -9.241E-01   -9.221E-01   -9.201E-01   -9.182E-01   -9.162E-01   -9.142E-01   -9.122E-01   -9.103E-01   -9.083E-01
    -9.063E-01   -9.043E-01   -9.024E-01   -9.004E-01   -8.984E-01   -8.964E-01   -8.944E-01   -8.925E-01   -8.905E-01   -8.885E-01
    -8.865E-01   -8.846E-01   -8.826E-01   -8.806E-01   -8.786E-01   -8.766E-01   -8.747E-01   -8.727E-01   -8.707E-01   -8.687E-01
    -8.668E-01   -8.648E-01   -8.628E-01   -8.608E-01   -8.588E-01   -8.569E-01   -8.549E-01   -8.529E-01   -8.509E-01   -8.489E-01
    -8.470E-01   -8.450E-01   -8.430E-01   -8.410E-01   -8.391E-01   -8.371E-01   -8.351E-01   -8.331E-01   -8.311E-01   -8.292E-01
    -8.272E-01   -8.252E-01   -8.232E-01   -8.212E-01   -8.193E-01   -8.173E-01   -8.153E-01   -8.133E-01   -8.114E-01   -8.094E-01
    -8.074E-01   -8.054E-01   -8.034E-01   -8.015E-01   -7.995E-01   -7.975E-01   -7.955E-01   -7.935E-01   -7.916E-01   -7.896E-01
    -7.876E-01   -7.856E-01   -7.836E-01   -7.817E-01   -7.797E-01   -7.777E-01   -7.757E-01   -7.737E-01   -7.718E-01   -7.698E-01
    -7.678E-01   -7.658E-01   -7.638E-01   -7.619E-01   -7.599E-01   -7.579E-01   -7.559E-01   -7.539E-01   -7.520E-01   -7.500E-01
    -7.480E-01   -7.460E-01   -7.440E-01   -7.421E-01   -7.401E-01   -7.381E-01   -7.361E-01   -7.341E-01   -7.321E-01   -7.302E-01
    -7.282E-01   -7.262E-01   -7.242E-01   -7.222E-01   -7.203E-01   -7.183E-01   -7.163E-01   -7.143E-01   -7.123E-01   -7.104E-01
    -7.084E-01   -7.064E-01   -7.044E-01   -7.024E-01   -7.004E-01   -6.985E-01   -6.965E-01   -6.945E-01   -6.925E-01   -6.905E-01
    -6.886E-01   -6.866E-01   -6.846E-01   -6.826E-01   -6.806E-01   -6.786E-01   -6.767E-01   -6.747E-01   -6.727E-01   -6.707E-01
    -6.687E-01   -6.668E-01   -6.648E-01   -6.628E-01   -6.608E-01   -6.588E-01   -6.568E-01   -6.549E-01   -6.529E-01   -6.509E-01
    -6.489E-01   -6.469E-01   -6.450E-01   -6.430E-01   -6.410E-01   -6.390E-01   -6.370E-01   -6.350E-01   -6.331E-01   -6.311E-01
    -6.291E-01   -6.271E-01   -6.251E-01   -6.231E-01   -6.212E-01   -6.192E-01   -6.172E-01   -6.152E-01   -6.132E-01   -6.112E-01
    -6.093E-01   -6.073E-01   -6.053E-01   -6.033E-01   -6.013E-01   -5.993E-01   -5.974E-01   -5.954E-01   -5.934E-01   -5.914E-01
    -5.894E-01   -5.874E-01   -5.855E-01   -5.835E-01   -5.815E-01   -5.795E-01   -5.775E-01   -5.755E-01   -5.736E-01   -5.716E-01
    -5.696E-01   -5.676E-01   -5.656E-01   -5.636E-01   -5.617E-01   -5.597E-01   -5.577E-01   -5.557E-01   -5.537E-01   -5.517E-01
    -5.497E-01   -5.478E-01   -5.458E-01   -5.438E-01   -5.418E-01   -5.398E-01   -5.378E-01   -5.359E-01   -5.339E-01   -5.319E-01
    -5.299E-01   -5.279E-01   -5.259E-01   -5.240E-01   -5.220E-01   -5.200E-01   -5.180E-01   -5.160E-01   -5.140E-01   -5.120E-01
    -5.101E-01   -5.081E-01   -5.061E-01   -5.041E-01   -5.021E-01   -5.001E-01   -4.981E-01   -4.962E-01   -4.942E-01   -4.922E-01
    -4.902E-01   -4.882E-01   -4.862E-01   -4.843E-01   -4.823E-01   -4.803E-01   -4.783E-01   -4.763E-01   -4.743E-01   -4.723E-01
    -4.704E-01   -4.684E-01   -4.664E-01   -4.644E-01   -4.624E-01   -4.604E-01   -4.584E-01   -4.565E-01   -4.545E-01   -4.525E-01
    -4.505E-01   -4.485E-01   -4.465E-01   -4.445E-01   -4.426E-01   -4.406E-01   -4.386E-01   -4.366E-01   -4.346E-01   -4.326E-01
    -4.306E-01   -4.287E-01   -4.267E-01   -4.247E-01   -4.227E-01   -4.207E-01   -4.187E-01   -4.167E-01   -4.148E-01   -4.128E-01
    -4.108E-01   -4.088E-01   -4.068E-01   -4.048E-01   -4.028E-01   -4.008E-01   -3.989E-01   -3.969E-01   -3.949E-01   -3.929E-01
    -3.909E-01   -3.889E-01   -3.869E-01   -3.850E-01   -3.830E-01   -3.810E-01   -3.790E-01   -3.770E-01   -3.750E-01   -3.730E-01
    -3.711E-01   -3.691E-01   -3.671E-01   -3.651E-01   -3.631E-01   -3.611E-01   -3.591E-01   -3.571E-01   -3.552E-01   -3.532E-01
    -3.512E-01   -3.492E-01   -3.472E-01   -3.452E-01   -3.432E-01   -3.412E-01   -3.393E-01   -3.373E-01   -3.353E-01   -3.333E-01
    -3.313E-01   -3.293E-01   -3.273E-01   -3.253E-01   -3.234E-01   -3.214E-01   -3.194E-01   -3.174E-01   -3.154E-01   -3.134E-01
    -3.114E-01   -3.094E-01   -3.075E-01   -3.055E-01   -3.035E-01   -3.015E-01   -2.995E-01   -2.975E-01   -2.955E-01   -2.935E-01
    -2.916E-01   -2.896E-01   -2.876E-01   -2.856E-01   -2.836E-01   -2.816E-01   -2.796E-01   -2.776E-01
 Asp      Conc. = 6.03E+00
