 LCModel (Version 6.3-1L) Copyright: S.W. Provencher.          Ref.: Magn. Reson. Med. 30:672-679 (1993).                
 Slice#1 Row#11 Col#8  K_02_press_1_raw_act
 36 lines in following concentration table = NCONC+1
    Conc.  %SD /Cr+PCr  Metabolite                                         
    0.000 999%   0.000 Ala                                                 
    0.000 999%   0.000 Asp                                                 
  701.036  17%   0.581 Cr                                                  
  504.682  25%   0.419 PCr                                                 
    0.000 999%   0.000 GABA                                                
   66.463 174% 5.5E-02 Glc                                                 
  381.973  42%   0.317 Gln                                                 
 1.48E+03  13%   1.227 Glu                                                 
  300.830   6%   0.250 GPC                                                 
    0.000 999%   0.000 PCh                                                 
  254.609  23%   0.211 GSH                                                 
 1.01E+03  18%   0.837 Ins                                                 
   73.500 116% 6.1E-02 Lac                                                 
 1.92E+03   5%   1.593 NAA                                                 
  335.558  27%   0.278 NAAG                                                
   22.170  95% 1.8E-02 Scyllo                                              
    0.000 999%   0.000 Tau                                                 
   64.915 131% 5.4E-02 -CrCH2                                              
  300.830   6%   0.250 GPC+PCh                                             
 2.26E+03   3%   1.872 NAA+NAAG                                            
 1.21E+03   4%   1.000 Cr+PCr                                              
 1.86E+03  13%   1.544 Glu+Gln                                             
   86.111 228% 7.1E-02 Lip13a                                              
    0.000 999%   0.000 Lip13b                                              
    0.000 999%   0.000 Lip09                                               
 1.27E+03  11%   1.057 MM09                                                
   18.432 298% 1.5E-02 Lip20                                               
 2.29E+03  12%   1.896 MM20                                                
  403.660  27%   0.335 MM12                                                
 1.50E+03  17%   1.243 MM14                                                
  987.933  19%   0.819 MM17                                                
   86.111 228% 7.1E-02 Lip13a+Lip13b                                       
 1.99E+03  13%   1.649 MM14+Lip13a+Lip13b+MM12                             
 1.27E+03  11%   1.057 MM09+Lip09                                          
 2.30E+03  12%   1.911 MM20+Lip20                                          
   6 lines in following misc. output table
  FWHM = 0.038 ppm    S/N =  13                                            
  Data shift = 0.000 ppm                                                   
  Ph:  -6 deg       5.0 deg/ppm                                            
  alphaB,S = 8.5E+01,   5.1E+01                                            
   14 spline knots.   Ns = 5(1)                                            
   2 inflections.     1 extrema                                            
  498 points on ppm-axis = NY
      4.000000     3.992357     3.984714     3.977070     3.969427     3.961784     3.954141     3.946497     3.938854     3.931211
      3.923568     3.915925     3.908281     3.900638     3.892995     3.885352     3.877708     3.870065     3.862422     3.854779
      3.847136     3.839492     3.831849     3.824206     3.816563     3.808919     3.801276     3.793633     3.785990     3.778347
      3.770703     3.763060     3.755417     3.747774     3.740130     3.732487     3.724844     3.717201     3.709558     3.701914
      3.694271     3.686628     3.678985     3.671341     3.663698     3.656055     3.648412     3.640769     3.633125     3.625482
      3.617839     3.610196     3.602552     3.594909     3.587266     3.579623     3.571980     3.564336     3.556693     3.549050
      3.541407     3.533763     3.526120     3.518477     3.510834     3.503191     3.495547     3.487904     3.480261     3.472618
      3.464974     3.457331     3.449688     3.442045     3.434402     3.426758     3.419115     3.411472     3.403829     3.396185
      3.388542     3.380899     3.373256     3.365613     3.357969     3.350326     3.342683     3.335040     3.327396     3.319753
      3.312110     3.304467     3.296824     3.289180     3.281537     3.273894     3.266251     3.258607     3.250964     3.243321
      3.235678     3.228034     3.220391     3.212748     3.205105     3.197462     3.189818     3.182175     3.174532     3.166889
      3.159245     3.151602     3.143959     3.136316     3.128673     3.121029     3.113386     3.105743     3.098100     3.090456
      3.082813     3.075170     3.067527     3.059884     3.052240     3.044597     3.036954     3.029311     3.021667     3.014024
      3.006381     2.998738     2.991095     2.983451     2.975808     2.968165     2.960522     2.952878     2.945235     2.937592
      2.929949     2.922306     2.914662     2.907019     2.899376     2.891733     2.884089     2.876446     2.868803     2.861160
      2.853517     2.845873     2.838230     2.830587     2.822944     2.815300     2.807657     2.800014     2.792371     2.784728
      2.777084     2.769441     2.761798     2.754155     2.746511     2.738868     2.731225     2.723582     2.715939     2.708295
      2.700652     2.693009     2.685366     2.677722     2.670079     2.662436     2.654793     2.647150     2.639506     2.631863
      2.624220     2.616577     2.608933     2.601290     2.593647     2.586004     2.578361     2.570717     2.563074     2.555431
      2.547788     2.540144     2.532501     2.524858     2.517215     2.509572     2.501928     2.494285     2.486642     2.478999
      2.471355     2.463712     2.456069     2.448426     2.440783     2.433139     2.425496     2.417853     2.410210     2.402566
      2.394923     2.387280     2.379637     2.371994     2.364350     2.356707     2.349064     2.341421     2.333777     2.326134
      2.318491     2.310848     2.303205     2.295561     2.287918     2.280275     2.272632     2.264988     2.257345     2.249702
      2.242059     2.234416     2.226772     2.219129     2.211486     2.203843     2.196199     2.188556     2.180913     2.173270
      2.165627     2.157983     2.150340     2.142697     2.135054     2.127410     2.119767     2.112124     2.104481     2.096838
      2.089194     2.081551     2.073908     2.066265     2.058621     2.050978     2.043335     2.035692     2.028049     2.020405
      2.012762     2.005119     1.997476     1.989833     1.982190     1.974546     1.966903     1.959260     1.951617     1.943974
      1.936331     1.928688     1.921045     1.913402     1.905759     1.898115     1.890472     1.882829     1.875186     1.867543
      1.859900     1.852257     1.844614     1.836971     1.829327     1.821684     1.814041     1.806398     1.798755     1.791112
      1.783469     1.775826     1.768183     1.760540     1.752896     1.745253     1.737610     1.729967     1.722324     1.714681
      1.707038     1.699395     1.691752     1.684108     1.676465     1.668822     1.661179     1.653536     1.645893     1.638250
      1.630607     1.622964     1.615321     1.607677     1.600034     1.592391     1.584748     1.577105     1.569462     1.561819
      1.554176     1.546533     1.538890     1.531246     1.523603     1.515960     1.508317     1.500674     1.493031     1.485388
      1.477745     1.470102     1.462458     1.454815     1.447172     1.439529     1.431886     1.424243     1.416600     1.408957
      1.401314     1.393671     1.386027     1.378384     1.370741     1.363098     1.355455     1.347812     1.340169     1.332526
      1.324883     1.317240     1.309596     1.301953     1.294310     1.286667     1.279024     1.271381     1.263738     1.256095
      1.248452     1.240808     1.233165     1.225522     1.217879     1.210236     1.202593     1.194950     1.187307     1.179664
      1.172021     1.164377     1.156734     1.149091     1.141448     1.133805     1.126162     1.118519     1.110876     1.103233
      1.095590     1.087946     1.080303     1.072660     1.065017     1.057374     1.049731     1.042088     1.034445     1.026802
      1.019158     1.011515     1.003872     0.996229     0.988586     0.980943     0.973300     0.965657     0.958014     0.950371
      0.942727     0.935084     0.927441     0.919798     0.912155     0.904512     0.896869     0.889226     0.881583     0.873940
      0.866296     0.858653     0.851010     0.843367     0.835724     0.828081     0.820438     0.812795     0.805152     0.797508
      0.789865     0.782222     0.774579     0.766936     0.759293     0.751650     0.744007     0.736364     0.728721     0.721077
      0.713434     0.705791     0.698148     0.690505     0.682862     0.675219     0.667576     0.659933     0.652290     0.644646
      0.637003     0.629360     0.621717     0.614074     0.606431     0.598788     0.591145     0.583502     0.575858     0.568215
      0.560572     0.552929     0.545286     0.537643     0.530000     0.522357     0.514714     0.507071     0.499427     0.491784
      0.484141     0.476498     0.468855     0.461212     0.453569     0.445925     0.438282     0.430639     0.422996     0.415353
      0.407710     0.400067     0.392424     0.384780     0.377137     0.369494     0.361851     0.354208     0.346565     0.338922
      0.331278     0.323635     0.315992     0.308349     0.300706     0.293063     0.285420     0.277777     0.270133     0.262490
      0.254847     0.247204     0.239561     0.231918     0.224275     0.216631     0.208988     0.201345
 NY phased data points follow
  -3.73841E+00 -1.44276E+00 -3.11560E+00 -4.10477E+00 -1.31205E+00 -1.34064E+00  3.62780E+00  3.88039E+00  1.00265E+01  2.07908E+01
   1.46420E+01  1.67076E+01  2.22622E+01  1.56291E+01  1.48623E+01  9.54954E+00  2.43150E+00 -3.67383E+00 -3.97185E+00 -3.23401E+00
  -9.54387E+00 -9.62199E+00 -4.76017E+00 -5.76640E+00 -9.49649E+00 -2.98533E+00 -2.44475E+00 -4.29519E+00 -9.29341E-01  3.00690E+00
  -1.43914E+00  1.66097E+00  1.24556E+00 -2.26643E-02  7.32265E-01 -1.33973E+00 -5.61508E+00  5.62462E+00 -4.39632E+00 -2.83316E+00
  -4.08028E+00 -1.91177E+00 -3.52161E+00 -3.64619E+00 -3.55401E+00 -2.49919E+00  2.14734E+00  5.11483E+00  7.09678E+00  4.49838E+00
   2.75363E+00 -1.75242E+00 -5.07767E+00 -3.41665E+00  3.75658E-03 -2.58880E+00 -5.39875E-01 -1.27920E-01 -5.82878E+00  1.12781E+00
   3.81759E+00  2.79032E-01 -3.83108E+00 -2.59792E+00 -8.93357E+00 -6.25332E+00 -7.09043E+00 -9.98609E+00 -1.22815E+01 -7.05325E+00
  -9.52925E+00 -4.05474E+00 -4.93359E+00 -7.91182E+00 -7.29260E+00 -8.11830E+00 -2.22316E+00 -5.85866E+00 -8.64703E+00 -6.46978E+00
  -6.94542E+00 -5.39802E+00 -6.27114E+00 -9.33763E+00 -7.57173E+00 -7.76040E+00 -1.24053E+01 -7.40133E+00 -5.86678E+00 -6.45147E+00
  -9.54777E+00  1.84479E+00 -6.52352E+00 -5.93745E+00 -4.93224E+00 -3.62768E+00  5.24388E-02 -7.19507E+00  3.76080E-01 -2.68359E+00
   1.91791E+00  1.17773E+01  2.30458E+01  2.66030E+01  2.97754E+01  2.37737E+01  1.25570E+01  4.65745E+00  2.75245E+00 -3.03755E+00
  -7.49319E+00 -4.01738E+00 -6.77604E+00 -6.37122E+00 -2.38613E+00 -8.79476E+00 -9.55079E+00 -6.76404E+00 -5.61689E+00 -1.90229E+00
  -1.69421E+00 -2.42610E+00 -1.33636E-01  6.16216E+00  1.24410E+01  2.47448E+01  3.06454E+01  4.16468E+01  4.11169E+01  3.82075E+01
   2.63815E+01  1.71880E+01  4.66010E+00  5.42256E+00 -4.24407E+00 -2.62230E+00 -1.03991E+00 -3.13274E+00 -4.04008E+00  1.57050E+00
  -7.74488E-01 -2.66498E+00 -3.10560E+00 -2.34919E+00 -3.17046E+00  1.60706E-01 -4.78924E+00 -4.27379E+00 -3.24784E+00 -4.33182E+00
  -5.45888E+00 -7.53090E+00 -7.90738E+00 -8.91074E+00 -8.77199E+00 -1.33431E+01  8.70713E-01 -4.04064E+00 -8.89740E+00 -1.71713E+00
  -3.93124E+00 -1.27343E+00 -1.11560E+00 -3.79051E+00 -1.13251E+01  1.15070E-01 -7.21857E+00 -8.78013E+00 -6.05921E+00 -9.18441E+00
  -1.96135E+01 -1.01245E+01 -1.50854E+01 -1.64956E+01 -1.06771E+01 -1.71517E+01 -1.81531E+01 -2.03131E+01 -1.95616E+01 -1.28133E+01
  -1.85658E+01 -1.69765E+01 -1.67357E+01 -1.21897E+01 -1.02087E+01 -1.03063E+01 -1.12071E+01 -1.28495E+01 -1.37194E+01 -5.99798E+00
  -8.45884E+00 -3.94099E+00 -5.25435E+00 -6.36738E+00 -9.49948E+00 -1.06130E+01 -1.10040E+01 -1.25965E+01 -9.53398E+00 -1.28366E+01
  -1.16248E+01 -1.16933E+01 -5.46153E+00  1.33740E+00 -2.78941E+00 -4.75444E+00 -2.62590E+00 -8.02936E+00 -8.44541E+00 -1.23864E+01
  -9.39185E+00 -7.84741E+00 -7.80681E+00  3.57562E-01 -3.44301E-01  6.62865E+00  1.67744E+00  1.33738E+00  3.72708E+00 -4.24439E+00
  -1.47229E+01 -1.50876E+01 -1.83412E+01 -1.50331E+01 -9.54288E+00 -6.46585E+00  2.22434E+00  2.45232E+00  1.64656E+00  7.52530E+00
   4.47900E-01  5.71624E+00 -1.78673E+00 -6.95157E-01 -3.54103E-01 -2.04713E+00 -1.30454E+00 -5.26717E-02 -2.17947E+00 -2.95320E+00
  -1.82355E+00 -2.49951E+00 -6.40582E+00 -1.66481E+00 -1.23061E+01 -4.28811E+00 -3.11015E+00  3.20112E+00  2.28277E+00  6.62126E+00
   6.40543E+00  7.15873E+00  6.54721E+00  8.44647E+00  1.59824E+01  2.14599E+01  3.25006E+01  3.85275E+01  5.09578E+01  7.01292E+01
   8.21924E+01  9.07745E+01  7.68811E+01  5.05018E+01  2.70822E+01  2.09093E+01  5.20251E+00 -2.31617E-01 -4.27019E+00  1.16886E+00
   5.00402E+00 -2.59643E+00 -2.99800E+00 -1.81982E+00  3.16249E+00  3.12663E+00  5.07729E-01 -5.82716E+00 -4.46495E+00 -3.04084E+00
   1.07771E+00 -5.45055E+00  4.95036E-01 -1.99912E+00 -5.10396E+00 -3.10320E+00 -2.53798E+00 -2.19617E+00 -6.13828E+00  1.83894E+00
  -8.20844E+00  2.50517E+00 -1.41046E+00 -5.75401E+00  7.58212E-01 -4.56385E+00 -5.18551E+00  6.06321E-01 -2.42500E+00 -4.69218E+00
  -2.83707E+00 -2.55829E+00 -3.09440E+00 -1.17556E+00  2.14258E-01 -2.44295E+00  8.92527E-01  3.69433E+00  2.95702E+00  4.79863E-01
   1.08077E+00  2.38646E+00  6.65726E+00  5.66270E+00 -1.63112E+00  5.05361E+00  4.66468E+00  1.78386E+00 -2.00640E-02 -1.00359E+00
   1.79718E+00 -5.45647E+00 -7.70946E-03 -3.47475E+00  1.93288E+00 -5.16022E+00 -2.68897E+00  3.75704E+00 -3.51108E-01  1.74049E+00
   4.36374E+00 -1.03506E+00 -2.65817E+00  4.00141E+00  4.16117E+00  5.75000E+00  3.12240E+00  3.28968E+00  2.62971E+00  6.97522E-01
   4.58206E+00  2.35537E+00 -3.90328E+00 -3.10709E-01 -9.58564E-01  1.01410E+00 -6.07967E-01  4.01628E+00  1.54296E+00 -4.29399E+00
  -5.79421E+00 -3.06970E+00 -4.06496E+00 -1.60066E+00 -7.84462E-01 -2.87475E+00 -2.61557E+00 -2.07561E+00 -1.36268E+00 -8.21112E+00
  -6.05498E+00 -7.59188E-01 -2.07030E-01 -4.87446E+00 -6.45704E+00  7.59005E-01 -6.24747E-02 -2.19920E+00 -1.10805E+00 -4.22195E+00
   1.85741E+00  3.94448E-01  9.65304E-01 -4.51784E+00 -3.19499E-01 -7.76505E+00 -5.04696E+00 -7.58638E+00 -1.53208E+00 -4.33084E+00
  -8.87473E+00 -7.85956E+00 -1.58224E+01 -5.32157E+00 -5.72552E+00 -6.86893E-01 -5.65669E+00 -6.70904E+00 -4.14966E+00 -7.54002E+00
  -4.61978E+00 -8.39251E-01 -1.27975E-01  1.13493E+00 -4.22499E+00 -1.13528E+00  1.54334E-01 -7.77484E-02  4.11902E+00  1.98630E+00
   2.20050E+00  2.21043E+00  9.65887E-01  2.82505E+00  8.30347E+00  1.59649E+00  6.66712E+00  9.45458E+00  3.72785E+00  5.48695E+00
   3.63849E+00  5.66323E+00  2.53203E+00  4.40963E+00 -7.26359E-01 -2.03743E+00 -3.75248E+00  1.76282E+00 -2.95167E+00 -3.38990E+00
  -3.97749E-01 -6.17556E+00 -8.93894E+00 -6.25801E+00 -6.42428E+00 -8.08368E+00 -9.98100E+00 -7.52401E+00 -8.92198E+00 -4.19719E+00
  -1.17297E+01 -9.03406E+00 -2.01060E+00 -5.02040E-01 -4.27437E+00 -7.95581E+00 -5.30229E+00 -2.53739E+00 -7.92151E+00 -9.23101E+00
  -9.15073E+00 -6.38603E+00 -8.88724E+00 -1.17036E+01 -2.17675E+00 -3.02505E+00 -7.23322E+00 -1.04452E+01 -8.14052E+00 -7.26668E+00
  -8.32238E+00 -8.98405E+00 -4.99614E+00 -3.23185E+00 -8.23102E+00 -4.47891E+00 -2.22415E+00 -6.30138E+00 -7.48286E+00 -6.60393E+00
  -3.38857E+00 -1.43946E+00 -7.94208E+00 -1.21016E+01 -8.83639E+00 -6.70265E+00 -9.27396E+00 -1.18192E+01 -6.97907E+00 -2.48974E+00
  -4.15714E+00 -6.00529E+00 -4.86539E+00 -5.10247E+00 -9.82251E+00 -9.57834E+00 -8.28702E+00 -6.96536E+00 -6.66673E+00 -5.18763E+00
  -2.15195E+00 -7.93004E+00 -1.78698E+00 -1.39074E+00 -1.05410E+01 -9.00585E+00 -1.03340E+01 -2.19586E+00 -9.20896E+00 -6.94309E+00
  -5.24658E+00 -9.42169E+00 -1.87976E+00 -8.88152E+00 -3.16559E+00 -4.22996E+00 -8.24349E+00 -2.76591E-01
 NY points of the fit to the data follow
  -5.53260E+00 -5.92593E+00 -5.95496E+00 -5.25721E+00 -3.70534E+00 -1.63379E+00  1.44957E+00  6.13213E+00  1.11200E+01  1.50836E+01
   1.78101E+01  1.93752E+01  1.95189E+01  1.73586E+01  1.26317E+01  7.03499E+00  2.60729E+00 -2.81067E-01 -2.04180E+00 -2.91543E+00
  -3.26814E+00 -3.42141E+00 -3.52775E+00 -3.80077E+00 -4.00146E+00 -3.92380E+00 -3.86903E+00 -3.50237E+00 -2.34319E+00 -2.86424E-01
   2.12760E+00  3.92299E+00  4.51946E+00  3.92530E+00  2.28224E+00 -1.73936E-01 -2.84768E+00 -4.93647E+00 -6.00029E+00 -6.08793E+00
  -5.58922E+00 -4.77455E+00 -3.75135E+00 -2.57767E+00 -1.26081E+00  3.34973E-01  2.25835E+00  4.05036E+00  4.71016E+00  3.55677E+00
   9.66872E-01 -1.94633E+00 -4.25727E+00 -5.66625E+00 -6.18360E+00 -6.00136E+00 -5.45741E+00 -4.72989E+00 -3.91731E+00 -3.09852E+00
  -2.49963E+00 -2.45617E+00 -3.09574E+00 -4.19938E+00 -5.35409E+00 -6.19320E+00 -6.50521E+00 -6.25796E+00 -5.69310E+00 -5.05125E+00
  -4.47269E+00 -4.01476E+00 -3.74019E+00 -3.72825E+00 -3.97625E+00 -4.35896E+00 -4.71359E+00 -4.98141E+00 -5.18218E+00 -5.32689E+00
  -5.43923E+00 -5.50342E+00 -5.57222E+00 -5.70594E+00 -5.90137E+00 -6.19989E+00 -6.72989E+00 -7.53579E+00 -8.42710E+00 -9.02170E+00
  -9.05192E+00 -8.55090E+00 -7.79103E+00 -7.06355E+00 -6.52021E+00 -6.24052E+00 -6.20370E+00 -5.96200E+00 -4.00669E+00 -3.84186E-01
   4.79085E+00  1.23861E+01  2.12982E+01  2.80745E+01  2.90290E+01  2.32309E+01  1.38448E+01  5.34947E+00 -4.02876E-01 -3.80747E+00
  -5.32818E+00 -5.78556E+00 -5.93882E+00 -5.99038E+00 -6.01161E+00 -6.02817E+00 -6.04006E+00 -6.04292E+00 -6.02147E+00 -5.91791E+00
  -5.52063E+00 -4.03352E+00 -7.71656E-01  4.88183E+00  1.27173E+01  2.25999E+01  3.32822E+01  4.13155E+01  4.29477E+01  3.70504E+01
   2.63197E+01  1.53141E+01  7.02069E+00  1.69032E+00 -1.61168E+00 -3.65227E+00 -4.94725E+00 -5.59257E+00 -5.59816E+00 -5.13325E+00
  -4.47128E+00 -3.93421E+00 -3.74945E+00 -3.92476E+00 -4.32188E+00 -4.76591E+00 -5.13173E+00 -5.40104E+00 -5.59759E+00 -5.78124E+00
  -5.98895E+00 -6.20671E+00 -6.42418E+00 -6.60715E+00 -6.69932E+00 -6.69195E+00 -6.68987E+00 -6.73007E+00 -6.91996E+00 -7.38102E+00
  -7.98481E+00 -8.53156E+00 -8.66787E+00 -8.20514E+00 -7.51502E+00 -7.20652E+00 -7.54452E+00 -8.36272E+00 -9.25941E+00 -9.87214E+00
  -1.01822E+01 -1.03839E+01 -1.05855E+01 -1.08505E+01 -1.13121E+01 -1.18143E+01 -1.20704E+01 -1.18186E+01 -1.11578E+01 -1.06125E+01
  -1.05940E+01 -1.09265E+01 -1.11938E+01 -1.10942E+01 -1.07143E+01 -1.03333E+01 -9.88842E+00 -9.01873E+00 -7.59144E+00 -5.85530E+00
  -4.33983E+00 -3.56773E+00 -3.62174E+00 -4.33340E+00 -5.30738E+00 -6.14555E+00 -6.64129E+00 -6.79066E+00 -6.56520E+00 -5.85676E+00
  -4.77318E+00 -3.50029E+00 -2.29847E+00 -1.39069E+00 -1.10375E+00 -1.92149E+00 -3.73725E+00 -6.23917E+00 -8.99087E+00 -1.11735E+01
  -1.20555E+01 -1.11033E+01 -8.68805E+00 -5.33748E+00 -1.49969E+00  1.96981E+00  3.64363E+00  2.28409E+00 -1.75999E+00 -6.84479E+00
  -1.15303E+01 -1.50890E+01 -1.66877E+01 -1.55711E+01 -1.19868E+01 -7.29423E+00 -3.25135E+00 -7.73273E-01  2.47817E-01  1.35059E-01
  -7.25563E-01 -1.73829E+00 -2.27051E+00 -2.14614E+00 -1.52291E+00 -7.19651E-01  1.87527E-02  4.54715E-01  2.84902E-01 -4.22823E-01
  -1.42074E+00 -2.38486E+00 -2.94770E+00 -2.71361E+00 -1.59000E+00  1.86429E-02  1.44323E+00  2.23590E+00  2.44513E+00  2.31599E+00
   2.36891E+00  3.44748E+00  5.54293E+00  8.70139E+00  1.32884E+01  2.11381E+01  3.15609E+01  4.16556E+01  5.39510E+01  6.95497E+01
   8.33602E+01  8.67129E+01  7.51065E+01  5.35417E+01  3.23212E+01  1.72758E+01  7.88036E+00  2.92282E+00  9.72625E-01 -6.46565E-02
  -7.71816E-01 -1.22232E+00 -1.44940E+00 -1.51043E+00 -1.50714E+00 -1.60204E+00 -1.88262E+00 -2.29035E+00 -2.71190E+00 -3.08292E+00
  -3.38154E+00 -3.58841E+00 -3.69830E+00 -3.74118E+00 -3.77102E+00 -3.82478E+00 -3.89851E+00 -3.96570E+00 -4.00966E+00 -4.01082E+00
  -3.94665E+00 -3.80752E+00 -3.60413E+00 -3.36225E+00 -3.11042E+00 -2.85544E+00 -2.59279E+00 -2.31901E+00 -2.02763E+00 -1.70936E+00
  -1.36091E+00 -9.89181E-01 -6.12465E-01 -2.51548E-01  7.91230E-02  3.68995E-01  6.10455E-01  8.01586E-01  9.41922E-01  1.03154E+00
   1.07220E+00  1.06668E+00  1.01937E+00  9.36862E-01  8.27882E-01  7.02364E-01  5.70418E-01  4.41411E-01  3.24033E-01  2.26258E-01
   1.54928E-01  1.14820E-01  1.08424E-01  1.36027E-01  1.96352E-01  2.86703E-01  4.02936E-01  5.39191E-01  6.88345E-01  8.42658E-01
   9.94636E-01  1.13715E+00  1.26348E+00  1.36722E+00  1.44291E+00  1.48654E+00  1.49611E+00  1.47144E+00  1.41417E+00  1.32820E+00
   1.22171E+00  1.11329E+00  1.03559E+00  9.51666E-01  8.27356E-01  6.72235E-01  4.12558E-01 -6.66682E-02 -8.07217E-01 -1.69460E+00
  -2.44950E+00 -2.91089E+00 -3.09699E+00 -3.03233E+00 -2.73440E+00 -2.32283E+00 -1.99861E+00 -1.91448E+00 -2.07034E+00 -2.33412E+00
  -2.59922E+00 -2.83273E+00 -3.01588E+00 -3.15721E+00 -3.27827E+00 -3.38917E+00 -3.49491E+00 -3.59843E+00 -3.70120E+00 -3.80365E+00
  -3.90531E+00 -4.00537E+00 -4.10273E+00 -4.19611E+00 -4.28372E+00 -4.36335E+00 -4.43254E+00 -4.48887E+00 -4.52987E+00 -4.55292E+00
  -4.55493E+00 -4.53246E+00 -4.48191E+00 -4.39971E+00 -4.28218E+00 -4.12547E+00 -3.92548E+00 -3.67831E+00 -3.38065E+00 -3.03016E+00
  -2.62557E+00 -2.16693E+00 -1.65590E+00 -1.09644E+00 -4.95092E-01  1.38797E-01  7.93429E-01  1.45470E+00  2.10658E+00  2.73129E+00
   3.31018E+00  3.82455E+00  4.25704E+00  4.59237E+00  4.81824E+00  4.92579E+00  4.91031E+00  4.77157E+00  4.51415E+00  4.14683E+00
   3.68207E+00  3.13495E+00  2.52259E+00  1.86320E+00  1.17530E+00  4.76565E-01 -2.16995E-01 -8.91686E-01 -1.53620E+00 -2.14175E+00
  -2.70204E+00 -3.21335E+00 -3.67431E+00 -4.08548E+00 -4.44878E+00 -4.76704E+00 -5.04375E+00 -5.28299E+00 -5.48907E+00 -5.66627E+00
  -5.81845E+00 -5.94905E+00 -6.06119E+00 -6.15777E+00 -6.24138E+00 -6.31422E+00 -6.37792E+00 -6.43384E+00 -6.48312E+00 -6.52692E+00
  -6.56619E+00 -6.60163E+00 -6.63363E+00 -6.66258E+00 -6.68888E+00 -6.71304E+00 -6.73537E+00 -6.75607E+00 -6.77515E+00 -6.79275E+00
  -6.80910E+00 -6.82447E+00 -6.83896E+00 -6.85257E+00 -6.86523E+00 -6.87705E+00 -6.88820E+00 -6.89887E+00 -6.90903E+00 -6.91863E+00
  -6.92760E+00 -6.93608E+00 -6.94422E+00 -6.95210E+00 -6.95962E+00 -6.96671E+00 -6.97336E+00 -6.97974E+00 -6.98595E+00 -6.99201E+00
  -6.99777E+00 -7.00318E+00 -7.00829E+00 -7.01327E+00 -7.01816E+00 -7.02291E+00 -7.02737E+00 -7.03156E+00 -7.03557E+00 -7.03954E+00
  -7.04346E+00 -7.04722E+00 -7.05072E+00 -7.05401E+00 -7.05720E+00 -7.06041E+00 -7.06353E+00 -7.06647E+00 -7.06916E+00 -7.07172E+00
  -7.07424E+00 -7.07676E+00 -7.07916E+00 -7.08134E+00 -7.08328E+00 -7.08515E+00 -7.08698E+00 -7.08877E+00
 NY background values follow
    -7.373E+00   -7.373E+00   -7.373E+00   -7.373E+00   -7.372E+00   -7.372E+00   -7.372E+00   -7.372E+00   -7.371E+00   -7.371E+00
    -7.371E+00   -7.371E+00   -7.370E+00   -7.370E+00   -7.370E+00   -7.370E+00   -7.369E+00   -7.369E+00   -7.369E+00   -7.369E+00
    -7.368E+00   -7.368E+00   -7.368E+00   -7.368E+00   -7.367E+00   -7.367E+00   -7.367E+00   -7.367E+00   -7.366E+00   -7.366E+00
    -7.366E+00   -7.365E+00   -7.365E+00   -7.365E+00   -7.365E+00   -7.364E+00   -7.364E+00   -7.364E+00   -7.364E+00   -7.363E+00
    -7.363E+00   -7.363E+00   -7.363E+00   -7.362E+00   -7.362E+00   -7.362E+00   -7.362E+00   -7.361E+00   -7.361E+00   -7.361E+00
    -7.361E+00   -7.360E+00   -7.360E+00   -7.360E+00   -7.360E+00   -7.359E+00   -7.359E+00   -7.359E+00   -7.358E+00   -7.358E+00
    -7.358E+00   -7.358E+00   -7.357E+00   -7.357E+00   -7.357E+00   -7.357E+00   -7.356E+00   -7.356E+00   -7.356E+00   -7.355E+00
    -7.355E+00   -7.355E+00   -7.355E+00   -7.354E+00   -7.354E+00   -7.354E+00   -7.354E+00   -7.353E+00   -7.353E+00   -7.353E+00
    -7.353E+00   -7.352E+00   -7.352E+00   -7.352E+00   -7.351E+00   -7.351E+00   -7.351E+00   -7.351E+00   -7.350E+00   -7.350E+00
    -7.350E+00   -7.349E+00   -7.349E+00   -7.349E+00   -7.349E+00   -7.348E+00   -7.348E+00   -7.348E+00   -7.348E+00   -7.347E+00
    -7.347E+00   -7.347E+00   -7.346E+00   -7.346E+00   -7.346E+00   -7.346E+00   -7.345E+00   -7.345E+00   -7.345E+00   -7.344E+00
    -7.344E+00   -7.344E+00   -7.344E+00   -7.343E+00   -7.343E+00   -7.343E+00   -7.342E+00   -7.342E+00   -7.342E+00   -7.342E+00
    -7.341E+00   -7.341E+00   -7.341E+00   -7.340E+00   -7.340E+00   -7.340E+00   -7.340E+00   -7.339E+00   -7.339E+00   -7.339E+00
    -7.338E+00   -7.338E+00   -7.338E+00   -7.337E+00   -7.337E+00   -7.337E+00   -7.337E+00   -7.336E+00   -7.336E+00   -7.336E+00
    -7.335E+00   -7.335E+00   -7.335E+00   -7.335E+00   -7.334E+00   -7.334E+00   -7.334E+00   -7.333E+00   -7.333E+00   -7.333E+00
    -7.332E+00   -7.332E+00   -7.332E+00   -7.332E+00   -7.331E+00   -7.331E+00   -7.331E+00   -7.330E+00   -7.330E+00   -7.330E+00
    -7.329E+00   -7.329E+00   -7.329E+00   -7.329E+00   -7.328E+00   -7.328E+00   -7.328E+00   -7.327E+00   -7.327E+00   -7.327E+00
    -7.326E+00   -7.326E+00   -7.326E+00   -7.325E+00   -7.325E+00   -7.325E+00   -7.325E+00   -7.324E+00   -7.324E+00   -7.324E+00
    -7.323E+00   -7.323E+00   -7.323E+00   -7.322E+00   -7.322E+00   -7.322E+00   -7.321E+00   -7.321E+00   -7.321E+00   -7.320E+00
    -7.320E+00   -7.320E+00   -7.320E+00   -7.319E+00   -7.319E+00   -7.319E+00   -7.318E+00   -7.318E+00   -7.318E+00   -7.317E+00
    -7.317E+00   -7.317E+00   -7.316E+00   -7.316E+00   -7.316E+00   -7.315E+00   -7.315E+00   -7.315E+00   -7.314E+00   -7.314E+00
    -7.314E+00   -7.313E+00   -7.313E+00   -7.313E+00   -7.312E+00   -7.312E+00   -7.312E+00   -7.311E+00   -7.311E+00   -7.311E+00
    -7.310E+00   -7.310E+00   -7.310E+00   -7.309E+00   -7.309E+00   -7.309E+00   -7.308E+00   -7.308E+00   -7.308E+00   -7.307E+00
    -7.307E+00   -7.307E+00   -7.306E+00   -7.306E+00   -7.306E+00   -7.305E+00   -7.305E+00   -7.305E+00   -7.304E+00   -7.304E+00
    -7.304E+00   -7.303E+00   -7.303E+00   -7.303E+00   -7.302E+00   -7.302E+00   -7.302E+00   -7.301E+00   -7.301E+00   -7.301E+00
    -7.300E+00   -7.300E+00   -7.300E+00   -7.299E+00   -7.299E+00   -7.299E+00   -7.298E+00   -7.298E+00   -7.298E+00   -7.297E+00
    -7.297E+00   -7.297E+00   -7.296E+00   -7.296E+00   -7.296E+00   -7.295E+00   -7.295E+00   -7.294E+00   -7.294E+00   -7.294E+00
    -7.293E+00   -7.293E+00   -7.293E+00   -7.292E+00   -7.292E+00   -7.292E+00   -7.291E+00   -7.291E+00   -7.291E+00   -7.290E+00
    -7.290E+00   -7.290E+00   -7.289E+00   -7.289E+00   -7.288E+00   -7.288E+00   -7.288E+00   -7.287E+00   -7.287E+00   -7.287E+00
    -7.286E+00   -7.286E+00   -7.286E+00   -7.285E+00   -7.285E+00   -7.285E+00   -7.284E+00   -7.284E+00   -7.283E+00   -7.283E+00
    -7.283E+00   -7.282E+00   -7.282E+00   -7.282E+00   -7.281E+00   -7.281E+00   -7.281E+00   -7.280E+00   -7.280E+00   -7.279E+00
    -7.279E+00   -7.279E+00   -7.278E+00   -7.278E+00   -7.278E+00   -7.277E+00   -7.277E+00   -7.277E+00   -7.276E+00   -7.276E+00
    -7.275E+00   -7.275E+00   -7.275E+00   -7.274E+00   -7.274E+00   -7.274E+00   -7.273E+00   -7.273E+00   -7.272E+00   -7.272E+00
    -7.272E+00   -7.271E+00   -7.271E+00   -7.271E+00   -7.270E+00   -7.270E+00   -7.269E+00   -7.269E+00   -7.269E+00   -7.268E+00
    -7.268E+00   -7.268E+00   -7.267E+00   -7.267E+00   -7.266E+00   -7.266E+00   -7.266E+00   -7.265E+00   -7.265E+00   -7.265E+00
    -7.264E+00   -7.264E+00   -7.263E+00   -7.263E+00   -7.263E+00   -7.262E+00   -7.262E+00   -7.261E+00   -7.261E+00   -7.261E+00
    -7.260E+00   -7.260E+00   -7.260E+00   -7.259E+00   -7.259E+00   -7.258E+00   -7.258E+00   -7.258E+00   -7.257E+00   -7.257E+00
    -7.256E+00   -7.256E+00   -7.256E+00   -7.255E+00   -7.255E+00   -7.254E+00   -7.254E+00   -7.254E+00   -7.253E+00   -7.253E+00
    -7.253E+00   -7.252E+00   -7.252E+00   -7.251E+00   -7.251E+00   -7.251E+00   -7.250E+00   -7.250E+00   -7.249E+00   -7.249E+00
    -7.249E+00   -7.248E+00   -7.248E+00   -7.247E+00   -7.247E+00   -7.247E+00   -7.246E+00   -7.246E+00   -7.245E+00   -7.245E+00
    -7.245E+00   -7.244E+00   -7.244E+00   -7.243E+00   -7.243E+00   -7.243E+00   -7.242E+00   -7.242E+00   -7.241E+00   -7.241E+00
    -7.241E+00   -7.240E+00   -7.240E+00   -7.239E+00   -7.239E+00   -7.239E+00   -7.238E+00   -7.238E+00   -7.237E+00   -7.237E+00
    -7.237E+00   -7.236E+00   -7.236E+00   -7.235E+00   -7.235E+00   -7.234E+00   -7.234E+00   -7.234E+00   -7.233E+00   -7.233E+00
    -7.232E+00   -7.232E+00   -7.232E+00   -7.231E+00   -7.231E+00   -7.230E+00   -7.230E+00   -7.229E+00   -7.229E+00   -7.229E+00
    -7.228E+00   -7.228E+00   -7.227E+00   -7.227E+00   -7.227E+00   -7.226E+00   -7.226E+00   -7.225E+00   -7.225E+00   -7.224E+00
    -7.224E+00   -7.224E+00   -7.223E+00   -7.223E+00   -7.222E+00   -7.222E+00   -7.222E+00   -7.221E+00   -7.221E+00   -7.220E+00
    -7.220E+00   -7.219E+00   -7.219E+00   -7.219E+00   -7.218E+00   -7.218E+00   -7.217E+00   -7.217E+00   -7.216E+00   -7.216E+00
    -7.216E+00   -7.215E+00   -7.215E+00   -7.214E+00   -7.214E+00   -7.213E+00   -7.213E+00   -7.213E+00   -7.212E+00   -7.212E+00
    -7.211E+00   -7.211E+00   -7.210E+00   -7.210E+00   -7.210E+00   -7.209E+00   -7.209E+00   -7.208E+00   -7.208E+00   -7.207E+00
    -7.207E+00   -7.207E+00   -7.206E+00   -7.206E+00   -7.205E+00   -7.205E+00   -7.204E+00   -7.204E+00
 Cr       Conc. = 7.01E+02
