 LCModel (Version 6.3-1L) Copyright: S.W. Provencher.          Ref.: Magn. Reson. Med. 30:672-679 (1993).                
 Slice#1 Row#4 Col#4  K_02_press_1_raw_act
 36 lines in following concentration table = NCONC+1
    Conc.  %SD /Cr+PCr  Metabolite                                         
  538.313  28%   0.689 Ala                                                 
    0.000 999%   0.000 Asp                                                 
  414.110  61%   0.530 Cr                                                  
  367.210  69%   0.470 PCr                                                 
   18.353 683% 2.3E-02 GABA                                                
    0.000 999%   0.000 Glc                                                 
    0.000 999%   0.000 Gln                                                 
  661.477  51%   0.847 Glu                                                 
  325.355   7%   0.416 GPC                                                 
    0.000 999%   0.000 PCh                                                 
  457.890  18%   0.586 GSH                                                 
  952.918  30%   1.220 Ins                                                 
  327.268  49%   0.419 Lac                                                 
 1.31E+03  13%   1.672 NAA                                                 
  528.224  30%   0.676 NAAG                                                
    0.000 999%   0.000 Scyllo                                              
    0.000 999%   0.000 Tau                                                 
    0.000 999%   0.000 -CrCH2                                              
  325.355   7%   0.416 GPC+PCh                                             
 1.83E+03   5%   2.348 NAA+NAAG                                            
  781.320   8%   1.000 Cr+PCr                                              
  661.477  51%   0.847 Glu+Gln                                             
 1.22E+03  12%   1.561 Lip13a                                              
    0.000 999%   0.000 Lip13b                                              
  314.445  49%   0.402 Lip09                                               
 1.51E+03  15%   1.927 MM09                                                
  297.457  37%   0.381 Lip20                                               
 4.18E+03  10%   5.349 MM20                                                
  342.588  57%   0.438 MM12                                                
    0.000 999%   0.000 MM14                                                
    0.000 999%   0.000 MM17                                                
 1.22E+03  12%   1.561 Lip13a+Lip13b                                       
 1.56E+03  13%   2.000 MM14+Lip13a+Lip13b+MM12                             
 1.82E+03  12%   2.330 MM09+Lip09                                          
 4.48E+03   9%   5.729 MM20+Lip20                                          
   6 lines in following misc. output table
  FWHM = 0.076 ppm    S/N =   8                                            
  Data shift = 0.061 ppm                                                   
  Ph:  42 deg      16.5 deg/ppm                                            
  alphaB,S = 6.9E-01,   5.1E+01                                            
   14 spline knots.   Ns = 9(1)                                            
  (14) 6 infls.   (12) 1 extrs.                                            
  498 points on ppm-axis = NY
      4.000000     3.992357     3.984714     3.977070     3.969427     3.961784     3.954141     3.946497     3.938854     3.931211
      3.923568     3.915925     3.908281     3.900638     3.892995     3.885352     3.877708     3.870065     3.862422     3.854779
      3.847136     3.839492     3.831849     3.824206     3.816563     3.808919     3.801276     3.793633     3.785990     3.778347
      3.770703     3.763060     3.755417     3.747774     3.740130     3.732487     3.724844     3.717201     3.709558     3.701914
      3.694271     3.686628     3.678985     3.671341     3.663698     3.656055     3.648412     3.640769     3.633125     3.625482
      3.617839     3.610196     3.602552     3.594909     3.587266     3.579623     3.571980     3.564336     3.556693     3.549050
      3.541407     3.533763     3.526120     3.518477     3.510834     3.503191     3.495547     3.487904     3.480261     3.472618
      3.464974     3.457331     3.449688     3.442045     3.434402     3.426758     3.419115     3.411472     3.403829     3.396185
      3.388542     3.380899     3.373256     3.365613     3.357969     3.350326     3.342683     3.335040     3.327396     3.319753
      3.312110     3.304467     3.296824     3.289180     3.281537     3.273894     3.266251     3.258607     3.250964     3.243321
      3.235678     3.228034     3.220391     3.212748     3.205105     3.197462     3.189818     3.182175     3.174532     3.166889
      3.159245     3.151602     3.143959     3.136316     3.128673     3.121029     3.113386     3.105743     3.098100     3.090456
      3.082813     3.075170     3.067527     3.059884     3.052240     3.044597     3.036954     3.029311     3.021667     3.014024
      3.006381     2.998738     2.991095     2.983451     2.975808     2.968165     2.960522     2.952878     2.945235     2.937592
      2.929949     2.922306     2.914662     2.907019     2.899376     2.891733     2.884089     2.876446     2.868803     2.861160
      2.853517     2.845873     2.838230     2.830587     2.822944     2.815300     2.807657     2.800014     2.792371     2.784728
      2.777084     2.769441     2.761798     2.754155     2.746511     2.738868     2.731225     2.723582     2.715939     2.708295
      2.700652     2.693009     2.685366     2.677722     2.670079     2.662436     2.654793     2.647150     2.639506     2.631863
      2.624220     2.616577     2.608933     2.601290     2.593647     2.586004     2.578361     2.570717     2.563074     2.555431
      2.547788     2.540144     2.532501     2.524858     2.517215     2.509572     2.501928     2.494285     2.486642     2.478999
      2.471355     2.463712     2.456069     2.448426     2.440783     2.433139     2.425496     2.417853     2.410210     2.402566
      2.394923     2.387280     2.379637     2.371994     2.364350     2.356707     2.349064     2.341421     2.333777     2.326134
      2.318491     2.310848     2.303205     2.295561     2.287918     2.280275     2.272632     2.264988     2.257345     2.249702
      2.242059     2.234416     2.226772     2.219129     2.211486     2.203843     2.196199     2.188556     2.180913     2.173270
      2.165627     2.157983     2.150340     2.142697     2.135054     2.127410     2.119767     2.112124     2.104481     2.096838
      2.089194     2.081551     2.073908     2.066265     2.058621     2.050978     2.043335     2.035692     2.028049     2.020405
      2.012762     2.005119     1.997476     1.989833     1.982190     1.974546     1.966903     1.959260     1.951617     1.943974
      1.936331     1.928688     1.921045     1.913402     1.905759     1.898115     1.890472     1.882829     1.875186     1.867543
      1.859900     1.852257     1.844614     1.836971     1.829327     1.821684     1.814041     1.806398     1.798755     1.791112
      1.783469     1.775826     1.768183     1.760540     1.752896     1.745253     1.737610     1.729967     1.722324     1.714681
      1.707038     1.699395     1.691752     1.684108     1.676465     1.668822     1.661179     1.653536     1.645893     1.638250
      1.630607     1.622964     1.615321     1.607677     1.600034     1.592391     1.584748     1.577105     1.569462     1.561819
      1.554176     1.546533     1.538890     1.531246     1.523603     1.515960     1.508317     1.500674     1.493031     1.485388
      1.477745     1.470102     1.462458     1.454815     1.447172     1.439529     1.431886     1.424243     1.416600     1.408957
      1.401314     1.393671     1.386027     1.378384     1.370741     1.363098     1.355455     1.347812     1.340169     1.332526
      1.324883     1.317240     1.309596     1.301953     1.294310     1.286667     1.279024     1.271381     1.263738     1.256095
      1.248452     1.240808     1.233165     1.225522     1.217879     1.210236     1.202593     1.194950     1.187307     1.179664
      1.172021     1.164377     1.156734     1.149091     1.141448     1.133805     1.126162     1.118519     1.110876     1.103233
      1.095590     1.087946     1.080303     1.072660     1.065017     1.057374     1.049731     1.042088     1.034445     1.026802
      1.019158     1.011515     1.003872     0.996229     0.988586     0.980943     0.973300     0.965657     0.958014     0.950371
      0.942727     0.935084     0.927441     0.919798     0.912155     0.904512     0.896869     0.889226     0.881583     0.873940
      0.866296     0.858653     0.851010     0.843367     0.835724     0.828081     0.820438     0.812795     0.805152     0.797508
      0.789865     0.782222     0.774579     0.766936     0.759293     0.751650     0.744007     0.736364     0.728721     0.721077
      0.713434     0.705791     0.698148     0.690505     0.682862     0.675219     0.667576     0.659933     0.652290     0.644646
      0.637003     0.629360     0.621717     0.614074     0.606431     0.598788     0.591145     0.583502     0.575858     0.568215
      0.560572     0.552929     0.545286     0.537643     0.530000     0.522357     0.514714     0.507071     0.499427     0.491784
      0.484141     0.476498     0.468855     0.461212     0.453569     0.445925     0.438282     0.430639     0.422996     0.415353
      0.407710     0.400067     0.392424     0.384780     0.377137     0.369494     0.361851     0.354208     0.346565     0.338922
      0.331278     0.323635     0.315992     0.308349     0.300706     0.293063     0.285420     0.277777     0.270133     0.262490
      0.254847     0.247204     0.239561     0.231918     0.224275     0.216631     0.208988     0.201345
 NY phased data points follow
   2.25199E+01  2.09479E+01  2.07993E+01  1.84185E+01  2.03820E+01  2.41772E+01  2.47695E+01  2.78401E+01  2.88862E+01  3.37512E+01
   3.28090E+01  3.37731E+01  3.58259E+01  2.31952E+01  3.16269E+01  3.10123E+01  3.02308E+01  2.94859E+01  2.27091E+01  1.86620E+01
   1.86336E+01  2.30411E+01  1.86818E+01  2.17493E+01  1.90845E+01  2.17273E+01  2.59061E+01  2.31530E+01  2.33343E+01  1.87231E+01
   2.17620E+01  2.23794E+01  2.02719E+01  2.36649E+01  2.63903E+01  1.89690E+01  1.76172E+01  1.94916E+01  2.17328E+01  1.71494E+01
   1.47214E+01  2.26257E+01  1.91325E+01  2.42017E+01  2.04436E+01  1.90258E+01  2.16747E+01  2.29994E+01  2.16539E+01  2.09690E+01
   2.01527E+01  2.28083E+01  1.92442E+01  1.57895E+01  1.82708E+01  1.81933E+01  1.56824E+01  1.47319E+01  1.45171E+01  1.51533E+01
   2.12040E+01  1.82221E+01  1.02090E+01  1.59176E+01  1.12355E+01  9.33081E+00  7.73053E+00  7.15751E+00  1.22293E+01  7.63477E+00
   1.37141E+01  1.11537E+01  7.67782E+00  4.18905E+00  6.71556E+00  1.09089E+01  1.08672E+01  9.74726E+00  6.50946E+00  8.10131E+00
   7.66129E+00  6.02353E+00  7.23068E+00  1.00841E+01  4.58693E+00  3.88086E+00  4.35689E+00  3.45346E+00  1.06410E+01  5.78378E+00
   6.04567E+00  6.10457E+00  3.86005E+00  2.28044E+00  2.31952E+00  1.61203E+00  1.02395E+01  1.19058E+01  1.09558E+01  2.18052E+01
   2.38504E+01  2.63972E+01  2.81117E+01  2.70871E+01  3.06041E+01  2.71493E+01  2.72249E+01  2.48018E+01  2.30041E+01  1.88885E+01
   1.03500E+01  8.07454E+00  7.65297E+00  1.05916E+01  6.20048E+00  7.41313E+00  9.41166E+00  6.67865E+00  6.19397E+00  3.12776E+00
   2.86019E+00  1.02527E+01  1.41276E+01  1.68569E+01  1.57946E+01  2.19622E+01  2.32025E+01  2.87950E+01  2.97984E+01  2.93630E+01
   2.11786E+01  2.60796E+01  2.39037E+01  1.54784E+01  1.78993E+01  9.49983E+00  9.96028E+00  1.43600E+01  1.16275E+01  8.51508E+00
   4.01911E+00  7.45267E+00  5.71721E+00  5.78495E+00  7.89530E+00  6.88726E+00  6.44693E+00  3.72024E+00  6.37369E+00  6.58987E+00
   7.92476E+00  6.24237E+00  5.49400E+00  4.08477E+00  8.28974E+00  3.27962E+00  2.41004E+00 -1.48058E+00  3.75389E+00 -5.24115E-01
   8.10237E+00  3.52142E+00  8.87041E-01  5.16785E+00  3.92163E+00  1.30081E+00  2.32496E-01 -1.24961E+00  2.36389E+00 -7.80676E+00
  -4.07068E+00  4.55716E-01 -6.80456E+00 -7.50644E+00 -1.75321E+00 -8.70020E+00 -1.26469E+01 -7.64951E+00 -7.54115E+00 -6.25332E+00
  -7.12859E+00 -7.88914E+00 -1.26136E+01 -1.01877E+01 -5.06288E+00 -2.68379E+00 -3.94000E+00 -3.37312E+00 -8.77573E-01 -5.95944E+00
   9.12810E-01  1.95833E+00 -6.01470E+00 -3.66650E+00 -6.61976E+00 -3.79277E+00 -6.03687E+00 -4.54554E+00 -6.05476E+00 -7.84903E+00
  -5.22465E+00 -8.62145E+00 -6.32934E+00 -1.30758E+00 -3.78890E+00 -1.45696E+00 -5.64334E+00 -6.65359E+00 -4.69357E+00 -3.30569E+00
  -4.08447E+00 -3.39681E+00  5.82733E-01  3.38253E+00  6.49174E+00  4.37399E+00 -2.11340E-01  5.84208E-02 -3.75748E+00 -7.51510E-01
  -3.08737E+00 -4.51984E+00  8.86408E-01 -3.28735E-01 -4.66861E+00 -3.74757E+00 -1.60801E+00 -1.93859E+00 -2.19363E+00 -1.21181E+00
   2.59289E+00 -1.47805E+00 -3.05026E+00  2.14772E+00  1.38838E+00  1.36067E-01  1.23319E+00 -2.62043E-01 -1.13922E-01 -5.33482E+00
   1.27922E+00  4.38971E+00 -1.17561E+00  2.61917E-01  4.38473E-01 -3.43041E+00  7.93852E-01  9.32854E+00  6.51685E+00  1.31726E+01
   1.23100E+01  8.31854E+00  9.37179E+00  2.31463E+01  1.88310E+01  3.13319E+01  3.02217E+01  4.46310E+01  4.67083E+01  4.24080E+01
   4.38214E+01  4.78049E+01  4.09821E+01  4.04958E+01  2.55500E+01  2.30141E+01  1.58567E+01  9.88571E+00  7.22598E+00  3.21077E+00
  -2.28432E+00 -7.29759E+00 -3.88011E+00 -8.61419E+00 -1.12738E+01 -1.05472E+01 -9.95488E+00 -6.65149E+00 -8.15599E+00 -9.45337E+00
  -9.09679E+00 -1.12208E+01 -8.47622E+00 -6.31965E+00 -5.96057E+00 -1.24379E+01 -1.10711E+01 -1.31265E+01 -9.31099E+00 -1.16705E+01
  -8.47456E+00 -1.12854E+01 -1.11534E+01 -1.18160E+01 -1.26244E+01 -1.31230E+01 -1.16401E+01 -1.47280E+01 -1.75426E+01 -1.08005E+01
  -1.60041E+01 -1.34026E+01 -1.46375E+01 -1.58771E+01 -1.62045E+01 -1.38940E+01 -1.79594E+01 -1.97077E+01 -2.44884E+01 -2.23402E+01
  -1.36835E+01 -2.15717E+01 -2.14310E+01 -2.12183E+01 -1.35369E+01 -1.89196E+01 -1.77469E+01 -2.58628E+01 -1.88945E+01 -1.97781E+01
  -1.84989E+01 -2.08346E+01 -1.95018E+01 -1.54230E+01 -1.22359E+01 -1.26902E+01 -1.68427E+01 -1.69814E+01 -1.54694E+01 -1.86710E+01
  -2.03859E+01 -2.24735E+01 -1.46235E+01 -2.07432E+01 -2.30086E+01 -2.09264E+01 -1.25859E+01 -1.21645E+01 -1.13071E+01 -7.26676E+00
  -3.50554E+00 -1.91066E+00  3.89447E+00  1.61959E+00  3.03484E+00 -7.94363E-01 -3.38020E+00 -3.60064E+00 -4.12811E+00 -7.30882E-01
  -6.65520E+00 -8.47194E+00 -4.52378E+00 -4.50460E+00 -2.58091E+00 -6.83329E+00 -2.52365E+00 -5.79986E+00 -7.92417E+00 -8.05727E+00
  -9.59480E+00 -1.10739E+01 -8.98106E+00 -1.29750E+01 -8.18960E+00 -8.74365E+00 -9.36054E+00 -1.35607E+01 -7.23630E+00 -8.97444E+00
  -9.36091E+00 -8.62869E+00 -9.65158E+00 -7.89028E+00 -6.14481E+00 -5.95522E+00 -8.12913E+00 -1.05596E+01 -1.10069E+01 -7.39703E+00
  -6.68898E+00 -7.76455E+00 -7.65830E+00 -4.98948E+00 -1.11821E+01 -7.83236E+00 -6.14274E+00 -4.68318E+00 -4.82749E+00 -6.67096E+00
  -1.42366E+00 -6.51407E+00 -8.84957E-01 -3.87545E+00 -1.39489E+00 -1.34013E+00 -2.95224E+00 -5.11568E+00 -2.79229E+00 -3.30039E+00
  -2.09382E+00 -2.27789E+00 -2.16722E+00 -4.39411E+00  1.17132E+00 -2.94118E+00 -5.14274E+00 -1.66495E+00 -5.14366E+00  1.00661E+00
  -4.02230E+00 -6.02668E+00 -3.12363E+00 -9.51595E+00 -1.91802E+00 -7.83074E+00 -6.51743E+00 -2.82475E+00 -3.51602E+00 -5.25282E+00
  -5.34792E+00 -9.42703E+00 -1.20838E+01 -4.85305E+00 -3.64026E-01 -5.16182E+00 -8.91441E+00 -8.35460E+00 -1.03575E+01 -3.80983E+00
  -6.33964E+00 -7.17504E+00 -8.45300E+00 -6.21231E+00 -1.84786E+00 -5.11532E+00 -9.52182E+00 -6.07147E+00 -7.16311E+00 -2.91426E+00
  -6.06162E+00 -9.25760E+00 -6.20479E+00 -5.76997E+00 -7.50262E-01 -9.00615E+00 -6.59770E+00 -3.56051E+00 -7.32783E+00 -7.58992E+00
  -4.48988E+00 -6.27096E+00 -5.64616E+00 -3.28493E+00 -4.66613E+00 -6.45582E+00 -4.68598E+00 -3.09482E+00 -7.76144E+00 -5.80474E+00
  -5.98647E+00 -7.40314E+00 -7.80886E+00 -4.37567E+00 -7.38477E+00 -8.57337E+00 -7.36448E+00 -7.06538E+00 -8.97325E+00 -6.77225E+00
  -7.32116E+00 -6.46703E+00 -6.75464E+00 -6.63207E+00 -1.02447E+01 -5.14439E+00 -6.19979E+00 -5.92725E+00 -4.52801E+00 -8.06128E+00
  -1.01241E+01 -5.44745E+00 -8.36261E+00 -1.36443E+00 -7.56534E+00 -7.18305E+00 -4.97278E+00 -4.76924E+00 -4.83508E+00 -9.81714E+00
  -5.98714E+00 -6.23273E+00 -7.24241E+00 -7.91200E+00 -7.48172E+00 -1.18181E+01 -4.16206E+00 -7.95655E+00
 NY points of the fit to the data follow
   2.08669E+01  2.00291E+01  1.96526E+01  1.97930E+01  2.09004E+01  2.28489E+01  2.51049E+01  2.72889E+01  2.92846E+01  3.09419E+01
   3.20960E+01  3.27050E+01  3.27632E+01  3.21931E+01  3.10100E+01  2.94210E+01  2.75899E+01  2.55922E+01  2.36940E+01  2.21115E+01
   2.06854E+01  1.93583E+01  1.88725E+01  1.91674E+01  1.96999E+01  2.04600E+01  2.15612E+01  2.25126E+01  2.29717E+01  2.34506E+01
   2.42179E+01  2.46813E+01  2.44980E+01  2.40298E+01  2.35270E+01  2.27512E+01  2.15304E+01  2.00910E+01  1.87642E+01  1.77643E+01
   1.72306E+01  1.72362E+01  1.76725E+01  1.83797E+01  1.90773E+01  1.95387E+01  1.98014E+01  1.99862E+01  2.00258E+01  1.97313E+01
   1.90480E+01  1.81878E+01  1.73111E+01  1.64153E+01  1.55969E+01  1.49991E+01  1.46658E+01  1.44971E+01  1.43819E+01  1.42956E+01
   1.41927E+01  1.40259E+01  1.37522E+01  1.33882E+01  1.30402E+01  1.27362E+01  1.24569E+01  1.22224E+01  1.20737E+01  1.19882E+01
   1.19337E+01  1.19179E+01  1.19252E+01  1.18942E+01  1.17653E+01  1.15527E+01  1.13002E+01  1.10347E+01  1.07776E+01  1.04924E+01
   1.01425E+01  9.69405E+00  9.14437E+00  8.52077E+00  7.86833E+00  7.24825E+00  6.71155E+00  6.24737E+00  5.89735E+00  5.72151E+00
   5.68390E+00  5.69103E+00  5.65391E+00  5.14436E+00  4.03078E+00  4.63119E+00  7.34624E+00  1.10163E+01  1.52695E+01  1.99225E+01
   2.36985E+01  2.60070E+01  2.78653E+01  2.96203E+01  3.01816E+01  2.89911E+01  2.68867E+01  2.45701E+01  2.16021E+01  1.78102E+01
   1.40294E+01  1.10807E+01  9.05137E+00  7.72714E+00  7.11728E+00  6.80914E+00  6.56579E+00  6.23495E+00  5.34129E+00  4.92882E+00
   6.38295E+00  9.14059E+00  1.24978E+01  1.63664E+01  2.00831E+01  2.27910E+01  2.48691E+01  2.69106E+01  2.83529E+01  2.82926E+01
   2.67645E+01  2.45581E+01  2.18913E+01  1.85924E+01  1.50276E+01  1.19053E+01  9.61320E+00  8.07260E+00  7.19143E+00  6.73615E+00
   6.44641E+00  6.31951E+00  6.29666E+00  6.27202E+00  6.19364E+00  6.04222E+00  5.74517E+00  5.25586E+00  4.65695E+00  4.04148E+00
   3.46703E+00  3.00136E+00  2.70708E+00  2.46163E+00  2.13696E+00  1.74730E+00  1.32434E+00  9.57333E-01  6.93188E-01  4.98263E-01
   3.15632E-01  9.42881E-02 -2.27450E-01 -6.30326E-01 -1.02316E+00 -1.38292E+00 -1.71151E+00 -1.98407E+00 -2.27306E+00 -2.69239E+00
  -3.19569E+00 -3.69179E+00 -4.09997E+00 -4.41389E+00 -4.68696E+00 -4.98940E+00 -5.29017E+00 -5.55737E+00 -5.73932E+00 -5.91820E+00
  -6.19040E+00 -6.47739E+00 -6.62147E+00 -6.53061E+00 -6.15305E+00 -5.54232E+00 -4.84249E+00 -4.13174E+00 -3.40674E+00 -2.75049E+00
  -2.38254E+00 -2.27422E+00 -2.28299E+00 -2.40043E+00 -2.67397E+00 -3.03043E+00 -3.33701E+00 -3.61236E+00 -3.82196E+00 -3.81948E+00
  -3.58618E+00 -3.28426E+00 -3.06774E+00 -2.90174E+00 -2.77058E+00 -2.87250E+00 -3.29291E+00 -3.90499E+00 -4.37096E+00 -4.57624E+00
  -4.58634E+00 -4.40758E+00 -4.06465E+00 -3.69305E+00 -3.47591E+00 -3.47671E+00 -3.65469E+00 -3.97327E+00 -4.44785E+00 -4.90934E+00
  -5.15924E+00 -5.24470E+00 -5.26550E+00 -5.24032E+00 -5.09337E+00 -4.76129E+00 -4.35980E+00 -3.93704E+00 -3.39212E+00 -2.58745E+00
  -1.63414E+00 -7.86924E-01 -1.05842E-01  4.50895E-01  8.32384E-01  9.16385E-01  7.89273E-01  6.88985E-01  7.09925E-01  7.76634E-01
   9.51182E-01  1.34475E+00  1.86259E+00  2.36545E+00  2.90503E+00  3.57312E+00  4.14096E+00  4.30254E+00  5.16400E+00  7.14876E+00
   9.34903E+00  1.06041E+01  1.23159E+01  1.66330E+01  2.23035E+01  2.84477E+01  3.52783E+01  4.13567E+01  4.44597E+01  4.52340E+01
   4.55645E+01  4.47863E+01  4.12276E+01  3.54906E+01  2.95318E+01  2.37539E+01  1.73563E+01  1.07744E+01  5.15000E+00  1.00531E+00
  -1.92162E+00 -3.79747E+00 -4.84356E+00 -5.63975E+00 -6.34926E+00 -6.99183E+00 -7.58873E+00 -8.16777E+00 -8.71494E+00 -9.21817E+00
  -9.69317E+00 -1.01534E+01 -1.05840E+01 -1.09768E+01 -1.13334E+01 -1.16603E+01 -1.19598E+01 -1.22299E+01 -1.24732E+01 -1.26979E+01
  -1.29082E+01 -1.31069E+01 -1.32903E+01 -1.34569E+01 -1.36135E+01 -1.37628E+01 -1.38991E+01 -1.40214E+01 -1.41396E+01 -1.42580E+01
  -1.43692E+01 -1.44670E+01 -1.45527E+01 -1.46266E+01 -1.46871E+01 -1.47342E+01 -1.47715E+01 -1.48028E+01 -1.48295E+01 -1.48510E+01
  -1.48674E+01 -1.48763E+01 -1.48757E+01 -1.48639E+01 -1.48392E+01 -1.47998E+01 -1.47446E+01 -1.46791E+01 -1.46321E+01 -1.44716E+01
  -1.37274E+01 -1.27265E+01 -1.19460E+01 -1.14458E+01 -1.12777E+01 -1.16615E+01 -1.25613E+01 -1.39361E+01 -1.54034E+01 -1.67144E+01
  -1.77824E+01 -1.82956E+01 -1.80445E+01 -1.73968E+01 -1.66817E+01 -1.56079E+01 -1.38834E+01 -1.18345E+01 -9.97298E+00 -8.14042E+00
  -6.15990E+00 -4.41848E+00 -3.25232E+00 -2.62324E+00 -2.42276E+00 -2.60439E+00 -3.15244E+00 -3.70733E+00 -4.11608E+00 -4.52162E+00
  -4.83956E+00 -4.86391E+00 -4.74388E+00 -4.77700E+00 -4.85493E+00 -4.70637E+00 -4.41141E+00 -4.27360E+00 -4.37362E+00 -4.61966E+00
  -5.02828E+00 -5.67163E+00 -6.51723E+00 -7.41275E+00 -8.23297E+00 -8.94717E+00 -9.51316E+00 -9.92992E+00 -1.02389E+01 -1.04616E+01
  -1.06108E+01 -1.06958E+01 -1.07243E+01 -1.07025E+01 -1.06354E+01 -1.05270E+01 -1.03802E+01 -1.01969E+01 -9.97836E+00 -9.72538E+00
  -9.43835E+00 -9.11762E+00 -8.76357E+00 -8.37691E+00 -7.95885E+00 -7.51132E+00 -7.03710E+00 -6.53985E+00 -6.02424E+00 -5.49592E+00
  -4.96157E+00 -4.42879E+00 -3.90587E+00 -3.40160E+00 -2.92500E+00 -2.48505E+00 -2.09034E+00 -1.74877E+00 -1.46716E+00 -1.25093E+00
  -1.10396E+00 -1.02839E+00 -1.02456E+00 -1.09095E+00 -1.22429E+00 -1.41970E+00 -1.67096E+00 -1.97081E+00 -2.31123E+00 -2.68376E+00
  -3.07980E+00 -3.49091E+00 -3.90913E+00 -4.32718E+00 -4.73856E+00 -5.13768E+00 -5.51987E+00 -5.88147E+00 -6.21974E+00 -6.53287E+00
  -6.81977E+00 -7.08002E+00 -7.31377E+00 -7.52167E+00 -7.70471E+00 -7.86418E+00 -8.00152E+00 -8.11824E+00 -8.21593E+00 -8.29619E+00
  -8.36062E+00 -8.41071E+00 -8.44786E+00 -8.47338E+00 -8.48846E+00 -8.49425E+00 -8.49177E+00 -8.48195E+00 -8.46557E+00 -8.44336E+00
  -8.41598E+00 -8.38405E+00 -8.34809E+00 -8.30857E+00 -8.26587E+00 -8.22035E+00 -8.17236E+00 -8.12221E+00 -8.07017E+00 -8.01645E+00
  -7.96124E+00 -7.90474E+00 -7.84714E+00 -7.78859E+00 -7.72921E+00 -7.66906E+00 -7.60823E+00 -7.54680E+00 -7.48487E+00 -7.42251E+00
  -7.35974E+00 -7.29659E+00 -7.23312E+00 -7.16937E+00 -7.10540E+00 -7.04122E+00 -6.97685E+00 -6.91228E+00 -6.84756E+00 -6.78270E+00
  -6.71774E+00 -6.65268E+00 -6.58749E+00 -6.52218E+00 -6.45678E+00 -6.39130E+00 -6.32576E+00 -6.26012E+00 -6.19437E+00 -6.12852E+00
  -6.06258E+00 -5.99658E+00 -5.93047E+00 -5.86424E+00 -5.79787E+00 -5.73138E+00 -5.66477E+00 -5.59803E+00 -5.53112E+00 -5.46403E+00
  -5.39674E+00 -5.32925E+00 -5.26157E+00 -5.19366E+00 -5.12547E+00 -5.05699E+00 -4.98818E+00 -4.91907E+00
 NY background values follow
     1.960E+01    1.947E+01    1.933E+01    1.919E+01    1.906E+01    1.892E+01    1.878E+01    1.864E+01    1.851E+01    1.837E+01
     1.823E+01    1.809E+01    1.796E+01    1.782E+01    1.768E+01    1.755E+01    1.741E+01    1.727E+01    1.713E+01    1.699E+01
     1.686E+01    1.672E+01    1.658E+01    1.644E+01    1.631E+01    1.617E+01    1.603E+01    1.589E+01    1.576E+01    1.562E+01
     1.548E+01    1.535E+01    1.521E+01    1.507E+01    1.493E+01    1.480E+01    1.466E+01    1.452E+01    1.439E+01    1.425E+01
     1.411E+01    1.397E+01    1.384E+01    1.370E+01    1.357E+01    1.343E+01    1.329E+01    1.316E+01    1.302E+01    1.288E+01
     1.275E+01    1.261E+01    1.248E+01    1.234E+01    1.221E+01    1.207E+01    1.194E+01    1.180E+01    1.167E+01    1.153E+01
     1.140E+01    1.126E+01    1.113E+01    1.100E+01    1.086E+01    1.073E+01    1.060E+01    1.047E+01    1.033E+01    1.020E+01
     1.007E+01    9.940E+00    9.810E+00    9.679E+00    9.549E+00    9.419E+00    9.290E+00    9.161E+00    9.032E+00    8.904E+00
     8.776E+00    8.649E+00    8.522E+00    8.395E+00    8.269E+00    8.143E+00    8.018E+00    7.893E+00    7.769E+00    7.645E+00
     7.522E+00    7.399E+00    7.276E+00    7.154E+00    7.033E+00    6.912E+00    6.791E+00    6.671E+00    6.551E+00    6.432E+00
     6.313E+00    6.194E+00    6.076E+00    5.958E+00    5.840E+00    5.723E+00    5.606E+00    5.489E+00    5.372E+00    5.256E+00
     5.139E+00    5.023E+00    4.907E+00    4.792E+00    4.676E+00    4.561E+00    4.445E+00    4.330E+00    4.215E+00    4.100E+00
     3.985E+00    3.870E+00    3.755E+00    3.640E+00    3.525E+00    3.410E+00    3.295E+00    3.180E+00    3.064E+00    2.949E+00
     2.834E+00    2.718E+00    2.602E+00    2.486E+00    2.370E+00    2.254E+00    2.138E+00    2.021E+00    1.904E+00    1.787E+00
     1.670E+00    1.552E+00    1.435E+00    1.317E+00    1.199E+00    1.080E+00    9.618E-01    8.432E-01    7.243E-01    6.052E-01
     4.860E-01    3.666E-01    2.470E-01    1.273E-01    7.329E-03   -1.128E-01   -2.330E-01   -3.535E-01   -4.740E-01   -5.948E-01
    -7.157E-01   -8.367E-01   -9.579E-01   -1.079E+00   -1.201E+00   -1.322E+00   -1.444E+00   -1.566E+00   -1.688E+00   -1.810E+00
    -1.933E+00   -2.055E+00   -2.178E+00   -2.300E+00   -2.423E+00   -2.546E+00   -2.669E+00   -2.792E+00   -2.915E+00   -3.039E+00
    -3.162E+00   -3.286E+00   -3.409E+00   -3.533E+00   -3.657E+00   -3.781E+00   -3.905E+00   -4.029E+00   -4.153E+00   -4.277E+00
    -4.401E+00   -4.526E+00   -4.650E+00   -4.774E+00   -4.899E+00   -5.023E+00   -5.147E+00   -5.272E+00   -5.396E+00   -5.521E+00
    -5.645E+00   -5.769E+00   -5.894E+00   -6.018E+00   -6.143E+00   -6.267E+00   -6.391E+00   -6.515E+00   -6.639E+00   -6.764E+00
    -6.888E+00   -7.012E+00   -7.135E+00   -7.259E+00   -7.383E+00   -7.507E+00   -7.630E+00   -7.754E+00   -7.877E+00   -8.000E+00
    -8.123E+00   -8.246E+00   -8.369E+00   -8.492E+00   -8.614E+00   -8.737E+00   -8.859E+00   -8.981E+00   -9.103E+00   -9.225E+00
    -9.346E+00   -9.468E+00   -9.589E+00   -9.709E+00   -9.830E+00   -9.950E+00   -1.007E+01   -1.019E+01   -1.031E+01   -1.043E+01
    -1.054E+01   -1.066E+01   -1.078E+01   -1.090E+01   -1.101E+01   -1.113E+01   -1.124E+01   -1.136E+01   -1.147E+01   -1.158E+01
    -1.170E+01   -1.181E+01   -1.192E+01   -1.203E+01   -1.214E+01   -1.225E+01   -1.235E+01   -1.246E+01   -1.257E+01   -1.267E+01
    -1.278E+01   -1.288E+01   -1.298E+01   -1.309E+01   -1.319E+01   -1.329E+01   -1.338E+01   -1.348E+01   -1.358E+01   -1.367E+01
    -1.377E+01   -1.386E+01   -1.395E+01   -1.404E+01   -1.413E+01   -1.422E+01   -1.431E+01   -1.440E+01   -1.448E+01   -1.456E+01
    -1.465E+01   -1.473E+01   -1.481E+01   -1.488E+01   -1.496E+01   -1.504E+01   -1.511E+01   -1.518E+01   -1.525E+01   -1.532E+01
    -1.539E+01   -1.546E+01   -1.552E+01   -1.558E+01   -1.564E+01   -1.570E+01   -1.576E+01   -1.582E+01   -1.587E+01   -1.592E+01
    -1.597E+01   -1.602E+01   -1.607E+01   -1.611E+01   -1.616E+01   -1.620E+01   -1.624E+01   -1.627E+01   -1.631E+01   -1.634E+01
    -1.637E+01   -1.640E+01   -1.643E+01   -1.645E+01   -1.648E+01   -1.650E+01   -1.652E+01   -1.653E+01   -1.655E+01   -1.656E+01
    -1.657E+01   -1.658E+01   -1.658E+01   -1.659E+01   -1.659E+01   -1.659E+01   -1.658E+01   -1.658E+01   -1.657E+01   -1.657E+01
    -1.656E+01   -1.654E+01   -1.653E+01   -1.651E+01   -1.649E+01   -1.648E+01   -1.645E+01   -1.643E+01   -1.641E+01   -1.638E+01
    -1.635E+01   -1.632E+01   -1.629E+01   -1.626E+01   -1.622E+01   -1.619E+01   -1.615E+01   -1.611E+01   -1.607E+01   -1.602E+01
    -1.598E+01   -1.593E+01   -1.589E+01   -1.584E+01   -1.579E+01   -1.574E+01   -1.569E+01   -1.563E+01   -1.558E+01   -1.552E+01
    -1.546E+01   -1.541E+01   -1.535E+01   -1.528E+01   -1.522E+01   -1.516E+01   -1.509E+01   -1.503E+01   -1.496E+01   -1.489E+01
    -1.483E+01   -1.476E+01   -1.469E+01   -1.461E+01   -1.454E+01   -1.447E+01   -1.439E+01   -1.432E+01   -1.424E+01   -1.417E+01
    -1.409E+01   -1.401E+01   -1.393E+01   -1.385E+01   -1.377E+01   -1.369E+01   -1.361E+01   -1.352E+01   -1.344E+01   -1.336E+01
    -1.327E+01   -1.319E+01   -1.310E+01   -1.302E+01   -1.293E+01   -1.285E+01   -1.276E+01   -1.267E+01   -1.258E+01   -1.250E+01
    -1.241E+01   -1.232E+01   -1.223E+01   -1.214E+01   -1.205E+01   -1.196E+01   -1.187E+01   -1.178E+01   -1.169E+01   -1.160E+01
    -1.151E+01   -1.142E+01   -1.133E+01   -1.124E+01   -1.115E+01   -1.106E+01   -1.097E+01   -1.088E+01   -1.079E+01   -1.070E+01
    -1.061E+01   -1.052E+01   -1.043E+01   -1.034E+01   -1.025E+01   -1.016E+01   -1.007E+01   -9.982E+00   -9.892E+00   -9.803E+00
    -9.714E+00   -9.626E+00   -9.537E+00   -9.449E+00   -9.361E+00   -9.274E+00   -9.187E+00   -9.100E+00   -9.013E+00   -8.927E+00
    -8.841E+00   -8.755E+00   -8.670E+00   -8.585E+00   -8.501E+00   -8.417E+00   -8.334E+00   -8.251E+00   -8.168E+00   -8.086E+00
    -8.005E+00   -7.924E+00   -7.843E+00   -7.763E+00   -7.684E+00   -7.605E+00   -7.527E+00   -7.449E+00   -7.371E+00   -7.295E+00
    -7.218E+00   -7.142E+00   -7.067E+00   -6.991E+00   -6.917E+00   -6.842E+00   -6.768E+00   -6.694E+00   -6.621E+00   -6.548E+00
    -6.475E+00   -6.403E+00   -6.331E+00   -6.259E+00   -6.187E+00   -6.116E+00   -6.045E+00   -5.974E+00   -5.903E+00   -5.833E+00
    -5.763E+00   -5.692E+00   -5.622E+00   -5.553E+00   -5.483E+00   -5.413E+00   -5.343E+00   -5.274E+00   -5.205E+00   -5.135E+00
    -5.066E+00   -4.997E+00   -4.927E+00   -4.858E+00   -4.789E+00   -4.719E+00   -4.650E+00   -4.580E+00
 Ala      Conc. = 5.38E+02
