 LCModel (Version 6.3-1L) Copyright: S.W. Provencher.          Ref.: Magn. Reson. Med. 30:672-679 (1993).                
 Slice#3 Row#3 Col#3  K_02_press_1_raw_act
 36 lines in following concentration table = NCONC+1
    Conc.  %SD /Cr+PCr  Metabolite                                         
 1.23E+04  15% 221.230 Ala                                                 
   35.413 243%   0.637 Asp                                                 
    0.000 999%   0.000 Cr                                                  
   55.554 177%   1.000 PCr                                                 
   33.861 153%   0.610 GABA                                                
   56.774  92%   1.022 Glc                                                 
 8.75E+03  10% 157.529 Gln                                                 
 3.12E+03  37%  56.188 Glu                                                 
    0.000 999%   0.000 GPC                                                 
  107.657  36%   1.938 PCh                                                 
    0.000 999%   0.000 GSH                                                 
 1.40E+03  29%  25.161 Ins                                                 
 5.41E+03  27%  97.336 Lac                                                 
  798.086  18%  14.366 NAA                                                 
    0.000 999%   0.000 NAAG                                                
   41.894  40%   0.754 Scyllo                                              
  171.244  50%   3.082 Tau                                                 
    0.000 999%   0.000 -CrCH2                                              
  107.657  36%   1.938 GPC+PCh                                             
  798.086  18%  14.366 NAA+NAAG                                            
   55.554 177%   1.000 Cr+PCr                                              
 1.19E+04  14% 213.716 Glu+Gln                                             
 4.53E+04   8% 815.629 Lip13a                                              
  179.667 238%   3.234 Lip13b                                              
 6.71E+03  21% 120.869 Lip09                                               
 6.45E+03  10% 116.020 MM09                                                
 2.73E+03  34%  49.131 Lip20                                               
 9.67E+03  10% 174.058 MM20                                                
 1.93E+03  11%  34.823 MM12                                                
 4.92E+03  12%  88.590 MM14                                                
 2.56E+03  12%  46.109 MM17                                                
 4.55E+04   8% 818.863 Lip13a+Lip13b                                       
 5.23E+04   6% 942.276 MM14+Lip13a+Lip13b+MM12                             
 1.32E+04  11% 236.890 MM09+Lip09                                          
 1.24E+04   8% 223.189 MM20+Lip20                                          
   6 lines in following misc. output table
  FWHM = 0.168 ppm    S/N =  38                                            
  Data shift = 0.015 ppm                                                   
  Ph:  18 deg     -23.7 deg/ppm                                            
  alphaB,S = 1.2E+01,   2.0E+02                                            
    6 spline knots.   Ns = 9(2)                                            
  (12) 2 infls.   ( 1) 1 extrs.                                            
  498 points on ppm-axis = NY
      4.000000     3.992357     3.984714     3.977070     3.969427     3.961784     3.954141     3.946497     3.938854     3.931211
      3.923568     3.915925     3.908281     3.900638     3.892995     3.885352     3.877708     3.870065     3.862422     3.854779
      3.847136     3.839492     3.831849     3.824206     3.816563     3.808919     3.801276     3.793633     3.785990     3.778347
      3.770703     3.763060     3.755417     3.747774     3.740130     3.732487     3.724844     3.717201     3.709558     3.701914
      3.694271     3.686628     3.678985     3.671341     3.663698     3.656055     3.648412     3.640769     3.633125     3.625482
      3.617839     3.610196     3.602552     3.594909     3.587266     3.579623     3.571980     3.564336     3.556693     3.549050
      3.541407     3.533763     3.526120     3.518477     3.510834     3.503191     3.495547     3.487904     3.480261     3.472618
      3.464974     3.457331     3.449688     3.442045     3.434402     3.426758     3.419115     3.411472     3.403829     3.396185
      3.388542     3.380899     3.373256     3.365613     3.357969     3.350326     3.342683     3.335040     3.327396     3.319753
      3.312110     3.304467     3.296824     3.289180     3.281537     3.273894     3.266251     3.258607     3.250964     3.243321
      3.235678     3.228034     3.220391     3.212748     3.205105     3.197462     3.189818     3.182175     3.174532     3.166889
      3.159245     3.151602     3.143959     3.136316     3.128673     3.121029     3.113386     3.105743     3.098100     3.090456
      3.082813     3.075170     3.067527     3.059884     3.052240     3.044597     3.036954     3.029311     3.021667     3.014024
      3.006381     2.998738     2.991095     2.983451     2.975808     2.968165     2.960522     2.952878     2.945235     2.937592
      2.929949     2.922306     2.914662     2.907019     2.899376     2.891733     2.884089     2.876446     2.868803     2.861160
      2.853517     2.845873     2.838230     2.830587     2.822944     2.815300     2.807657     2.800014     2.792371     2.784728
      2.777084     2.769441     2.761798     2.754155     2.746511     2.738868     2.731225     2.723582     2.715939     2.708295
      2.700652     2.693009     2.685366     2.677722     2.670079     2.662436     2.654793     2.647150     2.639506     2.631863
      2.624220     2.616577     2.608933     2.601290     2.593647     2.586004     2.578361     2.570717     2.563074     2.555431
      2.547788     2.540144     2.532501     2.524858     2.517215     2.509572     2.501928     2.494285     2.486642     2.478999
      2.471355     2.463712     2.456069     2.448426     2.440783     2.433139     2.425496     2.417853     2.410210     2.402566
      2.394923     2.387280     2.379637     2.371994     2.364350     2.356707     2.349064     2.341421     2.333777     2.326134
      2.318491     2.310848     2.303205     2.295561     2.287918     2.280275     2.272632     2.264988     2.257345     2.249702
      2.242059     2.234416     2.226772     2.219129     2.211486     2.203843     2.196199     2.188556     2.180913     2.173270
      2.165627     2.157983     2.150340     2.142697     2.135054     2.127410     2.119767     2.112124     2.104481     2.096838
      2.089194     2.081551     2.073908     2.066265     2.058621     2.050978     2.043335     2.035692     2.028049     2.020405
      2.012762     2.005119     1.997476     1.989833     1.982190     1.974546     1.966903     1.959260     1.951617     1.943974
      1.936331     1.928688     1.921045     1.913402     1.905759     1.898115     1.890472     1.882829     1.875186     1.867543
      1.859900     1.852257     1.844614     1.836971     1.829327     1.821684     1.814041     1.806398     1.798755     1.791112
      1.783469     1.775826     1.768183     1.760540     1.752896     1.745253     1.737610     1.729967     1.722324     1.714681
      1.707038     1.699395     1.691752     1.684108     1.676465     1.668822     1.661179     1.653536     1.645893     1.638250
      1.630607     1.622964     1.615321     1.607677     1.600034     1.592391     1.584748     1.577105     1.569462     1.561819
      1.554176     1.546533     1.538890     1.531246     1.523603     1.515960     1.508317     1.500674     1.493031     1.485388
      1.477745     1.470102     1.462458     1.454815     1.447172     1.439529     1.431886     1.424243     1.416600     1.408957
      1.401314     1.393671     1.386027     1.378384     1.370741     1.363098     1.355455     1.347812     1.340169     1.332526
      1.324883     1.317240     1.309596     1.301953     1.294310     1.286667     1.279024     1.271381     1.263738     1.256095
      1.248452     1.240808     1.233165     1.225522     1.217879     1.210236     1.202593     1.194950     1.187307     1.179664
      1.172021     1.164377     1.156734     1.149091     1.141448     1.133805     1.126162     1.118519     1.110876     1.103233
      1.095590     1.087946     1.080303     1.072660     1.065017     1.057374     1.049731     1.042088     1.034445     1.026802
      1.019158     1.011515     1.003872     0.996229     0.988586     0.980943     0.973300     0.965657     0.958014     0.950371
      0.942727     0.935084     0.927441     0.919798     0.912155     0.904512     0.896869     0.889226     0.881583     0.873940
      0.866296     0.858653     0.851010     0.843367     0.835724     0.828081     0.820438     0.812795     0.805152     0.797508
      0.789865     0.782222     0.774579     0.766936     0.759293     0.751650     0.744007     0.736364     0.728721     0.721077
      0.713434     0.705791     0.698148     0.690505     0.682862     0.675219     0.667576     0.659933     0.652290     0.644646
      0.637003     0.629360     0.621717     0.614074     0.606431     0.598788     0.591145     0.583502     0.575858     0.568215
      0.560572     0.552929     0.545286     0.537643     0.530000     0.522357     0.514714     0.507071     0.499427     0.491784
      0.484141     0.476498     0.468855     0.461212     0.453569     0.445925     0.438282     0.430639     0.422996     0.415353
      0.407710     0.400067     0.392424     0.384780     0.377137     0.369494     0.361851     0.354208     0.346565     0.338922
      0.331278     0.323635     0.315992     0.308349     0.300706     0.293063     0.285420     0.277777     0.270133     0.262490
      0.254847     0.247204     0.239561     0.231918     0.224275     0.216631     0.208988     0.201345
 NY phased data points follow
   7.73430E+00  7.92305E+00  1.18073E+01  8.94983E+00  6.96829E+00  9.53851E+00  1.27457E+01  8.91230E+00  9.88865E+00  1.23390E+01
   1.58115E+01  1.07149E+01  1.41241E+01  1.23759E+01  1.03618E+01  1.07060E+01  1.27220E+01  6.83196E+00  1.21483E+01  1.27273E+01
   1.01918E+01  1.48861E+01  1.36307E+01  8.01904E+00  1.40132E+01  1.09631E+01  6.76688E+00  1.12570E+01  9.10561E+00  1.30574E+01
   1.26597E+01  1.57703E+01  1.05691E+01  1.16864E+01  1.25963E+01  1.32268E+01  1.01708E+01  1.14227E+01  1.34522E+01  1.06624E+01
   1.13660E+01  1.15786E+01  1.16864E+01  1.29778E+01  1.02859E+01  9.15492E+00  1.30510E+01  1.78293E+01  1.55920E+01  1.44044E+01
   1.55383E+01  1.07376E+01  1.03721E+01  1.26102E+01  1.23491E+01  1.43284E+01  1.33550E+01  1.38491E+01  9.78016E+00  1.14076E+01
   1.04779E+01  1.39028E+01  1.46249E+01  1.34832E+01  1.41889E+01  9.55335E+00  1.33370E+01  1.62283E+01  1.31484E+01  1.02451E+01
   1.24680E+01  1.38564E+01  1.32293E+01  1.24552E+01  1.11899E+01  1.36945E+01  1.22212E+01  1.37897E+01  1.24362E+01  1.17374E+01
   1.29122E+01  1.25065E+01  1.28800E+01  1.65657E+01  1.54075E+01  1.34021E+01  1.26268E+01  1.08705E+01  1.27533E+01  1.62256E+01
   1.47323E+01  1.26355E+01  1.22841E+01  1.01171E+01  1.17426E+01  1.03204E+01  1.22151E+01  1.49586E+01  8.19963E+00  1.34146E+01
   1.34313E+01  1.18595E+01  1.64058E+01  1.53121E+01  1.16425E+01  1.34125E+01  1.22733E+01  1.56007E+01  1.70037E+01  1.04970E+01
   1.30072E+01  1.40327E+01  8.69196E+00  1.54005E+01  1.35120E+01  1.76597E+01  1.48277E+01  1.38110E+01  1.25743E+01  1.64799E+01
   1.30319E+01  1.20491E+01  1.50102E+01  1.14491E+01  1.48050E+01  1.63414E+01  1.75566E+01  1.90753E+01  1.83531E+01  1.53741E+01
   1.85200E+01  1.59108E+01  1.80594E+01  1.80259E+01  1.58853E+01  1.87530E+01  1.38050E+01  1.59842E+01  1.48603E+01  1.62656E+01
   1.76660E+01  1.63715E+01  1.33283E+01  1.68921E+01  1.44098E+01  1.92517E+01  1.44254E+01  1.96247E+01  1.64659E+01  1.79680E+01
   1.79313E+01  1.55634E+01  1.81323E+01  1.49483E+01  1.58474E+01  1.81882E+01  1.58697E+01  1.35183E+01  1.89730E+01  1.53721E+01
   1.55243E+01  1.56765E+01  1.72262E+01  1.55314E+01  1.35524E+01  1.52344E+01  1.55905E+01  1.33643E+01  1.47433E+01  1.36422E+01
   1.64924E+01  1.46598E+01  1.23336E+01  1.40807E+01  1.48844E+01  1.42580E+01  1.15883E+01  1.69707E+01  1.13151E+01  1.18212E+01
   1.26791E+01  1.18312E+01  1.54802E+01  1.13019E+01  9.00511E+00  9.57634E+00  9.95817E+00  1.17490E+01  1.36086E+01  1.05280E+01
   1.58220E+01  1.10672E+01  1.49571E+01  1.59878E+01  1.30686E+01  1.69691E+01  1.79447E+01  1.61688E+01  1.39381E+01  1.39473E+01
   1.40238E+01  1.62267E+01  2.17298E+01  1.83644E+01  2.01000E+01  1.93313E+01  1.84597E+01  2.19406E+01  1.85133E+01  1.91981E+01
   2.16602E+01  2.11300E+01  1.77372E+01  2.51974E+01  2.77898E+01  2.50703E+01  2.68157E+01  2.54753E+01  3.29470E+01  3.32813E+01
   3.18035E+01  2.96146E+01  3.74547E+01  3.65144E+01  3.68038E+01  3.83630E+01  4.13816E+01  4.23200E+01  4.42753E+01  4.79920E+01
   4.78582E+01  4.88966E+01  5.46706E+01  5.18692E+01  5.52395E+01  5.36379E+01  5.63384E+01  5.86315E+01  6.03190E+01  6.26176E+01
   5.79830E+01  6.22681E+01  6.30676E+01  5.89483E+01  5.97664E+01  5.84698E+01  6.02028E+01  6.28344E+01  6.31293E+01  6.00294E+01
   6.20198E+01  6.17150E+01  6.73379E+01  6.35092E+01  6.83342E+01  6.23822E+01  6.55608E+01  6.57648E+01  6.68068E+01  7.15664E+01
   7.50287E+01  7.46980E+01  7.36367E+01  7.05244E+01  7.00799E+01  7.21978E+01  7.10895E+01  7.03049E+01  6.68282E+01  6.73376E+01
   6.53318E+01  6.22679E+01  6.14233E+01  6.79626E+01  6.53905E+01  6.34851E+01  6.21766E+01  5.99838E+01  5.97489E+01  5.80490E+01
   5.93344E+01  5.83039E+01  6.01885E+01  5.84887E+01  5.61551E+01  5.74543E+01  5.87288E+01  6.15440E+01  6.20475E+01  5.61919E+01
   5.94334E+01  5.72854E+01  6.24667E+01  6.28824E+01  5.90560E+01  5.87238E+01  6.05721E+01  5.99640E+01  6.47213E+01  6.50731E+01
   6.61444E+01  6.54837E+01  6.68224E+01  6.75626E+01  6.60169E+01  6.82074E+01  7.36393E+01  7.28477E+01  7.46542E+01  7.85310E+01
   7.61544E+01  7.88410E+01  8.41751E+01  8.45029E+01  8.72676E+01  9.04270E+01  9.47060E+01  9.26697E+01  9.61511E+01  9.83240E+01
   1.05953E+02  1.05304E+02  1.09685E+02  1.15047E+02  1.15284E+02  1.23399E+02  1.22831E+02  1.31214E+02  1.33145E+02  1.43505E+02
   1.47658E+02  1.55201E+02  1.57323E+02  1.70603E+02  1.68841E+02  1.73542E+02  1.83263E+02  1.85543E+02  1.90573E+02  1.95839E+02
   2.02699E+02  2.06931E+02  2.13812E+02  2.24073E+02  2.29112E+02  2.35856E+02  2.45689E+02  2.50004E+02  2.58495E+02  2.63605E+02
   2.62535E+02  2.66146E+02  2.62723E+02  2.58039E+02  2.54149E+02  2.47483E+02  2.39128E+02  2.30328E+02  2.29550E+02  2.21700E+02
   2.10178E+02  2.07384E+02  1.99903E+02  1.97780E+02  1.94227E+02  1.88539E+02  1.80389E+02  1.81757E+02  1.74415E+02  1.75998E+02
   1.72670E+02  1.68194E+02  1.60263E+02  1.59386E+02  1.54903E+02  1.54370E+02  1.49501E+02  1.46005E+02  1.41547E+02  1.39744E+02
   1.38193E+02  1.34441E+02  1.31130E+02  1.31672E+02  1.23910E+02  1.24559E+02  1.22596E+02  1.18595E+02  1.17333E+02  1.19008E+02
   1.16454E+02  1.10519E+02  1.06426E+02  1.06068E+02  1.02292E+02  1.03151E+02  1.01005E+02  1.00277E+02  9.93784E+01  9.54602E+01
   9.14356E+01  9.15971E+01  9.36838E+01  9.25572E+01  8.91417E+01  8.83011E+01  8.84383E+01  8.23850E+01  8.51365E+01  8.17642E+01
   8.00701E+01  7.98572E+01  7.77204E+01  7.47000E+01  7.80705E+01  7.78206E+01  7.75542E+01  7.61542E+01  7.30852E+01  7.63421E+01
   7.58790E+01  7.30985E+01  7.28384E+01  7.05631E+01  7.02141E+01  6.79264E+01  6.77058E+01  6.58582E+01  6.91406E+01  6.54606E+01
   6.37825E+01  6.60571E+01  6.28876E+01  6.21932E+01  6.66357E+01  5.78372E+01  6.01874E+01  6.42967E+01  5.86946E+01  6.24915E+01
   6.02533E+01  5.65348E+01  5.94940E+01  5.48807E+01  5.88380E+01  5.44689E+01  5.11035E+01  5.31140E+01  5.50300E+01  5.58643E+01
   5.53693E+01  5.42878E+01  5.20850E+01  5.25158E+01  5.65698E+01  5.27544E+01  5.28899E+01  5.49093E+01  5.20869E+01  4.91205E+01
   5.18854E+01  5.20332E+01  4.82508E+01  4.82171E+01  5.08516E+01  4.77411E+01  4.98562E+01  5.09409E+01  5.00657E+01  4.70849E+01
   5.08512E+01  4.87509E+01  4.81065E+01  4.62167E+01  4.80419E+01  4.70538E+01  4.68461E+01  4.55416E+01  4.43830E+01  4.48486E+01
   4.43324E+01  4.08875E+01  4.49908E+01  4.43496E+01  4.70693E+01  4.32767E+01  4.09061E+01  4.49454E+01  4.31859E+01  4.29969E+01
   4.04690E+01  4.07023E+01  4.14544E+01  3.66138E+01  4.41994E+01  3.85500E+01  4.08442E+01  3.94604E+01
 NY points of the fit to the data follow
   8.63831E+00  1.04031E+01  9.11902E+00  1.06741E+01  9.72066E+00  1.12470E+01  1.02069E+01  1.14670E+01  1.03567E+01  1.12762E+01
   1.00690E+01  1.05262E+01  9.31910E+00  1.01524E+01  9.05043E+00  1.00531E+01  9.27397E+00  1.04249E+01  9.99238E+00  1.12688E+01
   1.07008E+01  1.20687E+01  1.12687E+01  1.24399E+01  1.14163E+01  1.25005E+01  1.15777E+01  1.28014E+01  1.21248E+01  1.33542E+01
   1.28261E+01  1.38315E+01  1.31566E+01  1.36010E+01  1.29744E+01  1.31226E+01  1.27666E+01  1.28757E+01  1.29019E+01  1.29338E+01
   1.29763E+01  1.31697E+01  1.34362E+01  1.38526E+01  1.42615E+01  1.49400E+01  1.58016E+01  1.68637E+01  1.65926E+01  1.62621E+01
   1.54659E+01  1.44406E+01  1.34916E+01  1.22182E+01  1.23159E+01  1.22955E+01  1.28840E+01  1.28474E+01  1.32466E+01  1.28024E+01
   1.28193E+01  1.27747E+01  1.24439E+01  1.22607E+01  1.18929E+01  1.17780E+01  1.14461E+01  1.14250E+01  1.11356E+01  1.12473E+01
   1.11656E+01  1.14541E+01  1.13466E+01  1.15582E+01  1.13759E+01  1.15123E+01  1.12745E+01  1.13560E+01  1.11077E+01  1.11862E+01
   1.09462E+01  1.09958E+01  1.08184E+01  1.08702E+01  1.07426E+01  1.08253E+01  1.06678E+01  1.07633E+01  1.05676E+01  1.07219E+01
   1.05216E+01  1.08116E+01  1.05728E+01  1.09508E+01  1.06617E+01  1.11986E+01  1.08644E+01  1.16037E+01  1.12135E+01  1.20922E+01
   1.16236E+01  1.26177E+01  1.20964E+01  1.31797E+01  1.26252E+01  1.37379E+01  1.31604E+01  1.43054E+01  1.38016E+01  1.49037E+01
   1.43034E+01  1.52264E+01  1.45951E+01  1.53733E+01  1.47968E+01  1.54090E+01  1.49126E+01  1.53498E+01  1.49945E+01  1.53199E+01
   1.51291E+01  1.53449E+01  1.52648E+01  1.54005E+01  1.55639E+01  1.58946E+01  1.60443E+01  1.63487E+01  1.64525E+01  1.67238E+01
   1.67834E+01  1.70131E+01  1.70244E+01  1.72108E+01  1.71718E+01  1.72999E+01  1.72199E+01  1.72919E+01  1.71817E+01  1.71991E+01
   1.70728E+01  1.70385E+01  1.69112E+01  1.68411E+01  1.67254E+01  1.66335E+01  1.65380E+01  1.64414E+01  1.63889E+01  1.63411E+01
   1.62973E+01  1.62559E+01  1.62123E+01  1.61714E+01  1.61190E+01  1.60662E+01  1.59998E+01  1.59349E+01  1.58544E+01  1.57769E+01
   1.56842E+01  1.55944E+01  1.54931E+01  1.53877E+01  1.52789E+01  1.51595E+01  1.50554E+01  1.49300E+01  1.48360E+01  1.47155E+01
   1.46385E+01  1.45311E+01  1.44813E+01  1.43897E+01  1.43752E+01  1.43012E+01  1.42890E+01  1.42209E+01  1.41661E+01  1.40597E+01
   1.39581E+01  1.37966E+01  1.36570E+01  1.34877E+01  1.34626E+01  1.33766E+01  1.35512E+01  1.36696E+01  1.40233E+01  1.42971E+01
   1.47580E+01  1.49408E+01  1.51520E+01  1.51600E+01  1.52993E+01  1.51738E+01  1.54236E+01  1.52872E+01  1.56464E+01  1.56493E+01
   1.63900E+01  1.64914E+01  1.74446E+01  1.74076E+01  1.83127E+01  1.82351E+01  1.94084E+01  1.94520E+01  2.09933E+01  2.12027E+01
   2.29212E+01  2.32857E+01  2.50890E+01  2.53291E+01  2.69503E+01  2.69675E+01  2.83013E+01  2.83596E+01  2.98712E+01  3.00156E+01
   3.18537E+01  3.23573E+01  3.45936E+01  3.58382E+01  3.88358E+01  4.04463E+01  4.34023E+01  4.51470E+01  4.77950E+01  4.89949E+01
   5.09429E+01  5.07716E+01  5.10586E+01  5.04275E+01  5.15383E+01  5.11587E+01  5.30185E+01  5.30770E+01  5.52593E+01  5.51108E+01
   5.73365E+01  5.68032E+01  5.89816E+01  5.79176E+01  6.02668E+01  5.93741E+01  6.21913E+01  6.13674E+01  6.44244E+01  6.35043E+01
   6.64641E+01  6.54345E+01  6.79342E+01  6.68189E+01  6.88883E+01  6.79604E+01  6.96617E+01  6.90120E+01  6.95166E+01  6.92785E+01
   6.96173E+01  6.99247E+01  7.01477E+01  7.11953E+01  7.10108E+01  7.14697E+01  7.07540E+01  7.07521E+01  6.91607E+01  6.87840E+01
   6.67700E+01  6.60963E+01  6.38849E+01  6.34188E+01  6.14564E+01  6.10761E+01  5.94935E+01  5.91814E+01  5.79495E+01  5.75039E+01
   5.67207E+01  5.62751E+01  5.64760E+01  5.66816E+01  5.70890E+01  5.75294E+01  5.79795E+01  5.85149E+01  5.90218E+01  5.95901E+01
   6.00989E+01  6.06507E+01  6.11199E+01  6.16126E+01  6.20586E+01  6.25283E+01  6.29532E+01  6.33909E+01  6.38087E+01  6.42491E+01
   6.46996E+01  6.51864E+01  6.57295E+01  6.63583E+01  6.70996E+01  6.79971E+01  6.91026E+01  7.05108E+01  7.24042E+01  7.48614E+01
   7.70476E+01  8.01703E+01  8.23199E+01  8.59132E+01  8.76823E+01  9.14097E+01  9.20112E+01  9.59794E+01  9.63460E+01  1.01104E+02
   1.01807E+02  1.07796E+02  1.08574E+02  1.15596E+02  1.16791E+02  1.24124E+02  1.25456E+02  1.32874E+02  1.34489E+02  1.42727E+02
   1.45355E+02  1.54181E+02  1.57534E+02  1.66107E+02  1.69345E+02  1.76422E+02  1.80029E+02  1.85960E+02  1.90416E+02  1.95903E+02
   2.01950E+02  2.07870E+02  2.16151E+02  2.21987E+02  2.31043E+02  2.36019E+02  2.44836E+02  2.48811E+02  2.57610E+02  2.61779E+02
   2.65062E+02  2.65092E+02  2.63521E+02  2.60348E+02  2.54280E+02  2.47517E+02  2.37740E+02  2.32838E+02  2.24561E+02  2.20048E+02
   2.12327E+02  2.08219E+02  2.01481E+02  1.97699E+02  1.91882E+02  1.88442E+02  1.83643E+02  1.80572E+02  1.77286E+02  1.75317E+02
   1.71517E+02  1.68038E+02  1.64047E+02  1.59696E+02  1.55677E+02  1.50466E+02  1.46580E+02  1.43475E+02  1.40796E+02  1.38390E+02
   1.36160E+02  1.34040E+02  1.31978E+02  1.29935E+02  1.27879E+02  1.25791E+02  1.23657E+02  1.21472E+02  1.19236E+02  1.16957E+02
   1.14648E+02  1.12323E+02  1.10002E+02  1.07702E+02  1.05444E+02  1.03246E+02  1.01123E+02  9.90903E+01  9.71579E+01  9.53336E+01
   9.36217E+01  9.20236E+01  9.05377E+01  8.91596E+01  8.78830E+01  8.67000E+01  8.56012E+01  8.45769E+01  8.36166E+01  8.27098E+01
   8.18465E+01  8.10170E+01  8.02127E+01  7.94257E+01  7.86491E+01  7.78770E+01  7.71047E+01  7.63284E+01  7.55456E+01  7.47546E+01
   7.39545E+01  7.31452E+01  7.23274E+01  7.15023E+01  7.06715E+01  6.98370E+01  6.90012E+01  6.81663E+01  6.73349E+01  6.65095E+01
   6.56925E+01  6.48861E+01  6.40925E+01  6.33136E+01  6.25510E+01  6.18063E+01  6.10807E+01  6.03751E+01  5.96903E+01  5.90267E+01
   5.83849E+01  5.77648E+01  5.71666E+01  5.65899E+01  5.60345E+01  5.55000E+01  5.49860E+01  5.44919E+01  5.40170E+01  5.35607E+01
   5.31222E+01  5.27010E+01  5.22963E+01  5.19074E+01  5.15334E+01  5.11738E+01  5.08279E+01  5.04949E+01  5.01743E+01  4.98654E+01
   4.95676E+01  4.92803E+01  4.90029E+01  4.87350E+01  4.84761E+01  4.82255E+01  4.79830E+01  4.77479E+01  4.75201E+01  4.72990E+01
   4.70843E+01  4.68757E+01  4.66727E+01  4.64751E+01  4.62826E+01  4.60950E+01  4.59119E+01  4.57331E+01  4.55584E+01  4.53875E+01
   4.52203E+01  4.50565E+01  4.48960E+01  4.47385E+01  4.45839E+01  4.44321E+01  4.42829E+01  4.41362E+01  4.39918E+01  4.38497E+01
   4.37096E+01  4.35716E+01  4.34356E+01  4.33013E+01  4.31689E+01  4.30382E+01  4.29092E+01  4.27820E+01
 NY background values follow
     3.322E+00    3.381E+00    3.439E+00    3.495E+00    3.550E+00    3.605E+00    3.658E+00    3.711E+00    3.762E+00    3.813E+00
     3.862E+00    3.911E+00    3.958E+00    4.005E+00    4.051E+00    4.096E+00    4.140E+00    4.184E+00    4.226E+00    4.268E+00
     4.309E+00    4.349E+00    4.388E+00    4.427E+00    4.465E+00    4.502E+00    4.538E+00    4.574E+00    4.609E+00    4.644E+00
     4.678E+00    4.711E+00    4.744E+00    4.776E+00    4.807E+00    4.838E+00    4.868E+00    4.898E+00    4.927E+00    4.956E+00
     4.984E+00    5.012E+00    5.040E+00    5.067E+00    5.093E+00    5.119E+00    5.145E+00    5.170E+00    5.195E+00    5.220E+00
     5.244E+00    5.268E+00    5.292E+00    5.315E+00    5.338E+00    5.361E+00    5.383E+00    5.406E+00    5.428E+00    5.450E+00
     5.472E+00    5.493E+00    5.515E+00    5.536E+00    5.557E+00    5.579E+00    5.600E+00    5.620E+00    5.641E+00    5.662E+00
     5.683E+00    5.704E+00    5.725E+00    5.746E+00    5.766E+00    5.787E+00    5.808E+00    5.829E+00    5.851E+00    5.872E+00
     5.893E+00    5.915E+00    5.936E+00    5.958E+00    5.980E+00    6.003E+00    6.025E+00    6.048E+00    6.071E+00    6.094E+00
     6.117E+00    6.141E+00    6.165E+00    6.190E+00    6.214E+00    6.240E+00    6.265E+00    6.291E+00    6.317E+00    6.344E+00
     6.371E+00    6.398E+00    6.427E+00    6.455E+00    6.484E+00    6.514E+00    6.544E+00    6.574E+00    6.605E+00    6.637E+00
     6.669E+00    6.702E+00    6.736E+00    6.770E+00    6.804E+00    6.840E+00    6.876E+00    6.913E+00    6.950E+00    6.988E+00
     7.027E+00    7.067E+00    7.108E+00    7.149E+00    7.191E+00    7.234E+00    7.277E+00    7.322E+00    7.367E+00    7.414E+00
     7.461E+00    7.509E+00    7.558E+00    7.608E+00    7.659E+00    7.711E+00    7.763E+00    7.817E+00    7.872E+00    7.928E+00
     7.985E+00    8.043E+00    8.102E+00    8.162E+00    8.223E+00    8.286E+00    8.349E+00    8.414E+00    8.480E+00    8.547E+00
     8.615E+00    8.684E+00    8.755E+00    8.827E+00    8.900E+00    8.974E+00    9.050E+00    9.127E+00    9.205E+00    9.285E+00
     9.366E+00    9.448E+00    9.532E+00    9.617E+00    9.704E+00    9.792E+00    9.881E+00    9.972E+00    1.006E+01    1.016E+01
     1.025E+01    1.035E+01    1.045E+01    1.055E+01    1.065E+01    1.075E+01    1.085E+01    1.096E+01    1.106E+01    1.117E+01
     1.128E+01    1.139E+01    1.150E+01    1.161E+01    1.172E+01    1.184E+01    1.195E+01    1.207E+01    1.219E+01    1.231E+01
     1.242E+01    1.255E+01    1.267E+01    1.279E+01    1.291E+01    1.304E+01    1.317E+01    1.329E+01    1.342E+01    1.355E+01
     1.368E+01    1.381E+01    1.394E+01    1.408E+01    1.421E+01    1.434E+01    1.448E+01    1.461E+01    1.475E+01    1.489E+01
     1.503E+01    1.517E+01    1.531E+01    1.545E+01    1.559E+01    1.573E+01    1.587E+01    1.602E+01    1.616E+01    1.631E+01
     1.645E+01    1.660E+01    1.675E+01    1.689E+01    1.704E+01    1.719E+01    1.734E+01    1.749E+01    1.764E+01    1.779E+01
     1.794E+01    1.809E+01    1.824E+01    1.839E+01    1.855E+01    1.870E+01    1.885E+01    1.901E+01    1.916E+01    1.932E+01
     1.947E+01    1.963E+01    1.978E+01    1.994E+01    2.009E+01    2.025E+01    2.041E+01    2.056E+01    2.072E+01    2.088E+01
     2.103E+01    2.119E+01    2.135E+01    2.151E+01    2.166E+01    2.182E+01    2.198E+01    2.214E+01    2.230E+01    2.245E+01
     2.261E+01    2.277E+01    2.293E+01    2.309E+01    2.324E+01    2.340E+01    2.356E+01    2.372E+01    2.388E+01    2.403E+01
     2.419E+01    2.435E+01    2.451E+01    2.466E+01    2.482E+01    2.498E+01    2.513E+01    2.529E+01    2.544E+01    2.560E+01
     2.575E+01    2.591E+01    2.606E+01    2.622E+01    2.637E+01    2.653E+01    2.668E+01    2.683E+01    2.698E+01    2.714E+01
     2.729E+01    2.744E+01    2.759E+01    2.774E+01    2.789E+01    2.804E+01    2.819E+01    2.833E+01    2.848E+01    2.863E+01
     2.877E+01    2.892E+01    2.906E+01    2.921E+01    2.935E+01    2.950E+01    2.964E+01    2.978E+01    2.992E+01    3.006E+01
     3.020E+01    3.034E+01    3.048E+01    3.061E+01    3.075E+01    3.088E+01    3.102E+01    3.115E+01    3.128E+01    3.142E+01
     3.155E+01    3.168E+01    3.181E+01    3.193E+01    3.206E+01    3.219E+01    3.231E+01    3.244E+01    3.256E+01    3.268E+01
     3.280E+01    3.292E+01    3.304E+01    3.316E+01    3.328E+01    3.339E+01    3.351E+01    3.362E+01    3.373E+01    3.384E+01
     3.395E+01    3.406E+01    3.417E+01    3.428E+01    3.438E+01    3.449E+01    3.459E+01    3.470E+01    3.480E+01    3.490E+01
     3.500E+01    3.509E+01    3.519E+01    3.529E+01    3.538E+01    3.548E+01    3.557E+01    3.566E+01    3.575E+01    3.584E+01
     3.593E+01    3.602E+01    3.610E+01    3.619E+01    3.627E+01    3.636E+01    3.644E+01    3.652E+01    3.660E+01    3.668E+01
     3.676E+01    3.683E+01    3.691E+01    3.698E+01    3.706E+01    3.713E+01    3.720E+01    3.727E+01    3.734E+01    3.741E+01
     3.748E+01    3.754E+01    3.761E+01    3.767E+01    3.773E+01    3.780E+01    3.786E+01    3.792E+01    3.798E+01    3.803E+01
     3.809E+01    3.815E+01    3.820E+01    3.825E+01    3.831E+01    3.836E+01    3.841E+01    3.846E+01    3.851E+01    3.855E+01
     3.860E+01    3.864E+01    3.869E+01    3.873E+01    3.877E+01    3.882E+01    3.886E+01    3.889E+01    3.893E+01    3.897E+01
     3.901E+01    3.904E+01    3.907E+01    3.911E+01    3.914E+01    3.917E+01    3.920E+01    3.923E+01    3.926E+01    3.928E+01
     3.931E+01    3.933E+01    3.936E+01    3.938E+01    3.940E+01    3.942E+01    3.944E+01    3.946E+01    3.948E+01    3.949E+01
     3.951E+01    3.952E+01    3.954E+01    3.955E+01    3.956E+01    3.957E+01    3.958E+01    3.959E+01    3.959E+01    3.960E+01
     3.961E+01    3.961E+01    3.961E+01    3.962E+01    3.962E+01    3.962E+01    3.962E+01    3.961E+01    3.961E+01    3.961E+01
     3.960E+01    3.960E+01    3.959E+01    3.958E+01    3.957E+01    3.956E+01    3.955E+01    3.954E+01    3.953E+01    3.952E+01
     3.950E+01    3.949E+01    3.947E+01    3.945E+01    3.943E+01    3.941E+01    3.939E+01    3.937E+01    3.935E+01    3.932E+01
     3.930E+01    3.927E+01    3.925E+01    3.922E+01    3.919E+01    3.916E+01    3.913E+01    3.910E+01    3.907E+01    3.904E+01
     3.900E+01    3.897E+01    3.893E+01    3.889E+01    3.885E+01    3.881E+01    3.877E+01    3.873E+01    3.869E+01    3.865E+01
     3.860E+01    3.856E+01    3.851E+01    3.847E+01    3.842E+01    3.837E+01    3.832E+01    3.827E+01
 Ala      Conc. = 1.23E+04
