 LCModel (Version 6.3-1L) Copyright: S.W. Provencher.          Ref.: Magn. Reson. Med. 30:672-679 (1993).                
 Slice#2 Row#3 Col#8  K_02_press_1_raw_act
 36 lines in following concentration table = NCONC+1
    Conc.  %SD /Cr+PCr  Metabolite                                         
   92.872 106% 4.8E-02 Ala                                                 
    0.000 999%   0.000 Asp                                                 
  848.626  25%   0.436 Cr                                                  
 1.10E+03  20%   0.564 PCr                                                 
    0.000 999%   0.000 GABA                                                
    0.000 999%   0.000 Glc                                                 
  442.683  45%   0.228 Gln                                                 
 1.82E+03  12%   0.938 Glu                                                 
  594.825   4%   0.306 GPC                                                 
    0.000 999%   0.000 PCh                                                 
  517.289  14%   0.266 GSH                                                 
 1.43E+03  17%   0.735 Ins                                                 
  108.090  97% 5.6E-02 Lac                                                 
 2.54E+03   4%   1.306 NAA                                                 
  257.543  43%   0.132 NAAG                                                
    1.692 999% 8.7E-04 Scyllo                                              
   52.021 412% 2.7E-02 Tau                                                 
  406.581  30%   0.209 -CrCH2                                              
  594.825   4%   0.306 GPC+PCh                                             
 2.80E+03   4%   1.439 NAA+NAAG                                            
 1.94E+03   3%   1.000 Cr+PCr                                              
 2.27E+03  13%   1.165 Glu+Gln                                             
 6.80E+03  16%   3.495 Lip13a                                              
    0.000 999%   0.000 Lip13b                                              
 2.53E+03  22%   1.302 Lip09                                               
 2.93E+03  19%   1.509 MM09                                                
  790.845  55%   0.407 Lip20                                               
 4.69E+03  12%   2.413 MM20                                                
 1.48E+03  45%   0.759 MM12                                                
    0.000 999%   0.000 MM14                                                
  928.068  29%   0.477 MM17                                                
 6.80E+03  16%   3.495 Lip13a+Lip13b                                       
 8.27E+03  10%   4.254 MM14+Lip13a+Lip13b+MM12                             
 5.47E+03   8%   2.811 MM09+Lip09                                          
 5.48E+03  10%   2.820 MM20+Lip20                                          
   6 lines in following misc. output table
  FWHM = 0.038 ppm    S/N =  15                                            
  Data shift = 0.015 ppm                                                   
  Ph:  20 deg       5.4 deg/ppm                                            
  alphaB,S = 1.0E+00,   4.4E+01                                            
   14 spline knots.   Ns = 5(1)                                            
  (10) 2 infls.   ( 7) 1 extrs.                                            
  498 points on ppm-axis = NY
      4.000000     3.992357     3.984714     3.977070     3.969427     3.961784     3.954141     3.946497     3.938854     3.931211
      3.923568     3.915925     3.908281     3.900638     3.892995     3.885352     3.877708     3.870065     3.862422     3.854779
      3.847136     3.839492     3.831849     3.824206     3.816563     3.808919     3.801276     3.793633     3.785990     3.778347
      3.770703     3.763060     3.755417     3.747774     3.740130     3.732487     3.724844     3.717201     3.709558     3.701914
      3.694271     3.686628     3.678985     3.671341     3.663698     3.656055     3.648412     3.640769     3.633125     3.625482
      3.617839     3.610196     3.602552     3.594909     3.587266     3.579623     3.571980     3.564336     3.556693     3.549050
      3.541407     3.533763     3.526120     3.518477     3.510834     3.503191     3.495547     3.487904     3.480261     3.472618
      3.464974     3.457331     3.449688     3.442045     3.434402     3.426758     3.419115     3.411472     3.403829     3.396185
      3.388542     3.380899     3.373256     3.365613     3.357969     3.350326     3.342683     3.335040     3.327396     3.319753
      3.312110     3.304467     3.296824     3.289180     3.281537     3.273894     3.266251     3.258607     3.250964     3.243321
      3.235678     3.228034     3.220391     3.212748     3.205105     3.197462     3.189818     3.182175     3.174532     3.166889
      3.159245     3.151602     3.143959     3.136316     3.128673     3.121029     3.113386     3.105743     3.098100     3.090456
      3.082813     3.075170     3.067527     3.059884     3.052240     3.044597     3.036954     3.029311     3.021667     3.014024
      3.006381     2.998738     2.991095     2.983451     2.975808     2.968165     2.960522     2.952878     2.945235     2.937592
      2.929949     2.922306     2.914662     2.907019     2.899376     2.891733     2.884089     2.876446     2.868803     2.861160
      2.853517     2.845873     2.838230     2.830587     2.822944     2.815300     2.807657     2.800014     2.792371     2.784728
      2.777084     2.769441     2.761798     2.754155     2.746511     2.738868     2.731225     2.723582     2.715939     2.708295
      2.700652     2.693009     2.685366     2.677722     2.670079     2.662436     2.654793     2.647150     2.639506     2.631863
      2.624220     2.616577     2.608933     2.601290     2.593647     2.586004     2.578361     2.570717     2.563074     2.555431
      2.547788     2.540144     2.532501     2.524858     2.517215     2.509572     2.501928     2.494285     2.486642     2.478999
      2.471355     2.463712     2.456069     2.448426     2.440783     2.433139     2.425496     2.417853     2.410210     2.402566
      2.394923     2.387280     2.379637     2.371994     2.364350     2.356707     2.349064     2.341421     2.333777     2.326134
      2.318491     2.310848     2.303205     2.295561     2.287918     2.280275     2.272632     2.264988     2.257345     2.249702
      2.242059     2.234416     2.226772     2.219129     2.211486     2.203843     2.196199     2.188556     2.180913     2.173270
      2.165627     2.157983     2.150340     2.142697     2.135054     2.127410     2.119767     2.112124     2.104481     2.096838
      2.089194     2.081551     2.073908     2.066265     2.058621     2.050978     2.043335     2.035692     2.028049     2.020405
      2.012762     2.005119     1.997476     1.989833     1.982190     1.974546     1.966903     1.959260     1.951617     1.943974
      1.936331     1.928688     1.921045     1.913402     1.905759     1.898115     1.890472     1.882829     1.875186     1.867543
      1.859900     1.852257     1.844614     1.836971     1.829327     1.821684     1.814041     1.806398     1.798755     1.791112
      1.783469     1.775826     1.768183     1.760540     1.752896     1.745253     1.737610     1.729967     1.722324     1.714681
      1.707038     1.699395     1.691752     1.684108     1.676465     1.668822     1.661179     1.653536     1.645893     1.638250
      1.630607     1.622964     1.615321     1.607677     1.600034     1.592391     1.584748     1.577105     1.569462     1.561819
      1.554176     1.546533     1.538890     1.531246     1.523603     1.515960     1.508317     1.500674     1.493031     1.485388
      1.477745     1.470102     1.462458     1.454815     1.447172     1.439529     1.431886     1.424243     1.416600     1.408957
      1.401314     1.393671     1.386027     1.378384     1.370741     1.363098     1.355455     1.347812     1.340169     1.332526
      1.324883     1.317240     1.309596     1.301953     1.294310     1.286667     1.279024     1.271381     1.263738     1.256095
      1.248452     1.240808     1.233165     1.225522     1.217879     1.210236     1.202593     1.194950     1.187307     1.179664
      1.172021     1.164377     1.156734     1.149091     1.141448     1.133805     1.126162     1.118519     1.110876     1.103233
      1.095590     1.087946     1.080303     1.072660     1.065017     1.057374     1.049731     1.042088     1.034445     1.026802
      1.019158     1.011515     1.003872     0.996229     0.988586     0.980943     0.973300     0.965657     0.958014     0.950371
      0.942727     0.935084     0.927441     0.919798     0.912155     0.904512     0.896869     0.889226     0.881583     0.873940
      0.866296     0.858653     0.851010     0.843367     0.835724     0.828081     0.820438     0.812795     0.805152     0.797508
      0.789865     0.782222     0.774579     0.766936     0.759293     0.751650     0.744007     0.736364     0.728721     0.721077
      0.713434     0.705791     0.698148     0.690505     0.682862     0.675219     0.667576     0.659933     0.652290     0.644646
      0.637003     0.629360     0.621717     0.614074     0.606431     0.598788     0.591145     0.583502     0.575858     0.568215
      0.560572     0.552929     0.545286     0.537643     0.530000     0.522357     0.514714     0.507071     0.499427     0.491784
      0.484141     0.476498     0.468855     0.461212     0.453569     0.445925     0.438282     0.430639     0.422996     0.415353
      0.407710     0.400067     0.392424     0.384780     0.377137     0.369494     0.361851     0.354208     0.346565     0.338922
      0.331278     0.323635     0.315992     0.308349     0.300706     0.293063     0.285420     0.277777     0.270133     0.262490
      0.254847     0.247204     0.239561     0.231918     0.224275     0.216631     0.208988     0.201345
 NY phased data points follow
   5.80781E+00  2.34395E+00  2.45057E+00  7.76219E+00  1.28302E+01  1.17839E+01  2.02948E+01  3.22679E+01  3.62482E+01  4.52779E+01
   5.12441E+01  5.07717E+01  4.62172E+01  4.12332E+01  2.75742E+01  2.14861E+01  1.72700E+01  9.74252E+00  1.77615E+01  1.35653E+01
   6.92760E+00  9.00196E+00  1.08950E+01  1.83292E+01  1.71590E+01  1.35329E+01  1.12634E+01  9.36296E+00  1.69824E+01  2.24191E+01
   1.81599E+01  2.56829E+01  2.57211E+01  2.10206E+01  1.39226E+01  1.12130E+01  1.08263E+01  9.94070E+00  1.20932E+01  1.43407E+01
   1.11029E+01  1.47858E+01  1.45113E+01  1.19844E+01  1.46776E+01  1.81457E+01  2.72651E+01  2.65240E+01  2.48566E+01  2.45795E+01
   1.85621E+01  1.35542E+01  1.35125E+01  1.49289E+01  1.31788E+01  1.25672E+01  1.00807E+01  9.00549E+00  1.99812E+01  1.29983E+01
   1.51545E+01  9.46943E+00  6.70857E+00  3.25986E+00 -2.43448E+00 -2.34491E+00 -4.81886E-01 -9.57637E-01  3.51683E+00  1.28611E+00
   4.90861E+00  3.25076E+00  6.30642E+00  1.04168E+00 -9.73893E-02  5.34125E+00  1.22443E+00  5.98686E+00  9.62607E-02  2.43671E-01
  -4.63161E-01 -5.43588E+00  5.19246E-01  3.75040E+00  1.48381E-01 -3.10881E+00  3.23041E+00 -3.06311E+00  3.83718E+00  1.63509E+00
   1.16017E+00  5.90977E+00  7.60805E+00  2.62073E+00  5.79926E+00  9.69848E+00  9.90629E+00  1.07514E+01  1.50593E+01  1.62715E+01
   2.51303E+01  4.37020E+01  5.94865E+01  7.05035E+01  6.49191E+01  6.24680E+01  3.59776E+01  2.62651E+01  2.17368E+01  1.46218E+01
   1.34499E+01  7.05360E+00  9.00725E+00  6.61551E+00  1.14484E+01  5.80762E+00  4.94363E+00  1.06495E+01  8.36768E+00  9.37208E+00
   1.65584E+01  1.05374E+01  1.58285E+01  2.09605E+01  3.00320E+01  5.07072E+01  7.85294E+01  8.09703E+01  7.87343E+01  6.62993E+01
   5.45111E+01  3.10451E+01  2.04844E+01  2.14015E+01  8.88140E+00  8.44843E+00  5.97744E+00  2.77243E+00  2.35004E+00  4.85887E+00
   2.91419E-01  6.58644E+00  4.70525E+00  3.11300E+00  9.61433E+00  2.24605E+00  4.56606E+00  2.65579E+00 -7.87321E-01  2.54673E+00
   4.00200E-01 -3.10931E+00  4.81179E+00 -2.37254E+00 -3.45594E+00  3.94419E+00  1.41271E+00 -2.69279E+00  1.21761E-01  6.90126E-01
  -7.69911E-01 -4.27469E+00 -4.41713E+00 -7.67092E+00 -1.70712E+00 -2.68312E+00  1.84940E+00 -2.46690E+00 -7.18593E+00 -2.10288E+00
  -8.33911E+00 -1.19870E+01 -9.77418E+00 -1.22606E+01 -1.27952E+01 -1.57055E+01 -1.80866E+01 -1.53227E+01 -1.44339E+01 -1.58250E+01
  -1.88208E+01 -2.05168E+01 -1.70243E+01 -1.73756E+01 -1.58310E+01 -1.46703E+01 -1.68254E+01 -1.35019E+01 -1.33790E+01 -1.02829E+01
  -2.21616E+00  3.02550E+00  1.89373E+00  2.09552E+00  7.30670E-01 -2.70464E+00  5.36533E-01 -4.37377E+00 -1.27355E+01 -6.44754E+00
  -1.26270E+01 -4.62491E+00 -6.71169E+00 -2.82170E+00 -2.51885E-01 -1.91085E+00 -6.61234E+00 -1.01069E+01 -4.09099E+00 -1.35351E+01
  -1.10007E+01 -9.70052E+00 -1.49782E+00  1.20013E+00  1.48532E+01  1.50350E+01  1.13626E+01  1.44221E+01  8.46104E+00 -3.29358E+00
  -9.83061E+00 -8.96641E+00 -1.44183E+01 -1.32773E+01 -6.29691E+00  5.61632E+00  5.23145E+00  9.82487E-01  7.28471E+00  1.14822E+01
   3.99570E+00  5.58683E+00  1.32876E+00  8.95369E-01  7.56629E+00  4.40848E+00  2.85978E+00  6.44501E+00  7.25793E+00  5.55616E+00
   1.80201E+00  1.89757E+00  2.33506E+00  2.06589E+00  6.58261E-01  8.28203E+00  9.97273E+00  1.53735E+01  1.36759E+01  2.10108E+01
   2.22373E+01  2.09324E+01  1.72957E+01  2.57788E+01  2.54581E+01  3.49476E+01  4.54336E+01  5.78621E+01  7.95007E+01  1.21335E+02
   1.34167E+02  1.18462E+02  9.37475E+01  6.49040E+01  3.96253E+01  2.11538E+01  1.64261E+01  3.37841E+00  1.47172E+00  7.26055E-01
  -7.99872E-01  2.74769E+00  4.76946E+00  4.09617E+00  6.63183E-01 -6.76666E-02 -3.62397E-03 -1.08390E+00  1.02232E+00 -2.53700E+00
  -8.45703E+00  6.82244E-01 -3.37331E+00 -5.14369E+00 -4.62325E+00 -7.84455E+00 -1.95212E+00  6.66299E-01 -6.75922E+00 -6.02603E+00
  -3.97820E+00 -1.63900E+00 -4.04017E-01 -1.05200E+00 -4.73499E+00 -5.24929E+00 -2.13585E+00 -5.22046E+00 -4.09914E+00 -8.28197E+00
  -4.47493E-01 -3.18883E+00 -9.58316E-01  2.85811E+00 -1.00455E+00  8.75691E-01  5.10303E+00  1.97623E+00  6.73501E+00 -5.13270E-01
   5.19365E+00  3.56768E+00  8.77666E+00  3.82350E+00  8.29609E-02  1.27554E+00  6.53018E+00  2.50780E+00  1.79201E+00  3.68042E+00
   5.87502E-01  4.94750E-01 -1.12326E+00 -1.29687E+00 -3.53335E+00 -4.10932E+00 -2.68854E+00  2.52187E+00 -4.33466E+00 -8.07905E-01
  -5.66706E+00 -4.89570E+00  1.42655E-01 -7.05812E-01  1.37177E+00  2.45866E+00  6.13017E+00  4.79855E+00  5.24062E+00  7.49516E+00
   4.21397E+00  5.61429E+00  9.88171E+00  1.74217E+01  2.02703E+01  2.31467E+01  2.99566E+01  2.35991E+01  1.93189E+01  2.32347E+01
   2.19304E+01  2.49143E+01  2.52039E+01  2.48934E+01  3.05083E+01  2.86367E+01  3.10531E+01  2.10781E+01  3.46983E+01  2.73052E+01
   2.33599E+01  2.82866E+01  2.31441E+01  2.45826E+01  3.33552E+01  2.66999E+01  2.77051E+01  2.33870E+01  2.47053E+01  2.96953E+01
   2.55362E+01  2.68902E+01  2.25149E+01  2.09156E+01  2.59184E+01  2.22232E+01  1.48009E+01  2.26238E+01  2.12246E+01  2.09819E+01
   1.88318E+01  2.29392E+01  2.19429E+01  2.36931E+01  2.32055E+01  2.28580E+01  2.10280E+01  1.91309E+01  2.06032E+01  2.24923E+01
   2.56258E+01  2.62562E+01  2.44595E+01  3.02718E+01  2.69030E+01  2.52937E+01  2.46816E+01  2.51520E+01  3.08395E+01  2.41841E+01
   2.94333E+01  3.01086E+01  3.18497E+01  2.68366E+01  3.03451E+01  2.33555E+01  2.40555E+01  3.04944E+01  2.85061E+01  2.77254E+01
   2.79937E+01  2.91880E+01  2.20486E+01  2.78017E+01  2.51824E+01  2.13143E+01  2.28678E+01  2.47427E+01  2.17619E+01  1.67010E+01
   1.60618E+01  1.56247E+01  2.21838E+01  1.56057E+01  1.74654E+01  1.61822E+01  1.54689E+01  1.28398E+01  1.46398E+01  1.46353E+01
   1.35372E+01  1.45449E+01  8.98944E+00  1.37543E+01  1.28081E+01  1.37258E+01  6.57656E+00  9.74098E+00  1.56328E+01  9.99593E+00
   7.39471E+00  1.09838E+01  7.78222E+00  8.56231E+00  1.17556E+01  9.77917E+00  1.16656E+01  9.17702E+00  1.30585E+01  5.68478E+00
   1.31356E+01  9.65728E+00  8.34109E+00  7.64760E+00  8.80330E+00  1.00189E+01  1.07906E+01  6.21192E+00  4.43265E+00  4.58687E+00
   7.51577E+00  1.00063E+01  3.40900E+00  4.82678E+00  6.36806E+00  1.16510E+01  7.77230E+00  1.19071E+01  3.92566E+00  9.63037E+00
   6.66638E+00  6.29571E+00  7.67442E+00  4.88091E+00  5.47545E+00  5.51328E+00  7.63765E+00  1.23859E+01  7.36883E+00  8.58277E+00
   1.05138E+01  5.09728E+00  8.39186E+00  1.03820E+01  5.38234E+00  1.10672E+01  7.70554E+00  4.93191E+00  8.60871E+00  8.96100E+00
   4.42259E+00  7.91865E+00  6.54107E+00  5.54109E+00  7.38603E+00  6.09277E+00  4.52686E+00  2.71283E+00
 NY points of the fit to the data follow
   1.15063E+01  1.12975E+01  1.14711E+01  1.21097E+01  1.37181E+01  1.66923E+01  2.08918E+01  2.77781E+01  3.65823E+01  4.52728E+01
   5.11374E+01  5.17188E+01  4.64624E+01  3.79268E+01  2.93947E+01  2.25167E+01  1.77879E+01  1.51439E+01  1.33987E+01  1.25930E+01
   1.22324E+01  1.20319E+01  1.17387E+01  1.10768E+01  1.03633E+01  1.00225E+01  9.93629E+00  1.08469E+01  1.44967E+01  2.02641E+01
   2.52845E+01  2.75535E+01  2.69025E+01  2.37528E+01  1.91467E+01  1.45737E+01  1.07225E+01  8.26001E+00  7.67590E+00  8.20875E+00
   8.91926E+00  9.86310E+00  1.13570E+01  1.29982E+01  1.49198E+01  1.78754E+01  2.10852E+01  2.26003E+01  2.13383E+01  1.79195E+01
   1.38064E+01  1.03262E+01  7.97088E+00  6.58917E+00  6.17132E+00  6.54067E+00  7.28295E+00  8.32972E+00  9.57857E+00  1.06063E+01
   1.09185E+01  1.02399E+01  8.74456E+00  6.99508E+00  5.60400E+00  4.84465E+00  4.81136E+00  5.38619E+00  6.11809E+00  6.85117E+00
   7.55001E+00  8.04243E+00  8.09473E+00  7.74077E+00  7.19104E+00  6.56972E+00  6.01429E+00  5.56968E+00  5.17761E+00  4.90342E+00
   4.73909E+00  4.58633E+00  4.29281E+00  3.82232E+00  3.04653E+00  1.87043E+00  4.57184E-01 -7.27236E-01 -1.23079E+00 -8.80353E-01
   1.14770E-01  1.44030E+00  2.75146E+00  3.83368E+00  4.62424E+00  5.09701E+00  5.31484E+00  5.99410E+00  9.35919E+00  1.61892E+01
   2.61002E+01  4.20330E+01  6.07188E+01  7.19321E+01  6.98707E+01  5.76494E+01  4.12959E+01  2.63764E+01  1.60372E+01  9.28181E+00
   4.99807E+00  3.51154E+00  3.09863E+00  2.99705E+00  3.01286E+00  3.08550E+00  3.20623E+00  3.37792E+00  3.60180E+00  3.95138E+00
   4.64825E+00  6.39115E+00  1.16442E+01  2.05654E+01  3.28257E+01  5.20318E+01  7.36362E+01  8.53671E+01  8.15450E+01  6.68000E+01
   4.81340E+01  3.18487E+01  2.10848E+01  1.35240E+01  7.68646E+00  4.27194E+00  1.85717E+00  4.67329E-01  3.00928E-01  1.15494E+00
   2.47370E+00  3.69998E+00  4.31062E+00  4.15904E+00  3.53422E+00  2.73044E+00  1.94631E+00  1.36390E+00  8.90361E-01  4.83531E-01
   8.17994E-02 -3.28658E-01 -7.36785E-01 -1.09464E+00 -1.29444E+00 -1.36084E+00 -1.48533E+00 -1.64418E+00 -2.17707E+00 -3.23292E+00
  -4.20594E+00 -4.59900E+00 -4.11824E+00 -3.09170E+00 -2.47995E+00 -2.92542E+00 -4.05240E+00 -5.24098E+00 -6.27827E+00 -6.92752E+00
  -7.31158E+00 -7.79766E+00 -8.25093E+00 -8.86940E+00 -9.82887E+00 -1.05007E+01 -1.03454E+01 -9.50771E+00 -8.85180E+00 -8.91178E+00
  -9.45218E+00 -9.85488E+00 -9.88122E+00 -9.68581E+00 -9.76826E+00 -1.00022E+01 -9.54869E+00 -7.80978E+00 -5.33903E+00 -2.81355E+00
  -7.78831E-01  2.49745E-01  1.59186E-01 -9.13300E-01 -2.35765E+00 -3.74645E+00 -5.18068E+00 -6.34098E+00 -6.41651E+00 -5.25344E+00
  -3.37245E+00 -1.10022E+00  1.03677E+00  2.36683E+00  2.49543E+00  9.86618E-01 -1.62598E+00 -4.86071E+00 -8.22016E+00 -1.04616E+01
  -1.09805E+01 -9.55066E+00 -6.57054E+00 -1.91277E+00  3.62429E+00  7.81914E+00  8.65907E+00  5.70193E+00  4.67025E-01 -5.36483E+00
  -1.09806E+01 -1.51229E+01 -1.61128E+01 -1.31837E+01 -7.88956E+00 -2.31940E+00  2.07900E+00  4.66834E+00  5.74849E+00  5.52312E+00
   4.21504E+00  2.82754E+00  2.45056E+00  3.09935E+00  4.45351E+00  6.26718E+00  8.21313E+00  9.52265E+00  9.47934E+00  8.27636E+00
   6.47527E+00  4.85275E+00  4.28957E+00  5.33580E+00  7.64539E+00  1.04222E+01  1.29244E+01  1.45359E+01  1.51006E+01  1.49395E+01
   1.47644E+01  1.55103E+01  1.71204E+01  1.98497E+01  2.44985E+01  3.43291E+01  4.56581E+01  6.03754E+01  8.69674E+01  1.16560E+02
   1.29366E+02  1.19516E+02  9.52581E+01  6.68100E+01  4.31193E+01  2.78081E+01  1.66430E+01  9.82470E+00  7.25961E+00  5.66426E+00
   4.39486E+00  3.47880E+00  2.94663E+00  2.60776E+00  2.27793E+00  1.80148E+00  1.16424E+00  4.51505E-01 -2.61968E-01 -9.51640E-01
  -1.56544E+00 -2.04101E+00 -2.38603E+00 -2.65352E+00 -2.89256E+00 -3.12806E+00 -3.35547E+00 -3.55400E+00 -3.71464E+00 -3.81606E+00
  -3.83392E+00 -3.76303E+00 -3.62068E+00 -3.42326E+00 -3.18145E+00 -2.89791E+00 -2.57397E+00 -2.20927E+00 -1.79622E+00 -1.32581E+00
  -8.04904E-01 -2.50111E-01  3.17691E-01  8.73731E-01  1.39792E+00  1.87404E+00  2.28459E+00  2.61810E+00  2.86756E+00  3.02733E+00
   3.09637E+00  3.07577E+00  2.97019E+00  2.78866E+00  2.54545E+00  2.25717E+00  1.94198E+00  1.61751E+00  1.30246E+00  1.01646E+00
   7.82645E-01  6.32626E-01  6.09647E-01  6.63803E-01  7.90834E-01  9.97580E-01  1.06586E+00  8.05188E-01  3.33994E-01 -9.51388E-02
  -2.58662E-01 -5.83906E-02  4.49636E-01  1.33290E+00  2.67494E+00  4.24484E+00  5.70201E+00  6.94312E+00  8.00134E+00  8.99045E+00
   1.00532E+01  1.12368E+01  1.25808E+01  1.40708E+01  1.56486E+01  1.73092E+01  1.87826E+01  1.97834E+01  2.03889E+01  2.08930E+01
   2.15814E+01  2.25205E+01  2.36941E+01  2.51717E+01  2.69199E+01  2.85989E+01  2.98455E+01  3.05834E+01  3.08754E+01  3.08695E+01
   3.07053E+01  3.03857E+01  2.99492E+01  2.94391E+01  2.88419E+01  2.81599E+01  2.74059E+01  2.65954E+01  2.57465E+01  2.48779E+01
   2.40094E+01  2.31597E+01  2.23465E+01  2.15858E+01  2.08926E+01  2.02804E+01  1.97616E+01  1.93459E+01  1.90412E+01  1.88523E+01
   1.87832E+01  1.88351E+01  1.90076E+01  1.92969E+01  1.96968E+01  2.01984E+01  2.07915E+01  2.14632E+01  2.21991E+01  2.29820E+01
   2.37941E+01  2.46162E+01  2.54302E+01  2.62176E+01  2.69610E+01  2.76435E+01  2.82510E+01  2.87714E+01  2.91964E+01  2.95193E+01
   2.97368E+01  2.98473E+01  2.98527E+01  2.97565E+01  2.95649E+01  2.92843E+01  2.89222E+01  2.84861E+01  2.79845E+01  2.74255E+01
   2.68171E+01  2.61660E+01  2.54789E+01  2.47616E+01  2.40202E+01  2.32602E+01  2.24869E+01  2.17048E+01  2.09185E+01  2.01322E+01
   1.93511E+01  1.85793E+01  1.78211E+01  1.70798E+01  1.63590E+01  1.56617E+01  1.49913E+01  1.43497E+01  1.37388E+01  1.31594E+01
   1.26125E+01  1.20985E+01  1.16178E+01  1.11696E+01  1.07533E+01  1.03673E+01  1.00109E+01  9.68258E+00  9.38141E+00  9.10534E+00
   8.85287E+00  8.62207E+00  8.41198E+00  8.22106E+00  8.04822E+00  7.89153E+00  7.74989E+00  7.62187E+00  7.50700E+00  7.40409E+00
   7.31241E+00  7.23051E+00  7.15785E+00  7.09359E+00  7.03766E+00  6.98917E+00  6.94768E+00  6.91212E+00  6.88244E+00  6.85811E+00
   6.83928E+00  6.82515E+00  6.81548E+00  6.80953E+00  6.80753E+00  6.80914E+00  6.81452E+00  6.82292E+00  6.83426E+00  6.84801E+00
   6.86460E+00  6.88371E+00  6.90549E+00  6.92919E+00  6.95492E+00  6.98232E+00  7.01189E+00  7.04327E+00  7.07651E+00  7.11096E+00
   7.14686E+00  7.18398E+00  7.22283E+00  7.26292E+00  7.30433E+00  7.34646E+00  7.38971E+00  7.43392E+00  7.47949E+00  7.52587E+00
   7.57313E+00  7.62080E+00  7.66939E+00  7.71872E+00  7.76909E+00  7.81988E+00  7.87122E+00  7.92276E+00
 NY background values follow
     6.362E+00    6.304E+00    6.247E+00    6.189E+00    6.131E+00    6.073E+00    6.016E+00    5.958E+00    5.900E+00    5.842E+00
     5.784E+00    5.726E+00    5.668E+00    5.610E+00    5.552E+00    5.494E+00    5.435E+00    5.377E+00    5.318E+00    5.260E+00
     5.201E+00    5.143E+00    5.084E+00    5.025E+00    4.966E+00    4.907E+00    4.848E+00    4.789E+00    4.729E+00    4.670E+00
     4.611E+00    4.551E+00    4.491E+00    4.431E+00    4.371E+00    4.311E+00    4.251E+00    4.190E+00    4.130E+00    4.069E+00
     4.008E+00    3.947E+00    3.886E+00    3.825E+00    3.763E+00    3.702E+00    3.640E+00    3.578E+00    3.516E+00    3.454E+00
     3.391E+00    3.329E+00    3.266E+00    3.203E+00    3.140E+00    3.076E+00    3.013E+00    2.949E+00    2.886E+00    2.822E+00
     2.758E+00    2.693E+00    2.629E+00    2.564E+00    2.500E+00    2.435E+00    2.370E+00    2.304E+00    2.239E+00    2.173E+00
     2.108E+00    2.042E+00    1.976E+00    1.909E+00    1.843E+00    1.776E+00    1.710E+00    1.643E+00    1.576E+00    1.508E+00
     1.441E+00    1.373E+00    1.306E+00    1.238E+00    1.170E+00    1.101E+00    1.033E+00    9.644E-01    8.957E-01    8.268E-01
     7.577E-01    6.885E-01    6.191E-01    5.495E-01    4.797E-01    4.098E-01    3.398E-01    2.696E-01    1.992E-01    1.286E-01
     5.795E-02   -1.291E-02   -8.391E-02   -1.551E-01   -2.264E-01   -2.979E-01   -3.695E-01   -4.412E-01   -5.132E-01   -5.852E-01
    -6.574E-01   -7.298E-01   -8.023E-01   -8.749E-01   -9.477E-01   -1.021E+00   -1.094E+00   -1.167E+00   -1.240E+00   -1.314E+00
    -1.387E+00   -1.461E+00   -1.535E+00   -1.609E+00   -1.683E+00   -1.757E+00   -1.832E+00   -1.906E+00   -1.981E+00   -2.056E+00
    -2.131E+00   -2.206E+00   -2.281E+00   -2.356E+00   -2.432E+00   -2.507E+00   -2.583E+00   -2.659E+00   -2.734E+00   -2.810E+00
    -2.886E+00   -2.962E+00   -3.038E+00   -3.114E+00   -3.190E+00   -3.267E+00   -3.343E+00   -3.418E+00   -3.494E+00   -3.570E+00
    -3.646E+00   -3.721E+00   -3.797E+00   -3.872E+00   -3.947E+00   -4.022E+00   -4.097E+00   -4.171E+00   -4.245E+00   -4.319E+00
    -4.393E+00   -4.466E+00   -4.539E+00   -4.612E+00   -4.685E+00   -4.757E+00   -4.828E+00   -4.900E+00   -4.971E+00   -5.041E+00
    -5.111E+00   -5.181E+00   -5.250E+00   -5.318E+00   -5.386E+00   -5.454E+00   -5.521E+00   -5.588E+00   -5.654E+00   -5.719E+00
    -5.784E+00   -5.848E+00   -5.911E+00   -5.974E+00   -6.036E+00   -6.098E+00   -6.159E+00   -6.219E+00   -6.279E+00   -6.337E+00
    -6.396E+00   -6.454E+00   -6.511E+00   -6.567E+00   -6.623E+00   -6.678E+00   -6.732E+00   -6.786E+00   -6.839E+00   -6.892E+00
    -6.944E+00   -6.995E+00   -7.045E+00   -7.095E+00   -7.144E+00   -7.193E+00   -7.241E+00   -7.288E+00   -7.335E+00   -7.381E+00
    -7.426E+00   -7.471E+00   -7.514E+00   -7.558E+00   -7.600E+00   -7.642E+00   -7.684E+00   -7.724E+00   -7.764E+00   -7.803E+00
    -7.842E+00   -7.880E+00   -7.917E+00   -7.953E+00   -7.989E+00   -8.025E+00   -8.059E+00   -8.093E+00   -8.126E+00   -8.158E+00
    -8.190E+00   -8.221E+00   -8.252E+00   -8.281E+00   -8.310E+00   -8.338E+00   -8.366E+00   -8.393E+00   -8.419E+00   -8.444E+00
    -8.469E+00   -8.493E+00   -8.516E+00   -8.538E+00   -8.559E+00   -8.580E+00   -8.600E+00   -8.620E+00   -8.638E+00   -8.656E+00
    -8.673E+00   -8.689E+00   -8.704E+00   -8.719E+00   -8.732E+00   -8.745E+00   -8.757E+00   -8.769E+00   -8.779E+00   -8.789E+00
    -8.798E+00   -8.806E+00   -8.813E+00   -8.819E+00   -8.824E+00   -8.829E+00   -8.833E+00   -8.836E+00   -8.838E+00   -8.839E+00
    -8.839E+00   -8.838E+00   -8.837E+00   -8.834E+00   -8.831E+00   -8.827E+00   -8.822E+00   -8.816E+00   -8.809E+00   -8.801E+00
    -8.793E+00   -8.783E+00   -8.773E+00   -8.762E+00   -8.750E+00   -8.737E+00   -8.724E+00   -8.709E+00   -8.694E+00   -8.677E+00
    -8.660E+00   -8.642E+00   -8.624E+00   -8.604E+00   -8.584E+00   -8.562E+00   -8.540E+00   -8.517E+00   -8.494E+00   -8.469E+00
    -8.444E+00   -8.418E+00   -8.391E+00   -8.363E+00   -8.334E+00   -8.305E+00   -8.275E+00   -8.244E+00   -8.212E+00   -8.179E+00
    -8.146E+00   -8.111E+00   -8.077E+00   -8.041E+00   -8.004E+00   -7.967E+00   -7.929E+00   -7.890E+00   -7.850E+00   -7.810E+00
    -7.769E+00   -7.727E+00   -7.684E+00   -7.641E+00   -7.597E+00   -7.552E+00   -7.506E+00   -7.460E+00   -7.413E+00   -7.365E+00
    -7.317E+00   -7.268E+00   -7.218E+00   -7.168E+00   -7.117E+00   -7.065E+00   -7.013E+00   -6.960E+00   -6.906E+00   -6.852E+00
    -6.797E+00   -6.741E+00   -6.685E+00   -6.628E+00   -6.571E+00   -6.513E+00   -6.455E+00   -6.396E+00   -6.336E+00   -6.276E+00
    -6.215E+00   -6.154E+00   -6.092E+00   -6.030E+00   -5.967E+00   -5.904E+00   -5.840E+00   -5.775E+00   -5.710E+00   -5.645E+00
    -5.579E+00   -5.513E+00   -5.446E+00   -5.379E+00   -5.311E+00   -5.243E+00   -5.174E+00   -5.105E+00   -5.035E+00   -4.965E+00
    -4.895E+00   -4.824E+00   -4.753E+00   -4.681E+00   -4.609E+00   -4.537E+00   -4.464E+00   -4.391E+00   -4.317E+00   -4.243E+00
    -4.169E+00   -4.095E+00   -4.020E+00   -3.944E+00   -3.869E+00   -3.793E+00   -3.717E+00   -3.640E+00   -3.563E+00   -3.486E+00
    -3.408E+00   -3.331E+00   -3.253E+00   -3.174E+00   -3.096E+00   -3.017E+00   -2.938E+00   -2.858E+00   -2.779E+00   -2.699E+00
    -2.619E+00   -2.539E+00   -2.458E+00   -2.377E+00   -2.296E+00   -2.215E+00   -2.134E+00   -2.053E+00   -1.971E+00   -1.889E+00
    -1.807E+00   -1.725E+00   -1.642E+00   -1.560E+00   -1.477E+00   -1.394E+00   -1.312E+00   -1.229E+00   -1.145E+00   -1.062E+00
    -9.786E-01   -8.951E-01   -8.115E-01   -7.278E-01   -6.439E-01   -5.600E-01   -4.761E-01   -3.920E-01   -3.079E-01   -2.237E-01
    -1.394E-01   -5.511E-02    2.925E-02    1.137E-01    1.981E-01    2.826E-01    3.671E-01    4.516E-01    5.361E-01    6.207E-01
     7.052E-01    7.898E-01    8.743E-01    9.589E-01    1.043E+00    1.128E+00    1.212E+00    1.297E+00    1.381E+00    1.466E+00
     1.550E+00    1.634E+00    1.718E+00    1.803E+00    1.887E+00    1.971E+00    2.055E+00    2.138E+00    2.222E+00    2.306E+00
     2.390E+00    2.473E+00    2.557E+00    2.641E+00    2.724E+00    2.808E+00    2.891E+00    2.974E+00    3.058E+00    3.141E+00
     3.224E+00    3.307E+00    3.390E+00    3.473E+00    3.556E+00    3.639E+00    3.722E+00    3.805E+00    3.888E+00    3.971E+00
     4.054E+00    4.137E+00    4.219E+00    4.302E+00    4.385E+00    4.467E+00    4.550E+00    4.633E+00    4.715E+00    4.798E+00
     4.880E+00    4.963E+00    5.045E+00    5.127E+00    5.210E+00    5.292E+00    5.375E+00    5.457E+00
 Ala      Conc. = 9.29E+01
