 LCModel (Version 6.3-1L) Copyright: S.W. Provencher.          Ref.: Magn. Reson. Med. 30:672-679 (1993).                
 Slice#2 Row#9 Col#3  K_02_press_1_raw_act
 36 lines in following concentration table = NCONC+1
    Conc.  %SD /Cr+PCr  Metabolite                                         
  256.667  43%   0.129 Ala                                                 
    0.000 999%   0.000 Asp                                                 
  329.382  74%   0.166 Cr                                                  
 1.65E+03  16%   0.834 PCr                                                 
    0.000 999%   0.000 GABA                                                
    0.000 999%   0.000 Glc                                                 
  355.924  67%   0.179 Gln                                                 
 2.01E+03  13%   1.010 Glu                                                 
  600.145  14%   0.302 GPC                                                 
  120.932  72% 6.1E-02 PCh                                                 
  742.144  10%   0.374 GSH                                                 
 1.76E+03  17%   0.886 Ins                                                 
    0.000 999%   0.000 Lac                                                 
 3.15E+03   4%   1.588 NAA                                                 
  435.687  33%   0.220 NAAG                                                
  180.807  18% 9.1E-02 Scyllo                                              
    0.000 999%   0.000 Tau                                                 
  166.714  69% 8.4E-02 -CrCH2                                              
  721.077   4%   0.363 GPC+PCh                                             
 3.59E+03   2%   1.808 NAA+NAAG                                            
 1.98E+03   3%   1.000 Cr+PCr                                              
 2.36E+03  16%   1.190 Glu+Gln                                             
  229.296 190%   0.116 Lip13a                                              
  129.141 162% 6.5E-02 Lip13b                                              
    0.000 999%   0.000 Lip09                                               
  901.742  23%   0.454 MM09                                                
   92.832 102% 4.7E-02 Lip20                                               
 1.75E+03  19%   0.883 MM20                                                
  287.709  30%   0.145 MM12                                                
  415.054  59%   0.209 MM14                                                
  278.436  60%   0.140 MM17                                                
  358.438  84%   0.181 Lip13a+Lip13b                                       
 1.06E+03  40%   0.535 MM14+Lip13a+Lip13b+MM12                             
  901.742  23%   0.454 MM09+Lip09                                          
 1.84E+03  19%   0.929 MM20+Lip20                                          
   6 lines in following misc. output table
  FWHM = 0.054 ppm    S/N =  16                                            
  Data shift =-0.008 ppm                                                   
  Ph: -46 deg     -23.1 deg/ppm                                            
  alphaB,S = 6.0E-01,   1.4E+02                                            
   14 spline knots.   Ns = 7(1)                                            
  (12) 2 infls.   (11) 1 extrs.                                            
  498 points on ppm-axis = NY
      4.000000     3.992357     3.984714     3.977070     3.969427     3.961784     3.954141     3.946497     3.938854     3.931211
      3.923568     3.915925     3.908281     3.900638     3.892995     3.885352     3.877708     3.870065     3.862422     3.854779
      3.847136     3.839492     3.831849     3.824206     3.816563     3.808919     3.801276     3.793633     3.785990     3.778347
      3.770703     3.763060     3.755417     3.747774     3.740130     3.732487     3.724844     3.717201     3.709558     3.701914
      3.694271     3.686628     3.678985     3.671341     3.663698     3.656055     3.648412     3.640769     3.633125     3.625482
      3.617839     3.610196     3.602552     3.594909     3.587266     3.579623     3.571980     3.564336     3.556693     3.549050
      3.541407     3.533763     3.526120     3.518477     3.510834     3.503191     3.495547     3.487904     3.480261     3.472618
      3.464974     3.457331     3.449688     3.442045     3.434402     3.426758     3.419115     3.411472     3.403829     3.396185
      3.388542     3.380899     3.373256     3.365613     3.357969     3.350326     3.342683     3.335040     3.327396     3.319753
      3.312110     3.304467     3.296824     3.289180     3.281537     3.273894     3.266251     3.258607     3.250964     3.243321
      3.235678     3.228034     3.220391     3.212748     3.205105     3.197462     3.189818     3.182175     3.174532     3.166889
      3.159245     3.151602     3.143959     3.136316     3.128673     3.121029     3.113386     3.105743     3.098100     3.090456
      3.082813     3.075170     3.067527     3.059884     3.052240     3.044597     3.036954     3.029311     3.021667     3.014024
      3.006381     2.998738     2.991095     2.983451     2.975808     2.968165     2.960522     2.952878     2.945235     2.937592
      2.929949     2.922306     2.914662     2.907019     2.899376     2.891733     2.884089     2.876446     2.868803     2.861160
      2.853517     2.845873     2.838230     2.830587     2.822944     2.815300     2.807657     2.800014     2.792371     2.784728
      2.777084     2.769441     2.761798     2.754155     2.746511     2.738868     2.731225     2.723582     2.715939     2.708295
      2.700652     2.693009     2.685366     2.677722     2.670079     2.662436     2.654793     2.647150     2.639506     2.631863
      2.624220     2.616577     2.608933     2.601290     2.593647     2.586004     2.578361     2.570717     2.563074     2.555431
      2.547788     2.540144     2.532501     2.524858     2.517215     2.509572     2.501928     2.494285     2.486642     2.478999
      2.471355     2.463712     2.456069     2.448426     2.440783     2.433139     2.425496     2.417853     2.410210     2.402566
      2.394923     2.387280     2.379637     2.371994     2.364350     2.356707     2.349064     2.341421     2.333777     2.326134
      2.318491     2.310848     2.303205     2.295561     2.287918     2.280275     2.272632     2.264988     2.257345     2.249702
      2.242059     2.234416     2.226772     2.219129     2.211486     2.203843     2.196199     2.188556     2.180913     2.173270
      2.165627     2.157983     2.150340     2.142697     2.135054     2.127410     2.119767     2.112124     2.104481     2.096838
      2.089194     2.081551     2.073908     2.066265     2.058621     2.050978     2.043335     2.035692     2.028049     2.020405
      2.012762     2.005119     1.997476     1.989833     1.982190     1.974546     1.966903     1.959260     1.951617     1.943974
      1.936331     1.928688     1.921045     1.913402     1.905759     1.898115     1.890472     1.882829     1.875186     1.867543
      1.859900     1.852257     1.844614     1.836971     1.829327     1.821684     1.814041     1.806398     1.798755     1.791112
      1.783469     1.775826     1.768183     1.760540     1.752896     1.745253     1.737610     1.729967     1.722324     1.714681
      1.707038     1.699395     1.691752     1.684108     1.676465     1.668822     1.661179     1.653536     1.645893     1.638250
      1.630607     1.622964     1.615321     1.607677     1.600034     1.592391     1.584748     1.577105     1.569462     1.561819
      1.554176     1.546533     1.538890     1.531246     1.523603     1.515960     1.508317     1.500674     1.493031     1.485388
      1.477745     1.470102     1.462458     1.454815     1.447172     1.439529     1.431886     1.424243     1.416600     1.408957
      1.401314     1.393671     1.386027     1.378384     1.370741     1.363098     1.355455     1.347812     1.340169     1.332526
      1.324883     1.317240     1.309596     1.301953     1.294310     1.286667     1.279024     1.271381     1.263738     1.256095
      1.248452     1.240808     1.233165     1.225522     1.217879     1.210236     1.202593     1.194950     1.187307     1.179664
      1.172021     1.164377     1.156734     1.149091     1.141448     1.133805     1.126162     1.118519     1.110876     1.103233
      1.095590     1.087946     1.080303     1.072660     1.065017     1.057374     1.049731     1.042088     1.034445     1.026802
      1.019158     1.011515     1.003872     0.996229     0.988586     0.980943     0.973300     0.965657     0.958014     0.950371
      0.942727     0.935084     0.927441     0.919798     0.912155     0.904512     0.896869     0.889226     0.881583     0.873940
      0.866296     0.858653     0.851010     0.843367     0.835724     0.828081     0.820438     0.812795     0.805152     0.797508
      0.789865     0.782222     0.774579     0.766936     0.759293     0.751650     0.744007     0.736364     0.728721     0.721077
      0.713434     0.705791     0.698148     0.690505     0.682862     0.675219     0.667576     0.659933     0.652290     0.644646
      0.637003     0.629360     0.621717     0.614074     0.606431     0.598788     0.591145     0.583502     0.575858     0.568215
      0.560572     0.552929     0.545286     0.537643     0.530000     0.522357     0.514714     0.507071     0.499427     0.491784
      0.484141     0.476498     0.468855     0.461212     0.453569     0.445925     0.438282     0.430639     0.422996     0.415353
      0.407710     0.400067     0.392424     0.384780     0.377137     0.369494     0.361851     0.354208     0.346565     0.338922
      0.331278     0.323635     0.315992     0.308349     0.300706     0.293063     0.285420     0.277777     0.270133     0.262490
      0.254847     0.247204     0.239561     0.231918     0.224275     0.216631     0.208988     0.201345
 NY phased data points follow
  -7.18566E+01 -6.81913E+01 -6.49097E+01 -6.17557E+01 -5.69465E+01 -4.76396E+01 -4.13497E+01 -3.69557E+01 -3.20140E+01 -2.78960E+01
  -2.41249E+01 -2.44309E+01 -2.92429E+01 -3.25351E+01 -4.14307E+01 -4.98090E+01 -5.42715E+01 -5.30965E+01 -5.77631E+01 -5.36151E+01
  -5.53705E+01 -5.71726E+01 -5.36208E+01 -5.20009E+01 -5.20282E+01 -4.67852E+01 -4.20859E+01 -4.15205E+01 -3.76040E+01 -3.51138E+01
  -3.63032E+01 -3.82113E+01 -3.80866E+01 -3.74883E+01 -3.60200E+01 -3.82907E+01 -3.97499E+01 -3.87326E+01 -4.09068E+01 -3.88838E+01
  -3.73778E+01 -3.73224E+01 -3.53208E+01 -3.61534E+01 -3.22299E+01 -2.90465E+01 -2.54273E+01 -2.51273E+01 -2.57280E+01 -3.04838E+01
  -3.22627E+01 -3.03907E+01 -3.03802E+01 -3.59577E+01 -3.39437E+01 -3.45016E+01 -3.63648E+01 -3.09265E+01 -3.51249E+01 -4.05697E+01
  -3.68194E+01 -3.65266E+01 -3.65206E+01 -3.63858E+01 -3.85827E+01 -3.83200E+01 -4.02679E+01 -3.85483E+01 -3.24052E+01 -3.75582E+01
  -3.03262E+01 -3.14637E+01 -3.34334E+01 -2.96012E+01 -2.91467E+01 -3.03805E+01 -2.93508E+01 -3.08931E+01 -2.77387E+01 -2.83383E+01
  -2.80030E+01 -2.72637E+01 -2.79196E+01 -2.64562E+01 -2.13419E+01 -2.65486E+01 -2.22316E+01 -2.28677E+01 -2.29403E+01 -1.74276E+01
  -1.87763E+01 -1.86693E+01 -1.59362E+01 -1.37308E+01 -8.97606E+00 -9.04438E+00 -9.40739E+00 -6.04978E+00  7.78514E-01  1.45615E+01
   2.13995E+01  3.22995E+01  3.57280E+01  3.68117E+01  3.00855E+01  2.32667E+01  1.33357E+01  4.81507E+00  1.53384E+00 -7.00060E+00
  -1.33574E+01 -9.09516E+00 -1.41611E+01 -1.11223E+01 -1.52541E+01 -1.22172E+01 -1.53103E+01 -1.15572E+01 -1.01081E+01 -8.75588E+00
  -6.25622E+00  1.64341E+00  6.53451E+00  1.73252E+01  2.54657E+01  3.28201E+01  4.19169E+01  4.47324E+01  4.62243E+01  3.88105E+01
   3.07376E+01  1.78774E+01  4.82583E+00  4.31418E+00 -3.60722E+00 -7.22524E+00 -1.13617E+01 -1.27502E+01 -1.28201E+01 -1.46482E+01
  -9.50020E+00 -1.27832E+01 -1.06227E+01 -1.25490E+01 -7.27189E+00 -1.27745E+01 -6.42730E+00 -9.87300E+00 -7.49010E+00 -9.50699E+00
  -8.63790E+00 -1.16306E+01 -1.29860E+01 -1.02016E+01 -8.72358E+00 -8.17525E+00 -1.17365E+01 -1.11959E+01 -8.52046E+00 -1.04832E+01
  -6.40884E+00 -9.17094E+00 -1.29902E+01 -1.39336E+01 -1.24444E+01 -1.26937E+01 -9.22577E+00 -6.65185E+00 -1.60985E+01 -1.64095E+01
  -1.65638E+01 -1.85994E+01 -2.05316E+01 -2.27192E+01 -2.08877E+01 -2.03106E+01 -2.03674E+01 -2.13113E+01 -2.35598E+01 -2.20005E+01
  -1.77511E+01 -2.05557E+01 -1.93434E+01 -1.69119E+01 -1.53186E+01 -1.53921E+01 -1.19197E+01 -1.09309E+01 -1.01916E+01 -7.84822E+00
  -2.36383E+00  2.52415E+00  2.95000E+00  3.86022E+00  6.84400E+00 -2.66971E+00  1.55954E+00 -3.92393E+00 -4.66438E+00 -6.50077E+00
  -7.33672E-01 -1.46888E+00  2.64462E-03 -3.66117E+00  4.19096E-02  1.23682E+00 -9.96243E-01 -5.80084E-01 -7.77073E+00 -7.55663E+00
  -2.35242E+00  1.08543E+00 -1.82936E-01  2.54817E+00  6.30576E+00  1.19218E+01  1.04578E+01  1.06245E+01  1.03619E+01  3.70721E+00
   1.87801E+00 -3.67795E+00 -4.19475E+00 -5.27619E-01  6.24229E-01  1.95377E-01  4.88134E+00  6.61538E+00  8.14280E+00  1.28216E+01
   1.24650E+01  1.31067E+01  7.93378E+00  1.07510E+01  1.05176E+01  1.06360E+01  1.01515E+01  9.42348E+00  8.96498E+00  1.20000E+01
   7.04649E+00  8.28104E+00  6.53871E+00  6.55003E+00  1.06870E+01  1.01243E+01  1.92428E+01  1.73152E+01  2.22310E+01  2.24479E+01
   2.23881E+01  2.73860E+01  3.25725E+01  3.16216E+01  3.88240E+01  5.07757E+01  6.45776E+01  8.13653E+01  8.93781E+01  9.87868E+01
   1.09552E+02  1.20212E+02  1.12050E+02  9.50932E+01  7.61111E+01  5.16929E+01  3.80462E+01  3.18868E+01  2.38201E+01  2.11150E+01
   1.57768E+01  1.43126E+01  1.81003E+01  1.17503E+01  1.40077E+01  1.50053E+01  1.45353E+01  1.53571E+01  1.38902E+01  1.63626E+01
   1.38084E+01  1.39155E+01  1.21128E+01  1.22391E+01  1.24937E+01  1.22465E+01  8.76529E+00  5.69397E+00  6.50018E+00  9.99810E+00
   1.12366E+01  1.04236E+01  8.52605E+00  1.00424E+01  8.30739E+00  9.87069E+00  1.34033E+01  1.30957E+01  9.82314E+00  1.44266E+01
   1.10406E+01  1.25032E+01  1.46512E+01  1.64679E+01  1.48524E+01  1.59083E+01  1.36425E+01  1.74858E+01  1.03345E+01  1.50942E+01
   1.21892E+01  1.33532E+01  1.25125E+01  1.12987E+01  1.35878E+01  1.51351E+01  1.92169E+01  1.37638E+01  1.50130E+01  1.37069E+01
   1.68539E+01  1.72726E+01  1.45672E+01  1.80220E+01  1.69167E+01  1.64448E+01  1.63837E+01  1.12631E+01  1.35366E+01  1.28819E+01
   1.15730E+01  1.56290E+01  1.10347E+01  1.20279E+01  1.36158E+01  1.48899E+01  1.30671E+01  1.48859E+01  1.65365E+01  1.80080E+01
   1.85689E+01  1.78098E+01  1.28279E+01  1.55690E+01  1.51279E+01  1.18182E+01  1.42153E+01  1.90326E+01  1.96546E+01  1.79992E+01
   1.68333E+01  1.69478E+01  1.90210E+01  1.93488E+01  1.42796E+01  2.30043E+01  1.85503E+01  1.81747E+01  1.73175E+01  1.74720E+01
   1.38893E+01  1.47005E+01  1.96235E+01  1.61848E+01  1.57170E+01  1.89769E+01  1.85695E+01  1.65140E+01  1.65049E+01  1.53210E+01
   1.98801E+01  1.91827E+01  1.63202E+01  1.94797E+01  1.66393E+01  2.02193E+01  1.52663E+01  1.83107E+01  1.83705E+01  1.47879E+01
   1.62981E+01  1.71746E+01  2.04861E+01  1.51814E+01  1.74480E+01  1.65461E+01  1.45066E+01  1.98176E+01  1.74245E+01  1.68801E+01
   1.61705E+01  1.53965E+01  1.78879E+01  1.81446E+01  1.86189E+01  1.86815E+01  1.97406E+01  2.03003E+01  1.74788E+01  1.98960E+01
   2.03583E+01  1.74875E+01  2.14032E+01  1.98128E+01  1.34621E+01  1.49201E+01  1.55581E+01  1.48226E+01  1.94312E+01  1.88663E+01
   1.83530E+01  1.64740E+01  1.57244E+01  1.85591E+01  1.84296E+01  1.73329E+01  1.57020E+01  1.65679E+01  1.66190E+01  1.48951E+01
   1.64438E+01  1.71222E+01  1.69456E+01  1.49880E+01  1.53613E+01  1.46070E+01  1.72120E+01  1.47857E+01  1.46006E+01  1.57783E+01
   1.51136E+01  1.52978E+01  1.51620E+01  1.23202E+01  1.36714E+01  1.35182E+01  1.38613E+01  1.41206E+01  1.75969E+01  1.70567E+01
   1.32322E+01  1.53479E+01  1.57087E+01  1.21776E+01  1.64657E+01  1.70454E+01  1.69462E+01  1.46266E+01  1.84226E+01  1.38709E+01
   1.22860E+01  1.51972E+01  1.30676E+01  1.68777E+01  1.12827E+01  1.57073E+01  1.49043E+01  1.19756E+01  1.28663E+01  1.82115E+01
   1.58409E+01  1.77478E+01  1.09047E+01  1.60591E+01  1.73852E+01  1.73613E+01  1.40462E+01  2.02279E+01  1.95599E+01  1.53804E+01
   1.73829E+01  1.37924E+01  1.54043E+01  1.44789E+01  1.64386E+01  1.54358E+01  1.70796E+01  1.56315E+01  1.42152E+01  1.67733E+01
   1.39381E+01  1.46970E+01  1.19590E+01  1.45295E+01  1.10559E+01  1.45983E+01  1.49574E+01  1.72307E+01  1.26762E+01  1.72213E+01
   1.52939E+01  1.31505E+01  9.68613E+00  1.60620E+01  1.45404E+01  1.37969E+01  1.77051E+01  1.66331E+01
 NY points of the fit to the data follow
  -6.69549E+01 -6.59864E+01 -6.32329E+01 -5.93419E+01 -5.44540E+01 -4.88065E+01 -4.28090E+01 -3.66582E+01 -3.07925E+01 -2.63262E+01
  -2.46074E+01 -2.62428E+01 -3.06159E+01 -3.62446E+01 -4.15107E+01 -4.56884E+01 -4.91114E+01 -5.18288E+01 -5.32188E+01 -5.38286E+01
  -5.39001E+01 -5.37235E+01 -5.32217E+01 -5.19833E+01 -5.04100E+01 -4.85220E+01 -4.61931E+01 -4.34939E+01 -4.04719E+01 -3.73636E+01
  -3.46389E+01 -3.30092E+01 -3.29377E+01 -3.41443E+01 -3.59189E+01 -3.77301E+01 -3.95171E+01 -4.15590E+01 -4.33914E+01 -4.40103E+01
  -4.33540E+01 -4.16735E+01 -3.93587E+01 -3.67948E+01 -3.43006E+01 -3.21334E+01 -3.03085E+01 -2.91625E+01 -2.93076E+01 -3.08490E+01
  -3.31973E+01 -3.54598E+01 -3.70134E+01 -3.77433E+01 -3.77839E+01 -3.73264E+01 -3.64368E+01 -3.53022E+01 -3.41920E+01 -3.32995E+01
  -3.27596E+01 -3.26832E+01 -3.30271E+01 -3.35717E+01 -3.39285E+01 -3.38994E+01 -3.35133E+01 -3.28184E+01 -3.19190E+01 -3.09769E+01
  -3.00781E+01 -2.93311E+01 -2.88092E+01 -2.85401E+01 -2.84852E+01 -2.85278E+01 -2.85375E+01 -2.84434E+01 -2.82871E+01 -2.81667E+01
  -2.78458E+01 -2.70910E+01 -2.61863E+01 -2.52155E+01 -2.41649E+01 -2.30628E+01 -2.18589E+01 -2.05802E+01 -1.94902E+01 -1.89494E+01
  -1.91227E+01 -1.97757E+01 -2.04361E+01 -2.05086E+01 -1.89550E+01 -1.50396E+01 -9.81374E+00 -3.17078E+00  4.72539E+00  1.32594E+01
   2.21778E+01  3.05629E+01  3.62601E+01  3.71211E+01  3.26581E+01  2.42853E+01  1.44094E+01  5.32524E+00 -2.21331E+00 -8.64481E+00
  -1.33892E+01 -1.56485E+01 -1.67872E+01 -1.73142E+01 -1.73336E+01 -1.71743E+01 -1.69088E+01 -1.64872E+01 -1.56712E+01 -1.32419E+01
  -7.82042E+00 -9.15703E-01  6.89499E+00  1.55320E+01  2.45652E+01  3.37032E+01  4.20265E+01  4.70749E+01  4.62942E+01  3.94272E+01
   2.87511E+01  1.75565E+01  8.47640E+00  1.65500E+00 -4.34965E+00 -9.24676E+00 -1.15918E+01 -1.25029E+01 -1.25578E+01 -1.19307E+01
  -1.09636E+01 -1.00192E+01 -9.27889E+00 -8.89264E+00 -8.92922E+00 -9.23278E+00 -9.64422E+00 -1.00908E+01 -1.04951E+01 -1.08510E+01
  -1.11161E+01 -1.12789E+01 -1.13682E+01 -1.14116E+01 -1.14850E+01 -1.16030E+01 -1.16953E+01 -1.17527E+01 -1.17534E+01 -1.17922E+01
  -1.19994E+01 -1.22877E+01 -1.24876E+01 -1.24888E+01 -1.22785E+01 -1.20168E+01 -1.19807E+01 -1.23078E+01 -1.28864E+01 -1.35234E+01
  -1.41379E+01 -1.45873E+01 -1.48878E+01 -1.51540E+01 -1.54062E+01 -1.56698E+01 -1.58394E+01 -1.57342E+01 -1.53455E+01 -1.48312E+01
  -1.44739E+01 -1.43538E+01 -1.41768E+01 -1.36670E+01 -1.27055E+01 -1.14233E+01 -1.00623E+01 -8.55521E+00 -6.76407E+00 -4.74988E+00
  -2.89254E+00 -1.65483E+00 -1.16281E+00 -1.35472E+00 -1.96521E+00 -2.60897E+00 -3.07487E+00 -3.12462E+00 -2.59445E+00 -1.58076E+00
  -2.63123E-01  1.06968E+00  2.17763E+00  2.83765E+00  3.04154E+00  2.73697E+00  1.76862E+00  2.51756E-01 -1.31201E+00 -2.33664E+00
  -2.42810E+00 -1.76575E+00 -4.47959E-01  1.43394E+00  3.59434E+00  5.56039E+00  6.68125E+00  6.49231E+00  4.94106E+00  2.20621E+00
  -8.81792E-01 -3.39518E+00 -4.85243E+00 -5.00622E+00 -3.77203E+00 -1.21464E+00  2.16972E+00  5.30007E+00  7.55863E+00  8.91964E+00
   9.79020E+00  1.03529E+01  1.06013E+01  1.08525E+01  1.13506E+01  1.19139E+01  1.22098E+01  1.20759E+01  1.15725E+01  1.08249E+01
   9.93171E+00  9.20102E+00  9.03422E+00  9.60281E+00  1.08091E+01  1.24363E+01  1.42740E+01  1.59812E+01  1.74754E+01  1.91429E+01
   2.09214E+01  2.29492E+01  2.56968E+01  3.12185E+01  4.17169E+01  5.43384E+01  6.73815E+01  8.00748E+01  9.16986E+01  1.02292E+02
   1.11085E+02  1.14838E+02  1.09913E+02  9.58250E+01  7.63650E+01  5.72145E+01  4.22158E+01  3.13896E+01  2.23815E+01  1.56520E+01
   1.31781E+01  1.24782E+01  1.21912E+01  1.21170E+01  1.21809E+01  1.22415E+01  1.22544E+01  1.21977E+01  1.20787E+01  1.19424E+01
   1.18311E+01  1.17441E+01  1.16748E+01  1.16416E+01  1.16529E+01  1.16864E+01  1.17147E+01  1.17367E+01  1.17682E+01  1.18193E+01
   1.18856E+01  1.19719E+01  1.20829E+01  1.22114E+01  1.23412E+01  1.24634E+01  1.25773E+01  1.26876E+01  1.27975E+01  1.29079E+01
   1.30225E+01  1.31469E+01  1.32778E+01  1.34085E+01  1.35312E+01  1.36417E+01  1.37399E+01  1.38255E+01  1.38970E+01  1.39584E+01
   1.40127E+01  1.40617E+01  1.41084E+01  1.41566E+01  1.42100E+01  1.42730E+01  1.43513E+01  1.44529E+01  1.45913E+01  1.47951E+01
   1.51163E+01  1.54771E+01  1.57433E+01  1.59210E+01  1.59908E+01  1.59157E+01  1.56526E+01  1.51095E+01  1.43057E+01  1.34527E+01
   1.27271E+01  1.23442E+01  1.24289E+01  1.29359E+01  1.37374E+01  1.47452E+01  1.58835E+01  1.68795E+01  1.74440E+01  1.75791E+01
   1.74396E+01  1.72280E+01  1.70368E+01  1.68157E+01  1.66043E+01  1.65297E+01  1.65550E+01  1.66470E+01  1.67921E+01  1.69802E+01
   1.71988E+01  1.74316E+01  1.76586E+01  1.78581E+01  1.80089E+01  1.80941E+01  1.81040E+01  1.80379E+01  1.79040E+01  1.77177E+01
   1.74984E+01  1.72662E+01  1.70393E+01  1.68311E+01  1.66500E+01  1.64989E+01  1.63765E+01  1.62793E+01  1.62025E+01  1.61419E+01
   1.60939E+01  1.60561E+01  1.60271E+01  1.60069E+01  1.59960E+01  1.59958E+01  1.60077E+01  1.60332E+01  1.60737E+01  1.61306E+01
   1.62054E+01  1.62990E+01  1.64122E+01  1.65452E+01  1.66980E+01  1.68700E+01  1.70604E+01  1.72677E+01  1.74895E+01  1.77229E+01
   1.79644E+01  1.82100E+01  1.84552E+01  1.86948E+01  1.89234E+01  1.91354E+01  1.93253E+01  1.94879E+01  1.96187E+01  1.97136E+01
   1.97693E+01  1.97837E+01  1.97560E+01  1.96866E+01  1.95770E+01  1.94297E+01  1.92483E+01  1.90372E+01  1.88016E+01  1.85470E+01
   1.82789E+01  1.80028E+01  1.77238E+01  1.74470E+01  1.71767E+01  1.69164E+01  1.66692E+01  1.64370E+01  1.62217E+01  1.60240E+01
   1.58445E+01  1.56830E+01  1.55389E+01  1.54115E+01  1.52998E+01  1.52026E+01  1.51190E+01  1.50475E+01  1.49869E+01  1.49359E+01
   1.48936E+01  1.48591E+01  1.48313E+01  1.48094E+01  1.47926E+01  1.47802E+01  1.47717E+01  1.47667E+01  1.47646E+01  1.47650E+01
   1.47675E+01  1.47718E+01  1.47777E+01  1.47850E+01  1.47935E+01  1.48028E+01  1.48128E+01  1.48234E+01  1.48345E+01  1.48460E+01
   1.48577E+01  1.48694E+01  1.48811E+01  1.48928E+01  1.49045E+01  1.49160E+01  1.49273E+01  1.49384E+01  1.49493E+01  1.49600E+01
   1.49706E+01  1.49809E+01  1.49908E+01  1.50005E+01  1.50100E+01  1.50193E+01  1.50284E+01  1.50371E+01  1.50456E+01  1.50538E+01
   1.50618E+01  1.50697E+01  1.50773E+01  1.50847E+01  1.50918E+01  1.50988E+01  1.51057E+01  1.51124E+01  1.51190E+01  1.51253E+01
   1.51316E+01  1.51378E+01  1.51440E+01  1.51501E+01  1.51561E+01  1.51621E+01  1.51681E+01  1.51742E+01  1.51804E+01  1.51866E+01
   1.51929E+01  1.51993E+01  1.52060E+01  1.52130E+01  1.52203E+01  1.52278E+01  1.52356E+01  1.52440E+01
 NY background values follow
    -7.106E+01   -7.050E+01   -6.995E+01   -6.939E+01   -6.883E+01   -6.827E+01   -6.772E+01   -6.716E+01   -6.660E+01   -6.605E+01
    -6.549E+01   -6.494E+01   -6.438E+01   -6.383E+01   -6.328E+01   -6.273E+01   -6.217E+01   -6.162E+01   -6.107E+01   -6.052E+01
    -5.998E+01   -5.943E+01   -5.888E+01   -5.834E+01   -5.780E+01   -5.726E+01   -5.671E+01   -5.618E+01   -5.564E+01   -5.510E+01
    -5.457E+01   -5.403E+01   -5.350E+01   -5.297E+01   -5.244E+01   -5.192E+01   -5.139E+01   -5.087E+01   -5.035E+01   -4.983E+01
    -4.932E+01   -4.880E+01   -4.829E+01   -4.778E+01   -4.727E+01   -4.677E+01   -4.627E+01   -4.577E+01   -4.527E+01   -4.477E+01
    -4.428E+01   -4.379E+01   -4.330E+01   -4.282E+01   -4.234E+01   -4.186E+01   -4.138E+01   -4.091E+01   -4.044E+01   -3.997E+01
    -3.950E+01   -3.904E+01   -3.858E+01   -3.813E+01   -3.767E+01   -3.722E+01   -3.677E+01   -3.633E+01   -3.589E+01   -3.545E+01
    -3.502E+01   -3.459E+01   -3.416E+01   -3.373E+01   -3.331E+01   -3.290E+01   -3.248E+01   -3.207E+01   -3.166E+01   -3.126E+01
    -3.086E+01   -3.046E+01   -3.007E+01   -2.968E+01   -2.930E+01   -2.892E+01   -2.854E+01   -2.816E+01   -2.779E+01   -2.743E+01
    -2.706E+01   -2.671E+01   -2.635E+01   -2.600E+01   -2.566E+01   -2.531E+01   -2.497E+01   -2.464E+01   -2.431E+01   -2.398E+01
    -2.366E+01   -2.334E+01   -2.303E+01   -2.272E+01   -2.241E+01   -2.211E+01   -2.181E+01   -2.152E+01   -2.123E+01   -2.094E+01
    -2.066E+01   -2.038E+01   -2.010E+01   -1.983E+01   -1.957E+01   -1.931E+01   -1.905E+01   -1.879E+01   -1.854E+01   -1.830E+01
    -1.806E+01   -1.782E+01   -1.758E+01   -1.736E+01   -1.713E+01   -1.691E+01   -1.669E+01   -1.648E+01   -1.627E+01   -1.606E+01
    -1.586E+01   -1.566E+01   -1.547E+01   -1.528E+01   -1.510E+01   -1.492E+01   -1.474E+01   -1.457E+01   -1.440E+01   -1.424E+01
    -1.407E+01   -1.392E+01   -1.376E+01   -1.361E+01   -1.346E+01   -1.331E+01   -1.317E+01   -1.303E+01   -1.289E+01   -1.275E+01
    -1.261E+01   -1.248E+01   -1.234E+01   -1.221E+01   -1.208E+01   -1.195E+01   -1.182E+01   -1.169E+01   -1.156E+01   -1.143E+01
    -1.130E+01   -1.117E+01   -1.104E+01   -1.091E+01   -1.078E+01   -1.064E+01   -1.051E+01   -1.038E+01   -1.024E+01   -1.010E+01
    -9.960E+00   -9.818E+00   -9.673E+00   -9.526E+00   -9.376E+00   -9.224E+00   -9.068E+00   -8.909E+00   -8.747E+00   -8.582E+00
    -8.413E+00   -8.240E+00   -8.063E+00   -7.882E+00   -7.697E+00   -7.509E+00   -7.318E+00   -7.123E+00   -6.925E+00   -6.724E+00
    -6.520E+00   -6.314E+00   -6.105E+00   -5.893E+00   -5.680E+00   -5.463E+00   -5.245E+00   -5.026E+00   -4.804E+00   -4.580E+00
    -4.356E+00   -4.129E+00   -3.902E+00   -3.674E+00   -3.444E+00   -3.214E+00   -2.983E+00   -2.752E+00   -2.520E+00   -2.288E+00
    -2.056E+00   -1.824E+00   -1.592E+00   -1.360E+00   -1.129E+00   -8.986E-01   -6.687E-01   -4.397E-01   -2.117E-01    1.525E-02
     2.409E-01    4.651E-01    6.878E-01    9.089E-01    1.128E+00    1.345E+00    1.561E+00    1.773E+00    1.984E+00    2.193E+00
     2.399E+00    2.603E+00    2.805E+00    3.004E+00    3.202E+00    3.397E+00    3.589E+00    3.780E+00    3.968E+00    4.154E+00
     4.337E+00    4.518E+00    4.697E+00    4.874E+00    5.048E+00    5.220E+00    5.389E+00    5.556E+00    5.721E+00    5.884E+00
     6.044E+00    6.201E+00    6.356E+00    6.509E+00    6.660E+00    6.808E+00    6.953E+00    7.096E+00    7.237E+00    7.375E+00
     7.511E+00    7.644E+00    7.775E+00    7.904E+00    8.030E+00    8.153E+00    8.274E+00    8.392E+00    8.508E+00    8.622E+00
     8.733E+00    8.841E+00    8.947E+00    9.050E+00    9.151E+00    9.249E+00    9.346E+00    9.439E+00    9.531E+00    9.621E+00
     9.708E+00    9.793E+00    9.876E+00    9.958E+00    1.004E+01    1.011E+01    1.019E+01    1.026E+01    1.034E+01    1.041E+01
     1.048E+01    1.054E+01    1.061E+01    1.067E+01    1.074E+01    1.080E+01    1.086E+01    1.092E+01    1.097E+01    1.103E+01
     1.109E+01    1.114E+01    1.120E+01    1.125E+01    1.130E+01    1.135E+01    1.140E+01    1.145E+01    1.150E+01    1.155E+01
     1.159E+01    1.164E+01    1.169E+01    1.173E+01    1.178E+01    1.183E+01    1.187E+01    1.192E+01    1.196E+01    1.201E+01
     1.205E+01    1.209E+01    1.214E+01    1.218E+01    1.222E+01    1.227E+01    1.231E+01    1.235E+01    1.239E+01    1.244E+01
     1.248E+01    1.252E+01    1.256E+01    1.260E+01    1.264E+01    1.268E+01    1.271E+01    1.275E+01    1.279E+01    1.283E+01
     1.286E+01    1.290E+01    1.294E+01    1.297E+01    1.301E+01    1.304E+01    1.307E+01    1.311E+01    1.314E+01    1.317E+01
     1.320E+01    1.323E+01    1.326E+01    1.329E+01    1.332E+01    1.334E+01    1.337E+01    1.340E+01    1.342E+01    1.345E+01
     1.347E+01    1.349E+01    1.351E+01    1.354E+01    1.356E+01    1.358E+01    1.359E+01    1.361E+01    1.363E+01    1.365E+01
     1.366E+01    1.368E+01    1.370E+01    1.371E+01    1.372E+01    1.374E+01    1.375E+01    1.377E+01    1.378E+01    1.379E+01
     1.381E+01    1.382E+01    1.383E+01    1.384E+01    1.385E+01    1.387E+01    1.388E+01    1.389E+01    1.390E+01    1.392E+01
     1.393E+01    1.394E+01    1.395E+01    1.397E+01    1.398E+01    1.399E+01    1.401E+01    1.402E+01    1.404E+01    1.405E+01
     1.407E+01    1.408E+01    1.410E+01    1.411E+01    1.413E+01    1.415E+01    1.417E+01    1.419E+01    1.421E+01    1.423E+01
     1.425E+01    1.427E+01    1.430E+01    1.432E+01    1.434E+01    1.437E+01    1.439E+01    1.442E+01    1.444E+01    1.447E+01
     1.449E+01    1.452E+01    1.455E+01    1.457E+01    1.460E+01    1.463E+01    1.466E+01    1.468E+01    1.471E+01    1.474E+01
     1.477E+01    1.479E+01    1.482E+01    1.485E+01    1.488E+01    1.490E+01    1.493E+01    1.496E+01    1.498E+01    1.501E+01
     1.504E+01    1.506E+01    1.509E+01    1.511E+01    1.514E+01    1.516E+01    1.518E+01    1.521E+01    1.523E+01    1.525E+01
     1.527E+01    1.529E+01    1.531E+01    1.533E+01    1.535E+01    1.537E+01    1.539E+01    1.540E+01    1.542E+01    1.543E+01
     1.545E+01    1.546E+01    1.548E+01    1.549E+01    1.550E+01    1.551E+01    1.552E+01    1.554E+01    1.555E+01    1.556E+01
     1.557E+01    1.558E+01    1.558E+01    1.559E+01    1.560E+01    1.561E+01    1.562E+01    1.562E+01    1.563E+01    1.564E+01
     1.564E+01    1.565E+01    1.565E+01    1.566E+01    1.566E+01    1.567E+01    1.567E+01    1.568E+01    1.568E+01    1.569E+01
     1.569E+01    1.569E+01    1.570E+01    1.570E+01    1.571E+01    1.571E+01    1.571E+01    1.572E+01
 Ala      Conc. = 2.57E+02
