 LCModel (Version 6.3-1L) Copyright: S.W. Provencher.          Ref.: Magn. Reson. Med. 30:672-679 (1993).                
 Slice#1 Row#14 Col#13  K_02_press_1_raw_act
 36 lines in following concentration table = NCONC+1
    Conc.  %SD /Cr+PCr  Metabolite                                         
   60.359  68%   3.158 Ala                                                 
    3.022 170%   0.158 Asp                                                 
    0.000 999%   0.000 Cr                                                  
   19.112  82%   1.000 PCr                                                 
    1.700 182% 8.9E-02 GABA                                                
    1.840 168% 9.6E-02 Glc                                                 
   72.767 115%   3.807 Gln                                                 
    0.000 999%   0.000 Glu                                                 
   14.329  42%   0.750 GPC                                                 
    0.000 999%   0.000 PCh                                                 
   16.727 142%   0.875 GSH                                                 
  114.104  60%   5.970 Ins                                                 
    0.000 999%   0.000 Lac                                                 
    0.000 999%   0.000 NAA                                                 
    0.000 999%   0.000 NAAG                                                
    0.622 166% 3.3E-02 Scyllo                                              
    2.872 178%   0.150 Tau                                                 
    0.993 717% 5.2E-02 -CrCH2                                              
   14.329  42%   0.750 GPC+PCh                                             
    0.000 999%   0.000 NAA+NAAG                                            
   19.112  82%   1.000 Cr+PCr                                              
   72.767 115%   3.807 Glu+Gln                                             
  962.125  13%  50.341 Lip13a                                              
    0.000 999%   0.000 Lip13b                                              
  270.540  21%  14.155 Lip09                                               
  201.705  21%  10.554 MM09                                                
   60.762  69%   3.179 Lip20                                               
  302.468  21%  15.826 MM20                                                
   60.511  21%   3.166 MM12                                                
  151.430  21%   7.923 MM14                                                
   75.714  21%   3.962 MM17                                                
  962.125  13%  50.341 Lip13a+Lip13b                                       
 1.17E+03   9%  61.431 MM14+Lip13a+Lip13b+MM12                             
  472.244  10%  24.709 MM09+Lip09                                          
  363.229  16%  19.005 MM20+Lip20                                          
   6 lines in following misc. output table
  FWHM = 0.069 ppm    S/N =   1                                            
  Data shift = 0.107 ppm                                                   
  Ph: -79 deg      10.9 deg/ppm                                            
  alphaB,S = 8.5E+01,   6.3E+01                                            
   14 spline knots.   Ns = 6(1)                                            
  (13) 2 infls.   (13) 1 extrs.                                            
  498 points on ppm-axis = NY
      4.000000     3.992357     3.984714     3.977070     3.969427     3.961784     3.954141     3.946497     3.938854     3.931211
      3.923568     3.915925     3.908281     3.900638     3.892995     3.885352     3.877708     3.870065     3.862422     3.854779
      3.847136     3.839492     3.831849     3.824206     3.816563     3.808919     3.801276     3.793633     3.785990     3.778347
      3.770703     3.763060     3.755417     3.747774     3.740130     3.732487     3.724844     3.717201     3.709558     3.701914
      3.694271     3.686628     3.678985     3.671341     3.663698     3.656055     3.648412     3.640769     3.633125     3.625482
      3.617839     3.610196     3.602552     3.594909     3.587266     3.579623     3.571980     3.564336     3.556693     3.549050
      3.541407     3.533763     3.526120     3.518477     3.510834     3.503191     3.495547     3.487904     3.480261     3.472618
      3.464974     3.457331     3.449688     3.442045     3.434402     3.426758     3.419115     3.411472     3.403829     3.396185
      3.388542     3.380899     3.373256     3.365613     3.357969     3.350326     3.342683     3.335040     3.327396     3.319753
      3.312110     3.304467     3.296824     3.289180     3.281537     3.273894     3.266251     3.258607     3.250964     3.243321
      3.235678     3.228034     3.220391     3.212748     3.205105     3.197462     3.189818     3.182175     3.174532     3.166889
      3.159245     3.151602     3.143959     3.136316     3.128673     3.121029     3.113386     3.105743     3.098100     3.090456
      3.082813     3.075170     3.067527     3.059884     3.052240     3.044597     3.036954     3.029311     3.021667     3.014024
      3.006381     2.998738     2.991095     2.983451     2.975808     2.968165     2.960522     2.952878     2.945235     2.937592
      2.929949     2.922306     2.914662     2.907019     2.899376     2.891733     2.884089     2.876446     2.868803     2.861160
      2.853517     2.845873     2.838230     2.830587     2.822944     2.815300     2.807657     2.800014     2.792371     2.784728
      2.777084     2.769441     2.761798     2.754155     2.746511     2.738868     2.731225     2.723582     2.715939     2.708295
      2.700652     2.693009     2.685366     2.677722     2.670079     2.662436     2.654793     2.647150     2.639506     2.631863
      2.624220     2.616577     2.608933     2.601290     2.593647     2.586004     2.578361     2.570717     2.563074     2.555431
      2.547788     2.540144     2.532501     2.524858     2.517215     2.509572     2.501928     2.494285     2.486642     2.478999
      2.471355     2.463712     2.456069     2.448426     2.440783     2.433139     2.425496     2.417853     2.410210     2.402566
      2.394923     2.387280     2.379637     2.371994     2.364350     2.356707     2.349064     2.341421     2.333777     2.326134
      2.318491     2.310848     2.303205     2.295561     2.287918     2.280275     2.272632     2.264988     2.257345     2.249702
      2.242059     2.234416     2.226772     2.219129     2.211486     2.203843     2.196199     2.188556     2.180913     2.173270
      2.165627     2.157983     2.150340     2.142697     2.135054     2.127410     2.119767     2.112124     2.104481     2.096838
      2.089194     2.081551     2.073908     2.066265     2.058621     2.050978     2.043335     2.035692     2.028049     2.020405
      2.012762     2.005119     1.997476     1.989833     1.982190     1.974546     1.966903     1.959260     1.951617     1.943974
      1.936331     1.928688     1.921045     1.913402     1.905759     1.898115     1.890472     1.882829     1.875186     1.867543
      1.859900     1.852257     1.844614     1.836971     1.829327     1.821684     1.814041     1.806398     1.798755     1.791112
      1.783469     1.775826     1.768183     1.760540     1.752896     1.745253     1.737610     1.729967     1.722324     1.714681
      1.707038     1.699395     1.691752     1.684108     1.676465     1.668822     1.661179     1.653536     1.645893     1.638250
      1.630607     1.622964     1.615321     1.607677     1.600034     1.592391     1.584748     1.577105     1.569462     1.561819
      1.554176     1.546533     1.538890     1.531246     1.523603     1.515960     1.508317     1.500674     1.493031     1.485388
      1.477745     1.470102     1.462458     1.454815     1.447172     1.439529     1.431886     1.424243     1.416600     1.408957
      1.401314     1.393671     1.386027     1.378384     1.370741     1.363098     1.355455     1.347812     1.340169     1.332526
      1.324883     1.317240     1.309596     1.301953     1.294310     1.286667     1.279024     1.271381     1.263738     1.256095
      1.248452     1.240808     1.233165     1.225522     1.217879     1.210236     1.202593     1.194950     1.187307     1.179664
      1.172021     1.164377     1.156734     1.149091     1.141448     1.133805     1.126162     1.118519     1.110876     1.103233
      1.095590     1.087946     1.080303     1.072660     1.065017     1.057374     1.049731     1.042088     1.034445     1.026802
      1.019158     1.011515     1.003872     0.996229     0.988586     0.980943     0.973300     0.965657     0.958014     0.950371
      0.942727     0.935084     0.927441     0.919798     0.912155     0.904512     0.896869     0.889226     0.881583     0.873940
      0.866296     0.858653     0.851010     0.843367     0.835724     0.828081     0.820438     0.812795     0.805152     0.797508
      0.789865     0.782222     0.774579     0.766936     0.759293     0.751650     0.744007     0.736364     0.728721     0.721077
      0.713434     0.705791     0.698148     0.690505     0.682862     0.675219     0.667576     0.659933     0.652290     0.644646
      0.637003     0.629360     0.621717     0.614074     0.606431     0.598788     0.591145     0.583502     0.575858     0.568215
      0.560572     0.552929     0.545286     0.537643     0.530000     0.522357     0.514714     0.507071     0.499427     0.491784
      0.484141     0.476498     0.468855     0.461212     0.453569     0.445925     0.438282     0.430639     0.422996     0.415353
      0.407710     0.400067     0.392424     0.384780     0.377137     0.369494     0.361851     0.354208     0.346565     0.338922
      0.331278     0.323635     0.315992     0.308349     0.300706     0.293063     0.285420     0.277777     0.270133     0.262490
      0.254847     0.247204     0.239561     0.231918     0.224275     0.216631     0.208988     0.201345
 NY phased data points follow
   6.79780E-01  1.58924E+00  2.99386E+00  9.06592E-01  1.81570E+00  5.29259E-01  8.30816E-01  8.55565E-01  1.91543E+00  1.46825E+00
  -1.82151E-01  1.46218E-01  5.82122E-01  9.03259E-01  1.00295E+00  2.20771E+00  1.33008E+00  8.42608E-01 -7.57954E-01  1.20446E+00
   1.57993E-01  2.86635E-01  3.93788E-01  1.02526E+00  3.91729E-01  3.68496E-01  2.25085E+00  1.68801E+00 -4.50244E-01  1.39785E+00
   1.21954E+00  7.08983E-01  5.60062E-01  1.25888E+00  5.01172E-01  1.51193E+00  2.56203E+00  1.21589E+00  1.38564E+00 -7.06536E-01
   3.53573E-01  8.83226E-01  1.60862E-01  8.09286E-01  1.24257E+00 -1.34885E-01  3.74126E-01 -1.84549E-01  8.07962E-01 -7.13900E-01
  -3.54202E-01  1.01217E+00  1.15219E-01  4.80060E-01 -2.00698E+00 -3.90985E-01 -1.07492E-01  4.08615E-01  1.07239E+00 -8.69059E-01
   8.39140E-01 -4.67457E-02  2.05091E-01  2.87034E+00 -1.22228E+00  6.96134E-01  5.56088E-01  1.49035E+00  9.88623E-01  1.27505E+00
   1.11915E+00 -5.12576E-01 -1.05967E+00 -3.79712E-01  1.64084E+00  2.21486E+00  3.95109E-01 -4.69315E-01  1.80762E-01  1.51801E+00
  -1.16357E+00  2.11375E-01  1.57422E+00  8.53705E-01 -5.59916E-02  1.44846E+00  3.01605E-01 -4.88643E-01 -2.63623E-01  2.00857E+00
   8.27919E-01  1.40599E+00  4.22522E-01  1.19269E-01  9.08450E-01  1.14599E+00  9.68127E-01  1.92779E+00  9.53337E-01  1.56921E+00
   1.68734E+00  2.22658E+00  1.27890E+00  1.18493E+00  1.01364E-02 -2.10028E-01 -2.86740E-01  1.75832E+00  1.26177E+00 -4.94451E-01
  -2.54770E-02  7.87951E-01 -1.15942E+00  3.21860E-01 -3.87372E-01  2.03374E+00  2.59979E+00  2.10550E-01  1.02481E+00  1.41866E+00
   2.09918E+00  1.45772E-01  1.53143E+00  6.30154E-01  4.52708E-01  1.01926E+00  1.79439E+00  1.30670E-01  7.57372E-01 -4.83405E-01
  -1.57675E-01  1.20410E+00  2.16392E+00  1.13895E+00  3.43445E-01  7.67420E-01  1.15161E+00  7.47500E-01  2.19630E+00 -6.50125E-01
   5.12309E-01  9.41408E-01  9.72053E-01  1.12702E+00  2.19700E+00  2.09552E+00 -4.46295E-01  4.15572E-01 -3.58187E-01  1.21863E+00
   8.29417E-01 -6.42351E-01  1.76084E-01  2.45556E-01  1.53424E-01  6.44082E-01  9.42520E-01  4.80244E-01 -7.51333E-01 -8.88090E-01
  -9.64449E-01  3.80524E-01 -4.36639E-01 -1.38530E-01  2.25359E+00  9.64334E-01  1.16744E+00  3.42693E-01  7.78411E-01  1.94910E+00
   2.86497E-01  5.76450E-01  1.31393E+00  1.14267E+00  2.97357E-01  1.33510E+00  1.43376E+00  5.44010E-01  6.92592E-01  2.79195E-01
   2.75621E-01  9.88283E-01  1.04724E+00  3.64469E-01 -1.11772E-01 -9.03802E-01 -5.59184E-02  1.18551E+00 -7.88239E-01 -3.45341E-01
   4.72901E-01 -4.29498E-01  4.63652E-01  8.20674E-01 -6.66116E-02  1.90646E+00  8.23605E-01  1.22355E+00  7.75767E-02  5.32377E-01
   3.03587E-01 -5.05060E-01  8.62629E-01  2.66443E-01  6.49964E-01 -1.63499E-02  1.28758E+00  5.12488E-01  6.49523E-01  1.26789E+00
  -1.68500E-02  7.70224E-01  1.20684E+00  2.66122E-01  1.47970E+00  1.23335E+00  1.94912E-02  7.52073E-01  9.25533E-01  1.33588E+00
   2.84361E-01  1.75067E+00  5.76201E-01  1.06973E+00  1.53825E+00  1.42881E+00  1.22251E+00  3.11911E-01 -1.05313E+00  1.40405E+00
   9.61103E-01  4.22834E-01  1.87915E-01  6.63782E-02  1.84262E+00  3.88374E-01  4.67175E-01  1.16362E+00  1.05898E+00  3.09071E-01
   2.25195E+00  6.84951E-01  1.66506E-01 -1.56031E-02 -3.25345E-01 -6.18432E-01 -3.00004E-01  4.21087E-01  4.36968E-01  4.30144E-01
   1.05917E+00  2.98057E-01  1.28379E+00 -2.24894E-01 -5.43894E-02  1.43667E+00  2.22286E+00  2.26643E+00  1.92510E+00  2.04207E+00
   1.38707E+00  1.19255E-01  1.01221E+00 -1.55755E+00  3.15915E-01  1.85277E-02  9.11866E-01  6.26609E-01  3.24738E-01  5.78579E-01
  -1.71452E+00  1.63270E+00  9.53698E-01  1.05834E+00  7.37376E-01 -4.63777E-01  1.59089E-01 -5.57018E-02  1.16128E+00  1.94418E-01
   5.35364E-01  3.04102E-01 -2.80453E-01  2.02087E+00  5.58785E-01  5.16097E-01  4.14828E-01  1.31562E+00  3.25587E-01  2.28623E+00
   2.53194E+00  1.72992E+00  3.44751E+00  2.78945E+00  2.62147E+00  3.20632E+00  3.01263E+00  5.75841E+00  4.05478E+00  5.99365E+00
   3.59022E+00  5.51532E+00  6.75463E+00  6.17668E+00  5.49271E+00  5.67512E+00  5.76640E+00  5.41409E+00  3.57135E+00  3.67932E+00
   2.40003E+00  2.64400E+00  2.79990E-01  2.40538E+00  4.05234E+00  1.06910E+00  4.10420E+00  3.01040E+00  5.92248E+00  5.40596E+00
   4.94420E+00  4.64669E+00  4.00430E+00  5.30525E+00  3.19448E+00  4.61217E+00  3.58066E+00  3.71866E+00  2.83289E+00  3.50429E+00
   4.02034E+00  3.92090E+00  2.78931E+00  2.11929E+00  2.92242E+00  3.36019E+00  4.04051E+00  1.94417E+00  3.37593E+00  2.79007E+00
   2.96312E+00  1.67471E+00  4.06791E+00  2.76969E+00  9.48403E-01  1.82140E+00  2.12493E+00  2.99596E+00  3.25145E+00  2.46938E+00
   2.49953E+00  1.03819E+00  3.21467E+00  1.32634E+00  3.09760E+00  3.33939E+00  1.33248E+00  1.15799E+00  9.62182E-01  2.33967E+00
  -1.29758E-01  6.85867E-01  1.84322E+00  2.47507E+00  1.09089E+00  5.98508E-01  3.07741E+00  2.42510E+00  2.17002E+00  1.49313E+00
   1.52215E+00  3.22802E+00  1.44991E+00  2.13079E+00  1.76221E+00  3.41650E+00  1.94219E+00  3.14447E+00  3.39160E+00  2.19189E+00
   9.25674E-01  2.21398E+00  1.61878E+00  1.38221E+00  3.54629E+00  2.42296E+00  2.06276E+00  3.17768E+00  3.47979E+00  2.76112E+00
   9.61049E-01  1.86079E+00  8.35307E-01  3.02377E+00  2.94451E+00  2.08781E+00  6.71233E-01  1.56448E+00  2.74160E+00  1.14499E+00
   1.48213E+00 -7.66091E-03  5.16097E-01  3.74505E-01  2.08031E+00  1.87903E+00  1.29975E+00  1.20335E+00 -1.37204E+00  7.84244E-01
   1.14621E-01  7.31022E-01  6.62780E-01  1.56573E+00  1.83863E+00 -8.86922E-01  2.27459E+00 -4.50249E-02  9.67047E-02  1.43154E+00
   1.38474E+00  3.57191E-01  5.46667E-01  1.51522E+00 -7.86963E-01 -7.71457E-01 -5.46981E-02  3.23319E-01 -7.66043E-03  6.41128E-01
   1.07850E+00 -6.62780E-01 -2.13695E-01  4.67827E-01  2.15107E+00  3.75016E-01 -7.92624E-01 -6.30587E-01  1.30620E+00  5.71104E-03
   4.27304E-01  4.89783E-01 -1.39338E-02 -3.79039E-01  1.94712E+00  7.92587E-01  1.32603E-01  6.42788E-01  1.09050E+00  4.35935E-01
   1.24491E+00  1.76476E+00  3.66495E-01  1.77705E+00  2.10700E-01  1.15987E+00 -1.88797E-01  5.42346E-01  1.74646E+00  6.62167E-01
  -5.41409E-02  1.51416E-01  3.97496E-02 -1.08127E+00  1.69112E-01  1.04553E+00  5.39858E-01  5.51782E-02 -5.65661E-01  2.60590E-01
   4.43436E-02 -1.13748E+00  1.07157E+00  1.81673E+00 -7.26867E-02  6.82079E-01  1.10469E+00  7.87565E-02 -3.94828E-01  3.35450E-01
   9.64029E-01  1.61084E+00 -1.12038E+00 -7.61387E-01  1.45957E-01  8.70598E-01 -1.96731E-02  6.77552E-02  4.10532E-01 -8.63540E-01
  -4.35942E-01  1.35332E+00 -1.31318E+00 -9.05774E-01  6.25647E-02 -4.75808E-01 -1.45533E+00 -7.69156E-01
 NY points of the fit to the data follow
   7.22363E-01  7.84823E-01  8.54918E-01  9.27499E-01  9.70290E-01  9.73503E-01  9.46763E-01  8.99456E-01  8.39735E-01  7.76233E-01
   7.17106E-01  6.66862E-01  6.28984E-01  6.09612E-01  6.13762E-01  6.46880E-01  7.07047E-01  7.70734E-01  8.15246E-01  8.37433E-01
   8.28854E-01  8.06960E-01  7.95558E-01  8.11911E-01  8.53244E-01  8.97082E-01  9.39137E-01  9.73185E-01  9.85863E-01  9.72051E-01
   9.38911E-01  8.98078E-01  8.52046E-01  7.85563E-01  6.90774E-01  6.03635E-01  5.55624E-01  5.59630E-01  6.04461E-01  6.75988E-01
   7.82946E-01  9.07736E-01  1.00221E+00  1.02770E+00  9.84872E-01  8.95984E-01  7.78105E-01  6.40494E-01  4.99885E-01  3.83904E-01
   3.07673E-01  2.67324E-01  2.63285E-01  3.10914E-01  4.13239E-01  5.41855E-01  6.40042E-01  6.77303E-01  6.65691E-01  6.28104E-01
   5.82811E-01  5.43751E-01  5.18549E-01  5.09922E-01  5.13968E-01  5.31202E-01  5.63846E-01  6.05121E-01  6.40290E-01  6.60933E-01
   6.61188E-01  6.41698E-01  6.09533E-01  5.73022E-01  5.40547E-01  5.16604E-01  4.99898E-01  4.89645E-01  4.84972E-01  4.87967E-01
   4.89137E-01  4.80171E-01  4.68251E-01  4.65978E-01  4.81453E-01  5.16558E-01  5.70106E-01  6.39059E-01  7.17933E-01  7.99494E-01
   8.78149E-01  9.46427E-01  1.00344E+00  1.05158E+00  1.09382E+00  1.14316E+00  1.22980E+00  1.34977E+00  1.42035E+00  1.40939E+00
   1.32513E+00  1.18622E+00  1.00913E+00  8.10666E-01  6.12149E-01  4.29133E-01  2.72043E-01  1.45315E-01  6.27143E-02  5.43766E-02
   1.43339E-01  2.85647E-01  3.92674E-01  4.67447E-01  5.25311E-01  5.74503E-01  6.19980E-01  6.65426E-01  7.15231E-01  7.75522E-01
   8.55137E-01  9.36279E-01  9.80987E-01  9.79837E-01  9.39423E-01  8.69196E-01  7.77877E-01  6.74839E-01  5.67578E-01  4.61265E-01
   3.61252E-01  2.73850E-01  2.12132E-01  1.96120E-01  2.33788E-01  2.95385E-01  3.45254E-01  3.83728E-01  4.14083E-01  4.38859E-01
   4.60384E-01  4.78059E-01  4.86848E-01  4.84463E-01  4.74892E-01  4.62155E-01  4.50629E-01  4.44849E-01  4.45181E-01  4.51307E-01
   4.60584E-01  4.70468E-01  4.80583E-01  4.90666E-01  5.00570E-01  5.10326E-01  5.20182E-01  5.29882E-01  5.38901E-01  5.47468E-01
   5.55947E-01  5.64535E-01  5.73125E-01  5.81989E-01  5.91500E-01  6.01204E-01  6.10736E-01  6.19876E-01  6.28502E-01  6.36555E-01
   6.43977E-01  6.50875E-01  6.57449E-01  6.64206E-01  6.71763E-01  6.80493E-01  6.90254E-01  7.01051E-01  7.12779E-01  7.24688E-01
   7.37644E-01  7.52518E-01  7.69350E-01  7.88526E-01  8.10427E-01  8.33439E-01  8.53652E-01  8.65795E-01  8.67446E-01  8.61227E-01
   8.48254E-01  8.34921E-01  8.30841E-01  8.45214E-01  8.82937E-01  9.44964E-01  1.02352E+00  1.10556E+00  1.18062E+00  1.24116E+00
   1.27403E+00  1.26994E+00  1.22843E+00  1.15262E+00  1.05575E+00  9.82282E-01  9.56195E-01  9.77907E-01  1.04089E+00  1.13840E+00
   1.25426E+00  1.36965E+00  1.47426E+00  1.56418E+00  1.63183E+00  1.67193E+00  1.67761E+00  1.64663E+00  1.59945E+00  1.57042E+00
   1.55821E+00  1.55177E+00  1.54795E+00  1.54577E+00  1.54321E+00  1.53834E+00  1.53286E+00  1.53135E+00  1.53404E+00  1.53565E+00
   1.53764E+00  1.55668E+00  1.59591E+00  1.64658E+00  1.70282E+00  1.75862E+00  1.79602E+00  1.80398E+00  1.78531E+00  1.74836E+00
   1.70592E+00  1.66859E+00  1.63617E+00  1.60548E+00  1.58813E+00  1.59991E+00  1.63043E+00  1.66741E+00  1.70583E+00  1.73369E+00
   1.73027E+00  1.69487E+00  1.63886E+00  1.56913E+00  1.49385E+00  1.41952E+00  1.34956E+00  1.28733E+00  1.23840E+00  1.20259E+00
   1.17470E+00  1.15174E+00  1.13192E+00  1.11345E+00  1.09476E+00  1.07648E+00  1.05896E+00  1.04270E+00  1.03046E+00  1.02263E+00
   1.01896E+00  1.01918E+00  1.02290E+00  1.02981E+00  1.03958E+00  1.05202E+00  1.06692E+00  1.08412E+00  1.10375E+00  1.12611E+00
   1.15126E+00  1.17915E+00  1.20973E+00  1.24310E+00  1.27929E+00  1.31807E+00  1.35926E+00  1.40293E+00  1.44913E+00  1.49787E+00
   1.54922E+00  1.60330E+00  1.66018E+00  1.71991E+00  1.78229E+00  1.84698E+00  1.91354E+00  1.98141E+00  2.04985E+00  2.11798E+00
   2.18494E+00  2.24980E+00  2.31165E+00  2.36971E+00  2.42339E+00  2.47231E+00  2.51641E+00  2.55590E+00  2.59135E+00  2.62363E+00
   2.65389E+00  2.68348E+00  2.71386E+00  2.74655E+00  2.78300E+00  2.82454E+00  2.87236E+00  2.92755E+00  2.99138E+00  3.06575E+00
   3.15380E+00  3.24454E+00  3.27899E+00  3.23510E+00  3.13303E+00  2.99755E+00  2.84765E+00  2.70016E+00  2.58363E+00  2.55789E+00
   2.63301E+00  2.76639E+00  2.92714E+00  3.10759E+00  3.30181E+00  3.47050E+00  3.54582E+00  3.53497E+00  3.47218E+00  3.37117E+00
   3.23367E+00  3.06828E+00  2.91158E+00  2.81851E+00  2.77695E+00  2.74959E+00  2.72597E+00  2.70264E+00  2.67771E+00  2.64987E+00
   2.61818E+00  2.58196E+00  2.54079E+00  2.49450E+00  2.44313E+00  2.38694E+00  2.32640E+00  2.26212E+00  2.19487E+00  2.12551E+00
   2.05499E+00  1.98433E+00  1.91454E+00  1.84666E+00  1.78168E+00  1.72057E+00  1.66423E+00  1.61350E+00  1.56914E+00  1.53180E+00
   1.50205E+00  1.48037E+00  1.46709E+00  1.46247E+00  1.46663E+00  1.47953E+00  1.50104E+00  1.53083E+00  1.56843E+00  1.61320E+00
   1.66429E+00  1.72068E+00  1.78114E+00  1.84427E+00  1.90848E+00  1.97205E+00  2.03313E+00  2.08984E+00  2.14025E+00  2.18254E+00
   2.21499E+00  2.23609E+00  2.24459E+00  2.23957E+00  2.22049E+00  2.18719E+00  2.13992E+00  2.07931E+00  2.00635E+00  1.92233E+00
   1.82880E+00  1.72746E+00  1.62011E+00  1.50859E+00  1.39466E+00  1.28000E+00  1.16614E+00  1.05444E+00  9.46031E-01  8.41881E-01
   7.42740E-01  6.49183E-01  5.61616E-01  4.80304E-01  4.05387E-01  3.36905E-01  2.74814E-01  2.19001E-01  1.69303E-01  1.25508E-01
   8.73743E-02  5.46289E-02  2.69796E-02  4.11674E-03 -1.42797E-02 -2.85377E-02 -3.89865E-02 -4.59544E-02 -4.97628E-02 -5.07235E-02
  -4.91362E-02 -4.52845E-02 -3.94350E-02 -3.18356E-02 -2.27140E-02 -1.22779E-02 -7.15172E-04  1.18051E-02  2.51326E-02  3.91342E-02
   5.36931E-02  6.87073E-02  8.40880E-02  9.97573E-02  1.15649E-01  1.31706E-01  1.47881E-01  1.64130E-01  1.80420E-01  1.96720E-01
   2.13006E-01  2.29255E-01  2.45452E-01  2.61582E-01  2.77632E-01  2.93592E-01  3.09455E-01  3.25215E-01  3.40867E-01  3.56406E-01
   3.71830E-01  3.87138E-01  4.02327E-01  4.17398E-01  4.32349E-01  4.47183E-01  4.61897E-01  4.76495E-01  4.90977E-01  5.05344E-01
   5.19599E-01  5.33742E-01  5.47775E-01  5.61702E-01  5.75523E-01  5.89242E-01  6.02860E-01  6.16379E-01  6.29802E-01  6.43131E-01
   6.56368E-01  6.69517E-01  6.82578E-01  6.95555E-01  7.08450E-01  7.21266E-01  7.34005E-01  7.46669E-01  7.59262E-01  7.71785E-01
   7.84243E-01  7.96637E-01  8.08971E-01  8.21248E-01  8.33471E-01  8.45645E-01  8.57772E-01  8.69858E-01
 NY background values follow
     2.543E-01    2.505E-01    2.467E-01    2.429E-01    2.391E-01    2.354E-01    2.316E-01    2.279E-01    2.243E-01    2.206E-01
     2.170E-01    2.134E-01    2.098E-01    2.063E-01    2.027E-01    1.992E-01    1.957E-01    1.923E-01    1.889E-01    1.854E-01
     1.821E-01    1.787E-01    1.754E-01    1.721E-01    1.688E-01    1.655E-01    1.623E-01    1.591E-01    1.559E-01    1.527E-01
     1.496E-01    1.465E-01    1.434E-01    1.403E-01    1.373E-01    1.342E-01    1.313E-01    1.283E-01    1.253E-01    1.224E-01
     1.195E-01    1.167E-01    1.138E-01    1.110E-01    1.082E-01    1.055E-01    1.027E-01    1.000E-01    9.731E-02    9.464E-02
     9.200E-02    8.939E-02    8.679E-02    8.423E-02    8.169E-02    7.917E-02    7.668E-02    7.422E-02    7.178E-02    6.937E-02
     6.698E-02    6.461E-02    6.228E-02    5.996E-02    5.768E-02    5.542E-02    5.318E-02    5.097E-02    4.878E-02    4.662E-02
     4.449E-02    4.238E-02    4.030E-02    3.824E-02    3.621E-02    3.420E-02    3.222E-02    3.026E-02    2.833E-02    2.643E-02
     2.455E-02    2.270E-02    2.087E-02    1.907E-02    1.730E-02    1.555E-02    1.382E-02    1.212E-02    1.045E-02    8.802E-03
     7.181E-03    5.586E-03    4.016E-03    2.472E-03    9.537E-04   -5.386E-04   -2.005E-03   -3.446E-03   -4.861E-03   -6.250E-03
    -7.613E-03   -8.950E-03   -1.026E-02   -1.155E-02   -1.281E-02   -1.404E-02   -1.525E-02   -1.643E-02   -1.759E-02   -1.872E-02
    -1.982E-02   -2.090E-02   -2.195E-02   -2.298E-02   -2.398E-02   -2.495E-02   -2.590E-02   -2.683E-02   -2.772E-02   -2.859E-02
    -2.944E-02   -3.026E-02   -3.105E-02   -3.182E-02   -3.256E-02   -3.328E-02   -3.396E-02   -3.463E-02   -3.527E-02   -3.588E-02
    -3.646E-02   -3.702E-02   -3.756E-02   -3.806E-02   -3.855E-02   -3.900E-02   -3.943E-02   -3.984E-02   -4.022E-02   -4.057E-02
    -4.089E-02   -4.120E-02   -4.147E-02   -4.172E-02   -4.194E-02   -4.214E-02   -4.231E-02   -4.246E-02   -4.257E-02   -4.267E-02
    -4.274E-02   -4.278E-02   -4.279E-02   -4.278E-02   -4.275E-02   -4.269E-02   -4.260E-02   -4.249E-02   -4.235E-02   -4.219E-02
    -4.199E-02   -4.178E-02   -4.154E-02   -4.127E-02   -4.098E-02   -4.066E-02   -4.031E-02   -3.994E-02   -3.955E-02   -3.913E-02
    -3.868E-02   -3.821E-02   -3.771E-02   -3.718E-02   -3.664E-02   -3.606E-02   -3.546E-02   -3.483E-02   -3.418E-02   -3.350E-02
    -3.280E-02   -3.207E-02   -3.132E-02   -3.054E-02   -2.974E-02   -2.891E-02   -2.805E-02   -2.717E-02   -2.627E-02   -2.533E-02
    -2.438E-02   -2.340E-02   -2.239E-02   -2.136E-02   -2.030E-02   -1.922E-02   -1.811E-02   -1.697E-02   -1.582E-02   -1.463E-02
    -1.342E-02   -1.219E-02   -1.093E-02   -9.648E-03   -8.340E-03   -7.006E-03   -5.647E-03   -4.263E-03   -2.855E-03   -1.421E-03
     3.698E-05    1.520E-03    3.028E-03    4.561E-03    6.119E-03    7.701E-03    9.308E-03    1.094E-02    1.260E-02    1.428E-02
     1.598E-02    1.771E-02    1.947E-02    2.125E-02    2.305E-02    2.488E-02    2.673E-02    2.861E-02    3.051E-02    3.244E-02
     3.439E-02    3.636E-02    3.836E-02    4.038E-02    4.243E-02    4.450E-02    4.660E-02    4.872E-02    5.086E-02    5.303E-02
     5.522E-02    5.744E-02    5.968E-02    6.194E-02    6.423E-02    6.654E-02    6.887E-02    7.123E-02    7.361E-02    7.602E-02
     7.845E-02    8.090E-02    8.338E-02    8.588E-02    8.841E-02    9.095E-02    9.352E-02    9.612E-02    9.874E-02    1.014E-01
     1.040E-01    1.067E-01    1.094E-01    1.122E-01    1.149E-01    1.177E-01    1.205E-01    1.233E-01    1.262E-01    1.291E-01
     1.320E-01    1.349E-01    1.378E-01    1.408E-01    1.438E-01    1.468E-01    1.498E-01    1.529E-01    1.559E-01    1.590E-01
     1.622E-01    1.653E-01    1.685E-01    1.717E-01    1.749E-01    1.781E-01    1.814E-01    1.846E-01    1.879E-01    1.913E-01
     1.946E-01    1.980E-01    2.014E-01    2.048E-01    2.082E-01    2.117E-01    2.151E-01    2.186E-01    2.221E-01    2.257E-01
     2.292E-01    2.328E-01    2.364E-01    2.401E-01    2.437E-01    2.474E-01    2.511E-01    2.548E-01    2.585E-01    2.623E-01
     2.660E-01    2.698E-01    2.736E-01    2.775E-01    2.813E-01    2.852E-01    2.891E-01    2.930E-01    2.970E-01    3.009E-01
     3.049E-01    3.089E-01    3.129E-01    3.170E-01    3.211E-01    3.251E-01    3.292E-01    3.334E-01    3.375E-01    3.417E-01
     3.459E-01    3.501E-01    3.543E-01    3.585E-01    3.628E-01    3.671E-01    3.714E-01    3.757E-01    3.800E-01    3.844E-01
     3.888E-01    3.932E-01    3.976E-01    4.020E-01    4.065E-01    4.110E-01    4.155E-01    4.200E-01    4.245E-01    4.291E-01
     4.336E-01    4.382E-01    4.428E-01    4.475E-01    4.521E-01    4.568E-01    4.614E-01    4.661E-01    4.709E-01    4.756E-01
     4.804E-01    4.851E-01    4.899E-01    4.947E-01    4.996E-01    5.044E-01    5.093E-01    5.141E-01    5.190E-01    5.240E-01
     5.289E-01    5.338E-01    5.388E-01    5.438E-01    5.488E-01    5.538E-01    5.589E-01    5.639E-01    5.690E-01    5.741E-01
     5.792E-01    5.843E-01    5.894E-01    5.946E-01    5.998E-01    6.050E-01    6.102E-01    6.154E-01    6.206E-01    6.259E-01
     6.311E-01    6.364E-01    6.417E-01    6.470E-01    6.524E-01    6.577E-01    6.631E-01    6.685E-01    6.739E-01    6.793E-01
     6.847E-01    6.902E-01    6.956E-01    7.011E-01    7.066E-01    7.121E-01    7.176E-01    7.231E-01    7.287E-01    7.342E-01
     7.398E-01    7.454E-01    7.510E-01    7.566E-01    7.623E-01    7.679E-01    7.736E-01    7.793E-01    7.850E-01    7.907E-01
     7.964E-01    8.021E-01    8.079E-01    8.137E-01    8.194E-01    8.252E-01    8.310E-01    8.368E-01    8.427E-01    8.485E-01
     8.544E-01    8.602E-01    8.661E-01    8.720E-01    8.779E-01    8.839E-01    8.898E-01    8.957E-01    9.017E-01    9.077E-01
     9.137E-01    9.197E-01    9.257E-01    9.317E-01    9.377E-01    9.438E-01    9.498E-01    9.559E-01    9.620E-01    9.681E-01
     9.742E-01    9.803E-01    9.864E-01    9.926E-01    9.987E-01    1.005E+00    1.011E+00    1.017E+00    1.023E+00    1.030E+00
     1.036E+00    1.042E+00    1.048E+00    1.055E+00    1.061E+00    1.067E+00    1.073E+00    1.080E+00    1.086E+00    1.092E+00
     1.099E+00    1.105E+00    1.111E+00    1.118E+00    1.124E+00    1.130E+00    1.137E+00    1.143E+00    1.150E+00    1.156E+00
     1.162E+00    1.169E+00    1.175E+00    1.182E+00    1.188E+00    1.195E+00    1.201E+00    1.208E+00    1.214E+00    1.221E+00
     1.227E+00    1.234E+00    1.240E+00    1.247E+00    1.253E+00    1.260E+00    1.266E+00    1.273E+00
 Ala      Conc. = 6.04E+01
