 LCModel (Version 6.3-1L) Copyright: S.W. Provencher.          Ref.: Magn. Reson. Med. 30:672-679 (1993).                
 Slice#3 Row#10 Col#13  K_02_press_1_raw_act
 36 lines in following concentration table = NCONC+1
    Conc.  %SD /Cr+PCr  Metabolite                                         
   46.904  75%   1.006 Ala                                                 
   29.343  86%   0.629 Asp                                                 
   46.622  34%   1.000 Cr                                                  
    0.000 999%   0.000 PCr                                                 
   14.373 106%   0.308 GABA                                                
   15.288 100%   0.328 Glc                                                 
   16.130 414%   0.346 Gln                                                 
  152.897  49%   3.280 Glu                                                 
   15.519  39%   0.333 GPC                                                 
    0.000 999%   0.000 PCh                                                 
   32.579  68%   0.699 GSH                                                 
  181.682  40%   3.897 Ins                                                 
   31.832 118%   0.683 Lac                                                 
  366.762  10%   7.867 NAA                                                 
   40.049  98%   0.859 NAAG                                                
    1.202 378% 2.6E-02 Scyllo                                              
   15.587 158%   0.334 Tau                                                 
    0.462 999% 9.9E-03 -CrCH2                                              
   15.519  39%   0.333 GPC+PCh                                             
  406.811   7%   8.726 NAA+NAAG                                            
   46.622  34%   1.000 Cr+PCr                                              
  169.028  59%   3.625 Glu+Gln                                             
 2.18E+04   6% 468.052 Lip13a                                              
    0.000 999%   0.000 Lip13b                                              
 1.28E+03  25%  27.405 Lip09                                               
    0.000 999%   0.000 MM09                                                
  534.988  43%  11.475 Lip20                                               
  165.687 116%   3.554 MM20                                                
    0.000 999%   0.000 MM12                                                
 1.86E+03  21%  39.977 MM14                                                
  767.107  29%  16.454 MM17                                                
 2.18E+04   6% 468.052 Lip13a+Lip13b                                       
 2.37E+04   5% 508.029 MM14+Lip13a+Lip13b+MM12                             
 1.28E+03  25%  27.405 MM09+Lip09                                          
  700.675  27%  15.029 MM20+Lip20                                          
   6 lines in following misc. output table
  FWHM = 0.046 ppm    S/N =  18                                            
  Data shift = 0.008 ppm                                                   
  Ph: -24 deg     -20.7 deg/ppm                                            
  alphaB,S = 8.5E+01,   5.1E+01                                            
   14 spline knots.   Ns = 6(1)                                            
   2 inflections.     1 extrema                                            
  498 points on ppm-axis = NY
      4.000000     3.992357     3.984714     3.977070     3.969427     3.961784     3.954141     3.946497     3.938854     3.931211
      3.923568     3.915925     3.908281     3.900638     3.892995     3.885352     3.877708     3.870065     3.862422     3.854779
      3.847136     3.839492     3.831849     3.824206     3.816563     3.808919     3.801276     3.793633     3.785990     3.778347
      3.770703     3.763060     3.755417     3.747774     3.740130     3.732487     3.724844     3.717201     3.709558     3.701914
      3.694271     3.686628     3.678985     3.671341     3.663698     3.656055     3.648412     3.640769     3.633125     3.625482
      3.617839     3.610196     3.602552     3.594909     3.587266     3.579623     3.571980     3.564336     3.556693     3.549050
      3.541407     3.533763     3.526120     3.518477     3.510834     3.503191     3.495547     3.487904     3.480261     3.472618
      3.464974     3.457331     3.449688     3.442045     3.434402     3.426758     3.419115     3.411472     3.403829     3.396185
      3.388542     3.380899     3.373256     3.365613     3.357969     3.350326     3.342683     3.335040     3.327396     3.319753
      3.312110     3.304467     3.296824     3.289180     3.281537     3.273894     3.266251     3.258607     3.250964     3.243321
      3.235678     3.228034     3.220391     3.212748     3.205105     3.197462     3.189818     3.182175     3.174532     3.166889
      3.159245     3.151602     3.143959     3.136316     3.128673     3.121029     3.113386     3.105743     3.098100     3.090456
      3.082813     3.075170     3.067527     3.059884     3.052240     3.044597     3.036954     3.029311     3.021667     3.014024
      3.006381     2.998738     2.991095     2.983451     2.975808     2.968165     2.960522     2.952878     2.945235     2.937592
      2.929949     2.922306     2.914662     2.907019     2.899376     2.891733     2.884089     2.876446     2.868803     2.861160
      2.853517     2.845873     2.838230     2.830587     2.822944     2.815300     2.807657     2.800014     2.792371     2.784728
      2.777084     2.769441     2.761798     2.754155     2.746511     2.738868     2.731225     2.723582     2.715939     2.708295
      2.700652     2.693009     2.685366     2.677722     2.670079     2.662436     2.654793     2.647150     2.639506     2.631863
      2.624220     2.616577     2.608933     2.601290     2.593647     2.586004     2.578361     2.570717     2.563074     2.555431
      2.547788     2.540144     2.532501     2.524858     2.517215     2.509572     2.501928     2.494285     2.486642     2.478999
      2.471355     2.463712     2.456069     2.448426     2.440783     2.433139     2.425496     2.417853     2.410210     2.402566
      2.394923     2.387280     2.379637     2.371994     2.364350     2.356707     2.349064     2.341421     2.333777     2.326134
      2.318491     2.310848     2.303205     2.295561     2.287918     2.280275     2.272632     2.264988     2.257345     2.249702
      2.242059     2.234416     2.226772     2.219129     2.211486     2.203843     2.196199     2.188556     2.180913     2.173270
      2.165627     2.157983     2.150340     2.142697     2.135054     2.127410     2.119767     2.112124     2.104481     2.096838
      2.089194     2.081551     2.073908     2.066265     2.058621     2.050978     2.043335     2.035692     2.028049     2.020405
      2.012762     2.005119     1.997476     1.989833     1.982190     1.974546     1.966903     1.959260     1.951617     1.943974
      1.936331     1.928688     1.921045     1.913402     1.905759     1.898115     1.890472     1.882829     1.875186     1.867543
      1.859900     1.852257     1.844614     1.836971     1.829327     1.821684     1.814041     1.806398     1.798755     1.791112
      1.783469     1.775826     1.768183     1.760540     1.752896     1.745253     1.737610     1.729967     1.722324     1.714681
      1.707038     1.699395     1.691752     1.684108     1.676465     1.668822     1.661179     1.653536     1.645893     1.638250
      1.630607     1.622964     1.615321     1.607677     1.600034     1.592391     1.584748     1.577105     1.569462     1.561819
      1.554176     1.546533     1.538890     1.531246     1.523603     1.515960     1.508317     1.500674     1.493031     1.485388
      1.477745     1.470102     1.462458     1.454815     1.447172     1.439529     1.431886     1.424243     1.416600     1.408957
      1.401314     1.393671     1.386027     1.378384     1.370741     1.363098     1.355455     1.347812     1.340169     1.332526
      1.324883     1.317240     1.309596     1.301953     1.294310     1.286667     1.279024     1.271381     1.263738     1.256095
      1.248452     1.240808     1.233165     1.225522     1.217879     1.210236     1.202593     1.194950     1.187307     1.179664
      1.172021     1.164377     1.156734     1.149091     1.141448     1.133805     1.126162     1.118519     1.110876     1.103233
      1.095590     1.087946     1.080303     1.072660     1.065017     1.057374     1.049731     1.042088     1.034445     1.026802
      1.019158     1.011515     1.003872     0.996229     0.988586     0.980943     0.973300     0.965657     0.958014     0.950371
      0.942727     0.935084     0.927441     0.919798     0.912155     0.904512     0.896869     0.889226     0.881583     0.873940
      0.866296     0.858653     0.851010     0.843367     0.835724     0.828081     0.820438     0.812795     0.805152     0.797508
      0.789865     0.782222     0.774579     0.766936     0.759293     0.751650     0.744007     0.736364     0.728721     0.721077
      0.713434     0.705791     0.698148     0.690505     0.682862     0.675219     0.667576     0.659933     0.652290     0.644646
      0.637003     0.629360     0.621717     0.614074     0.606431     0.598788     0.591145     0.583502     0.575858     0.568215
      0.560572     0.552929     0.545286     0.537643     0.530000     0.522357     0.514714     0.507071     0.499427     0.491784
      0.484141     0.476498     0.468855     0.461212     0.453569     0.445925     0.438282     0.430639     0.422996     0.415353
      0.407710     0.400067     0.392424     0.384780     0.377137     0.369494     0.361851     0.354208     0.346565     0.338922
      0.331278     0.323635     0.315992     0.308349     0.300706     0.293063     0.285420     0.277777     0.270133     0.262490
      0.254847     0.247204     0.239561     0.231918     0.224275     0.216631     0.208988     0.201345
 NY phased data points follow
   7.40810E+00  6.20377E+00  5.28789E+00  7.60036E+00  6.30917E+00  7.03043E+00  5.68744E+00  7.50517E+00  8.29436E+00  8.17997E+00
   8.20996E+00  8.26554E+00  8.39300E+00  9.10147E+00  5.88284E+00  7.11661E+00  6.63085E+00  6.12349E+00  6.93791E+00  7.88697E+00
   6.80015E+00  8.77893E+00  6.31052E+00  8.58715E+00  6.24453E+00  7.25576E+00  7.23366E+00  6.90845E+00  7.49340E+00  7.82410E+00
   6.82076E+00  6.89875E+00  7.15856E+00  7.19086E+00  7.33868E+00  6.22695E+00  5.17656E+00  6.21257E+00  7.46030E+00  6.47685E+00
   7.70442E+00  6.35525E+00  8.43482E+00  7.70146E+00  7.31890E+00  8.07729E+00  7.94480E+00  6.08600E+00  6.94406E+00  6.86683E+00
   7.66104E+00  7.04830E+00  6.05173E+00  6.03631E+00  8.34836E+00  6.19567E+00  8.67939E+00  6.31842E+00  6.80154E+00  8.74991E+00
   6.24054E+00  5.34233E+00  4.54834E+00  6.38813E+00  7.06986E+00  7.94735E+00  6.30144E+00  7.77194E+00  8.90201E+00  7.23303E+00
   6.21901E+00  6.36060E+00  7.03498E+00  5.74988E+00  5.93968E+00  7.63809E+00  6.41883E+00  7.46589E+00  6.71977E+00  5.50217E+00
   6.12974E+00  4.40833E+00  4.11417E+00  6.24624E+00  4.88222E+00  5.08920E+00  7.51864E+00  5.78115E+00  4.59300E+00  6.18317E+00
   8.11674E+00  2.66788E+00  6.44341E+00  6.86318E+00  6.15863E+00  5.79351E+00  5.88771E+00  6.98065E+00  5.66413E+00  6.63392E+00
   4.76070E+00  5.54098E+00  9.88421E+00  1.01486E+01  7.71037E+00  7.93510E+00  4.90872E+00  6.09596E+00  6.49362E+00  6.08432E+00
   7.62363E+00  6.64977E+00  7.26328E+00  8.03538E+00  7.13020E+00  5.88933E+00  5.70087E+00  6.34300E+00  7.15319E+00  7.42156E+00
   5.44808E+00  7.08176E+00  8.57328E+00  6.76275E+00  4.84175E+00  8.83864E+00  7.49036E+00  9.03336E+00  8.84234E+00  7.15759E+00
   5.61793E+00  7.18204E+00  7.21238E+00  6.31056E+00  6.95425E+00  5.93509E+00  7.57086E+00  5.60750E+00  8.44156E+00  8.55717E+00
   8.35305E+00  6.28041E+00  7.35840E+00  9.00199E+00  6.43086E+00  6.96335E+00  7.19955E+00  5.00447E+00  6.09181E+00  5.74310E+00
   7.58438E+00  7.86429E+00  6.40244E+00  8.76800E+00  5.36876E+00  6.76242E+00  8.98870E+00  6.70502E+00  5.83951E+00  6.22794E+00
   7.48148E+00  6.76479E+00  7.30102E+00  6.36774E+00  7.44170E+00  5.99622E+00  7.30529E+00  7.34995E+00  8.58555E+00  7.00786E+00
   7.45287E+00  6.60220E+00  8.21965E+00  5.89967E+00  5.45378E+00  6.12326E+00  5.12061E+00  7.77303E+00  6.53463E+00  6.36330E+00
   5.55236E+00  6.60607E+00  5.91457E+00  6.26216E+00  8.03721E+00  7.40382E+00  6.56634E+00  4.93882E+00  6.64266E+00  8.06538E+00
   7.73850E+00  6.14377E+00  4.22233E+00  1.04191E+01  7.54226E+00  7.14722E+00  7.58222E+00  5.59513E+00  5.58736E+00  6.77908E+00
   7.23269E+00  7.34358E+00  8.68018E+00  8.23363E+00  7.85958E+00  8.91044E+00  7.37850E+00  9.71289E+00  1.02140E+01  7.74782E+00
   7.71393E+00  7.47216E+00  8.43727E+00  8.61356E+00  1.02599E+01  1.00373E+01  7.73260E+00  8.86327E+00  9.15089E+00  9.66713E+00
   7.99626E+00  7.36284E+00  8.77257E+00  8.06036E+00  7.85391E+00  7.21537E+00  7.79716E+00  9.90776E+00  9.29880E+00  7.91037E+00
   1.01560E+01  9.46929E+00  7.42435E+00  9.31676E+00  8.95810E+00  1.08381E+01  9.57657E+00  9.22542E+00  9.31142E+00  1.06899E+01
   1.12588E+01  9.36824E+00  1.22886E+01  1.09764E+01  9.53720E+00  1.16797E+01  1.05814E+01  1.21678E+01  1.20796E+01  1.08765E+01
   1.08010E+01  1.26216E+01  1.26016E+01  1.41942E+01  1.52507E+01  1.61309E+01  1.87168E+01  2.13762E+01  2.04415E+01  2.31084E+01
   2.52828E+01  2.67928E+01  2.20734E+01  1.78150E+01  1.54306E+01  1.39560E+01  1.15843E+01  1.13946E+01  1.17325E+01  1.04361E+01
   1.10796E+01  1.15266E+01  9.62931E+00  1.14951E+01  1.25737E+01  1.30374E+01  1.31094E+01  1.07850E+01  1.39522E+01  1.02622E+01
   1.25522E+01  1.19141E+01  1.36126E+01  1.13535E+01  1.32082E+01  1.30059E+01  1.49453E+01  1.32707E+01  1.34004E+01  1.70772E+01
   1.45403E+01  1.72177E+01  1.63444E+01  1.47638E+01  1.49274E+01  1.67052E+01  1.72425E+01  1.80822E+01  1.72487E+01  1.66432E+01
   1.84833E+01  1.80294E+01  2.17659E+01  1.79056E+01  1.90995E+01  1.87358E+01  1.97360E+01  1.98426E+01  2.18842E+01  2.16782E+01
   2.43419E+01  2.31555E+01  2.42024E+01  2.39522E+01  2.45093E+01  2.39181E+01  2.46944E+01  2.45263E+01  2.69889E+01  2.60462E+01
   2.83764E+01  2.92673E+01  2.97152E+01  3.35110E+01  3.10287E+01  3.57870E+01  3.46744E+01  3.56767E+01  3.55480E+01  3.72238E+01
   4.06493E+01  3.94207E+01  4.02169E+01  4.21494E+01  4.36298E+01  4.42273E+01  4.41854E+01  4.63177E+01  4.69907E+01  4.73811E+01
   4.74057E+01  4.65422E+01  4.72879E+01  4.68090E+01  4.92186E+01  4.96881E+01  4.69373E+01  4.95378E+01  4.93064E+01  5.06416E+01
   4.54246E+01  4.88609E+01  4.86426E+01  4.99857E+01  5.16030E+01  4.95192E+01  4.98150E+01  4.88521E+01  5.04821E+01  4.91511E+01
   4.99551E+01  4.88368E+01  4.85202E+01  4.73343E+01  4.81239E+01  4.71618E+01  4.60769E+01  4.68082E+01  4.55620E+01  4.34119E+01
   4.32588E+01  4.14643E+01  4.41177E+01  4.12237E+01  4.03462E+01  3.89728E+01  3.91600E+01  3.78536E+01  3.61558E+01  3.57894E+01
   3.59407E+01  3.25548E+01  3.22276E+01  3.33984E+01  3.16510E+01  3.27354E+01  2.83669E+01  2.78012E+01  2.73114E+01  2.77373E+01
   2.54335E+01  2.59341E+01  2.62456E+01  2.46978E+01  2.32755E+01  2.30855E+01  2.27381E+01  2.30501E+01  2.40317E+01  2.04157E+01
   2.24867E+01  2.15328E+01  1.94816E+01  1.98831E+01  1.86904E+01  1.91093E+01  1.76227E+01  1.74557E+01  1.67916E+01  1.76833E+01
   1.59608E+01  1.68079E+01  1.37243E+01  1.58108E+01  1.33652E+01  1.52544E+01  1.19199E+01  1.31248E+01  1.10228E+01  1.11632E+01
   1.07741E+01  1.09778E+01  9.55107E+00  9.69139E+00  9.44947E+00  8.42337E+00  7.89202E+00  8.17187E+00  9.62077E+00  7.73934E+00
   8.18155E+00  7.47689E+00  7.46979E+00  6.11889E+00  7.40302E+00  7.13738E+00  5.25230E+00  7.19780E+00  6.64782E+00  6.16711E+00
   5.86690E+00  5.76738E+00  6.96021E+00  7.07007E+00  7.14816E+00  5.06204E+00  4.65783E+00  5.10807E+00  6.42691E+00  4.32685E+00
   6.62698E+00  3.73483E+00  4.83834E+00  6.34912E+00  5.39680E+00  4.70372E+00  3.72151E+00  5.27857E+00  3.75777E+00  5.39471E+00
   3.92067E+00  4.58372E+00  6.14949E+00  2.70626E+00  4.52347E+00  5.47720E+00  3.22404E+00  2.63873E+00  3.45637E+00  4.35221E+00
   4.22948E+00  3.24172E+00  2.62117E+00  5.22021E+00  4.75520E+00  3.17735E+00  3.99172E+00  2.12180E+00  3.17754E+00  2.48058E+00
   3.92115E+00  3.89729E+00  3.41354E+00  3.97288E+00  2.49052E+00  3.35103E+00  5.56897E+00  4.37526E+00  4.44138E+00  4.60380E+00
   4.75245E+00  3.30561E+00  2.17379E+00  2.63111E+00  1.94175E+00  3.56012E+00  4.47753E+00  1.83476E+00
 NY points of the fit to the data follow
   6.59807E+00  6.57431E+00  6.57461E+00  6.59430E+00  6.64045E+00  6.74765E+00  6.90356E+00  7.06406E+00  7.21943E+00  7.38619E+00
   7.54997E+00  7.62916E+00  7.53973E+00  7.29822E+00  7.01286E+00  6.78182E+00  6.62999E+00  6.54380E+00  6.51304E+00  6.54170E+00
   6.61172E+00  6.69027E+00  6.74107E+00  6.76859E+00  6.81040E+00  6.85174E+00  6.87831E+00  6.92497E+00  7.04386E+00  7.23000E+00
   7.40394E+00  7.49618E+00  7.49242E+00  7.40643E+00  7.24935E+00  7.02859E+00  6.78419E+00  6.56906E+00  6.41765E+00  6.34861E+00
   6.39792E+00  6.58586E+00  6.86060E+00  7.14299E+00  7.39754E+00  7.62429E+00  7.78694E+00  7.79132E+00  7.57021E+00  7.17675E+00
   6.76226E+00  6.45021E+00  6.28197E+00  6.25170E+00  6.32760E+00  6.46833E+00  6.62346E+00  6.76095E+00  6.86880E+00  6.92919E+00
   6.91760E+00  6.83037E+00  6.69466E+00  6.56183E+00  6.47258E+00  6.45434E+00  6.50466E+00  6.59342E+00  6.68482E+00  6.76280E+00
   6.82521E+00  6.86421E+00  6.86942E+00  6.84081E+00  6.79368E+00  6.74344E+00  6.69151E+00  6.63532E+00  6.57866E+00  6.53100E+00
   6.49037E+00  6.44564E+00  6.38664E+00  6.31255E+00  6.22532E+00  6.12902E+00  6.03787E+00  5.97915E+00  5.98045E+00  6.05017E+00
   6.17146E+00  6.30246E+00  6.41011E+00  6.48111E+00  6.51422E+00  6.51953E+00  6.53099E+00  6.62355E+00  6.79226E+00  6.99866E+00
   7.23148E+00  7.49445E+00  7.74171E+00  7.85207E+00  7.72820E+00  7.41072E+00  7.04829E+00  6.75731E+00  6.56436E+00  6.45509E+00
   6.41028E+00  6.41209E+00  6.43234E+00  6.45338E+00  6.47055E+00  6.48550E+00  6.50124E+00  6.51847E+00  6.54024E+00  6.57613E+00
   6.65607E+00  6.84418E+00  7.11514E+00  7.40990E+00  7.71383E+00  8.03326E+00  8.31916E+00  8.45057E+00  8.33090E+00  7.99994E+00
   7.61233E+00  7.28890E+00  7.05382E+00  6.88943E+00  6.77576E+00  6.70876E+00  6.68627E+00  6.71097E+00  6.78402E+00  6.89082E+00
   7.00611E+00  7.10136E+00  7.16146E+00  7.19096E+00  7.20412E+00  7.21049E+00  7.21148E+00  7.20771E+00  7.20126E+00  7.19583E+00
   7.19499E+00  7.19870E+00  7.20637E+00  7.21656E+00  7.22308E+00  7.21117E+00  7.18131E+00  7.14176E+00  7.09355E+00  7.04100E+00
   6.98325E+00  6.94232E+00  6.95271E+00  7.01477E+00  7.08011E+00  7.09194E+00  7.03041E+00  6.92116E+00  6.80634E+00  6.70676E+00
   6.61689E+00  6.53504E+00  6.47654E+00  6.43447E+00  6.39151E+00  6.34163E+00  6.31868E+00  6.35932E+00  6.44627E+00  6.51527E+00
   6.52615E+00  6.50036E+00  6.50371E+00  6.57288E+00  6.67998E+00  6.79015E+00  6.90857E+00  7.06296E+00  7.26452E+00  7.47713E+00
   7.64367E+00  7.73410E+00  7.74274E+00  7.69837E+00  7.64156E+00  7.59858E+00  7.57255E+00  7.56188E+00  7.58295E+00  7.64443E+00
   7.74362E+00  7.86150E+00  7.98225E+00  8.08638E+00  8.12640E+00  8.07270E+00  7.93374E+00  7.74543E+00  7.56922E+00  7.46514E+00
   7.48570E+00  7.62239E+00  7.83759E+00  8.10887E+00  8.41480E+00  8.68115E+00  8.78113E+00  8.65276E+00  8.37635E+00  8.09434E+00
   7.89028E+00  7.80276E+00  7.87580E+00  8.13968E+00  8.54816E+00  8.96985E+00  9.29091E+00  9.48539E+00  9.57850E+00  9.60353E+00
   9.59509E+00  9.60401E+00  9.67063E+00  9.79228E+00  9.93056E+00  1.00489E+01  1.01286E+01  1.01538E+01  1.01329E+01  1.00952E+01
   1.00809E+01  1.01187E+01  1.02277E+01  1.04126E+01  1.06539E+01  1.09069E+01  1.11259E+01  1.12968E+01  1.14362E+01  1.15904E+01
   1.18388E+01  1.21916E+01  1.26451E+01  1.32801E+01  1.44862E+01  1.64211E+01  1.84911E+01  2.03699E+01  2.21622E+01  2.39330E+01
   2.50444E+01  2.45138E+01  2.21166E+01  1.88067E+01  1.57872E+01  1.35760E+01  1.21380E+01  1.13256E+01  1.09923E+01  1.09486E+01
   1.09908E+01  1.10677E+01  1.11704E+01  1.12906E+01  1.14170E+01  1.15385E+01  1.16508E+01  1.17594E+01  1.18737E+01  1.20018E+01
   1.21492E+01  1.23201E+01  1.25160E+01  1.27356E+01  1.29750E+01  1.32313E+01  1.35038E+01  1.37921E+01  1.40958E+01  1.44152E+01
   1.47509E+01  1.51025E+01  1.54673E+01  1.58411E+01  1.62201E+01  1.66021E+01  1.69850E+01  1.73666E+01  1.77449E+01  1.81182E+01
   1.84855E+01  1.88453E+01  1.91960E+01  1.95374E+01  1.98703E+01  2.01972E+01  2.05216E+01  2.08484E+01  2.11835E+01  2.15335E+01
   2.19054E+01  2.23068E+01  2.27452E+01  2.32281E+01  2.37628E+01  2.43559E+01  2.50131E+01  2.57394E+01  2.65388E+01  2.74153E+01
   2.83763E+01  2.94285E+01  3.05339E+01  3.16538E+01  3.27779E+01  3.38954E+01  3.49679E+01  3.59439E+01  3.68181E+01  3.76840E+01
   3.86395E+01  3.96860E+01  4.07766E+01  4.18831E+01  4.29936E+01  4.40602E+01  4.49901E+01  4.57188E+01  4.62634E+01  4.66884E+01
   4.70516E+01  4.73915E+01  4.77093E+01  4.79927E+01  4.82435E+01  4.84611E+01  4.86317E+01  4.87282E+01  4.87504E+01  4.87681E+01
   4.88530E+01  4.90195E+01  4.92436E+01  4.95064E+01  4.97904E+01  5.00499E+01  5.02136E+01  5.02377E+01  5.01336E+01  4.99352E+01
   4.96648E+01  4.93309E+01  4.89366E+01  4.84840E+01  4.79703E+01  4.73923E+01  4.67506E+01  4.60485E+01  4.52905E+01  4.44818E+01
   4.36289E+01  4.27382E+01  4.18169E+01  4.08721E+01  3.99109E+01  3.89406E+01  3.79679E+01  3.69993E+01  3.60409E+01  3.50981E+01
   3.41759E+01  3.32787E+01  3.24098E+01  3.15723E+01  3.07681E+01  2.99985E+01  2.92640E+01  2.85645E+01  2.78989E+01  2.72656E+01
   2.66622E+01  2.60859E+01  2.55334E+01  2.50010E+01  2.44846E+01  2.39803E+01  2.34840E+01  2.29919E+01  2.25003E+01  2.20061E+01
   2.15066E+01  2.09998E+01  2.04841E+01  1.99590E+01  1.94243E+01  1.88807E+01  1.83295E+01  1.77722E+01  1.72112E+01  1.66489E+01
   1.60880E+01  1.55313E+01  1.49816E+01  1.44416E+01  1.39137E+01  1.34002E+01  1.29028E+01  1.24233E+01  1.19627E+01  1.15220E+01
   1.11017E+01  1.07019E+01  1.03227E+01  9.96362E+00  9.62429E+00  9.30402E+00  9.00205E+00  8.71753E+00  8.44952E+00  8.19707E+00
   7.95926E+00  7.73515E+00  7.52385E+00  7.32448E+00  7.13620E+00  6.95823E+00  6.78985E+00  6.63039E+00  6.47922E+00  6.33574E+00
   6.19942E+00  6.06975E+00  5.94630E+00  5.82866E+00  5.71643E+00  5.60926E+00  5.50682E+00  5.40881E+00  5.31497E+00  5.22506E+00
   5.13883E+00  5.05606E+00  4.97655E+00  4.90013E+00  4.82663E+00  4.75589E+00  4.68776E+00  4.62209E+00  4.55877E+00  4.49767E+00
   4.43870E+00  4.38174E+00  4.32669E+00  4.27345E+00  4.22195E+00  4.17211E+00  4.12386E+00  4.07711E+00  4.03180E+00  3.98786E+00
   3.94525E+00  3.90390E+00  3.86377E+00  3.82480E+00  3.78692E+00  3.75011E+00  3.71433E+00  3.67954E+00  3.64569E+00  3.61274E+00
   3.58066E+00  3.54942E+00  3.51900E+00  3.48935E+00  3.46046E+00  3.43227E+00  3.40478E+00  3.37797E+00  3.35182E+00  3.32629E+00
   3.30137E+00  3.27702E+00  3.25324E+00  3.23002E+00  3.20734E+00  3.18518E+00  3.16351E+00  3.14232E+00
 NY background values follow
     4.724E+00    4.719E+00    4.714E+00    4.709E+00    4.704E+00    4.700E+00    4.695E+00    4.690E+00    4.685E+00    4.681E+00
     4.676E+00    4.671E+00    4.666E+00    4.662E+00    4.657E+00    4.652E+00    4.647E+00    4.643E+00    4.638E+00    4.633E+00
     4.628E+00    4.623E+00    4.619E+00    4.614E+00    4.609E+00    4.604E+00    4.600E+00    4.595E+00    4.590E+00    4.585E+00
     4.580E+00    4.576E+00    4.571E+00    4.566E+00    4.561E+00    4.557E+00    4.552E+00    4.547E+00    4.542E+00    4.537E+00
     4.533E+00    4.528E+00    4.523E+00    4.518E+00    4.514E+00    4.509E+00    4.504E+00    4.499E+00    4.494E+00    4.490E+00
     4.485E+00    4.480E+00    4.475E+00    4.470E+00    4.466E+00    4.461E+00    4.456E+00    4.451E+00    4.447E+00    4.442E+00
     4.437E+00    4.432E+00    4.427E+00    4.423E+00    4.418E+00    4.413E+00    4.408E+00    4.403E+00    4.399E+00    4.394E+00
     4.389E+00    4.384E+00    4.379E+00    4.375E+00    4.370E+00    4.365E+00    4.360E+00    4.355E+00    4.351E+00    4.346E+00
     4.341E+00    4.336E+00    4.331E+00    4.327E+00    4.322E+00    4.317E+00    4.312E+00    4.307E+00    4.303E+00    4.298E+00
     4.293E+00    4.288E+00    4.283E+00    4.279E+00    4.274E+00    4.269E+00    4.264E+00    4.259E+00    4.255E+00    4.250E+00
     4.245E+00    4.240E+00    4.235E+00    4.230E+00    4.226E+00    4.221E+00    4.216E+00    4.211E+00    4.206E+00    4.202E+00
     4.197E+00    4.192E+00    4.187E+00    4.182E+00    4.178E+00    4.173E+00    4.168E+00    4.163E+00    4.158E+00    4.153E+00
     4.149E+00    4.144E+00    4.139E+00    4.134E+00    4.129E+00    4.125E+00    4.120E+00    4.115E+00    4.110E+00    4.105E+00
     4.100E+00    4.096E+00    4.091E+00    4.086E+00    4.081E+00    4.076E+00    4.072E+00    4.067E+00    4.062E+00    4.057E+00
     4.052E+00    4.047E+00    4.043E+00    4.038E+00    4.033E+00    4.028E+00    4.023E+00    4.018E+00    4.014E+00    4.009E+00
     4.004E+00    3.999E+00    3.994E+00    3.989E+00    3.985E+00    3.980E+00    3.975E+00    3.970E+00    3.965E+00    3.960E+00
     3.956E+00    3.951E+00    3.946E+00    3.941E+00    3.936E+00    3.931E+00    3.927E+00    3.922E+00    3.917E+00    3.912E+00
     3.907E+00    3.902E+00    3.898E+00    3.893E+00    3.888E+00    3.883E+00    3.878E+00    3.873E+00    3.869E+00    3.864E+00
     3.859E+00    3.854E+00    3.849E+00    3.844E+00    3.840E+00    3.835E+00    3.830E+00    3.825E+00    3.820E+00    3.815E+00
     3.811E+00    3.806E+00    3.801E+00    3.796E+00    3.791E+00    3.786E+00    3.781E+00    3.777E+00    3.772E+00    3.767E+00
     3.762E+00    3.757E+00    3.752E+00    3.748E+00    3.743E+00    3.738E+00    3.733E+00    3.728E+00    3.723E+00    3.718E+00
     3.714E+00    3.709E+00    3.704E+00    3.699E+00    3.694E+00    3.689E+00    3.685E+00    3.680E+00    3.675E+00    3.670E+00
     3.665E+00    3.660E+00    3.655E+00    3.651E+00    3.646E+00    3.641E+00    3.636E+00    3.631E+00    3.626E+00    3.621E+00
     3.617E+00    3.612E+00    3.607E+00    3.602E+00    3.597E+00    3.592E+00    3.587E+00    3.583E+00    3.578E+00    3.573E+00
     3.568E+00    3.563E+00    3.558E+00    3.553E+00    3.549E+00    3.544E+00    3.539E+00    3.534E+00    3.529E+00    3.524E+00
     3.519E+00    3.515E+00    3.510E+00    3.505E+00    3.500E+00    3.495E+00    3.490E+00    3.485E+00    3.480E+00    3.476E+00
     3.471E+00    3.466E+00    3.461E+00    3.456E+00    3.451E+00    3.446E+00    3.441E+00    3.437E+00    3.432E+00    3.427E+00
     3.422E+00    3.417E+00    3.412E+00    3.407E+00    3.403E+00    3.398E+00    3.393E+00    3.388E+00    3.383E+00    3.378E+00
     3.373E+00    3.368E+00    3.364E+00    3.359E+00    3.354E+00    3.349E+00    3.344E+00    3.339E+00    3.334E+00    3.329E+00
     3.324E+00    3.320E+00    3.315E+00    3.310E+00    3.305E+00    3.300E+00    3.295E+00    3.290E+00    3.285E+00    3.281E+00
     3.276E+00    3.271E+00    3.266E+00    3.261E+00    3.256E+00    3.251E+00    3.246E+00    3.241E+00    3.237E+00    3.232E+00
     3.227E+00    3.222E+00    3.217E+00    3.212E+00    3.207E+00    3.202E+00    3.198E+00    3.193E+00    3.188E+00    3.183E+00
     3.178E+00    3.173E+00    3.168E+00    3.163E+00    3.158E+00    3.153E+00    3.149E+00    3.144E+00    3.139E+00    3.134E+00
     3.129E+00    3.124E+00    3.119E+00    3.114E+00    3.109E+00    3.105E+00    3.100E+00    3.095E+00    3.090E+00    3.085E+00
     3.080E+00    3.075E+00    3.070E+00    3.065E+00    3.060E+00    3.056E+00    3.051E+00    3.046E+00    3.041E+00    3.036E+00
     3.031E+00    3.026E+00    3.021E+00    3.016E+00    3.011E+00    3.007E+00    3.002E+00    2.997E+00    2.992E+00    2.987E+00
     2.982E+00    2.977E+00    2.972E+00    2.967E+00    2.962E+00    2.957E+00    2.953E+00    2.948E+00    2.943E+00    2.938E+00
     2.933E+00    2.928E+00    2.923E+00    2.918E+00    2.913E+00    2.908E+00    2.903E+00    2.899E+00    2.894E+00    2.889E+00
     2.884E+00    2.879E+00    2.874E+00    2.869E+00    2.864E+00    2.859E+00    2.854E+00    2.849E+00    2.845E+00    2.840E+00
     2.835E+00    2.830E+00    2.825E+00    2.820E+00    2.815E+00    2.810E+00    2.805E+00    2.800E+00    2.795E+00    2.790E+00
     2.786E+00    2.781E+00    2.776E+00    2.771E+00    2.766E+00    2.761E+00    2.756E+00    2.751E+00    2.746E+00    2.741E+00
     2.736E+00    2.731E+00    2.726E+00    2.722E+00    2.717E+00    2.712E+00    2.707E+00    2.702E+00    2.697E+00    2.692E+00
     2.687E+00    2.682E+00    2.677E+00    2.672E+00    2.667E+00    2.662E+00    2.658E+00    2.653E+00    2.648E+00    2.643E+00
     2.638E+00    2.633E+00    2.628E+00    2.623E+00    2.618E+00    2.613E+00    2.608E+00    2.603E+00    2.598E+00    2.593E+00
     2.589E+00    2.584E+00    2.579E+00    2.574E+00    2.569E+00    2.564E+00    2.559E+00    2.554E+00    2.549E+00    2.544E+00
     2.539E+00    2.534E+00    2.529E+00    2.524E+00    2.519E+00    2.514E+00    2.510E+00    2.505E+00    2.500E+00    2.495E+00
     2.490E+00    2.485E+00    2.480E+00    2.475E+00    2.470E+00    2.465E+00    2.460E+00    2.455E+00    2.450E+00    2.445E+00
     2.440E+00    2.435E+00    2.431E+00    2.426E+00    2.421E+00    2.416E+00    2.411E+00    2.406E+00    2.401E+00    2.396E+00
     2.391E+00    2.386E+00    2.381E+00    2.376E+00    2.371E+00    2.366E+00    2.361E+00    2.356E+00    2.351E+00    2.346E+00
     2.342E+00    2.337E+00    2.332E+00    2.327E+00    2.322E+00    2.317E+00    2.312E+00    2.307E+00
 Ala      Conc. = 4.69E+01
