 LCModel (Version 6.3-1L) Copyright: S.W. Provencher.          Ref.: Magn. Reson. Med. 30:672-679 (1993).                
 Slice#2 Row#5 Col#4  K_02_press_1_raw_act
 36 lines in following concentration table = NCONC+1
    Conc.  %SD /Cr+PCr  Metabolite                                         
    0.000 999%   0.000 Ala                                                 
    0.000 999%   0.000 Asp                                                 
 1.27E+03  20%   0.659 Cr                                                  
  653.356  39%   0.341 PCr                                                 
    0.000 999%   0.000 GABA                                                
    0.000 999%   0.000 Glc                                                 
  402.051  67%   0.210 Gln                                                 
 1.75E+03  17%   0.914 Glu                                                 
  718.943   4%   0.375 GPC                                                 
    0.000 999%   0.000 PCh                                                 
  595.387  14%   0.310 GSH                                                 
 1.06E+03  31%   0.553 Ins                                                 
    0.000 999%   0.000 Lac                                                 
 2.77E+03   5%   1.443 NAA                                                 
  572.173  27%   0.298 NAAG                                                
   21.533 160% 1.1E-02 Scyllo                                              
    0.000 999%   0.000 Tau                                                 
    0.000 999%   0.000 -CrCH2                                              
  718.943   4%   0.375 GPC+PCh                                             
 3.34E+03   3%   1.741 NAA+NAAG                                            
 1.92E+03   4%   1.000 Cr+PCr                                              
 2.16E+03  20%   1.124 Glu+Gln                                             
    0.000 999%   0.000 Lip13a                                              
    0.000 999%   0.000 Lip13b                                              
    0.000 999%   0.000 Lip09                                               
 3.86E+03  12%   2.014 MM09                                                
    0.312 999% 1.6E-04 Lip20                                               
 8.35E+03   9%   4.353 MM20                                                
 1.51E+03  21%   0.788 MM12                                                
    0.000 999%   0.000 MM14                                                
 4.05E+03  17%   2.110 MM17                                                
    0.000 999%   0.000 Lip13a+Lip13b                                       
 1.51E+03  21%   0.788 MM14+Lip13a+Lip13b+MM12                             
 3.86E+03  12%   2.014 MM09+Lip09                                          
 8.35E+03   9%   4.354 MM20+Lip20                                          
   6 lines in following misc. output table
  FWHM = 0.046 ppm    S/N =  15                                            
  Data shift = 0.031 ppm                                                   
  Ph:   9 deg       3.9 deg/ppm                                            
  alphaB,S = 3.7E-01,   9.3E+01                                            
   14 spline knots.   Ns = 7(1)                                            
  (11) 3 infls.   ( 5) 1 extrs.                                            
  498 points on ppm-axis = NY
      4.000000     3.992357     3.984714     3.977070     3.969427     3.961784     3.954141     3.946497     3.938854     3.931211
      3.923568     3.915925     3.908281     3.900638     3.892995     3.885352     3.877708     3.870065     3.862422     3.854779
      3.847136     3.839492     3.831849     3.824206     3.816563     3.808919     3.801276     3.793633     3.785990     3.778347
      3.770703     3.763060     3.755417     3.747774     3.740130     3.732487     3.724844     3.717201     3.709558     3.701914
      3.694271     3.686628     3.678985     3.671341     3.663698     3.656055     3.648412     3.640769     3.633125     3.625482
      3.617839     3.610196     3.602552     3.594909     3.587266     3.579623     3.571980     3.564336     3.556693     3.549050
      3.541407     3.533763     3.526120     3.518477     3.510834     3.503191     3.495547     3.487904     3.480261     3.472618
      3.464974     3.457331     3.449688     3.442045     3.434402     3.426758     3.419115     3.411472     3.403829     3.396185
      3.388542     3.380899     3.373256     3.365613     3.357969     3.350326     3.342683     3.335040     3.327396     3.319753
      3.312110     3.304467     3.296824     3.289180     3.281537     3.273894     3.266251     3.258607     3.250964     3.243321
      3.235678     3.228034     3.220391     3.212748     3.205105     3.197462     3.189818     3.182175     3.174532     3.166889
      3.159245     3.151602     3.143959     3.136316     3.128673     3.121029     3.113386     3.105743     3.098100     3.090456
      3.082813     3.075170     3.067527     3.059884     3.052240     3.044597     3.036954     3.029311     3.021667     3.014024
      3.006381     2.998738     2.991095     2.983451     2.975808     2.968165     2.960522     2.952878     2.945235     2.937592
      2.929949     2.922306     2.914662     2.907019     2.899376     2.891733     2.884089     2.876446     2.868803     2.861160
      2.853517     2.845873     2.838230     2.830587     2.822944     2.815300     2.807657     2.800014     2.792371     2.784728
      2.777084     2.769441     2.761798     2.754155     2.746511     2.738868     2.731225     2.723582     2.715939     2.708295
      2.700652     2.693009     2.685366     2.677722     2.670079     2.662436     2.654793     2.647150     2.639506     2.631863
      2.624220     2.616577     2.608933     2.601290     2.593647     2.586004     2.578361     2.570717     2.563074     2.555431
      2.547788     2.540144     2.532501     2.524858     2.517215     2.509572     2.501928     2.494285     2.486642     2.478999
      2.471355     2.463712     2.456069     2.448426     2.440783     2.433139     2.425496     2.417853     2.410210     2.402566
      2.394923     2.387280     2.379637     2.371994     2.364350     2.356707     2.349064     2.341421     2.333777     2.326134
      2.318491     2.310848     2.303205     2.295561     2.287918     2.280275     2.272632     2.264988     2.257345     2.249702
      2.242059     2.234416     2.226772     2.219129     2.211486     2.203843     2.196199     2.188556     2.180913     2.173270
      2.165627     2.157983     2.150340     2.142697     2.135054     2.127410     2.119767     2.112124     2.104481     2.096838
      2.089194     2.081551     2.073908     2.066265     2.058621     2.050978     2.043335     2.035692     2.028049     2.020405
      2.012762     2.005119     1.997476     1.989833     1.982190     1.974546     1.966903     1.959260     1.951617     1.943974
      1.936331     1.928688     1.921045     1.913402     1.905759     1.898115     1.890472     1.882829     1.875186     1.867543
      1.859900     1.852257     1.844614     1.836971     1.829327     1.821684     1.814041     1.806398     1.798755     1.791112
      1.783469     1.775826     1.768183     1.760540     1.752896     1.745253     1.737610     1.729967     1.722324     1.714681
      1.707038     1.699395     1.691752     1.684108     1.676465     1.668822     1.661179     1.653536     1.645893     1.638250
      1.630607     1.622964     1.615321     1.607677     1.600034     1.592391     1.584748     1.577105     1.569462     1.561819
      1.554176     1.546533     1.538890     1.531246     1.523603     1.515960     1.508317     1.500674     1.493031     1.485388
      1.477745     1.470102     1.462458     1.454815     1.447172     1.439529     1.431886     1.424243     1.416600     1.408957
      1.401314     1.393671     1.386027     1.378384     1.370741     1.363098     1.355455     1.347812     1.340169     1.332526
      1.324883     1.317240     1.309596     1.301953     1.294310     1.286667     1.279024     1.271381     1.263738     1.256095
      1.248452     1.240808     1.233165     1.225522     1.217879     1.210236     1.202593     1.194950     1.187307     1.179664
      1.172021     1.164377     1.156734     1.149091     1.141448     1.133805     1.126162     1.118519     1.110876     1.103233
      1.095590     1.087946     1.080303     1.072660     1.065017     1.057374     1.049731     1.042088     1.034445     1.026802
      1.019158     1.011515     1.003872     0.996229     0.988586     0.980943     0.973300     0.965657     0.958014     0.950371
      0.942727     0.935084     0.927441     0.919798     0.912155     0.904512     0.896869     0.889226     0.881583     0.873940
      0.866296     0.858653     0.851010     0.843367     0.835724     0.828081     0.820438     0.812795     0.805152     0.797508
      0.789865     0.782222     0.774579     0.766936     0.759293     0.751650     0.744007     0.736364     0.728721     0.721077
      0.713434     0.705791     0.698148     0.690505     0.682862     0.675219     0.667576     0.659933     0.652290     0.644646
      0.637003     0.629360     0.621717     0.614074     0.606431     0.598788     0.591145     0.583502     0.575858     0.568215
      0.560572     0.552929     0.545286     0.537643     0.530000     0.522357     0.514714     0.507071     0.499427     0.491784
      0.484141     0.476498     0.468855     0.461212     0.453569     0.445925     0.438282     0.430639     0.422996     0.415353
      0.407710     0.400067     0.392424     0.384780     0.377137     0.369494     0.361851     0.354208     0.346565     0.338922
      0.331278     0.323635     0.315992     0.308349     0.300706     0.293063     0.285420     0.277777     0.270133     0.262490
      0.254847     0.247204     0.239561     0.231918     0.224275     0.216631     0.208988     0.201345
 NY phased data points follow
   2.00915E+00  4.98484E+00  1.11819E+01  1.22965E+01  1.52431E+01  2.32513E+01  2.74398E+01  3.57892E+01  4.09613E+01  4.88101E+01
   5.27287E+01  5.09316E+01  4.93808E+01  4.26264E+01  3.55005E+01  2.66485E+01  1.75284E+01  1.88604E+01  2.05091E+01  1.25319E+01
   1.48822E+01  1.61143E+01  1.08611E+01  9.02151E+00  1.20138E+01  1.26438E+01  1.31220E+01  1.49171E+01  1.74454E+01  1.60772E+01
   2.05685E+01  1.60877E+01  1.92544E+01  1.48443E+01  1.56123E+01  9.95440E+00  1.43907E+01  1.07189E+01  1.28019E+01  1.04703E+01
   9.27913E+00  8.46066E+00  1.22959E+01  1.06202E+01  1.08568E+01  1.89303E+01  1.67009E+01  2.33430E+01  2.03872E+01  1.08657E+01
   1.38329E+01  1.40519E+01  9.51101E+00  1.00586E+01  2.85799E+00  8.77850E+00  7.46066E+00  8.96662E+00  6.79097E+00  4.69653E+00
   1.39000E+00 -2.88055E-01 -2.29005E+00 -4.06495E+00 -3.61029E+00 -5.89751E+00 -1.07445E+01 -7.23049E+00 -9.84736E+00 -8.69274E+00
  -2.70977E+00 -3.90835E+00 -3.74683E+00 -4.87394E+00 -1.69028E-01 -1.03392E+00 -5.86490E+00 -3.06443E+00 -3.78898E+00  3.11136E+00
  -6.80355E+00 -1.25748E+00 -3.25012E+00 -2.37073E+00 -6.17803E+00 -2.34628E+00 -1.94983E+00 -8.18279E+00 -4.05227E+00 -2.52181E+00
   8.54695E-01 -2.82546E+00  1.60001E+00  3.31302E+00  1.72307E+00  2.94913E+00  4.87971E+00  1.12563E+01  1.97698E+01  2.34474E+01
   3.55201E+01  5.04078E+01  6.08083E+01  6.00992E+01  5.70093E+01  4.68181E+01  3.73444E+01  2.65212E+01  2.20590E+01  1.87664E+01
   8.12748E+00  4.38179E+00  2.71419E+00  1.35522E+00 -1.26489E+00 -6.96046E-01 -4.79823E-01  9.00008E-01  2.53822E+00 -1.14366E-01
   8.07614E+00  1.23467E+01  9.82817E+00  1.92560E+01  3.43966E+01  4.81044E+01  6.31692E+01  6.38083E+01  5.87383E+01  5.14518E+01
   3.96091E+01  3.13744E+01  2.15626E+01  1.45392E+01  6.19879E+00  5.07876E+00 -7.16569E-01 -7.70673E-01 -2.99628E+00  1.51004E+00
   2.23610E+00 -8.64358E-01 -2.89810E+00 -2.19228E+00 -2.89708E-01 -4.24411E+00 -5.41484E+00 -4.12150E+00 -2.72527E+00 -4.29223E+00
  -2.81453E+00 -3.61849E+00  4.02911E-01 -3.85356E+00 -4.51383E+00 -4.20850E+00 -4.55644E+00 -6.17150E+00 -6.11250E+00 -4.20399E+00
  -1.32920E+01 -1.47361E+01 -1.27147E+01 -1.13511E+01 -8.51251E+00 -6.88046E+00 -1.05709E+01 -6.72836E+00 -9.36785E+00 -1.88393E+01
  -1.75696E+01 -1.93532E+01 -1.87382E+01 -2.22477E+01 -2.52382E+01 -2.63206E+01 -1.85174E+01 -2.29795E+01 -2.03796E+01 -1.93747E+01
  -2.28643E+01 -2.57906E+01 -1.92444E+01 -1.72003E+01 -1.89579E+01 -2.00247E+01 -1.66848E+01 -1.17489E+01 -7.24443E+00  8.57898E-01
   2.93175E+00  8.25886E-01  4.28079E+00 -2.57324E+00  1.51535E+00  3.28204E-01 -3.16121E+00 -9.28932E+00 -9.41589E+00 -7.64768E+00
  -7.69087E+00 -3.67727E+00 -1.69744E+00 -2.68244E+00 -5.53702E+00 -6.66037E+00 -5.08869E+00 -6.51621E+00 -8.21725E+00 -7.67821E+00
  -9.04924E+00 -8.35137E+00 -1.80786E+00 -1.42972E-01  2.13602E+00  9.28482E+00  8.49697E+00  6.49216E+00  1.57384E+00  1.38629E+00
  -3.18703E+00 -8.12523E+00 -1.10636E+01 -7.76654E+00 -3.96234E+00  1.77276E+00  2.81876E+00  7.06151E+00  1.82232E+00  5.73054E+00
   2.90290E+00  1.92190E+00  6.51119E+00  7.05196E-01  2.44216E+00  2.57882E+00  4.22322E+00  4.79012E+00 -6.28373E-02  2.88231E+00
   5.05271E+00  2.34289E+00  3.99286E+00  7.54007E-01  1.11941E+01  1.49187E+01  1.08180E+01  1.60986E+01  1.36312E+01  1.53068E+01
   2.17638E+01  2.75623E+01  3.23129E+01  3.68805E+01  4.57205E+01  5.05404E+01  5.33288E+01  7.39684E+01  8.63914E+01  1.12843E+02
   1.16222E+02  1.02682E+02  8.38768E+01  6.46297E+01  4.66967E+01  3.51474E+01  1.97671E+01  1.10159E+01  3.47011E+00  4.76783E+00
  -2.96873E-01 -2.40183E+00 -4.18847E+00  1.94344E-01 -5.76043E+00 -1.18709E+01 -7.18808E+00 -6.58468E+00 -4.04744E+00 -3.51817E+00
  -7.37897E+00 -7.96072E+00 -7.47520E+00 -9.28838E+00 -4.42536E+00 -1.17631E+01 -1.03062E+01 -6.57596E+00 -7.02969E+00 -7.59637E+00
  -1.13655E+01 -8.41106E+00 -8.05259E+00 -1.02955E+01 -9.10580E+00 -9.43432E+00 -7.00388E+00 -1.38902E+01 -1.06677E+01 -9.85548E+00
  -1.35095E+01 -1.42439E+01 -1.06658E+01 -1.60646E+01 -1.19299E+01 -1.33777E+01 -7.78427E+00 -1.48979E+01 -1.15728E+01 -1.35565E+01
  -1.48856E+01 -1.39842E+01 -1.63109E+01 -1.31458E+01 -1.61695E+01 -1.22321E+01 -1.83889E+01 -1.75173E+01 -1.89175E+01 -2.26919E+01
  -2.47656E+01 -2.59825E+01 -2.80273E+01 -2.29558E+01 -2.55862E+01 -2.39295E+01 -3.26687E+01 -3.23851E+01 -3.14436E+01 -3.06410E+01
  -3.10353E+01 -2.94658E+01 -2.80486E+01 -2.98874E+01 -2.83664E+01 -2.94355E+01 -2.85372E+01 -3.59938E+01 -3.65880E+01 -4.26534E+01
  -3.70437E+01 -3.90236E+01 -3.73878E+01 -3.88567E+01 -3.86085E+01 -4.01307E+01 -3.72149E+01 -3.52248E+01 -3.64834E+01 -3.26959E+01
  -3.35497E+01 -3.65267E+01 -3.41690E+01 -2.74498E+01 -3.14111E+01 -3.44513E+01 -2.85280E+01 -2.98192E+01 -3.00718E+01 -2.61966E+01
  -2.44428E+01 -2.02425E+01 -2.38585E+01 -1.95947E+01 -2.12651E+01 -2.08267E+01 -1.63459E+01 -1.94070E+01 -2.29252E+01 -1.46044E+01
  -1.71460E+01 -2.02577E+01 -1.65350E+01 -1.57455E+01 -1.42468E+01 -1.58892E+01 -1.85567E+01 -1.99884E+01 -1.68769E+01 -1.60438E+01
  -1.60698E+01 -1.45904E+01 -1.34193E+01 -1.65585E+01 -1.43290E+01 -1.35013E+01 -9.54911E+00 -1.18955E+01 -1.01276E+01 -1.12400E+01
  -1.27808E+01 -9.26111E+00 -9.13742E+00 -1.65329E+00 -2.80366E+00 -7.71767E+00 -1.20803E+00 -1.16785E+00  9.17615E-01 -1.71986E+00
   8.04296E-01 -1.20014E+00 -3.98633E+00 -3.21521E+00  3.87178E-01  6.38195E+00  5.85502E+00  5.15270E-01  2.97699E+00 -8.69134E-01
  -1.21096E+00 -1.72537E+00 -3.10192E+00 -3.02057E+00 -3.33864E+00 -5.91623E+00 -2.22947E+00 -5.64036E+00 -3.60389E+00 -1.10823E+00
  -7.52373E+00 -6.31957E+00 -4.79805E+00 -1.10928E+00 -2.33919E+00 -7.85723E+00 -7.04967E+00 -5.71207E+00 -4.15197E+00 -6.87046E+00
  -7.82632E+00 -4.99397E+00 -6.11935E+00 -8.09643E+00 -4.33355E+00 -4.42997E+00 -3.43918E+00 -7.76787E+00 -2.26120E+00 -8.43582E-01
  -5.23193E+00 -1.22651E-01 -3.80871E+00 -3.67796E+00 -2.90883E+00 -5.30488E+00 -6.62840E+00 -3.24625E+00 -4.30275E+00 -4.64085E+00
  -5.25163E+00  1.51324E+00 -5.12339E+00 -7.50349E+00 -5.93920E+00 -4.97314E+00 -5.29922E+00  3.90694E-01 -5.52361E+00 -4.16849E+00
  -4.87896E+00 -5.74255E+00 -3.12629E+00 -2.45671E+00  5.33002E-01 -4.40009E+00 -1.75713E+00 -2.13044E+00 -1.75296E+00  3.93285E+00
  -1.81269E+00 -5.83816E+00 -5.32951E+00 -5.01902E+00 -2.81278E-01 -3.14597E+00 -3.59980E+00 -3.65013E+00 -7.85181E+00 -2.60146E+00
  -1.38412E-02 -3.23408E+00 -1.78064E+00 -3.41308E+00 -7.03201E+00  2.01139E+00  3.25932E+00 -3.84741E+00 -6.10431E-01 -2.49896E+00
  -1.75809E+00 -5.17191E+00 -2.67414E+00 -3.96086E+00 -3.59436E+00 -5.72610E-01 -3.62350E+00 -3.28995E+00
 NY points of the fit to the data follow
   1.11503E+01  1.12798E+01  1.23318E+01  1.41416E+01  1.70259E+01  2.15264E+01  2.69422E+01  3.34363E+01  4.08651E+01  4.76943E+01
   5.17594E+01  5.14958E+01  4.71793E+01  4.07363E+01  3.40932E+01  2.82273E+01  2.32596E+01  1.89939E+01  1.55472E+01  1.29622E+01
   1.12864E+01  1.02897E+01  9.68078E+00  9.82136E+00  1.01172E+01  1.04897E+01  1.16828E+01  1.40884E+01  1.72709E+01  2.00137E+01
   2.14355E+01  2.13916E+01  2.01109E+01  1.80249E+01  1.54374E+01  1.26990E+01  1.02919E+01  8.40018E+00  7.16236E+00  6.90135E+00
   7.42423E+00  8.25965E+00  9.09188E+00  1.00687E+01  1.14352E+01  1.29625E+01  1.40319E+01  1.40466E+01  1.29527E+01  1.12164E+01
   9.29078E+00  7.50096E+00  6.09542E+00  5.06716E+00  4.29090E+00  3.80159E+00  3.67547E+00  3.87451E+00  4.17926E+00  4.32025E+00
   4.11287E+00  3.50499E+00  2.63259E+00  1.72213E+00  1.00927E+00  6.32238E-01  5.04376E-01  5.18147E-01  6.50156E-01  8.73085E-01
   1.10385E+00  1.22332E+00  1.14228E+00  8.81739E-01  5.25220E-01  1.53294E-01 -1.83244E-01 -4.75405E-01 -7.22018E-01 -9.24164E-01
  -1.13948E+00 -1.38329E+00 -1.61697E+00 -1.83531E+00 -2.14202E+00 -2.64098E+00 -3.28994E+00 -3.88501E+00 -4.22554E+00 -4.20444E+00
  -3.88929E+00 -3.41751E+00 -2.86274E+00 -2.24466E+00 -1.49527E+00 -1.05026E-02  3.90386E+00  9.13211E+00  1.45766E+01  2.28320E+01
   3.56474E+01  5.06000E+01  6.19495E+01  6.48160E+01  5.90981E+01  4.85643E+01  3.71781E+01  2.70898E+01  1.86925E+01  1.16258E+01
   5.71550E+00  1.30288E+00 -8.89695E-01 -1.48280E+00 -1.59162E+00 -1.52348E+00 -1.36073E+00 -1.10414E+00 -6.53069E-01  5.14440E-01
   4.22722E+00  9.63449E+00  1.50184E+01  2.27186E+01  3.48096E+01  4.93983E+01  6.11259E+01  6.49171E+01  6.01424E+01  5.04484E+01
   3.99027E+01  3.05316E+01  2.24439E+01  1.50017E+01  8.05558E+00  2.33083E+00 -9.69803E-01 -1.99964E+00 -1.95088E+00 -1.41695E+00
  -8.45437E-01 -5.33980E-01 -5.49472E-01 -8.32533E-01 -1.31414E+00 -1.89457E+00 -2.51333E+00 -3.18084E+00 -3.86193E+00 -4.50571E+00
  -5.10483E+00 -5.64718E+00 -6.12857E+00 -6.53665E+00 -6.90695E+00 -7.13861E+00 -7.27401E+00 -7.54289E+00 -8.06234E+00 -8.88223E+00
  -9.65961E+00 -9.93815E+00 -9.71878E+00 -9.41579E+00 -9.43783E+00 -9.94195E+00 -1.07506E+01 -1.15612E+01 -1.22146E+01 -1.27372E+01
  -1.31774E+01 -1.35335E+01 -1.40454E+01 -1.47830E+01 -1.55220E+01 -1.58526E+01 -1.55771E+01 -1.50390E+01 -1.47905E+01 -1.49637E+01
  -1.52809E+01 -1.52551E+01 -1.48013E+01 -1.42744E+01 -1.38451E+01 -1.32916E+01 -1.22434E+01 -1.04961E+01 -8.30516E+00 -6.23619E+00
  -4.84845E+00 -4.45920E+00 -4.75846E+00 -5.39140E+00 -6.21655E+00 -7.09949E+00 -7.79578E+00 -7.93580E+00 -7.46255E+00 -6.50482E+00
  -5.23719E+00 -3.86309E+00 -2.61927E+00 -1.99512E+00 -2.14616E+00 -3.07153E+00 -4.80169E+00 -6.90585E+00 -8.74133E+00 -9.74610E+00
  -9.84612E+00 -9.16243E+00 -7.34715E+00 -4.35565E+00 -1.05397E+00  1.16901E+00  1.40588E+00 -7.93018E-02 -2.57839E+00 -5.76280E+00
  -8.97322E+00 -1.12227E+01 -1.17189E+01 -1.02697E+01 -7.56276E+00 -4.45918E+00 -1.57095E+00  6.44890E-01  2.03071E+00  2.68457E+00
   3.03570E+00  3.44811E+00  4.01951E+00  4.86048E+00  5.96439E+00  7.08197E+00  7.79874E+00  7.96393E+00  7.66189E+00  7.06291E+00
   6.35992E+00  5.99955E+00  6.43917E+00  7.73978E+00  9.55885E+00  1.14157E+01  1.30217E+01  1.42653E+01  1.54666E+01  1.70325E+01
   1.85435E+01  2.05674E+01  2.45242E+01  3.32202E+01  4.45415E+01  5.32056E+01  6.19194E+01  7.55006E+01  9.32462E+01  1.07983E+02
   1.11645E+02  1.02450E+02  8.53703E+01  6.65895E+01  4.99174E+01  3.62588E+01  2.46924E+01  1.46327E+01  6.39133E+00  1.27584E+00
  -1.01803E+00 -2.44189E+00 -3.50445E+00 -4.38641E+00 -5.24103E+00 -6.13550E+00 -7.01579E+00 -7.84935E+00 -8.61854E+00 -9.30059E+00
  -9.87058E+00 -1.03239E+01 -1.06716E+01 -1.09316E+01 -1.11161E+01 -1.12364E+01 -1.13022E+01 -1.13064E+01 -1.12333E+01 -1.10735E+01
  -1.08332E+01 -1.05348E+01 -1.02097E+01 -9.88409E+00 -9.58245E+00 -9.32499E+00 -9.12424E+00 -8.98523E+00 -8.90928E+00 -8.90119E+00
  -8.96967E+00 -9.12520E+00 -9.37993E+00 -9.74144E+00 -1.02117E+01 -1.07881E+01 -1.14647E+01 -1.22336E+01 -1.30836E+01 -1.39990E+01
  -1.49653E+01 -1.59687E+01 -1.69951E+01 -1.80298E+01 -1.90592E+01 -2.00717E+01 -2.10578E+01 -2.20095E+01 -2.29201E+01 -2.37841E+01
  -2.45977E+01 -2.53590E+01 -2.60678E+01 -2.67249E+01 -2.73310E+01 -2.78872E+01 -2.83955E+01 -2.88589E+01 -2.92804E+01 -2.96628E+01
  -3.00079E+01 -3.03178E+01 -3.05948E+01 -3.08413E+01 -3.10592E+01 -3.12498E+01 -3.14134E+01 -3.15505E+01 -3.16618E+01 -3.17476E+01
  -3.18075E+01 -3.18402E+01 -3.18440E+01 -3.18170E+01 -3.17575E+01 -3.16631E+01 -3.15309E+01 -3.13569E+01 -3.11376E+01 -3.08699E+01
  -3.05509E+01 -3.01780E+01 -2.97492E+01 -2.92629E+01 -2.87196E+01 -2.81218E+01 -2.74736E+01 -2.67808E+01 -2.60510E+01 -2.52937E+01
  -2.45205E+01 -2.37447E+01 -2.29802E+01 -2.22407E+01 -2.15394E+01 -2.08885E+01 -2.02989E+01 -1.97785E+01 -1.93319E+01 -1.89599E+01
  -1.86597E+01 -1.84253E+01 -1.82475E+01 -1.81141E+01 -1.80104E+01 -1.79196E+01 -1.78246E+01 -1.77083E+01 -1.75546E+01 -1.73482E+01
  -1.70752E+01 -1.67242E+01 -1.62866E+01 -1.57567E+01 -1.51318E+01 -1.44116E+01 -1.35986E+01 -1.26980E+01 -1.17184E+01 -1.06707E+01
  -9.56805E+00 -8.42528E+00 -7.25889E+00 -6.08701E+00 -4.92903E+00 -3.80466E+00 -2.73322E+00 -1.73306E+00 -8.21306E-01 -1.34926E-02
   6.77164E-01  1.24054E+00  1.67013E+00  1.96301E+00  2.11960E+00  2.14349E+00  2.04157E+00  1.82382E+00  1.50293E+00  1.09344E+00
   6.10775E-01  7.07956E-02 -5.10516E-01 -1.11741E+00 -1.73503E+00 -2.35008E+00 -2.95117E+00 -3.52875E+00 -4.07492E+00 -4.58334E+00
  -5.04942E+00 -5.47044E+00 -5.84529E+00 -6.17397E+00 -6.45715E+00 -6.69618E+00 -6.89310E+00 -7.05064E+00 -7.17188E+00 -7.25981E+00
  -7.31718E+00 -7.34672E+00 -7.35122E+00 -7.33361E+00 -7.29656E+00 -7.24232E+00 -7.17277E+00 -7.08972E+00 -6.99504E+00 -6.89060E+00
  -6.77792E+00 -6.65813E+00 -6.53218E+00 -6.40112E+00 -6.26612E+00 -6.12824E+00 -5.98825E+00 -5.84663E+00 -5.70389E+00 -5.56071E+00
  -5.41788E+00 -5.27601E+00 -5.13543E+00 -4.99626E+00 -4.85862E+00 -4.72283E+00 -4.58919E+00 -4.45779E+00 -4.32848E+00 -4.20113E+00
  -4.07584E+00 -3.95283E+00 -3.83223E+00 -3.71393E+00 -3.59769E+00 -3.48338E+00 -3.37113E+00 -3.26110E+00 -3.15327E+00 -3.04740E+00
  -2.94321E+00 -2.84068E+00 -2.73994E+00 -2.64104E+00 -2.54383E+00 -2.44801E+00 -2.35337E+00 -2.25996E+00 -2.16787E+00 -2.07708E+00
  -1.98732E+00 -1.89828E+00 -1.80985E+00 -1.72212E+00 -1.63514E+00 -1.54876E+00 -1.46264E+00 -1.37655E+00 -1.29046E+00 -1.20447E+00
  -1.11855E+00 -1.03244E+00 -9.45802E-01 -8.58487E-01 -7.70546E-01 -6.82040E-01 -5.92827E-01 -5.02578E-01
 NY background values follow
     6.270E+00    6.166E+00    6.061E+00    5.955E+00    5.848E+00    5.739E+00    5.629E+00    5.518E+00    5.406E+00    5.293E+00
     5.178E+00    5.062E+00    4.946E+00    4.828E+00    4.709E+00    4.589E+00    4.469E+00    4.347E+00    4.224E+00    4.101E+00
     3.976E+00    3.851E+00    3.725E+00    3.598E+00    3.471E+00    3.342E+00    3.213E+00    3.083E+00    2.952E+00    2.821E+00
     2.689E+00    2.557E+00    2.424E+00    2.290E+00    2.156E+00    2.021E+00    1.886E+00    1.750E+00    1.614E+00    1.478E+00
     1.341E+00    1.203E+00    1.066E+00    9.278E-01    7.895E-01    6.509E-01    5.121E-01    3.731E-01    2.340E-01    9.472E-02
    -4.458E-02   -1.839E-01   -3.231E-01   -4.622E-01   -6.012E-01   -7.400E-01   -8.784E-01   -1.017E+00   -1.154E+00   -1.292E+00
    -1.429E+00   -1.565E+00   -1.701E+00   -1.836E+00   -1.970E+00   -2.104E+00   -2.237E+00   -2.369E+00   -2.500E+00   -2.631E+00
    -2.760E+00   -2.888E+00   -3.015E+00   -3.141E+00   -3.266E+00   -3.389E+00   -3.511E+00   -3.632E+00   -3.751E+00   -3.869E+00
    -3.986E+00   -4.100E+00   -4.214E+00   -4.325E+00   -4.435E+00   -4.543E+00   -4.649E+00   -4.753E+00   -4.855E+00   -4.956E+00
    -5.054E+00   -5.150E+00   -5.244E+00   -5.336E+00   -5.426E+00   -5.514E+00   -5.601E+00   -5.685E+00   -5.768E+00   -5.849E+00
    -5.929E+00   -6.007E+00   -6.083E+00   -6.158E+00   -6.232E+00   -6.304E+00   -6.375E+00   -6.445E+00   -6.514E+00   -6.582E+00
    -6.649E+00   -6.715E+00   -6.780E+00   -6.844E+00   -6.907E+00   -6.970E+00   -7.032E+00   -7.093E+00   -7.154E+00   -7.214E+00
    -7.274E+00   -7.334E+00   -7.393E+00   -7.452E+00   -7.511E+00   -7.570E+00   -7.629E+00   -7.688E+00   -7.747E+00   -7.806E+00
    -7.865E+00   -7.924E+00   -7.984E+00   -8.044E+00   -8.105E+00   -8.166E+00   -8.227E+00   -8.289E+00   -8.352E+00   -8.415E+00
    -8.478E+00   -8.542E+00   -8.606E+00   -8.670E+00   -8.735E+00   -8.799E+00   -8.864E+00   -8.928E+00   -8.993E+00   -9.057E+00
    -9.121E+00   -9.185E+00   -9.249E+00   -9.312E+00   -9.375E+00   -9.438E+00   -9.500E+00   -9.562E+00   -9.622E+00   -9.683E+00
    -9.742E+00   -9.801E+00   -9.859E+00   -9.916E+00   -9.972E+00   -1.003E+01   -1.008E+01   -1.013E+01   -1.019E+01   -1.024E+01
    -1.029E+01   -1.033E+01   -1.038E+01   -1.043E+01   -1.047E+01   -1.051E+01   -1.055E+01   -1.059E+01   -1.063E+01   -1.066E+01
    -1.070E+01   -1.073E+01   -1.076E+01   -1.079E+01   -1.081E+01   -1.084E+01   -1.086E+01   -1.088E+01   -1.091E+01   -1.093E+01
    -1.095E+01   -1.097E+01   -1.099E+01   -1.101E+01   -1.103E+01   -1.105E+01   -1.107E+01   -1.109E+01   -1.112E+01   -1.114E+01
    -1.117E+01   -1.119E+01   -1.122E+01   -1.125E+01   -1.128E+01   -1.132E+01   -1.135E+01   -1.139E+01   -1.143E+01   -1.147E+01
    -1.152E+01   -1.157E+01   -1.162E+01   -1.168E+01   -1.174E+01   -1.180E+01   -1.187E+01   -1.194E+01   -1.202E+01   -1.210E+01
    -1.218E+01   -1.227E+01   -1.237E+01   -1.247E+01   -1.257E+01   -1.268E+01   -1.280E+01   -1.292E+01   -1.305E+01   -1.318E+01
    -1.332E+01   -1.346E+01   -1.361E+01   -1.376E+01   -1.392E+01   -1.409E+01   -1.425E+01   -1.443E+01   -1.461E+01   -1.479E+01
    -1.498E+01   -1.517E+01   -1.536E+01   -1.556E+01   -1.577E+01   -1.597E+01   -1.619E+01   -1.640E+01   -1.662E+01   -1.684E+01
    -1.707E+01   -1.729E+01   -1.753E+01   -1.776E+01   -1.800E+01   -1.824E+01   -1.848E+01   -1.873E+01   -1.898E+01   -1.923E+01
    -1.948E+01   -1.974E+01   -1.999E+01   -2.025E+01   -2.051E+01   -2.078E+01   -2.104E+01   -2.131E+01   -2.158E+01   -2.185E+01
    -2.212E+01   -2.239E+01   -2.266E+01   -2.293E+01   -2.321E+01   -2.348E+01   -2.376E+01   -2.403E+01   -2.431E+01   -2.459E+01
    -2.486E+01   -2.514E+01   -2.541E+01   -2.569E+01   -2.596E+01   -2.623E+01   -2.651E+01   -2.678E+01   -2.705E+01   -2.732E+01
    -2.758E+01   -2.785E+01   -2.811E+01   -2.837E+01   -2.863E+01   -2.889E+01   -2.915E+01   -2.940E+01   -2.965E+01   -2.990E+01
    -3.014E+01   -3.038E+01   -3.062E+01   -3.085E+01   -3.109E+01   -3.131E+01   -3.154E+01   -3.176E+01   -3.197E+01   -3.218E+01
    -3.239E+01   -3.259E+01   -3.279E+01   -3.298E+01   -3.317E+01   -3.336E+01   -3.353E+01   -3.371E+01   -3.387E+01   -3.404E+01
    -3.419E+01   -3.434E+01   -3.449E+01   -3.462E+01   -3.476E+01   -3.488E+01   -3.500E+01   -3.512E+01   -3.523E+01   -3.533E+01
    -3.542E+01   -3.551E+01   -3.559E+01   -3.567E+01   -3.573E+01   -3.580E+01   -3.585E+01   -3.590E+01   -3.594E+01   -3.597E+01
    -3.599E+01   -3.601E+01   -3.602E+01   -3.602E+01   -3.602E+01   -3.600E+01   -3.598E+01   -3.595E+01   -3.591E+01   -3.587E+01
    -3.581E+01   -3.575E+01   -3.568E+01   -3.560E+01   -3.551E+01   -3.541E+01   -3.531E+01   -3.519E+01   -3.507E+01   -3.494E+01
    -3.479E+01   -3.464E+01   -3.448E+01   -3.431E+01   -3.413E+01   -3.394E+01   -3.375E+01   -3.354E+01   -3.333E+01   -3.311E+01
    -3.288E+01   -3.264E+01   -3.240E+01   -3.215E+01   -3.189E+01   -3.163E+01   -3.136E+01   -3.108E+01   -3.080E+01   -3.051E+01
    -3.022E+01   -2.992E+01   -2.961E+01   -2.931E+01   -2.899E+01   -2.868E+01   -2.836E+01   -2.803E+01   -2.770E+01   -2.737E+01
    -2.703E+01   -2.670E+01   -2.636E+01   -2.601E+01   -2.567E+01   -2.532E+01   -2.497E+01   -2.462E+01   -2.427E+01   -2.391E+01
    -2.356E+01   -2.320E+01   -2.285E+01   -2.249E+01   -2.214E+01   -2.178E+01   -2.143E+01   -2.107E+01   -2.072E+01   -2.037E+01
    -2.001E+01   -1.966E+01   -1.932E+01   -1.897E+01   -1.862E+01   -1.828E+01   -1.793E+01   -1.759E+01   -1.725E+01   -1.692E+01
    -1.658E+01   -1.625E+01   -1.592E+01   -1.559E+01   -1.527E+01   -1.494E+01   -1.462E+01   -1.431E+01   -1.399E+01   -1.368E+01
    -1.337E+01   -1.307E+01   -1.277E+01   -1.247E+01   -1.217E+01   -1.188E+01   -1.160E+01   -1.131E+01   -1.103E+01   -1.076E+01
    -1.049E+01   -1.022E+01   -9.960E+00   -9.703E+00   -9.450E+00   -9.202E+00   -8.958E+00   -8.720E+00   -8.486E+00   -8.258E+00
    -8.035E+00   -7.817E+00   -7.604E+00   -7.397E+00   -7.196E+00   -6.999E+00   -6.808E+00   -6.622E+00   -6.440E+00   -6.263E+00
    -6.091E+00   -5.923E+00   -5.759E+00   -5.599E+00   -5.444E+00   -5.292E+00   -5.143E+00   -4.999E+00   -4.857E+00   -4.719E+00
    -4.584E+00   -4.452E+00   -4.323E+00   -4.196E+00   -4.072E+00   -3.951E+00   -3.831E+00   -3.714E+00   -3.599E+00   -3.486E+00
    -3.374E+00   -3.264E+00   -3.155E+00   -3.048E+00   -2.942E+00   -2.836E+00   -2.732E+00   -2.628E+00   -2.525E+00   -2.423E+00
    -2.320E+00   -2.218E+00   -2.116E+00   -2.014E+00   -1.911E+00   -1.809E+00   -1.705E+00   -1.601E+00
 Cr       Conc. = 1.27E+03
