 LCModel (Version 6.3-1L) Copyright: S.W. Provencher.          Ref.: Magn. Reson. Med. 30:672-679 (1993).                
 Slice#2 Row#6 Col#3  K_02_press_1_raw_act
 36 lines in following concentration table = NCONC+1
    Conc.  %SD /Cr+PCr  Metabolite                                         
    0.000 999%   0.000 Ala                                                 
    0.000 999%   0.000 Asp                                                 
  354.493  84%   0.160 Cr                                                  
 1.86E+03  16%   0.840 PCr                                                 
  607.283  35%   0.274 GABA                                                
    0.000 999%   0.000 Glc                                                 
 1.47E+03  45%   0.663 Gln                                                 
 2.64E+03  29%   1.190 Glu                                                 
  700.139   4%   0.316 GPC                                                 
    0.000 999%   0.000 PCh                                                 
  726.454  16%   0.328 GSH                                                 
 1.79E+03  21%   0.808 Ins                                                 
  263.234  94%   0.119 Lac                                                 
 3.07E+03   7%   1.386 NAA                                                 
  276.144  86%   0.125 NAAG                                                
  206.415  18% 9.3E-02 Scyllo                                              
    0.000 999%   0.000 Tau                                                 
    0.000 999%   0.000 -CrCH2                                              
  700.139   4%   0.316 GPC+PCh                                             
 3.35E+03   3%   1.511 NAA+NAAG                                            
 2.22E+03   3%   1.000 Cr+PCr                                              
 4.11E+03  32%   1.853 Glu+Gln                                             
    0.000 999%   0.000 Lip13a                                              
    0.000 999%   0.000 Lip13b                                              
    0.000 999%   0.000 Lip09                                               
  469.515  27%   0.212 MM09                                                
   65.214 112% 2.9E-02 Lip20                                               
 1.14E+03  21%   0.515 MM20                                                
  141.666  44% 6.4E-02 MM12                                                
    0.000 999%   0.000 MM14                                                
  540.948  22%   0.244 MM17                                                
    0.000 999%   0.000 Lip13a+Lip13b                                       
  141.666  44% 6.4E-02 MM14+Lip13a+Lip13b+MM12                             
  469.515  27%   0.212 MM09+Lip09                                          
 1.21E+03  21%   0.545 MM20+Lip20                                          
   6 lines in following misc. output table
  FWHM = 0.107 ppm    S/N =  11                                            
  Data shift = 0.038 ppm                                                   
  Ph: -26 deg     -11.9 deg/ppm                                            
  alphaB,S = 7.5E-01,   1.6E+02                                            
   14 spline knots.   Ns = 6(2)                                            
  ( 8) 3 infls.   ( 3) 1 extrs.                                            
  498 points on ppm-axis = NY
      4.000000     3.992357     3.984714     3.977070     3.969427     3.961784     3.954141     3.946497     3.938854     3.931211
      3.923568     3.915925     3.908281     3.900638     3.892995     3.885352     3.877708     3.870065     3.862422     3.854779
      3.847136     3.839492     3.831849     3.824206     3.816563     3.808919     3.801276     3.793633     3.785990     3.778347
      3.770703     3.763060     3.755417     3.747774     3.740130     3.732487     3.724844     3.717201     3.709558     3.701914
      3.694271     3.686628     3.678985     3.671341     3.663698     3.656055     3.648412     3.640769     3.633125     3.625482
      3.617839     3.610196     3.602552     3.594909     3.587266     3.579623     3.571980     3.564336     3.556693     3.549050
      3.541407     3.533763     3.526120     3.518477     3.510834     3.503191     3.495547     3.487904     3.480261     3.472618
      3.464974     3.457331     3.449688     3.442045     3.434402     3.426758     3.419115     3.411472     3.403829     3.396185
      3.388542     3.380899     3.373256     3.365613     3.357969     3.350326     3.342683     3.335040     3.327396     3.319753
      3.312110     3.304467     3.296824     3.289180     3.281537     3.273894     3.266251     3.258607     3.250964     3.243321
      3.235678     3.228034     3.220391     3.212748     3.205105     3.197462     3.189818     3.182175     3.174532     3.166889
      3.159245     3.151602     3.143959     3.136316     3.128673     3.121029     3.113386     3.105743     3.098100     3.090456
      3.082813     3.075170     3.067527     3.059884     3.052240     3.044597     3.036954     3.029311     3.021667     3.014024
      3.006381     2.998738     2.991095     2.983451     2.975808     2.968165     2.960522     2.952878     2.945235     2.937592
      2.929949     2.922306     2.914662     2.907019     2.899376     2.891733     2.884089     2.876446     2.868803     2.861160
      2.853517     2.845873     2.838230     2.830587     2.822944     2.815300     2.807657     2.800014     2.792371     2.784728
      2.777084     2.769441     2.761798     2.754155     2.746511     2.738868     2.731225     2.723582     2.715939     2.708295
      2.700652     2.693009     2.685366     2.677722     2.670079     2.662436     2.654793     2.647150     2.639506     2.631863
      2.624220     2.616577     2.608933     2.601290     2.593647     2.586004     2.578361     2.570717     2.563074     2.555431
      2.547788     2.540144     2.532501     2.524858     2.517215     2.509572     2.501928     2.494285     2.486642     2.478999
      2.471355     2.463712     2.456069     2.448426     2.440783     2.433139     2.425496     2.417853     2.410210     2.402566
      2.394923     2.387280     2.379637     2.371994     2.364350     2.356707     2.349064     2.341421     2.333777     2.326134
      2.318491     2.310848     2.303205     2.295561     2.287918     2.280275     2.272632     2.264988     2.257345     2.249702
      2.242059     2.234416     2.226772     2.219129     2.211486     2.203843     2.196199     2.188556     2.180913     2.173270
      2.165627     2.157983     2.150340     2.142697     2.135054     2.127410     2.119767     2.112124     2.104481     2.096838
      2.089194     2.081551     2.073908     2.066265     2.058621     2.050978     2.043335     2.035692     2.028049     2.020405
      2.012762     2.005119     1.997476     1.989833     1.982190     1.974546     1.966903     1.959260     1.951617     1.943974
      1.936331     1.928688     1.921045     1.913402     1.905759     1.898115     1.890472     1.882829     1.875186     1.867543
      1.859900     1.852257     1.844614     1.836971     1.829327     1.821684     1.814041     1.806398     1.798755     1.791112
      1.783469     1.775826     1.768183     1.760540     1.752896     1.745253     1.737610     1.729967     1.722324     1.714681
      1.707038     1.699395     1.691752     1.684108     1.676465     1.668822     1.661179     1.653536     1.645893     1.638250
      1.630607     1.622964     1.615321     1.607677     1.600034     1.592391     1.584748     1.577105     1.569462     1.561819
      1.554176     1.546533     1.538890     1.531246     1.523603     1.515960     1.508317     1.500674     1.493031     1.485388
      1.477745     1.470102     1.462458     1.454815     1.447172     1.439529     1.431886     1.424243     1.416600     1.408957
      1.401314     1.393671     1.386027     1.378384     1.370741     1.363098     1.355455     1.347812     1.340169     1.332526
      1.324883     1.317240     1.309596     1.301953     1.294310     1.286667     1.279024     1.271381     1.263738     1.256095
      1.248452     1.240808     1.233165     1.225522     1.217879     1.210236     1.202593     1.194950     1.187307     1.179664
      1.172021     1.164377     1.156734     1.149091     1.141448     1.133805     1.126162     1.118519     1.110876     1.103233
      1.095590     1.087946     1.080303     1.072660     1.065017     1.057374     1.049731     1.042088     1.034445     1.026802
      1.019158     1.011515     1.003872     0.996229     0.988586     0.980943     0.973300     0.965657     0.958014     0.950371
      0.942727     0.935084     0.927441     0.919798     0.912155     0.904512     0.896869     0.889226     0.881583     0.873940
      0.866296     0.858653     0.851010     0.843367     0.835724     0.828081     0.820438     0.812795     0.805152     0.797508
      0.789865     0.782222     0.774579     0.766936     0.759293     0.751650     0.744007     0.736364     0.728721     0.721077
      0.713434     0.705791     0.698148     0.690505     0.682862     0.675219     0.667576     0.659933     0.652290     0.644646
      0.637003     0.629360     0.621717     0.614074     0.606431     0.598788     0.591145     0.583502     0.575858     0.568215
      0.560572     0.552929     0.545286     0.537643     0.530000     0.522357     0.514714     0.507071     0.499427     0.491784
      0.484141     0.476498     0.468855     0.461212     0.453569     0.445925     0.438282     0.430639     0.422996     0.415353
      0.407710     0.400067     0.392424     0.384780     0.377137     0.369494     0.361851     0.354208     0.346565     0.338922
      0.331278     0.323635     0.315992     0.308349     0.300706     0.293063     0.285420     0.277777     0.270133     0.262490
      0.254847     0.247204     0.239561     0.231918     0.224275     0.216631     0.208988     0.201345
 NY phased data points follow
   5.82291E+00  6.82792E+00  7.50798E+00  1.52257E+01  1.73921E+01  1.72437E+01  1.68280E+01  2.07482E+01  2.19302E+01  2.28116E+01
   2.00647E+01  2.15707E+01  1.90680E+01  1.67276E+01  1.06742E+01  6.52781E+00  8.02697E+00  4.13016E+00  4.02473E-01  1.59725E+00
   2.25410E+00 -2.73849E-01 -3.61295E-01  1.65009E-01  1.53730E+00  2.94541E+00  5.97467E+00  7.11188E+00  4.21432E-01  5.94090E+00
   4.47490E+00  4.41497E+00  3.35255E+00  3.37915E+00  7.72592E-01  1.95107E+00  1.10204E+00 -6.52832E-01  2.47233E+00  1.79054E+00
  -3.36916E-02  5.30362E+00  2.65554E+00  3.16747E+00  3.81506E+00  6.94996E+00  5.99471E+00  4.92004E+00  2.06773E-01  6.04475E+00
   6.70575E+00  3.79888E+00  5.63600E+00 -3.50605E+00  5.34290E-01 -1.60361E+00 -2.60574E-01 -4.14780E+00 -4.21438E+00 -4.62866E+00
  -3.55941E+00 -8.44274E+00 -9.84175E+00 -4.89148E+00 -1.07039E+01 -9.68942E+00 -9.37173E+00 -9.95237E+00 -9.60171E+00 -8.55470E+00
  -5.17208E+00 -7.07717E+00 -4.14816E+00 -3.15683E+00 -7.11523E+00 -6.47242E+00 -5.45672E+00 -5.36268E+00 -7.67850E+00 -4.03732E+00
  -4.60308E+00 -2.40561E+00 -4.91300E+00 -3.78962E+00 -9.04504E-01 -2.33603E+00 -2.34768E+00  6.72341E-01 -6.27568E-01  5.99421E+00
  -2.01623E-01  2.29018E+00  1.65216E+00  8.37858E+00  1.09773E+01  9.91888E+00  1.77957E+01  1.77357E+01  2.13523E+01  2.61653E+01
   2.51125E+01  2.77847E+01  3.20120E+01  2.82958E+01  2.76136E+01  2.10750E+01  2.19618E+01  1.65009E+01  1.35598E+01  9.15539E+00
   6.78442E+00  6.88857E+00  4.12931E+00  3.84698E+00  1.69357E+00  5.56557E+00  6.81985E+00  9.38000E+00  1.20212E+01  1.78300E+01
   2.05252E+01  2.45879E+01  2.63458E+01  3.19768E+01  3.24884E+01  3.52326E+01  3.33466E+01  3.35022E+01  3.63741E+01  2.92538E+01
   2.91348E+01  2.06504E+01  1.66168E+01  1.18165E+01  6.99321E+00  3.13980E+00  4.07079E+00  2.58730E+00 -4.24952E-01  5.16988E+00
   1.15547E-01 -4.33087E+00  3.32120E-01 -1.15845E+00  3.64392E-01 -4.30979E-01 -7.16956E-01  8.26919E-01  1.17532E+00 -2.94533E+00
  -7.47649E-01 -1.49490E+00 -2.59985E+00 -1.98117E+00 -2.23838E+00 -4.63259E+00 -1.12668E+00 -4.24348E+00 -2.04896E+00 -6.15924E+00
  -2.57683E+00 -4.03101E+00 -5.35559E+00 -3.03693E+00 -5.01516E+00 -6.34314E+00 -7.20243E+00 -4.29348E+00 -1.14927E+01 -1.03399E+01
  -1.05727E+01 -1.02038E+01 -9.59631E+00 -1.52641E+01 -1.49788E+01 -1.35270E+01 -1.21238E+01 -1.37323E+01 -1.11041E+01 -1.38693E+01
  -1.45560E+01 -1.18379E+01 -1.14927E+01 -9.40868E+00 -9.46762E+00 -7.85499E+00 -2.52845E+00 -8.29739E-01 -7.87247E-01 -2.56149E+00
   5.70841E-01  8.13933E-01  1.43369E+00  2.75701E+00  4.70312E+00  5.67896E+00 -7.09120E-01  5.25204E+00 -2.69065E+00 -2.51020E-01
  -8.93819E-02 -7.67589E-01  1.93926E-01 -5.34854E-01 -4.83830E+00  3.52182E+00 -1.44862E+00 -1.10155E+00  2.39697E+00  2.23585E+00
   2.95461E+00  4.12860E-01  2.44559E+00 -1.28648E-01  4.09311E+00  4.62309E+00  2.95399E+00  2.23878E+00  5.21456E+00  5.14057E-01
   3.33054E+00  3.99581E+00  1.62421E+00  1.66909E+00  1.14501E+00  7.29405E+00  6.75311E+00  7.64963E+00  6.93613E+00  3.45877E+00
   8.16567E+00  7.10430E+00  5.15933E+00  1.12717E+01  5.41747E+00  4.02927E+00  1.01086E+01  9.53226E+00  1.40313E+01  1.15188E+01
   1.02946E+01  1.04114E+01  1.20497E+01  1.13052E+01  1.53375E+01  1.61239E+01  1.85504E+01  2.02910E+01  2.53358E+01  2.87354E+01
   2.66012E+01  3.71163E+01  3.74500E+01  4.98848E+01  5.34642E+01  5.71030E+01  5.83687E+01  6.07325E+01  6.10924E+01  7.06923E+01
   7.15621E+01  6.78986E+01  6.59806E+01  5.54946E+01  5.25713E+01  4.21079E+01  3.20952E+01  2.68515E+01  2.30009E+01  1.81282E+01
   1.29007E+01  1.37488E+01  1.24654E+01  1.17099E+01  8.32914E+00  8.79121E+00  1.05908E+01  9.71414E+00  9.76925E+00  8.09789E+00
   1.22090E+01  5.08866E+00  4.52437E+00  7.98304E+00  6.00368E+00  7.02429E+00  9.90188E+00  6.89199E+00  5.52315E+00  3.67880E+00
   6.09218E+00  5.94654E+00  6.08480E+00  6.95091E+00  7.32803E+00  7.46582E+00  7.85942E+00  7.35477E+00  6.66880E+00  4.37417E+00
   9.39097E+00  9.23125E+00  9.55594E+00  9.01182E+00  7.78585E+00  1.09673E+01  1.00310E+01  1.25019E+01  7.36162E+00  9.67498E+00
   9.20169E+00  1.05679E+01  1.09394E+01  1.01363E+01  1.23316E+01  1.00566E+01  1.21337E+01  8.23843E+00  9.25513E+00  6.01414E+00
   7.62492E+00  7.74668E+00  5.61931E+00  1.07022E+01  8.90466E+00  6.74444E+00  5.11151E+00  7.08215E+00  4.05369E+00  2.83429E+00
   5.83586E+00  7.04883E+00  4.96201E+00  9.90251E+00  5.64168E+00  1.02122E+01  1.78802E+00  4.21741E+00  7.42357E-01  3.60930E+00
   6.90398E+00  4.74276E+00  2.33396E+00  3.38814E+00 -1.07541E+00  2.65163E+00  2.43376E-01  7.02684E-01  1.17515E+00 -8.95704E-02
   2.49711E+00  5.92382E+00  4.28984E+00  4.56396E+00  3.72442E+00  3.00434E+00  4.98644E+00  5.10452E+00  1.79724E+00  5.99082E+00
   9.45388E+00  6.49377E+00  8.14736E+00  9.14526E+00  8.15677E+00  9.47139E+00  6.93459E+00  3.38152E+00  9.12671E+00  7.58038E+00
   4.92245E+00  6.56402E+00  2.26137E+00  6.69134E+00  3.11113E+00  3.02967E+00  1.71502E+00  3.15529E+00  2.42845E+00  3.26330E+00
   3.95333E+00  4.64225E+00  4.60939E+00  4.68401E+00  6.39864E+00  1.46730E-01  3.64210E+00  3.12677E+00  4.41122E+00  5.94603E+00
   2.05463E+00  4.91797E+00  5.56352E+00  7.57970E+00  6.69153E+00  4.86916E+00  5.05873E+00  7.81107E+00  1.87375E+00  8.29528E+00
   6.68491E+00  4.59355E+00  3.97637E+00  5.57388E+00  1.58187E+00  6.26781E+00  1.96337E+00  8.32290E+00  3.33001E+00  4.23585E+00
   7.35158E+00  5.39990E+00  1.75852E+00  1.86541E+00  6.22301E+00  3.59590E+00  1.00514E+00  4.37112E-01  3.13345E+00  7.89603E-01
   1.17042E+00  4.44847E+00  1.98474E+00  7.45543E+00  4.88436E+00  5.06347E+00  3.34394E+00  3.36811E+00  3.56402E+00  4.56291E+00
   6.34220E+00  6.30503E+00  1.31208E+00  4.90555E+00  4.48220E+00  3.49285E+00  1.26803E+00  4.37591E+00  5.30199E+00  4.29631E+00
   7.35341E+00  2.32988E+00  4.01403E+00  2.95138E+00  2.44302E+00  1.94860E+00  1.34453E+00  2.68450E+00  1.47471E+00 -1.64128E+00
   7.66518E+00  5.04299E+00  3.73458E+00  3.15969E+00  2.58643E+00  4.82276E+00  2.42586E+00  2.08000E+00  4.14486E+00  5.40276E+00
   4.30595E+00  2.23626E+00  2.35227E-01  3.43883E+00  3.32893E+00  2.99802E+00  3.03798E+00  1.40083E+00  7.16589E+00  5.05451E+00
   2.36787E+00  1.08121E+00 -6.49028E-02  6.65005E+00  3.98027E+00  3.81499E+00  3.13181E+00 -1.37838E+00 -3.16094E-01  6.34676E+00
   4.04408E+00  1.77295E+00  3.98797E+00  1.02908E-01  2.59805E+00  1.59073E+00  3.69361E+00  2.33302E+00  3.56794E+00  1.59296E+00
   2.12507E+00  3.68485E-01  1.92471E+00 -1.09331E+00  5.17868E+00  1.87401E+00  3.55186E+00  1.79556E+00
 NY points of the fit to the data follow
   4.85792E+00  7.90880E+00  9.21658E+00  1.27791E+01  1.35365E+01  1.72981E+01  1.73683E+01  2.08279E+01  1.96174E+01  2.21999E+01
   1.92547E+01  2.02732E+01  1.61651E+01  1.56301E+01  1.12919E+01  9.80350E+00  6.03754E+00  4.72868E+00  2.50703E+00  2.13024E+00
   1.02138E+00  1.35659E+00  7.52335E-01  1.39841E+00  1.54856E+00  2.58611E+00  2.51473E+00  3.72262E+00  3.79049E+00  4.84261E+00
   4.81063E+00  5.54604E+00  5.03099E+00  5.02964E+00  3.99896E+00  3.67135E+00  2.66029E+00  2.16547E+00  1.67484E+00  1.34963E+00
   1.58269E+00  1.49324E+00  2.11199E+00  1.95054E+00  2.29571E+00  1.95583E+00  2.21060E+00  1.85510E+00  1.90633E+00  1.34400E+00
   1.08269E+00  1.93430E-01 -4.12010E-01 -1.45442E+00 -2.08073E+00 -2.87326E+00 -3.15626E+00 -3.71321E+00 -3.72304E+00 -4.14782E+00
  -3.96175E+00 -4.55592E+00 -4.32711E+00 -4.90505E+00 -4.56692E+00 -5.13855E+00 -4.79634E+00 -5.26365E+00 -4.85994E+00 -5.20888E+00
  -4.76540E+00 -5.07458E+00 -4.67659E+00 -4.98396E+00 -4.52630E+00 -4.23197E+00 -4.05492E+00 -3.47771E+00 -3.58736E+00 -2.73939E+00
  -3.11357E+00 -2.06086E+00 -2.66478E+00 -1.50322E+00 -2.25907E+00 -1.05262E+00 -2.11082E+00 -1.11985E+00 -2.34476E+00 -1.61836E+00
  -1.97811E+00  1.45864E+00  2.35349E+00  6.38210E+00  7.95862E+00  1.24130E+01  1.42579E+01  1.86012E+01  2.02787E+01  2.38662E+01
   2.51302E+01  2.76797E+01  2.83620E+01  2.90110E+01  2.83827E+01  2.59448E+01  2.39291E+01  1.91153E+01  1.63076E+01  1.09933E+01
   8.47174E+00  4.61994E+00  3.07714E+00  1.49430E+00  3.42694E+00  4.43380E+00  7.57194E+00  9.26819E+00  1.32818E+01  1.66812E+01
   2.10129E+01  2.44159E+01  2.81936E+01  3.09150E+01  3.36893E+01  3.52413E+01  3.58687E+01  3.55673E+01  3.32362E+01  3.07875E+01
   2.62364E+01  2.23076E+01  1.72328E+01  1.30978E+01  9.41302E+00  6.07768E+00  3.92379E+00  1.52298E+00  4.53963E-01 -1.32767E+00
  -2.01700E+00 -3.24288E+00 -2.61904E+00 -3.14492E+00 -2.57736E+00 -3.08787E+00 -2.80704E+00 -3.24834E+00 -3.24624E+00 -3.64838E+00
  -3.70603E+00 -4.06912E+00 -4.08604E+00 -4.37199E+00 -4.48292E+00 -4.72753E+00 -4.86342E+00 -5.03851E+00 -5.18173E+00 -5.33758E+00
  -5.52247E+00 -5.65930E+00 -5.89186E+00 -6.03368E+00 -6.43049E+00 -6.52376E+00 -6.90771E+00 -7.01374E+00 -7.40388E+00 -7.68822E+00
  -7.96514E+00 -8.30108E+00 -8.32975E+00 -8.70150E+00 -8.59079E+00 -9.00045E+00 -8.61792E+00 -8.94134E+00 -8.20358E+00 -8.31360E+00
  -7.21013E+00 -7.10461E+00 -5.96661E+00 -5.69492E+00 -4.72308E+00 -4.30855E+00 -3.72222E+00 -3.02645E+00 -2.64935E+00 -1.57488E+00
  -1.38038E+00 -4.34479E-02 -1.09878E-01  1.39943E+00  1.07977E+00  2.43916E+00  1.85927E+00  2.77503E+00  1.72959E+00  2.70294E+00
   1.65399E+00  2.51789E+00  1.55154E+00  2.45325E+00  1.99213E+00  2.44833E+00  2.02566E+00  2.02889E+00  1.73432E+00  1.34441E+00
   1.08225E+00  5.95158E-01  1.30173E+00  9.97791E-01  2.28828E+00  1.84943E+00  3.11532E+00  2.36333E+00  2.86195E+00  1.94951E+00
   1.75076E+00  1.51622E+00  1.35374E+00  2.02723E+00  2.25075E+00  3.72484E+00  4.05990E+00  5.84147E+00  5.83986E+00  7.35858E+00
   6.71588E+00  7.82957E+00  7.32367E+00  8.20670E+00  7.92250E+00  8.65521E+00  8.73959E+00  9.01520E+00  9.08767E+00  8.73209E+00
   9.12994E+00  8.49215E+00  9.33369E+00  8.89876E+00  1.06459E+01  1.06531E+01  1.30755E+01  1.46013E+01  2.12189E+01  2.48880E+01
   3.20624E+01  3.64199E+01  4.33821E+01  4.79930E+01  5.40572E+01  5.82287E+01  6.23934E+01  6.55540E+01  6.72467E+01  6.87711E+01
   6.67969E+01  6.61528E+01  5.98155E+01  5.69679E+01  4.78163E+01  4.37024E+01  3.43185E+01  3.04005E+01  2.34333E+01  2.06428E+01
   1.60651E+01  1.43655E+01  1.15084E+01  1.02519E+01  7.91523E+00  7.18361E+00  6.94781E+00  6.80002E+00  6.67431E+00  6.50350E+00
   6.40383E+00  6.20269E+00  6.12648E+00  6.00000E+00  5.99847E+00  5.94915E+00  5.98397E+00  5.99282E+00  6.03191E+00  6.08599E+00
   6.14396E+00  6.23196E+00  6.31676E+00  6.44868E+00  6.55954E+00  6.73344E+00  6.88282E+00  7.08904E+00  7.28534E+00  7.51929E+00
   7.74862E+00  8.00355E+00  8.25464E+00  8.50441E+00  8.73641E+00  8.95113E+00  9.13091E+00  9.27329E+00  9.37349E+00  9.42251E+00
   9.42061E+00  9.36553E+00  9.26001E+00  9.10723E+00  8.91116E+00  8.67943E+00  8.41951E+00  8.13952E+00  7.84831E+00  7.55383E+00
   7.26371E+00  6.98431E+00  6.72123E+00  6.47830E+00  6.25894E+00  6.06460E+00  5.89667E+00  5.75483E+00  5.63926E+00  5.54893E+00
   5.48426E+00  5.44566E+00  5.43691E+00  5.46739E+00  5.56745E+00  5.73812E+00  5.72708E+00  5.87961E+00  5.74675E+00  5.86926E+00
   5.58503E+00  5.63038E+00  5.22684E+00  5.42973E+00  4.94631E+00  5.24747E+00  4.65309E+00  5.01120E+00  4.35309E+00  4.75175E+00
   4.15371E+00  4.62511E+00  4.19342E+00  4.79601E+00  4.54899E+00  5.22169E+00  5.04416E+00  5.58448E+00  5.39384E+00  5.68289E+00
   5.46960E+00  5.52754E+00  5.38260E+00  5.39154E+00  5.25181E+00  5.21121E+00  5.09822E+00  5.03811E+00  4.93916E+00  4.82255E+00
   4.74797E+00  4.69234E+00  4.64703E+00  4.60930E+00  4.57824E+00  4.55374E+00  4.53611E+00  4.52583E+00  4.52350E+00  4.52978E+00
   4.54538E+00  4.57091E+00  4.60696E+00  4.65393E+00  4.71212E+00  4.78162E+00  4.86233E+00  4.95382E+00  5.05536E+00  5.16578E+00
   5.28361E+00  5.40692E+00  5.53345E+00  5.66050E+00  5.78508E+00  5.90392E+00  6.01368E+00  6.11097E+00  6.19258E+00  6.25550E+00
   6.29715E+00  6.31547E+00  6.30913E+00  6.27745E+00  6.22058E+00  6.13935E+00  6.03537E+00  5.91086E+00  5.76860E+00  5.61177E+00
   5.44376E+00  5.26806E+00  5.08809E+00  4.90714E+00  4.72822E+00  4.55394E+00  4.38646E+00  4.22752E+00  4.07835E+00  3.93984E+00
   3.81244E+00  3.69624E+00  3.59106E+00  3.49645E+00  3.41186E+00  3.33659E+00  3.26991E+00  3.21101E+00  3.15909E+00  3.11337E+00
   3.07318E+00  3.03783E+00  3.00676E+00  2.97938E+00  2.95524E+00  2.93387E+00  2.91495E+00  2.89815E+00  2.88319E+00  2.86982E+00
   2.85779E+00  2.84695E+00  2.83714E+00  2.82825E+00  2.82011E+00  2.81264E+00  2.80569E+00  2.79925E+00  2.79320E+00  2.78753E+00
   2.78211E+00  2.77691E+00  2.77186E+00  2.76697E+00  2.76219E+00  2.75752E+00  2.75290E+00  2.74836E+00  2.74383E+00  2.73939E+00
   2.73497E+00  2.73060E+00  2.72622E+00  2.72186E+00  2.71752E+00  2.71321E+00  2.70893E+00  2.70466E+00  2.70039E+00  2.69614E+00
   2.69192E+00  2.68775E+00  2.68361E+00  2.67950E+00  2.67542E+00  2.67140E+00  2.66746E+00  2.66359E+00  2.65980E+00  2.65609E+00
   2.65247E+00  2.64897E+00  2.64562E+00  2.64242E+00  2.63938E+00  2.63650E+00  2.63383E+00  2.63141E+00  2.62926E+00  2.62739E+00
   2.62584E+00  2.62465E+00  2.62388E+00  2.62360E+00  2.62386E+00  2.62473E+00  2.62628E+00  2.62865E+00
 NY background values follow
    -1.157E+01   -1.155E+01   -1.153E+01   -1.150E+01   -1.148E+01   -1.146E+01   -1.143E+01   -1.141E+01   -1.139E+01   -1.136E+01
    -1.134E+01   -1.132E+01   -1.129E+01   -1.127E+01   -1.125E+01   -1.122E+01   -1.120E+01   -1.118E+01   -1.115E+01   -1.113E+01
    -1.110E+01   -1.108E+01   -1.106E+01   -1.103E+01   -1.101E+01   -1.098E+01   -1.096E+01   -1.093E+01   -1.091E+01   -1.088E+01
    -1.086E+01   -1.083E+01   -1.080E+01   -1.078E+01   -1.075E+01   -1.072E+01   -1.070E+01   -1.067E+01   -1.064E+01   -1.061E+01
    -1.059E+01   -1.056E+01   -1.053E+01   -1.050E+01   -1.047E+01   -1.044E+01   -1.041E+01   -1.038E+01   -1.035E+01   -1.032E+01
    -1.029E+01   -1.026E+01   -1.023E+01   -1.019E+01   -1.016E+01   -1.013E+01   -1.009E+01   -1.006E+01   -1.002E+01   -9.990E+00
    -9.955E+00   -9.919E+00   -9.883E+00   -9.846E+00   -9.809E+00   -9.771E+00   -9.733E+00   -9.694E+00   -9.655E+00   -9.616E+00
    -9.575E+00   -9.535E+00   -9.493E+00   -9.452E+00   -9.409E+00   -9.366E+00   -9.323E+00   -9.279E+00   -9.234E+00   -9.189E+00
    -9.143E+00   -9.097E+00   -9.049E+00   -9.002E+00   -8.953E+00   -8.904E+00   -8.855E+00   -8.804E+00   -8.753E+00   -8.702E+00
    -8.650E+00   -8.596E+00   -8.543E+00   -8.488E+00   -8.433E+00   -8.378E+00   -8.321E+00   -8.264E+00   -8.207E+00   -8.149E+00
    -8.090E+00   -8.031E+00   -7.971E+00   -7.911E+00   -7.850E+00   -7.789E+00   -7.727E+00   -7.665E+00   -7.602E+00   -7.539E+00
    -7.476E+00   -7.412E+00   -7.347E+00   -7.283E+00   -7.217E+00   -7.152E+00   -7.086E+00   -7.020E+00   -6.954E+00   -6.887E+00
    -6.820E+00   -6.753E+00   -6.686E+00   -6.618E+00   -6.550E+00   -6.482E+00   -6.414E+00   -6.346E+00   -6.277E+00   -6.208E+00
    -6.140E+00   -6.071E+00   -6.002E+00   -5.933E+00   -5.863E+00   -5.794E+00   -5.725E+00   -5.656E+00   -5.586E+00   -5.517E+00
    -5.447E+00   -5.378E+00   -5.308E+00   -5.238E+00   -5.168E+00   -5.098E+00   -5.028E+00   -4.958E+00   -4.887E+00   -4.816E+00
    -4.745E+00   -4.673E+00   -4.602E+00   -4.530E+00   -4.457E+00   -4.385E+00   -4.312E+00   -4.239E+00   -4.165E+00   -4.091E+00
    -4.016E+00   -3.942E+00   -3.866E+00   -3.790E+00   -3.714E+00   -3.638E+00   -3.560E+00   -3.483E+00   -3.405E+00   -3.326E+00
    -3.247E+00   -3.167E+00   -3.086E+00   -3.005E+00   -2.923E+00   -2.841E+00   -2.758E+00   -2.674E+00   -2.590E+00   -2.505E+00
    -2.419E+00   -2.333E+00   -2.246E+00   -2.158E+00   -2.069E+00   -1.980E+00   -1.890E+00   -1.800E+00   -1.709E+00   -1.617E+00
    -1.525E+00   -1.433E+00   -1.340E+00   -1.247E+00   -1.154E+00   -1.060E+00   -9.660E-01   -8.717E-01   -7.772E-01   -6.826E-01
    -5.878E-01   -4.928E-01   -3.979E-01   -3.028E-01   -2.078E-01   -1.128E-01   -1.780E-02    7.708E-02    1.718E-01    2.664E-01
     3.609E-01    4.550E-01    5.490E-01    6.426E-01    7.360E-01    8.290E-01    9.216E-01    1.014E+00    1.106E+00    1.197E+00
     1.288E+00    1.378E+00    1.467E+00    1.556E+00    1.645E+00    1.732E+00    1.819E+00    1.906E+00    1.991E+00    2.076E+00
     2.160E+00    2.243E+00    2.325E+00    2.406E+00    2.487E+00    2.567E+00    2.645E+00    2.723E+00    2.800E+00    2.876E+00
     2.952E+00    3.026E+00    3.099E+00    3.171E+00    3.242E+00    3.313E+00    3.382E+00    3.450E+00    3.517E+00    3.583E+00
     3.647E+00    3.711E+00    3.774E+00    3.835E+00    3.895E+00    3.954E+00    4.012E+00    4.069E+00    4.124E+00    4.178E+00
     4.231E+00    4.283E+00    4.333E+00    4.382E+00    4.430E+00    4.476E+00    4.521E+00    4.565E+00    4.607E+00    4.648E+00
     4.688E+00    4.726E+00    4.762E+00    4.798E+00    4.831E+00    4.864E+00    4.895E+00    4.924E+00    4.952E+00    4.979E+00
     5.005E+00    5.029E+00    5.052E+00    5.073E+00    5.094E+00    5.113E+00    5.131E+00    5.147E+00    5.163E+00    5.177E+00
     5.190E+00    5.201E+00    5.212E+00    5.222E+00    5.230E+00    5.237E+00    5.243E+00    5.248E+00    5.252E+00    5.255E+00
     5.257E+00    5.258E+00    5.257E+00    5.256E+00    5.254E+00    5.251E+00    5.247E+00    5.242E+00    5.236E+00    5.229E+00
     5.221E+00    5.212E+00    5.202E+00    5.192E+00    5.181E+00    5.168E+00    5.155E+00    5.142E+00    5.127E+00    5.112E+00
     5.096E+00    5.079E+00    5.061E+00    5.043E+00    5.024E+00    5.005E+00    4.985E+00    4.964E+00    4.943E+00    4.922E+00
     4.900E+00    4.877E+00    4.854E+00    4.831E+00    4.807E+00    4.783E+00    4.758E+00    4.733E+00    4.708E+00    4.682E+00
     4.657E+00    4.631E+00    4.605E+00    4.578E+00    4.552E+00    4.525E+00    4.498E+00    4.471E+00    4.445E+00    4.418E+00
     4.391E+00    4.364E+00    4.337E+00    4.310E+00    4.283E+00    4.257E+00    4.230E+00    4.204E+00    4.177E+00    4.151E+00
     4.126E+00    4.100E+00    4.075E+00    4.050E+00    4.025E+00    4.001E+00    3.977E+00    3.953E+00    3.930E+00    3.907E+00
     3.884E+00    3.861E+00    3.839E+00    3.817E+00    3.796E+00    3.775E+00    3.754E+00    3.733E+00    3.713E+00    3.693E+00
     3.674E+00    3.655E+00    3.636E+00    3.618E+00    3.600E+00    3.582E+00    3.565E+00    3.549E+00    3.532E+00    3.516E+00
     3.501E+00    3.485E+00    3.471E+00    3.456E+00    3.442E+00    3.429E+00    3.416E+00    3.403E+00    3.391E+00    3.379E+00
     3.368E+00    3.357E+00    3.347E+00    3.337E+00    3.327E+00    3.318E+00    3.310E+00    3.302E+00    3.294E+00    3.287E+00
     3.280E+00    3.274E+00    3.268E+00    3.263E+00    3.258E+00    3.253E+00    3.249E+00    3.245E+00    3.241E+00    3.238E+00
     3.234E+00    3.232E+00    3.229E+00    3.227E+00    3.225E+00    3.223E+00    3.221E+00    3.220E+00    3.218E+00    3.217E+00
     3.216E+00    3.215E+00    3.215E+00    3.214E+00    3.213E+00    3.213E+00    3.213E+00    3.212E+00    3.212E+00    3.211E+00
     3.211E+00    3.211E+00    3.210E+00    3.210E+00    3.209E+00    3.208E+00    3.208E+00    3.207E+00    3.206E+00    3.205E+00
     3.203E+00    3.202E+00    3.200E+00    3.199E+00    3.197E+00    3.194E+00    3.192E+00    3.189E+00    3.187E+00    3.184E+00
     3.181E+00    3.178E+00    3.174E+00    3.171E+00    3.167E+00    3.163E+00    3.159E+00    3.155E+00    3.151E+00    3.147E+00
     3.142E+00    3.138E+00    3.133E+00    3.128E+00    3.124E+00    3.119E+00    3.114E+00    3.109E+00    3.103E+00    3.098E+00
     3.093E+00    3.088E+00    3.082E+00    3.077E+00    3.071E+00    3.066E+00    3.060E+00    3.054E+00    3.049E+00    3.043E+00
     3.037E+00    3.032E+00    3.026E+00    3.020E+00    3.015E+00    3.009E+00    3.003E+00    2.998E+00
 Cr       Conc. = 3.54E+02
