 LCModel (Version 6.3-1L) Copyright: S.W. Provencher.          Ref.: Magn. Reson. Med. 30:672-679 (1993).                
 Slice#3 Row#2 Col#2  K_02_press_1_raw_act
 36 lines in following concentration table = NCONC+1
    Conc.  %SD /Cr+PCr  Metabolite                                         
 6.77E+03  12%   0.000 Ala                                                 
   31.629  17%   0.000 Asp                                                 
    0.000 999%   0.000 Cr                                                  
    0.000 999%   0.000 PCr                                                 
   18.980  17%   0.000 GABA                                                
   18.993  17%   0.000 Glc                                                 
 4.15E+03  13%   0.000 Gln                                                 
 3.73E+03  18%   0.000 Glu                                                 
    0.000 999%   0.000 GPC                                                 
   96.316  22%   0.000 PCh                                                 
    0.000 999%   0.000 GSH                                                 
 1.19E+03  19%   0.000 Ins                                                 
    0.000 999%   0.000 Lac                                                 
  343.675  27%   0.000 NAA                                                 
    0.000 999%   0.000 NAAG                                                
    6.344  17%   0.000 Scyllo                                              
   31.692  17%   0.000 Tau                                                 
    0.000 999%   0.000 -CrCH2                                              
   96.316  22%   0.000 GPC+PCh                                             
  343.675  27%   0.000 NAA+NAAG                                            
    0.000 999%   0.000 Cr+PCr                                              
 7.88E+03  11%   0.000 Glu+Gln                                             
    0.000 999%   0.000 Lip13a                                              
 1.13E+03  32%   0.000 Lip13b                                              
  302.926  32%   0.000 Lip09                                               
    0.000 999%   0.000 MM09                                                
  170.223  32%   0.000 Lip20                                               
 2.87E+03   9%   0.000 MM20                                                
    0.000 999%   0.000 MM12                                                
 8.44E+03   8%   0.000 MM14                                                
 1.07E+03  18%   0.000 MM17                                                
 1.13E+03  32%   0.000 Lip13a+Lip13b                                       
 9.57E+03   5%   0.000 MM14+Lip13a+Lip13b+MM12                             
  302.926  32%   0.000 MM09+Lip09                                          
 3.04E+03   9%   0.000 MM20+Lip20                                          
   6 lines in following misc. output table
  FWHM = 0.168 ppm    S/N =   9                                            
  Data shift = 0.000 ppm                                                   
  Ph: -82 deg      70.0 deg/ppm                                            
  alphaB,S = 8.5E+01,   4.1E+02                                            
    9 spline knots.   Ns = 9(2)                                            
  (13) 4 infls.   ( 7) 1 extrs.                                            
  498 points on ppm-axis = NY
      4.000000     3.992357     3.984714     3.977070     3.969427     3.961784     3.954141     3.946497     3.938854     3.931211
      3.923568     3.915925     3.908281     3.900638     3.892995     3.885352     3.877708     3.870065     3.862422     3.854779
      3.847136     3.839492     3.831849     3.824206     3.816563     3.808919     3.801276     3.793633     3.785990     3.778347
      3.770703     3.763060     3.755417     3.747774     3.740130     3.732487     3.724844     3.717201     3.709558     3.701914
      3.694271     3.686628     3.678985     3.671341     3.663698     3.656055     3.648412     3.640769     3.633125     3.625482
      3.617839     3.610196     3.602552     3.594909     3.587266     3.579623     3.571980     3.564336     3.556693     3.549050
      3.541407     3.533763     3.526120     3.518477     3.510834     3.503191     3.495547     3.487904     3.480261     3.472618
      3.464974     3.457331     3.449688     3.442045     3.434402     3.426758     3.419115     3.411472     3.403829     3.396185
      3.388542     3.380899     3.373256     3.365613     3.357969     3.350326     3.342683     3.335040     3.327396     3.319753
      3.312110     3.304467     3.296824     3.289180     3.281537     3.273894     3.266251     3.258607     3.250964     3.243321
      3.235678     3.228034     3.220391     3.212748     3.205105     3.197462     3.189818     3.182175     3.174532     3.166889
      3.159245     3.151602     3.143959     3.136316     3.128673     3.121029     3.113386     3.105743     3.098100     3.090456
      3.082813     3.075170     3.067527     3.059884     3.052240     3.044597     3.036954     3.029311     3.021667     3.014024
      3.006381     2.998738     2.991095     2.983451     2.975808     2.968165     2.960522     2.952878     2.945235     2.937592
      2.929949     2.922306     2.914662     2.907019     2.899376     2.891733     2.884089     2.876446     2.868803     2.861160
      2.853517     2.845873     2.838230     2.830587     2.822944     2.815300     2.807657     2.800014     2.792371     2.784728
      2.777084     2.769441     2.761798     2.754155     2.746511     2.738868     2.731225     2.723582     2.715939     2.708295
      2.700652     2.693009     2.685366     2.677722     2.670079     2.662436     2.654793     2.647150     2.639506     2.631863
      2.624220     2.616577     2.608933     2.601290     2.593647     2.586004     2.578361     2.570717     2.563074     2.555431
      2.547788     2.540144     2.532501     2.524858     2.517215     2.509572     2.501928     2.494285     2.486642     2.478999
      2.471355     2.463712     2.456069     2.448426     2.440783     2.433139     2.425496     2.417853     2.410210     2.402566
      2.394923     2.387280     2.379637     2.371994     2.364350     2.356707     2.349064     2.341421     2.333777     2.326134
      2.318491     2.310848     2.303205     2.295561     2.287918     2.280275     2.272632     2.264988     2.257345     2.249702
      2.242059     2.234416     2.226772     2.219129     2.211486     2.203843     2.196199     2.188556     2.180913     2.173270
      2.165627     2.157983     2.150340     2.142697     2.135054     2.127410     2.119767     2.112124     2.104481     2.096838
      2.089194     2.081551     2.073908     2.066265     2.058621     2.050978     2.043335     2.035692     2.028049     2.020405
      2.012762     2.005119     1.997476     1.989833     1.982190     1.974546     1.966903     1.959260     1.951617     1.943974
      1.936331     1.928688     1.921045     1.913402     1.905759     1.898115     1.890472     1.882829     1.875186     1.867543
      1.859900     1.852257     1.844614     1.836971     1.829327     1.821684     1.814041     1.806398     1.798755     1.791112
      1.783469     1.775826     1.768183     1.760540     1.752896     1.745253     1.737610     1.729967     1.722324     1.714681
      1.707038     1.699395     1.691752     1.684108     1.676465     1.668822     1.661179     1.653536     1.645893     1.638250
      1.630607     1.622964     1.615321     1.607677     1.600034     1.592391     1.584748     1.577105     1.569462     1.561819
      1.554176     1.546533     1.538890     1.531246     1.523603     1.515960     1.508317     1.500674     1.493031     1.485388
      1.477745     1.470102     1.462458     1.454815     1.447172     1.439529     1.431886     1.424243     1.416600     1.408957
      1.401314     1.393671     1.386027     1.378384     1.370741     1.363098     1.355455     1.347812     1.340169     1.332526
      1.324883     1.317240     1.309596     1.301953     1.294310     1.286667     1.279024     1.271381     1.263738     1.256095
      1.248452     1.240808     1.233165     1.225522     1.217879     1.210236     1.202593     1.194950     1.187307     1.179664
      1.172021     1.164377     1.156734     1.149091     1.141448     1.133805     1.126162     1.118519     1.110876     1.103233
      1.095590     1.087946     1.080303     1.072660     1.065017     1.057374     1.049731     1.042088     1.034445     1.026802
      1.019158     1.011515     1.003872     0.996229     0.988586     0.980943     0.973300     0.965657     0.958014     0.950371
      0.942727     0.935084     0.927441     0.919798     0.912155     0.904512     0.896869     0.889226     0.881583     0.873940
      0.866296     0.858653     0.851010     0.843367     0.835724     0.828081     0.820438     0.812795     0.805152     0.797508
      0.789865     0.782222     0.774579     0.766936     0.759293     0.751650     0.744007     0.736364     0.728721     0.721077
      0.713434     0.705791     0.698148     0.690505     0.682862     0.675219     0.667576     0.659933     0.652290     0.644646
      0.637003     0.629360     0.621717     0.614074     0.606431     0.598788     0.591145     0.583502     0.575858     0.568215
      0.560572     0.552929     0.545286     0.537643     0.530000     0.522357     0.514714     0.507071     0.499427     0.491784
      0.484141     0.476498     0.468855     0.461212     0.453569     0.445925     0.438282     0.430639     0.422996     0.415353
      0.407710     0.400067     0.392424     0.384780     0.377137     0.369494     0.361851     0.354208     0.346565     0.338922
      0.331278     0.323635     0.315992     0.308349     0.300706     0.293063     0.285420     0.277777     0.270133     0.262490
      0.254847     0.247204     0.239561     0.231918     0.224275     0.216631     0.208988     0.201345
 NY phased data points follow
   7.80106E+00  7.97020E+00  9.99543E+00  3.25864E+00  2.94534E+00  5.29812E+00  5.83378E+00  7.34517E+00  7.77120E+00  6.54703E+00
   3.08207E+00  5.18268E+00  5.49318E+00  5.27234E+00  5.00309E+00  3.17609E+00  6.36007E+00  4.95245E+00  7.87765E+00  5.54598E+00
   3.37983E+00  6.77676E+00  5.36499E+00  5.45338E+00  5.58869E+00  1.56056E+00  4.96870E+00  5.63205E+00  5.02625E-01  2.68529E+00
   7.42637E+00  1.41709E+00  3.20334E+00  4.22256E+00  3.81438E+00  3.60653E+00  2.33991E+00  6.87741E-01  5.62667E+00  3.62665E+00
   5.96655E+00  4.46246E+00  1.00236E+00  5.31633E+00 -1.77962E+00  1.67511E+00  5.63211E+00  4.48582E+00  1.93395E+00  1.37527E+00
   1.19055E+00  4.16203E+00  5.94006E+00  5.04351E+00  1.66674E+00  3.37964E+00  3.82449E-01  2.08985E+00  2.58400E+00  7.22878E+00
   2.16446E+00  2.26961E+00  6.63533E-01 -1.61917E+00  8.44081E-01  1.51038E+00  3.68408E+00  1.70959E+00  2.14490E+00  3.72342E+00
  -1.91768E-01  2.46038E+00 -1.35368E+00  2.00265E+00  8.36308E-02  4.91419E+00  2.99157E+00  1.76931E+00  1.46725E+00 -3.71260E-01
   9.66710E-01 -3.21246E+00  3.16161E+00  5.19315E-01 -3.79127E-01  2.65227E+00  7.40964E-01  2.63030E-01 -8.93508E-02  3.12092E+00
  -1.11581E+00  1.47055E+00 -1.42006E+00 -6.79651E-01 -7.06344E-01  1.62021E+00  1.64164E+00 -6.68790E-01 -1.25493E+00  1.79832E+00
  -3.36809E+00 -5.61048E-01  3.45105E+00  4.17824E+00 -8.91588E-01 -1.43643E+00 -1.55502E+00 -3.69765E+00  2.61141E+00  1.13720E+00
  -3.65024E-01  2.30176E+00 -1.96748E-02  7.41952E-01 -4.91731E-01  2.34329E+00  1.97405E+00  1.47263E+00 -6.18296E-01  9.70972E-01
   1.69163E+00  1.53725E-01 -2.56676E-02 -8.01282E-01  2.35466E+00 -2.38776E+00  4.15746E-01 -3.99551E-01  1.90912E+00  4.18375E+00
   1.17781E+00  3.89516E-01  7.56687E-02  1.03261E+00  1.24350E+00  2.45882E+00  2.96432E+00  4.54047E+00  3.20329E+00  2.38672E+00
   2.01660E+00  3.50021E+00  2.24713E+00  1.40138E+00 -3.02641E-01  2.25820E+00  1.40196E+00 -4.26356E-01  3.19873E+00  3.70036E+00
   4.34323E+00  4.01247E+00  1.06173E+00  1.78911E+00  1.69901E+00  3.03668E+00  3.18042E+00  2.65661E-01  3.14165E+00  6.73457E-01
   1.95230E+00  1.20199E+00  2.70229E+00  2.79111E+00  3.21855E+00  7.63771E+00  1.84132E+00  4.63924E+00  3.53587E+00  2.23221E+00
   3.82424E+00  4.43471E+00  3.48295E+00  6.39815E+00  2.76580E+00  6.71578E+00  2.63087E+00  3.40824E+00  4.18958E+00  7.01056E+00
   3.11236E+00  3.50886E+00  4.08411E+00  5.03099E+00  5.32515E+00  6.37753E+00  8.32583E+00  5.34124E+00  1.86823E+00  6.46186E+00
   7.93328E+00  4.81311E+00  1.05351E+01  4.69913E+00  6.97864E+00  6.96134E+00  5.60147E+00  8.39954E+00  7.70581E+00  7.76426E+00
   8.32664E+00  1.11065E+01  9.97102E+00  1.43006E+01  1.06004E+01  1.39639E+01  1.31692E+01  1.27159E+01  7.95970E+00  1.43410E+01
   1.36130E+01  9.44801E+00  1.15601E+01  9.43213E+00  1.23158E+01  1.41157E+01  1.40819E+01  1.22476E+01  1.15044E+01  1.21525E+01
   1.42225E+01  1.60974E+01  1.56683E+01  1.71633E+01  1.35820E+01  1.50166E+01  1.36941E+01  1.60241E+01  1.61656E+01  1.57169E+01
   1.62568E+01  1.93713E+01  1.63461E+01  1.68535E+01  1.64109E+01  1.73122E+01  1.61261E+01  1.51967E+01  1.22958E+01  1.60204E+01
   1.68583E+01  1.37040E+01  1.34120E+01  1.11607E+01  1.08321E+01  1.26369E+01  1.15744E+01  1.02076E+01  1.39959E+01  1.07318E+01
   1.21188E+01  9.83226E+00  1.03239E+01  1.16239E+01  1.28936E+01  1.22074E+01  1.00845E+01  8.93040E+00  1.28299E+01  8.33370E+00
   1.18849E+01  1.03104E+01  1.02011E+01  4.55961E+00  6.62529E+00  7.78574E+00  9.50423E+00  8.97871E+00  5.90470E+00  8.72312E+00
   6.82252E+00  5.93721E+00  9.27786E+00  7.32296E+00  6.23823E+00  4.96038E+00  6.28101E+00  7.29235E+00  5.69005E+00  7.60117E+00
   5.40182E+00  9.57670E+00  6.18453E+00  6.92604E+00  8.20171E+00  6.88920E+00  1.01062E+01  6.94658E+00  1.00641E+01  1.27667E+01
   9.64456E+00  1.27922E+01  1.03035E+01  9.21505E+00  1.18560E+01  1.00938E+01  1.03317E+01  1.19224E+01  1.30042E+01  1.14829E+01
   1.38021E+01  1.17556E+01  1.46002E+01  1.56384E+01  1.61880E+01  1.58551E+01  1.50103E+01  2.10825E+01  1.78289E+01  1.69587E+01
   1.83092E+01  1.89666E+01  2.20520E+01  1.96848E+01  2.12056E+01  2.40887E+01  2.66271E+01  2.81834E+01  2.49204E+01  2.53286E+01
   2.56634E+01  2.76230E+01  2.93949E+01  2.85898E+01  3.13250E+01  2.96610E+01  3.07371E+01  2.57415E+01  2.73985E+01  2.88692E+01
   2.61079E+01  2.47384E+01  1.89787E+01  1.73531E+01  1.84106E+01  1.69343E+01  1.10235E+01  1.19788E+01  9.30094E+00  8.49526E+00
   6.98981E+00  1.81469E+00  7.92936E-01 -4.93032E+00 -2.38350E+00 -7.00296E+00 -1.39635E+01 -1.76275E+01 -2.35854E+01 -2.63875E+01
  -3.31418E+01 -3.71760E+01 -4.16545E+01 -4.73753E+01 -4.75867E+01 -4.94239E+01 -4.83681E+01 -4.87077E+01 -4.78189E+01 -4.90402E+01
  -4.73439E+01 -4.70552E+01 -4.21576E+01 -4.57473E+01 -3.78881E+01 -3.94374E+01 -3.81773E+01 -3.74455E+01 -3.53030E+01 -3.22213E+01
  -2.92723E+01 -3.13539E+01 -2.69508E+01 -2.76570E+01 -2.74854E+01 -2.47960E+01 -2.50231E+01 -2.33254E+01 -2.05025E+01 -2.17917E+01
  -2.02532E+01 -1.91966E+01 -2.11850E+01 -2.21588E+01 -1.94229E+01 -2.02964E+01 -1.63346E+01 -1.88116E+01 -1.95842E+01 -1.54209E+01
  -1.77537E+01 -1.53435E+01 -1.46848E+01 -1.49516E+01 -1.40218E+01 -1.35819E+01 -1.32561E+01 -1.24192E+01 -1.30362E+01 -1.13501E+01
  -8.02434E+00 -1.08321E+01 -8.65231E+00 -1.22034E+01 -1.40773E+01 -1.02522E+01 -1.08115E+01 -1.08309E+01 -1.11763E+01 -9.18648E+00
  -1.10841E+01 -9.47340E+00 -7.14827E+00 -8.00920E+00 -7.60146E+00 -8.88836E+00 -8.13091E+00 -6.26523E+00 -8.10806E+00 -9.35857E+00
  -1.06126E+01 -7.51412E+00 -7.55970E+00 -1.08296E+01 -6.10915E+00 -9.20163E+00 -6.18482E+00 -5.60198E+00 -8.99334E+00 -7.16690E+00
  -8.58092E+00 -6.64740E+00 -5.79741E+00 -6.40945E+00 -6.68859E+00 -7.61187E+00 -9.68041E+00 -6.67915E+00 -8.19046E+00 -6.82453E+00
  -9.32992E+00 -4.88715E+00 -6.66988E+00 -3.41642E+00 -6.68512E+00 -7.91082E+00 -6.39543E+00 -5.68057E+00 -6.85589E+00 -6.44252E+00
  -8.68155E-01 -7.70310E+00 -6.67129E+00 -2.46272E+00 -3.91125E+00 -8.21430E+00 -6.28500E+00 -4.50399E+00 -6.03851E+00 -3.24636E+00
  -3.42199E+00 -3.48919E+00 -5.26894E+00 -1.14801E+00 -6.70466E+00 -6.26838E+00 -3.89063E+00 -4.28143E+00 -2.39892E+00 -4.20667E+00
  -5.13875E+00 -6.09061E+00 -6.32734E+00 -3.99486E+00 -5.90151E+00 -4.08645E+00 -3.76355E+00 -3.21064E+00 -4.22745E+00 -5.25201E-01
  -3.67990E+00 -2.56856E+00 -4.13910E+00 -2.26761E+00 -2.74795E+00 -1.65268E+00 -5.73526E+00 -5.89766E+00 -1.18131E+00 -3.90785E+00
  -2.96983E+00 -1.30339E+00  1.37688E+00 -1.33963E+00 -4.11500E-01 -7.74366E-01 -3.10072E+00 -4.03945E+00
 NY points of the fit to the data follow
   5.50933E+00  5.29006E+00  5.20081E+00  5.04427E+00  5.12517E+00  5.03548E+00  5.22533E+00  4.88830E+00  5.08322E+00  4.56826E+00
   4.95772E+00  4.36880E+00  5.05166E+00  4.53152E+00  5.75030E+00  4.95419E+00  6.30256E+00  5.13532E+00  6.63168E+00  5.10196E+00
   6.82160E+00  5.04906E+00  6.92897E+00  4.92211E+00  6.81949E+00  4.60792E+00  6.46288E+00  4.20024E+00  6.03456E+00  3.89582E+00
   5.63968E+00  3.69179E+00  5.28497E+00  3.63001E+00  4.98497E+00  3.71029E+00  4.75034E+00  3.88738E+00  4.49402E+00  4.01609E+00
   4.16471E+00  4.06339E+00  3.61494E+00  3.81146E+00  2.78667E+00  3.17052E+00  1.69642E+00  2.03884E+00  4.06002E-01  1.04306E+00
  -2.06587E-01  7.35465E-01 -2.55097E-02  9.83401E-01  6.28270E-01  1.10780E+00  5.81534E-01  6.51826E-01  2.09991E-01  1.52907E-01
  -7.44384E-02 -3.50723E-02 -1.25486E-01  8.40706E-03 -4.66016E-03  1.69235E-01  1.93170E-01  3.71754E-01  3.81566E-01  5.10339E-01
   4.31855E-01  4.62554E-01  3.56878E-01  3.79893E-01  3.09512E-01  3.45232E-01  3.25259E-01  3.71497E-01  4.08634E-01  4.48725E-01
   5.40697E-01  5.84070E-01  7.19520E-01  7.63466E-01  9.76963E-01  1.03679E+00  1.24273E+00  1.34225E+00  1.53978E+00  1.70648E+00
   1.87484E+00  2.11122E+00  2.22101E+00  2.51862E+00  2.53874E+00  2.86645E+00  2.77934E+00  3.13642E+00  2.93221E+00  3.31421E+00
   2.98173E+00  3.38282E+00  2.90518E+00  3.32059E+00  2.68894E+00  3.11417E+00  2.35072E+00  2.78307E+00  1.92774E+00  2.36450E+00
   1.50524E+00  1.95413E+00  1.17117E+00  1.60663E+00  9.62408E-01  1.35754E+00  9.03674E-01  1.23316E+00  9.81498E-01  1.23270E+00
   1.17233E+00  1.36457E+00  1.45701E+00  1.60023E+00  1.75657E+00  1.83700E+00  1.88868E+00  1.90974E+00  1.91712E+00  1.90742E+00
   1.89149E+00  1.86471E+00  1.83768E+00  1.80315E+00  1.77307E+00  1.73749E+00  1.71053E+00  1.67974E+00  1.66164E+00  1.64139E+00
   1.63609E+00  1.63021E+00  1.63952E+00  1.65163E+00  1.68028E+00  1.71073E+00  1.75881E+00  1.80327E+00  1.86473E+00  1.92141E+00
   1.99332E+00  2.06013E+00  2.13993E+00  2.21450E+00  2.30053E+00  2.38164E+00  2.47186E+00  2.55848E+00  2.65236E+00  2.74873E+00
   2.84570E+00  2.95048E+00  3.04890E+00  3.16282E+00  3.26597E+00  3.38993E+00  3.49700E+00  3.62813E+00  3.73612E+00  3.87576E+00
   3.98680E+00  4.12768E+00  4.23981E+00  4.37571E+00  4.48218E+00  4.59559E+00  4.68015E+00  4.79684E+00  4.84730E+00  5.01499E+00
   5.07742E+00  5.32817E+00  5.44238E+00  5.83541E+00  5.97895E+00  6.43192E+00  6.52240E+00  7.02493E+00  6.92317E+00  7.40873E+00
   7.08744E+00  7.47905E+00  7.03003E+00  7.71255E+00  7.27168E+00  8.22959E+00  7.79433E+00  9.02393E+00  8.40437E+00  9.74603E+00
   8.95719E+00  1.03666E+01  9.40029E+00  1.07756E+01  9.72158E+00  1.11623E+01  1.00743E+01  1.14229E+01  1.03451E+01  1.15830E+01
   1.05930E+01  1.17458E+01  1.09271E+01  1.20104E+01  1.14273E+01  1.24424E+01  1.20906E+01  1.29487E+01  1.28150E+01  1.36213E+01
   1.37324E+01  1.43524E+01  1.45968E+01  1.49282E+01  1.49884E+01  1.49357E+01  1.48240E+01  1.45479E+01  1.42760E+01  1.39764E+01
   1.37041E+01  1.36016E+01  1.34825E+01  1.40054E+01  1.39524E+01  1.46531E+01  1.43177E+01  1.50164E+01  1.41657E+01  1.46573E+01
   1.35935E+01  1.40867E+01  1.30782E+01  1.35206E+01  1.27850E+01  1.32554E+01  1.28025E+01  1.29502E+01  1.27593E+01  1.24770E+01
   1.25476E+01  1.18304E+01  1.21897E+01  1.10898E+01  1.17773E+01  1.03863E+01  1.13327E+01  9.71871E+00  1.08615E+01  9.21355E+00
   1.04610E+01  8.61532E+00  9.76364E+00  7.73839E+00  8.66803E+00  6.55666E+00  7.51044E+00  5.50393E+00  6.46329E+00  4.78895E+00
   5.77007E+00  4.50298E+00  5.50673E+00  4.74872E+00  5.69516E+00  5.34344E+00  6.15818E+00  6.15252E+00  6.84976E+00  7.12962E+00
   7.78875E+00  8.26561E+00  8.85518E+00  9.26463E+00  9.67809E+00  1.00441E+01  1.03161E+01  1.06151E+01  1.08152E+01  1.10507E+01
   1.11976E+01  1.13930E+01  1.15259E+01  1.17121E+01  1.18738E+01  1.20858E+01  1.22924E+01  1.25503E+01  1.28376E+01  1.31843E+01
   1.35911E+01  1.40703E+01  1.46354E+01  1.52935E+01  1.60532E+01  1.69226E+01  1.79085E+01  1.90013E+01  1.99739E+01  2.01394E+01
   2.09126E+01  2.05738E+01  2.13671E+01  2.07078E+01  2.16989E+01  2.10399E+01  2.31374E+01  2.24836E+01  2.48967E+01  2.41407E+01
   2.66583E+01  2.58169E+01  2.83035E+01  2.73106E+01  2.95434E+01  2.81735E+01  2.97722E+01  2.78793E+01  2.86163E+01  2.63324E+01
   2.61514E+01  2.36854E+01  2.26494E+01  2.03595E+01  1.84895E+01  1.66840E+01  1.38903E+01  1.27604E+01  9.05312E+00  8.59204E+00
   3.91143E+00  3.78478E+00 -1.81738E+00 -1.91374E+00 -8.20226E+00 -8.66332E+00 -1.53440E+01 -1.67172E+01 -2.35031E+01 -2.64888E+01
  -3.28503E+01 -3.58279E+01 -4.08638E+01 -4.33486E+01 -4.64670E+01 -4.79043E+01 -4.86700E+01 -4.90455E+01 -4.89825E+01 -4.84525E+01
  -4.74741E+01 -4.61080E+01 -4.44435E+01 -4.25817E+01 -4.06212E+01 -3.86469E+01 -3.67239E+01 -3.48962E+01 -3.31891E+01 -3.16122E+01
  -3.01647E+01 -2.88394E+01 -2.76256E+01 -2.65114E+01 -2.54854E+01 -2.45371E+01 -2.36572E+01 -2.28376E+01 -2.20714E+01 -2.13528E+01
  -2.06766E+01 -2.00386E+01 -1.94351E+01 -1.88629E+01 -1.83194E+01 -1.78024E+01 -1.73099E+01 -1.68405E+01 -1.63928E+01 -1.59658E+01
  -1.55590E+01 -1.51716E+01 -1.48033E+01 -1.44540E+01 -1.41236E+01 -1.38120E+01 -1.35192E+01 -1.32453E+01 -1.29902E+01 -1.27538E+01
  -1.25358E+01 -1.23356E+01 -1.21527E+01 -1.19860E+01 -1.18346E+01 -1.16968E+01 -1.15712E+01 -1.14561E+01 -1.13494E+01 -1.12493E+01
  -1.11537E+01 -1.10607E+01 -1.09684E+01 -1.08751E+01 -1.07793E+01 -1.06798E+01 -1.05756E+01 -1.04660E+01 -1.03506E+01 -1.02290E+01
  -1.01015E+01 -9.96832E+00 -9.82978E+00 -9.68649E+00 -9.53908E+00 -9.38825E+00 -9.23471E+00 -9.07916E+00 -8.92227E+00 -8.76468E+00
  -8.60693E+00 -8.44953E+00 -8.29290E+00 -8.13740E+00 -7.98330E+00 -7.83085E+00 -7.68020E+00 -7.53152E+00 -7.38483E+00 -7.24024E+00
  -7.09771E+00 -6.95729E+00 -6.81893E+00 -6.68261E+00 -6.54827E+00 -6.41587E+00 -6.28534E+00 -6.15664E+00 -6.02969E+00 -5.90443E+00
  -5.78079E+00 -5.65872E+00 -5.53815E+00 -5.41901E+00 -5.30126E+00 -5.18482E+00 -5.06965E+00 -4.95568E+00 -4.84286E+00 -4.73115E+00
  -4.62048E+00 -4.51082E+00 -4.40209E+00 -4.29427E+00 -4.18729E+00 -4.08114E+00 -3.97573E+00 -3.87105E+00 -3.76702E+00 -3.66363E+00
  -3.56081E+00 -3.45854E+00 -3.35673E+00 -3.25539E+00 -3.15441E+00 -3.05380E+00 -2.95346E+00 -2.85338E+00 -2.75347E+00 -2.65369E+00
  -2.55396E+00 -2.45424E+00 -2.35444E+00 -2.25449E+00 -2.15431E+00 -2.05380E+00 -1.95286E+00 -1.85139E+00 -1.74926E+00 -1.64632E+00
  -1.54240E+00 -1.43733E+00 -1.33088E+00 -1.22280E+00 -1.11276E+00 -1.00039E+00 -8.85211E-01 -7.66613E-01
 NY background values follow
    -4.642E-01   -4.842E-01   -5.042E-01   -5.240E-01   -5.438E-01   -5.634E-01   -5.829E-01   -6.022E-01   -6.215E-01   -6.406E-01
    -6.597E-01   -6.786E-01   -6.974E-01   -7.161E-01   -7.346E-01   -7.531E-01   -7.714E-01   -7.896E-01   -8.077E-01   -8.257E-01
    -8.436E-01   -8.614E-01   -8.790E-01   -8.965E-01   -9.139E-01   -9.312E-01   -9.484E-01   -9.655E-01   -9.824E-01   -9.993E-01
    -1.016E+00   -1.033E+00   -1.049E+00   -1.065E+00   -1.082E+00   -1.098E+00   -1.114E+00   -1.130E+00   -1.146E+00   -1.161E+00
    -1.177E+00   -1.192E+00   -1.208E+00   -1.223E+00   -1.238E+00   -1.253E+00   -1.268E+00   -1.283E+00   -1.297E+00   -1.312E+00
    -1.326E+00   -1.340E+00   -1.355E+00   -1.369E+00   -1.383E+00   -1.396E+00   -1.410E+00   -1.424E+00   -1.437E+00   -1.451E+00
    -1.464E+00   -1.477E+00   -1.490E+00   -1.503E+00   -1.516E+00   -1.528E+00   -1.541E+00   -1.553E+00   -1.566E+00   -1.578E+00
    -1.590E+00   -1.602E+00   -1.614E+00   -1.625E+00   -1.637E+00   -1.649E+00   -1.660E+00   -1.671E+00   -1.682E+00   -1.694E+00
    -1.704E+00   -1.715E+00   -1.726E+00   -1.737E+00   -1.747E+00   -1.757E+00   -1.768E+00   -1.778E+00   -1.788E+00   -1.798E+00
    -1.807E+00   -1.817E+00   -1.827E+00   -1.836E+00   -1.845E+00   -1.855E+00   -1.864E+00   -1.873E+00   -1.881E+00   -1.890E+00
    -1.899E+00   -1.907E+00   -1.916E+00   -1.924E+00   -1.932E+00   -1.940E+00   -1.948E+00   -1.956E+00   -1.964E+00   -1.971E+00
    -1.979E+00   -1.986E+00   -1.993E+00   -2.000E+00   -2.007E+00   -2.014E+00   -2.021E+00   -2.028E+00   -2.034E+00   -2.041E+00
    -2.047E+00   -2.053E+00   -2.059E+00   -2.065E+00   -2.071E+00   -2.077E+00   -2.082E+00   -2.088E+00   -2.093E+00   -2.098E+00
    -2.104E+00   -2.109E+00   -2.114E+00   -2.118E+00   -2.123E+00   -2.128E+00   -2.132E+00   -2.136E+00   -2.141E+00   -2.145E+00
    -2.149E+00   -2.153E+00   -2.156E+00   -2.160E+00   -2.163E+00   -2.167E+00   -2.170E+00   -2.173E+00   -2.176E+00   -2.179E+00
    -2.182E+00   -2.185E+00   -2.187E+00   -2.190E+00   -2.192E+00   -2.195E+00   -2.197E+00   -2.199E+00   -2.201E+00   -2.202E+00
    -2.204E+00   -2.206E+00   -2.207E+00   -2.208E+00   -2.210E+00   -2.211E+00   -2.212E+00   -2.212E+00   -2.213E+00   -2.214E+00
    -2.214E+00   -2.215E+00   -2.215E+00   -2.215E+00   -2.215E+00   -2.215E+00   -2.215E+00   -2.215E+00   -2.214E+00   -2.214E+00
    -2.213E+00   -2.212E+00   -2.211E+00   -2.210E+00   -2.209E+00   -2.208E+00   -2.207E+00   -2.205E+00   -2.204E+00   -2.202E+00
    -2.200E+00   -2.198E+00   -2.196E+00   -2.194E+00   -2.192E+00   -2.189E+00   -2.187E+00   -2.184E+00   -2.181E+00   -2.179E+00
    -2.176E+00   -2.173E+00   -2.169E+00   -2.166E+00   -2.163E+00   -2.159E+00   -2.155E+00   -2.152E+00   -2.148E+00   -2.144E+00
    -2.140E+00   -2.135E+00   -2.131E+00   -2.127E+00   -2.122E+00   -2.117E+00   -2.112E+00   -2.107E+00   -2.102E+00   -2.097E+00
    -2.092E+00   -2.087E+00   -2.081E+00   -2.075E+00   -2.070E+00   -2.064E+00   -2.058E+00   -2.052E+00   -2.045E+00   -2.039E+00
    -2.033E+00   -2.026E+00   -2.019E+00   -2.013E+00   -2.006E+00   -1.999E+00   -1.992E+00   -1.984E+00   -1.977E+00   -1.969E+00
    -1.962E+00   -1.954E+00   -1.946E+00   -1.938E+00   -1.930E+00   -1.922E+00   -1.914E+00   -1.905E+00   -1.897E+00   -1.888E+00
    -1.879E+00   -1.870E+00   -1.861E+00   -1.852E+00   -1.843E+00   -1.834E+00   -1.824E+00   -1.815E+00   -1.805E+00   -1.795E+00
    -1.785E+00   -1.775E+00   -1.765E+00   -1.755E+00   -1.744E+00   -1.734E+00   -1.723E+00   -1.712E+00   -1.702E+00   -1.691E+00
    -1.680E+00   -1.668E+00   -1.657E+00   -1.646E+00   -1.634E+00   -1.622E+00   -1.611E+00   -1.599E+00   -1.587E+00   -1.575E+00
    -1.562E+00   -1.550E+00   -1.537E+00   -1.525E+00   -1.512E+00   -1.499E+00   -1.486E+00   -1.473E+00   -1.460E+00   -1.447E+00
    -1.433E+00   -1.420E+00   -1.406E+00   -1.392E+00   -1.379E+00   -1.365E+00   -1.350E+00   -1.336E+00   -1.322E+00   -1.307E+00
    -1.293E+00   -1.278E+00   -1.263E+00   -1.248E+00   -1.233E+00   -1.218E+00   -1.203E+00   -1.188E+00   -1.172E+00   -1.157E+00
    -1.141E+00   -1.125E+00   -1.109E+00   -1.093E+00   -1.077E+00   -1.060E+00   -1.044E+00   -1.027E+00   -1.011E+00   -9.940E-01
    -9.771E-01   -9.601E-01   -9.430E-01   -9.258E-01   -9.084E-01   -8.910E-01   -8.734E-01   -8.557E-01   -8.378E-01   -8.199E-01
    -8.019E-01   -7.837E-01   -7.654E-01   -7.470E-01   -7.285E-01   -7.099E-01   -6.911E-01   -6.723E-01   -6.533E-01   -6.342E-01
    -6.150E-01   -5.957E-01   -5.762E-01   -5.567E-01   -5.370E-01   -5.172E-01   -4.973E-01   -4.773E-01   -4.571E-01   -4.369E-01
    -4.165E-01   -3.960E-01   -3.754E-01   -3.547E-01   -3.339E-01   -3.129E-01   -2.919E-01   -2.707E-01   -2.494E-01   -2.280E-01
    -2.064E-01   -1.848E-01   -1.630E-01   -1.412E-01   -1.192E-01   -9.706E-02   -7.483E-02   -5.249E-02   -3.004E-02   -7.463E-03
     1.522E-02    3.803E-02    6.095E-02    8.399E-02    1.071E-01    1.304E-01    1.538E-01    1.773E-01    2.009E-01    2.246E-01
     2.485E-01    2.724E-01    2.965E-01    3.207E-01    3.450E-01    3.695E-01    3.940E-01    4.187E-01    4.434E-01    4.683E-01
     4.933E-01    5.185E-01    5.437E-01    5.691E-01    5.945E-01    6.201E-01    6.458E-01    6.716E-01    6.976E-01    7.236E-01
     7.498E-01    7.761E-01    8.025E-01    8.290E-01    8.556E-01    8.823E-01    9.092E-01    9.362E-01    9.633E-01    9.905E-01
     1.018E+00    1.045E+00    1.073E+00    1.100E+00    1.128E+00    1.156E+00    1.184E+00    1.212E+00    1.241E+00    1.269E+00
     1.297E+00    1.326E+00    1.355E+00    1.384E+00    1.413E+00    1.442E+00    1.471E+00    1.500E+00    1.529E+00    1.559E+00
     1.589E+00    1.618E+00    1.648E+00    1.678E+00    1.708E+00    1.739E+00    1.769E+00    1.799E+00    1.830E+00    1.861E+00
     1.891E+00    1.922E+00    1.953E+00    1.985E+00    2.016E+00    2.047E+00    2.079E+00    2.110E+00    2.142E+00    2.174E+00
     2.206E+00    2.238E+00    2.270E+00    2.302E+00    2.335E+00    2.367E+00    2.400E+00    2.433E+00    2.466E+00    2.499E+00
     2.532E+00    2.565E+00    2.598E+00    2.632E+00    2.665E+00    2.699E+00    2.733E+00    2.767E+00    2.801E+00    2.835E+00
     2.869E+00    2.904E+00    2.938E+00    2.973E+00    3.008E+00    3.042E+00    3.077E+00    3.112E+00    3.148E+00    3.183E+00
     3.218E+00    3.254E+00    3.290E+00    3.325E+00    3.361E+00    3.397E+00    3.433E+00    3.470E+00    3.506E+00    3.542E+00
     3.579E+00    3.616E+00    3.653E+00    3.689E+00    3.727E+00    3.764E+00    3.801E+00    3.838E+00
 Ala      Conc. = 6.77E+03
