 LCModel (Version 6.3-1L) Copyright: S.W. Provencher.          Ref.: Magn. Reson. Med. 30:672-679 (1993).                
 Slice#3 Row#3 Col#1  K_02_press_1_raw_act
 36 lines in following concentration table = NCONC+1
    Conc.  %SD /Cr+PCr  Metabolite                                         
   46.771  47%   1.291 Ala                                                 
    4.940 131%   0.136 Asp                                                 
    0.000 999%   0.000 Cr                                                  
   36.217  23%   1.000 PCr                                                 
    2.539 153% 7.0E-02 GABA                                                
    2.360 165% 6.5E-02 Glc                                                 
    0.000 999%   0.000 Gln                                                 
    0.000 999%   0.000 Glu                                                 
    9.246  32%   0.255 GPC                                                 
    0.000 999%   0.000 PCh                                                 
    7.566 152%   0.209 GSH                                                 
    0.000 999%   0.000 Ins                                                 
    0.000 999%   0.000 Lac                                                 
   49.100  20%   1.356 NAA                                                 
    0.000 999%   0.000 NAAG                                                
    0.888 141% 2.5E-02 Scyllo                                              
    2.763 232% 7.6E-02 Tau                                                 
    2.662 369% 7.3E-02 -CrCH2                                              
    9.246  32%   0.255 GPC+PCh                                             
   49.100  20%   1.356 NAA+NAAG                                            
   36.217  23%   1.000 Cr+PCr                                              
    0.000 999%   0.000 Glu+Gln                                             
  633.425  14%  17.490 Lip13a                                              
    0.000 999%   0.000 Lip13b                                              
  195.537  19%   5.399 Lip09                                               
    0.000 999%   0.000 MM09                                                
  120.909  31%   3.338 Lip20                                               
    0.000 999%   0.000 MM20                                                
   11.420 290%   0.315 MM12                                                
    0.000 999%   0.000 MM14                                                
    0.000 999%   0.000 MM17                                                
  633.425  14%  17.490 Lip13a+Lip13b                                       
  644.845  13%  17.805 MM14+Lip13a+Lip13b+MM12                             
  195.537  19%   5.399 MM09+Lip09                                          
  120.909  31%   3.338 MM20+Lip20                                          
   6 lines in following misc. output table
  FWHM = 0.061 ppm    S/N =   2                                            
  Data shift = 0.046 ppm                                                   
  Ph: -76 deg     -27.9 deg/ppm                                            
  alphaB,S = 8.5E+01,   2.0E+01                                            
   14 spline knots.   Ns = 8(1)                                            
  (12) 2 infls.   (13) 1 extrs.                                            
  498 points on ppm-axis = NY
      4.000000     3.992357     3.984714     3.977070     3.969427     3.961784     3.954141     3.946497     3.938854     3.931211
      3.923568     3.915925     3.908281     3.900638     3.892995     3.885352     3.877708     3.870065     3.862422     3.854779
      3.847136     3.839492     3.831849     3.824206     3.816563     3.808919     3.801276     3.793633     3.785990     3.778347
      3.770703     3.763060     3.755417     3.747774     3.740130     3.732487     3.724844     3.717201     3.709558     3.701914
      3.694271     3.686628     3.678985     3.671341     3.663698     3.656055     3.648412     3.640769     3.633125     3.625482
      3.617839     3.610196     3.602552     3.594909     3.587266     3.579623     3.571980     3.564336     3.556693     3.549050
      3.541407     3.533763     3.526120     3.518477     3.510834     3.503191     3.495547     3.487904     3.480261     3.472618
      3.464974     3.457331     3.449688     3.442045     3.434402     3.426758     3.419115     3.411472     3.403829     3.396185
      3.388542     3.380899     3.373256     3.365613     3.357969     3.350326     3.342683     3.335040     3.327396     3.319753
      3.312110     3.304467     3.296824     3.289180     3.281537     3.273894     3.266251     3.258607     3.250964     3.243321
      3.235678     3.228034     3.220391     3.212748     3.205105     3.197462     3.189818     3.182175     3.174532     3.166889
      3.159245     3.151602     3.143959     3.136316     3.128673     3.121029     3.113386     3.105743     3.098100     3.090456
      3.082813     3.075170     3.067527     3.059884     3.052240     3.044597     3.036954     3.029311     3.021667     3.014024
      3.006381     2.998738     2.991095     2.983451     2.975808     2.968165     2.960522     2.952878     2.945235     2.937592
      2.929949     2.922306     2.914662     2.907019     2.899376     2.891733     2.884089     2.876446     2.868803     2.861160
      2.853517     2.845873     2.838230     2.830587     2.822944     2.815300     2.807657     2.800014     2.792371     2.784728
      2.777084     2.769441     2.761798     2.754155     2.746511     2.738868     2.731225     2.723582     2.715939     2.708295
      2.700652     2.693009     2.685366     2.677722     2.670079     2.662436     2.654793     2.647150     2.639506     2.631863
      2.624220     2.616577     2.608933     2.601290     2.593647     2.586004     2.578361     2.570717     2.563074     2.555431
      2.547788     2.540144     2.532501     2.524858     2.517215     2.509572     2.501928     2.494285     2.486642     2.478999
      2.471355     2.463712     2.456069     2.448426     2.440783     2.433139     2.425496     2.417853     2.410210     2.402566
      2.394923     2.387280     2.379637     2.371994     2.364350     2.356707     2.349064     2.341421     2.333777     2.326134
      2.318491     2.310848     2.303205     2.295561     2.287918     2.280275     2.272632     2.264988     2.257345     2.249702
      2.242059     2.234416     2.226772     2.219129     2.211486     2.203843     2.196199     2.188556     2.180913     2.173270
      2.165627     2.157983     2.150340     2.142697     2.135054     2.127410     2.119767     2.112124     2.104481     2.096838
      2.089194     2.081551     2.073908     2.066265     2.058621     2.050978     2.043335     2.035692     2.028049     2.020405
      2.012762     2.005119     1.997476     1.989833     1.982190     1.974546     1.966903     1.959260     1.951617     1.943974
      1.936331     1.928688     1.921045     1.913402     1.905759     1.898115     1.890472     1.882829     1.875186     1.867543
      1.859900     1.852257     1.844614     1.836971     1.829327     1.821684     1.814041     1.806398     1.798755     1.791112
      1.783469     1.775826     1.768183     1.760540     1.752896     1.745253     1.737610     1.729967     1.722324     1.714681
      1.707038     1.699395     1.691752     1.684108     1.676465     1.668822     1.661179     1.653536     1.645893     1.638250
      1.630607     1.622964     1.615321     1.607677     1.600034     1.592391     1.584748     1.577105     1.569462     1.561819
      1.554176     1.546533     1.538890     1.531246     1.523603     1.515960     1.508317     1.500674     1.493031     1.485388
      1.477745     1.470102     1.462458     1.454815     1.447172     1.439529     1.431886     1.424243     1.416600     1.408957
      1.401314     1.393671     1.386027     1.378384     1.370741     1.363098     1.355455     1.347812     1.340169     1.332526
      1.324883     1.317240     1.309596     1.301953     1.294310     1.286667     1.279024     1.271381     1.263738     1.256095
      1.248452     1.240808     1.233165     1.225522     1.217879     1.210236     1.202593     1.194950     1.187307     1.179664
      1.172021     1.164377     1.156734     1.149091     1.141448     1.133805     1.126162     1.118519     1.110876     1.103233
      1.095590     1.087946     1.080303     1.072660     1.065017     1.057374     1.049731     1.042088     1.034445     1.026802
      1.019158     1.011515     1.003872     0.996229     0.988586     0.980943     0.973300     0.965657     0.958014     0.950371
      0.942727     0.935084     0.927441     0.919798     0.912155     0.904512     0.896869     0.889226     0.881583     0.873940
      0.866296     0.858653     0.851010     0.843367     0.835724     0.828081     0.820438     0.812795     0.805152     0.797508
      0.789865     0.782222     0.774579     0.766936     0.759293     0.751650     0.744007     0.736364     0.728721     0.721077
      0.713434     0.705791     0.698148     0.690505     0.682862     0.675219     0.667576     0.659933     0.652290     0.644646
      0.637003     0.629360     0.621717     0.614074     0.606431     0.598788     0.591145     0.583502     0.575858     0.568215
      0.560572     0.552929     0.545286     0.537643     0.530000     0.522357     0.514714     0.507071     0.499427     0.491784
      0.484141     0.476498     0.468855     0.461212     0.453569     0.445925     0.438282     0.430639     0.422996     0.415353
      0.407710     0.400067     0.392424     0.384780     0.377137     0.369494     0.361851     0.354208     0.346565     0.338922
      0.331278     0.323635     0.315992     0.308349     0.300706     0.293063     0.285420     0.277777     0.270133     0.262490
      0.254847     0.247204     0.239561     0.231918     0.224275     0.216631     0.208988     0.201345
 NY phased data points follow
  -1.30192E+00  2.56541E-01 -6.50532E-01 -1.12367E-01 -7.42894E-01 -7.73123E-01 -1.77931E-01 -2.69694E-01  1.14873E-01 -3.36652E-01
   3.10443E-01  7.76073E-02  5.98247E-01 -2.57227E-01 -6.69645E-01  3.33022E-02  7.68819E-01 -3.40962E-01 -1.78702E-01  1.04957E-01
   4.13255E-02 -3.95811E-01 -2.82386E-01 -3.45446E-01 -1.73258E-01  5.58480E-02  6.53196E-01 -7.14615E-01  4.32092E-01 -3.13917E-01
  -6.62909E-02 -7.69628E-01 -2.13469E-01 -6.29748E-01 -3.91703E-01 -3.06907E-01  1.01518E-01  4.35560E-01 -2.22853E-01 -1.02503E-01
   6.51738E-01 -5.27259E-01  2.07510E-01  2.48542E-01  2.21197E-01 -5.61376E-01 -6.61798E-01 -2.01293E+00  5.47758E-02 -4.18685E-01
  -1.01455E-03  2.38894E-01 -5.22166E-01 -6.71156E-02  1.92378E-01  3.54759E-01  9.97825E-02 -7.24473E-02 -7.19227E-01 -4.76535E-01
  -3.98887E-01 -7.81602E-01 -7.22640E-01 -8.61692E-01 -3.00664E-01 -8.68261E-01 -3.33051E-01 -1.04355E-01 -2.64579E-01 -1.11510E+00
  -5.28981E-01 -9.69279E-01 -5.49239E-01 -5.43120E-01 -5.24990E-01 -2.73222E-01 -2.71906E-01 -1.00743E+00 -1.01231E+00 -1.55158E+00
   1.87862E-01 -9.54186E-01 -1.27804E+00 -1.30910E+00 -1.20967E+00 -1.23370E+00 -6.09080E-01 -1.49529E+00 -8.64767E-02 -6.64356E-01
   1.47449E-01 -1.78494E-01  1.18759E-01 -1.04242E+00 -3.14201E-01 -1.29017E+00 -1.05873E+00 -8.72730E-01 -2.60132E-01  2.25835E-01
   7.40105E-01 -1.68918E-02  4.59690E-01 -4.13593E-01  4.35992E-01  6.11559E-01  2.90178E-01  3.50602E-01  1.85316E-01 -5.87639E-01
  -7.03641E-01 -3.13230E-01  7.19173E-01  2.82015E-02 -6.75435E-01  9.78573E-02 -5.14636E-01 -1.06653E+00 -4.70050E-01  2.88213E-01
  -6.98987E-01 -3.42149E-01  5.24524E-01  6.47526E-02  3.04032E-01  9.45153E-01  7.32413E-01  9.94861E-01  7.81397E-01  2.13859E-01
   1.50949E+00  4.34338E-01  3.62837E-01  6.26175E-01  1.66782E-01  1.31776E+00  4.28570E-01  2.44388E-01 -1.63205E-01 -2.46863E-01
   1.20781E+00  1.22515E-01 -3.48275E-01 -5.08041E-02  1.16196E+00  2.69918E-01  7.19664E-01 -6.44662E-01  8.19127E-01  6.35912E-01
   1.67922E-01  2.59901E-01 -1.40008E-01 -2.76809E-02  6.11125E-01  2.48515E-01  1.06773E+00  5.90358E-01  7.13844E-01  1.13776E+00
   9.18099E-01  8.60782E-01  1.08839E+00 -5.31857E-01  1.04193E+00  4.41215E-01  4.26152E-01  2.44475E-01  8.22296E-01  1.02839E+00
  -5.12774E-02  4.03881E-01 -2.72728E-02 -9.76359E-01  4.23932E-01  6.14416E-01  1.14723E+00  6.22081E-01  5.85023E-01 -2.99594E-01
   1.84600E+00  1.68711E+00  5.10695E-01  8.04792E-01 -3.46385E-01  1.18073E+00  9.57571E-01  8.82263E-01  5.87820E-01  1.29008E+00
   6.45597E-01  5.85129E-01  1.20567E+00  3.22446E-01  1.44129E+00  8.68986E-01  2.01627E+00  1.39153E+00  5.68839E-01  6.74874E-01
   9.46530E-01  2.72132E+00  2.07532E+00  2.02518E+00  1.02379E+00  1.54008E+00  1.41143E+00  1.21355E+00  1.83782E+00  1.61011E+00
   1.26514E+00  1.41594E+00  1.48808E+00  3.89516E-01  1.52827E+00  1.21110E+00  1.35722E+00  1.49978E+00  1.88075E+00  6.72574E-01
   1.60634E+00  1.48294E+00  1.23532E+00  3.98490E-01  9.99061E-01  9.57852E-01  1.98840E+00  5.61125E-01  1.86295E+00  1.84979E+00
   1.18548E+00  1.47777E+00  6.82677E-01  1.74685E+00  7.73424E-01  1.79969E+00  1.56387E+00  9.83668E-01  1.26353E-01  8.52891E-01
   1.65702E+00  9.22307E-01  6.72935E-01  1.73924E+00  6.53466E-01  1.59947E+00  1.69780E+00  1.58349E+00  1.54677E+00  1.83418E+00
   1.76012E+00  2.00051E+00  8.20015E-01  2.18356E+00  2.12744E+00  1.59953E+00  1.89371E+00  3.14727E+00  2.18743E+00  3.43844E+00
   3.87707E+00  2.69250E+00  2.86613E+00  3.12877E+00  2.01257E+00  1.92318E+00  1.46872E+00  1.44954E+00  1.08852E+00  1.38691E+00
   8.08789E-01  1.25580E+00  1.08467E+00  9.80830E-01  1.64066E+00  9.87236E-01  1.18313E+00  1.71224E+00  4.23489E-01  1.28468E+00
   1.81803E+00  1.46895E+00  8.48144E-01  2.04537E+00  1.31701E+00  1.28829E+00  1.29283E+00  1.43299E+00  1.18864E+00  3.81650E-01
   3.06021E-01  1.48966E+00  1.17490E+00  1.91212E+00  2.39014E+00  1.48454E+00  8.36871E-01  1.54502E+00  2.07788E+00  2.18530E+00
   2.02796E+00  2.47185E+00  1.60051E+00  1.99081E+00  1.53908E+00  2.10443E+00  1.68898E+00  8.39941E-01  1.11434E+00  1.90683E+00
   1.69800E+00  2.06813E+00  2.17422E+00  1.31795E+00  1.20933E+00  1.51456E+00  2.30156E+00  2.40102E+00  2.25134E+00  2.40080E+00
   1.50345E+00  3.09643E+00  2.48795E+00  1.69521E+00  2.06542E+00  2.32844E+00  2.09302E+00  1.63543E+00  1.97899E+00  1.45389E+00
   2.43467E+00  2.50670E+00  2.54660E+00  2.98222E+00  3.78554E+00  2.91650E+00  2.99882E+00  3.49848E+00  3.70988E+00  3.46617E+00
   3.94643E+00  4.55080E+00  3.68798E+00  4.70497E+00  4.53354E+00  3.87108E+00  3.83278E+00  3.62169E+00  4.49383E+00  3.81354E+00
   3.25786E+00  3.89387E+00  3.23008E+00  3.72659E+00  3.49069E+00  3.05991E+00  3.83222E+00  2.66271E+00  2.92954E+00  3.72879E+00
   4.32252E+00  4.07411E+00  2.70408E+00  2.83883E+00  3.15249E+00  3.05941E+00  3.72050E+00  3.90424E+00  4.49473E+00  3.71429E+00
   1.95212E+00  1.87416E+00  3.23554E+00  1.97368E+00  1.72005E+00  2.46965E+00  1.89119E+00  1.76736E+00  2.02322E+00  2.64147E+00
   2.34286E+00  1.95548E+00  2.09583E+00  1.99446E+00  2.03561E+00  2.03230E+00  2.90687E+00  2.75871E+00  2.20963E+00  2.25951E+00
   1.12406E+00  2.08426E+00  2.49910E+00  2.02106E+00  1.94180E+00  1.69998E+00  2.32247E+00  1.14827E+00  1.30069E+00  9.87483E-01
   1.68614E+00  1.81686E+00  1.71171E+00  1.69007E+00  1.18839E+00  1.71397E+00  1.71802E+00  1.36128E+00  7.80517E-01  9.32998E-01
   1.05740E+00  1.65350E+00  1.04202E+00  1.00751E+00  1.87951E+00  1.20398E+00  1.88282E+00  9.82689E-01  1.28198E+00  1.47246E+00
   1.88059E+00  3.07810E+00  1.99871E+00  1.69285E+00  1.22400E+00  6.78119E-01  4.99374E-01  1.68788E+00  1.19254E+00  1.23972E+00
   6.77015E-01  1.20036E+00 -1.57125E-02  1.42259E+00 -1.42871E-01  6.08468E-01  7.35804E-01  1.15858E+00  1.54206E-01 -1.02922E-01
   1.16972E-01  1.74890E-01  3.27550E-01  1.21130E+00  1.49380E+00  3.92851E-01  1.07894E+00  1.05481E+00 -1.57514E-01  1.21531E+00
   5.76645E-01  4.56928E-01  5.07432E-01  8.76621E-01  1.05803E-01 -5.20374E-01  6.60033E-01  3.50040E-01  1.87839E+00  5.46748E-01
   6.44241E-01  3.93632E-01  3.88110E-01  5.79120E-01  5.64280E-01  1.35220E+00  9.26939E-01  2.86896E-01  2.76619E-01 -1.43593E-01
   8.69468E-02  3.24833E-01  1.09326E-01 -1.94505E-01 -1.07776E-01  1.32152E+00  4.80456E-01  3.59775E-01 -2.23184E-01  3.64847E-01
   3.64393E-01  5.60726E-01  3.28059E-01  1.45990E-01  9.18266E-01  5.81586E-01 -3.37656E-01  4.56986E-01 -3.59492E-01  3.27590E-01
  -1.83285E-01 -5.21715E-01  2.74475E-01  3.15614E-01 -1.41663E-01  1.36334E-01  5.29027E-01  1.87284E-01
 NY points of the fit to the data follow
  -7.61174E-01 -8.13687E-01 -8.50129E-01 -8.55622E-01 -8.08403E-01 -7.08628E-01 -5.76535E-01 -4.24652E-01 -2.69799E-01 -1.45589E-01
  -5.81815E-02  1.05636E-02  4.62116E-02  1.93974E-02 -5.52844E-02 -1.36669E-01 -2.03870E-01 -2.50326E-01 -2.78809E-01 -2.94712E-01
  -2.98366E-01 -2.98420E-01 -2.99276E-01 -3.01036E-01 -3.08083E-01 -3.22940E-01 -3.40787E-01 -3.57369E-01 -3.70977E-01 -3.80730E-01
  -3.85828E-01 -3.79049E-01 -3.51758E-01 -3.17121E-01 -2.96079E-01 -2.87676E-01 -2.79781E-01 -2.75493E-01 -2.81390E-01 -2.97668E-01
  -3.17736E-01 -3.32552E-01 -3.44538E-01 -3.59861E-01 -3.72018E-01 -3.74081E-01 -3.70794E-01 -3.67922E-01 -3.64503E-01 -3.60080E-01
  -3.56351E-01 -3.53919E-01 -3.51430E-01 -3.49309E-01 -3.49390E-01 -3.52445E-01 -3.57218E-01 -3.61955E-01 -3.66181E-01 -3.70379E-01
  -3.74466E-01 -3.77821E-01 -3.80150E-01 -3.81860E-01 -3.83496E-01 -3.85343E-01 -3.87785E-01 -3.90637E-01 -3.93113E-01 -3.94994E-01
  -3.95879E-01 -3.95272E-01 -3.93753E-01 -3.92302E-01 -3.91212E-01 -3.91261E-01 -3.93421E-01 -3.97164E-01 -4.01293E-01 -4.04887E-01
  -4.07236E-01 -4.06040E-01 -4.00958E-01 -3.93838E-01 -3.86150E-01 -3.79477E-01 -3.76907E-01 -3.79587E-01 -3.86054E-01 -3.97246E-01
  -4.15685E-01 -4.40887E-01 -4.70646E-01 -5.04970E-01 -5.41725E-01 -5.58480E-01 -5.40988E-01 -4.70135E-01 -3.35657E-01 -1.61326E-01
   2.19010E-02  1.98995E-01  3.39791E-01  4.14905E-01  4.46172E-01  4.52559E-01  4.07224E-01  2.98854E-01  1.72563E-01  7.23121E-02
   5.58925E-03 -3.85542E-02 -7.84806E-02 -1.13953E-01 -1.44136E-01 -1.74068E-01 -2.06982E-01 -2.45849E-01 -2.85799E-01 -2.93912E-01
  -2.52189E-01 -1.38123E-01  5.40318E-02  2.88534E-01  5.25558E-01  7.46367E-01  9.12404E-01  9.93351E-01  1.02324E+00  1.01967E+00
   9.43724E-01  7.89960E-01  6.24884E-01  5.00054E-01  4.20629E-01  3.72786E-01  3.35347E-01  3.10619E-01  2.99710E-01  2.98962E-01
   3.05883E-01  3.17799E-01  3.31524E-01  3.44323E-01  3.55037E-01  3.63399E-01  3.70081E-01  3.77054E-01  3.85101E-01  3.93637E-01
   4.02723E-01  4.12874E-01  4.24600E-01  4.36454E-01  4.46858E-01  4.54773E-01  4.59185E-01  4.61834E-01  4.65043E-01  4.69854E-01
   4.77147E-01  4.86759E-01  4.96678E-01  5.05206E-01  5.12623E-01  5.19212E-01  5.24698E-01  5.27536E-01  5.24918E-01  5.16082E-01
   5.05242E-01  4.94961E-01  4.86239E-01  4.79939E-01  4.75069E-01  4.71257E-01  4.69317E-01  4.68765E-01  4.68086E-01  4.67680E-01
   4.68944E-01  4.71429E-01  4.72085E-01  4.72894E-01  4.79930E-01  4.96596E-01  5.21174E-01  5.48779E-01  5.75249E-01  5.99089E-01
   6.21359E-01  6.41921E-01  6.56737E-01  6.63216E-01  6.63448E-01  6.61425E-01  6.61196E-01  6.65381E-01  6.75901E-01  6.91516E-01
   7.08745E-01  7.27141E-01  7.47434E-01  7.66334E-01  7.80699E-01  7.91003E-01  7.97529E-01  7.98995E-01  7.94975E-01  7.90087E-01
   7.88946E-01  7.92605E-01  8.01286E-01  8.15176E-01  8.33173E-01  8.53965E-01  8.78757E-01  9.07967E-01  9.38515E-01  9.67365E-01
   9.93958E-01  1.01867E+00  1.04166E+00  1.06166E+00  1.07759E+00  1.09007E+00  1.09992E+00  1.10872E+00  1.11872E+00  1.13209E+00
   1.15044E+00  1.17348E+00  1.19881E+00  1.22291E+00  1.24391E+00  1.26130E+00  1.27370E+00  1.28023E+00  1.28375E+00  1.28881E+00
   1.29770E+00  1.31052E+00  1.32800E+00  1.35150E+00  1.37944E+00  1.40795E+00  1.43452E+00  1.45925E+00  1.48263E+00  1.50438E+00
   1.52620E+00  1.55558E+00  1.62270E+00  1.76056E+00  1.96853E+00  2.24918E+00  2.55351E+00  2.81182E+00  2.99318E+00  3.07894E+00
   3.03457E+00  2.89379E+00  2.72422E+00  2.50919E+00  2.22484E+00  1.94288E+00  1.75206E+00  1.65437E+00  1.60991E+00  1.58114E+00
   1.55469E+00  1.54279E+00  1.53710E+00  1.53366E+00  1.53151E+00  1.53005E+00  1.52896E+00  1.52830E+00  1.52847E+00  1.52962E+00
   1.53182E+00  1.53539E+00  1.54053E+00  1.54711E+00  1.55492E+00  1.56368E+00  1.57313E+00  1.58322E+00  1.59378E+00  1.60461E+00
   1.61570E+00  1.62723E+00  1.63926E+00  1.65181E+00  1.66492E+00  1.67863E+00  1.69294E+00  1.70786E+00  1.72340E+00  1.73956E+00
   1.75634E+00  1.77376E+00  1.79186E+00  1.81070E+00  1.83032E+00  1.85081E+00  1.87224E+00  1.89471E+00  1.91833E+00  1.94325E+00
   1.96965E+00  1.99776E+00  2.02789E+00  2.06043E+00  2.09597E+00  2.13536E+00  2.17999E+00  2.23234E+00  2.29768E+00  2.38097E+00
   2.46624E+00  2.53956E+00  2.57867E+00  2.56064E+00  2.48883E+00  2.37980E+00  2.24283E+00  2.12092E+00  2.06384E+00  2.07913E+00
   2.16241E+00  2.32084E+00  2.55173E+00  2.81768E+00  3.05908E+00  3.23329E+00  3.35396E+00  3.45235E+00  3.50897E+00  3.50914E+00
   3.48959E+00  3.49033E+00  3.51903E+00  3.56608E+00  3.61544E+00  3.66467E+00  3.71513E+00  3.76252E+00  3.80429E+00  3.83872E+00
   3.86445E+00  3.88036E+00  3.88556E+00  3.87940E+00  3.86147E+00  3.83165E+00  3.79005E+00  3.73705E+00  3.67330E+00  3.59967E+00
   3.51726E+00  3.42731E+00  3.33122E+00  3.23047E+00  3.12658E+00  3.02107E+00  2.91541E+00  2.81100E+00  2.70912E+00  2.61089E+00
   2.51731E+00  2.42917E+00  2.34711E+00  2.27161E+00  2.20296E+00  2.14132E+00  2.08669E+00  2.03898E+00  1.99799E+00  1.96343E+00
   1.93494E+00  1.91212E+00  1.89450E+00  1.88162E+00  1.87296E+00  1.86800E+00  1.86621E+00  1.86705E+00  1.86994E+00  1.87434E+00
   1.87968E+00  1.88539E+00  1.89091E+00  1.89566E+00  1.89910E+00  1.90071E+00  1.89998E+00  1.89644E+00  1.88970E+00  1.87939E+00
   1.86524E+00  1.84705E+00  1.82471E+00  1.79820E+00  1.76761E+00  1.73310E+00  1.69493E+00  1.65347E+00  1.60912E+00  1.56236E+00
   1.51371E+00  1.46372E+00  1.41295E+00  1.36194E+00  1.31124E+00  1.26132E+00  1.21263E+00  1.16557E+00  1.12046E+00  1.07756E+00
   1.03706E+00  9.99099E-01  9.63747E-01  9.31021E-01  9.00891E-01  8.73284E-01  8.48096E-01  8.25198E-01  8.04444E-01  7.85674E-01
   7.68723E-01  7.53423E-01  7.39610E-01  7.27124E-01  7.15817E-01  7.05545E-01  6.96178E-01  6.87594E-01  6.79685E-01  6.72352E-01
   6.65509E-01  6.59074E-01  6.52979E-01  6.47161E-01  6.41567E-01  6.36151E-01  6.30870E-01  6.25688E-01  6.20573E-01  6.15498E-01
   6.10439E-01  6.05377E-01  6.00293E-01  5.95171E-01  5.89997E-01  5.84761E-01  5.79453E-01  5.74064E-01  5.68587E-01  5.63014E-01
   5.57341E-01  5.51562E-01  5.45675E-01  5.39677E-01  5.33563E-01  5.27331E-01  5.20980E-01  5.14508E-01  5.07914E-01  5.01198E-01
   4.94358E-01  4.87392E-01  4.80302E-01  4.73088E-01  4.65749E-01  4.58286E-01  4.50698E-01  4.42985E-01  4.35150E-01  4.27192E-01
   4.19113E-01  4.10912E-01  4.02591E-01  3.94150E-01  3.85591E-01  3.76915E-01  3.68125E-01  3.59219E-01  3.50201E-01  3.41071E-01
   3.31833E-01  3.22488E-01  3.13038E-01  3.03485E-01  2.93831E-01  2.84082E-01  2.74239E-01  2.64308E-01
 NY background values follow
    -8.301E-02   -8.507E-02   -8.704E-02   -8.894E-02   -9.077E-02   -9.251E-02   -9.419E-02   -9.578E-02   -9.730E-02   -9.875E-02
    -1.001E-01   -1.014E-01   -1.026E-01   -1.038E-01   -1.048E-01   -1.058E-01   -1.067E-01   -1.076E-01   -1.083E-01   -1.090E-01
    -1.096E-01   -1.102E-01   -1.106E-01   -1.110E-01   -1.113E-01   -1.116E-01   -1.117E-01   -1.118E-01   -1.119E-01   -1.118E-01
    -1.117E-01   -1.115E-01   -1.112E-01   -1.108E-01   -1.104E-01   -1.099E-01   -1.093E-01   -1.087E-01   -1.079E-01   -1.072E-01
    -1.063E-01   -1.053E-01   -1.043E-01   -1.033E-01   -1.021E-01   -1.009E-01   -9.957E-02   -9.820E-02   -9.676E-02   -9.525E-02
    -9.367E-02   -9.201E-02   -9.029E-02   -8.849E-02   -8.663E-02   -8.470E-02   -8.270E-02   -8.062E-02   -7.848E-02   -7.628E-02
    -7.400E-02   -7.165E-02   -6.924E-02   -6.676E-02   -6.421E-02   -6.160E-02   -5.891E-02   -5.616E-02   -5.335E-02   -5.047E-02
    -4.752E-02   -4.451E-02   -4.144E-02   -3.830E-02   -3.509E-02   -3.182E-02   -2.849E-02   -2.509E-02   -2.163E-02   -1.811E-02
    -1.452E-02   -1.088E-02   -7.168E-03   -3.398E-03    4.337E-04    4.326E-03    8.278E-03    1.229E-02    1.636E-02    2.049E-02
     2.468E-02    2.893E-02    3.324E-02    3.760E-02    4.202E-02    4.650E-02    5.104E-02    5.563E-02    6.028E-02    6.498E-02
     6.974E-02    7.455E-02    7.942E-02    8.434E-02    8.931E-02    9.434E-02    9.942E-02    1.045E-01    1.097E-01    1.150E-01
     1.202E-01    1.256E-01    1.310E-01    1.364E-01    1.419E-01    1.474E-01    1.530E-01    1.586E-01    1.643E-01    1.700E-01
     1.758E-01    1.816E-01    1.875E-01    1.934E-01    1.993E-01    2.053E-01    2.113E-01    2.174E-01    2.235E-01    2.297E-01
     2.359E-01    2.421E-01    2.484E-01    2.547E-01    2.611E-01    2.675E-01    2.739E-01    2.804E-01    2.869E-01    2.935E-01
     3.001E-01    3.067E-01    3.133E-01    3.200E-01    3.268E-01    3.335E-01    3.403E-01    3.471E-01    3.540E-01    3.609E-01
     3.678E-01    3.747E-01    3.817E-01    3.887E-01    3.958E-01    4.028E-01    4.099E-01    4.170E-01    4.242E-01    4.314E-01
     4.386E-01    4.458E-01    4.530E-01    4.603E-01    4.676E-01    4.749E-01    4.822E-01    4.896E-01    4.970E-01    5.043E-01
     5.118E-01    5.192E-01    5.267E-01    5.341E-01    5.416E-01    5.491E-01    5.566E-01    5.642E-01    5.717E-01    5.793E-01
     5.868E-01    5.944E-01    6.020E-01    6.097E-01    6.173E-01    6.249E-01    6.326E-01    6.402E-01    6.479E-01    6.555E-01
     6.632E-01    6.709E-01    6.786E-01    6.863E-01    6.940E-01    7.017E-01    7.094E-01    7.171E-01    7.248E-01    7.325E-01
     7.402E-01    7.479E-01    7.557E-01    7.634E-01    7.711E-01    7.788E-01    7.865E-01    7.942E-01    8.019E-01    8.096E-01
     8.173E-01    8.250E-01    8.327E-01    8.403E-01    8.480E-01    8.556E-01    8.633E-01    8.709E-01    8.785E-01    8.862E-01
     8.938E-01    9.014E-01    9.089E-01    9.165E-01    9.240E-01    9.316E-01    9.391E-01    9.466E-01    9.541E-01    9.616E-01
     9.690E-01    9.764E-01    9.839E-01    9.912E-01    9.986E-01    1.006E+00    1.013E+00    1.021E+00    1.028E+00    1.035E+00
     1.042E+00    1.050E+00    1.057E+00    1.064E+00    1.071E+00    1.078E+00    1.085E+00    1.092E+00    1.099E+00    1.106E+00
     1.113E+00    1.120E+00    1.127E+00    1.134E+00    1.141E+00    1.148E+00    1.154E+00    1.161E+00    1.168E+00    1.174E+00
     1.181E+00    1.188E+00    1.194E+00    1.201E+00    1.207E+00    1.214E+00    1.220E+00    1.226E+00    1.233E+00    1.239E+00
     1.245E+00    1.251E+00    1.257E+00    1.264E+00    1.270E+00    1.276E+00    1.282E+00    1.287E+00    1.293E+00    1.299E+00
     1.305E+00    1.311E+00    1.316E+00    1.322E+00    1.327E+00    1.333E+00    1.338E+00    1.344E+00    1.349E+00    1.354E+00
     1.360E+00    1.365E+00    1.370E+00    1.375E+00    1.380E+00    1.385E+00    1.390E+00    1.395E+00    1.400E+00    1.404E+00
     1.409E+00    1.414E+00    1.418E+00    1.423E+00    1.427E+00    1.431E+00    1.436E+00    1.440E+00    1.444E+00    1.448E+00
     1.452E+00    1.456E+00    1.460E+00    1.464E+00    1.468E+00    1.471E+00    1.475E+00    1.479E+00    1.482E+00    1.485E+00
     1.489E+00    1.492E+00    1.495E+00    1.498E+00    1.501E+00    1.504E+00    1.507E+00    1.510E+00    1.513E+00    1.516E+00
     1.518E+00    1.521E+00    1.523E+00    1.526E+00    1.528E+00    1.530E+00    1.532E+00    1.535E+00    1.537E+00    1.538E+00
     1.540E+00    1.542E+00    1.544E+00    1.545E+00    1.547E+00    1.548E+00    1.550E+00    1.551E+00    1.552E+00    1.553E+00
     1.554E+00    1.555E+00    1.556E+00    1.557E+00    1.558E+00    1.558E+00    1.559E+00    1.559E+00    1.559E+00    1.560E+00
     1.560E+00    1.560E+00    1.560E+00    1.560E+00    1.560E+00    1.559E+00    1.559E+00    1.559E+00    1.558E+00    1.557E+00
     1.557E+00    1.556E+00    1.555E+00    1.554E+00    1.553E+00    1.552E+00    1.550E+00    1.549E+00    1.548E+00    1.546E+00
     1.544E+00    1.543E+00    1.541E+00    1.539E+00    1.537E+00    1.535E+00    1.533E+00    1.530E+00    1.528E+00    1.525E+00
     1.523E+00    1.520E+00    1.517E+00    1.514E+00    1.511E+00    1.508E+00    1.505E+00    1.502E+00    1.498E+00    1.495E+00
     1.491E+00    1.488E+00    1.484E+00    1.480E+00    1.476E+00    1.472E+00    1.468E+00    1.464E+00    1.459E+00    1.455E+00
     1.450E+00    1.446E+00    1.441E+00    1.436E+00    1.431E+00    1.426E+00    1.421E+00    1.416E+00    1.410E+00    1.405E+00
     1.399E+00    1.393E+00    1.388E+00    1.382E+00    1.376E+00    1.370E+00    1.364E+00    1.357E+00    1.351E+00    1.344E+00
     1.338E+00    1.331E+00    1.324E+00    1.318E+00    1.311E+00    1.303E+00    1.296E+00    1.289E+00    1.282E+00    1.274E+00
     1.266E+00    1.259E+00    1.251E+00    1.243E+00    1.235E+00    1.227E+00    1.219E+00    1.210E+00    1.202E+00    1.194E+00
     1.185E+00    1.176E+00    1.167E+00    1.158E+00    1.149E+00    1.140E+00    1.131E+00    1.122E+00    1.112E+00    1.103E+00
     1.093E+00    1.084E+00    1.074E+00    1.064E+00    1.054E+00    1.044E+00    1.033E+00    1.023E+00    1.013E+00    1.002E+00
     9.915E-01    9.808E-01    9.700E-01    9.591E-01    9.480E-01    9.369E-01    9.257E-01    9.144E-01    9.030E-01    8.915E-01
     8.799E-01    8.682E-01    8.564E-01    8.445E-01    8.325E-01    8.204E-01    8.083E-01    7.960E-01    7.836E-01    7.711E-01
     7.586E-01    7.459E-01    7.332E-01    7.203E-01    7.074E-01    6.944E-01    6.813E-01    6.680E-01
 Ala      Conc. = 4.68E+01
