 LCModel (Version 6.3-1L) Copyright: S.W. Provencher.          Ref.: Magn. Reson. Med. 30:672-679 (1993).                
 Slice#2 Row#3 Col#7  K_02_press_1_raw_act
 36 lines in following concentration table = NCONC+1
    Conc.  %SD /Cr+PCr  Metabolite                                         
    0.000 999%   0.000 Ala                                                 
    0.000 999%   0.000 Asp                                                 
 1.12E+03  17%   0.558 Cr                                                  
  885.438  23%   0.442 PCr                                                 
    0.000 999%   0.000 GABA                                                
    0.000 999%   0.000 Glc                                                 
  765.167  25%   0.382 Gln                                                 
 1.83E+03  12%   0.913 Glu                                                 
  613.542   4%   0.306 GPC                                                 
    0.000 999%   0.000 PCh                                                 
  510.638  14%   0.255 GSH                                                 
 1.42E+03  16%   0.708 Ins                                                 
   95.977 106% 4.8E-02 Lac                                                 
 2.59E+03   4%   1.295 NAA                                                 
  362.389  27%   0.181 NAAG                                                
    7.566 351% 3.8E-03 Scyllo                                              
    0.000 999%   0.000 Tau                                                 
  290.404  41%   0.145 -CrCH2                                              
  613.542   4%   0.306 GPC+PCh                                             
 2.95E+03   4%   1.476 NAA+NAAG                                            
 2.00E+03   3%   1.000 Cr+PCr                                              
 2.59E+03  11%   1.295 Glu+Gln                                             
 4.77E+03  33%   2.384 Lip13a                                              
    0.000 999%   0.000 Lip13b                                              
 1.11E+03  54%   0.555 Lip09                                               
 3.46E+03  20%   1.730 MM09                                                
  373.360 101%   0.187 Lip20                                               
 6.02E+03  10%   3.009 MM20                                                
 1.65E+03  35%   0.824 MM12                                                
 6.98E+03  17%   3.485 MM14                                                
 2.65E+03  24%   1.324 MM17                                                
 4.77E+03  33%   2.384 Lip13a+Lip13b                                       
 1.34E+04   7%   6.693 MM14+Lip13a+Lip13b+MM12                             
 4.57E+03   9%   2.285 MM09+Lip09                                          
 6.40E+03   9%   3.196 MM20+Lip20                                          
   6 lines in following misc. output table
  FWHM = 0.038 ppm    S/N =  16                                            
  Data shift = 0.015 ppm                                                   
  Ph:  16 deg       4.8 deg/ppm                                            
  alphaB,S = 1.3E+00,   8.0E+01                                            
   14 spline knots.   Ns = 5(1)                                            
  ( 6) 2 infls.   ( 3) 1 extrs.                                            
  498 points on ppm-axis = NY
      4.000000     3.992357     3.984714     3.977070     3.969427     3.961784     3.954141     3.946497     3.938854     3.931211
      3.923568     3.915925     3.908281     3.900638     3.892995     3.885352     3.877708     3.870065     3.862422     3.854779
      3.847136     3.839492     3.831849     3.824206     3.816563     3.808919     3.801276     3.793633     3.785990     3.778347
      3.770703     3.763060     3.755417     3.747774     3.740130     3.732487     3.724844     3.717201     3.709558     3.701914
      3.694271     3.686628     3.678985     3.671341     3.663698     3.656055     3.648412     3.640769     3.633125     3.625482
      3.617839     3.610196     3.602552     3.594909     3.587266     3.579623     3.571980     3.564336     3.556693     3.549050
      3.541407     3.533763     3.526120     3.518477     3.510834     3.503191     3.495547     3.487904     3.480261     3.472618
      3.464974     3.457331     3.449688     3.442045     3.434402     3.426758     3.419115     3.411472     3.403829     3.396185
      3.388542     3.380899     3.373256     3.365613     3.357969     3.350326     3.342683     3.335040     3.327396     3.319753
      3.312110     3.304467     3.296824     3.289180     3.281537     3.273894     3.266251     3.258607     3.250964     3.243321
      3.235678     3.228034     3.220391     3.212748     3.205105     3.197462     3.189818     3.182175     3.174532     3.166889
      3.159245     3.151602     3.143959     3.136316     3.128673     3.121029     3.113386     3.105743     3.098100     3.090456
      3.082813     3.075170     3.067527     3.059884     3.052240     3.044597     3.036954     3.029311     3.021667     3.014024
      3.006381     2.998738     2.991095     2.983451     2.975808     2.968165     2.960522     2.952878     2.945235     2.937592
      2.929949     2.922306     2.914662     2.907019     2.899376     2.891733     2.884089     2.876446     2.868803     2.861160
      2.853517     2.845873     2.838230     2.830587     2.822944     2.815300     2.807657     2.800014     2.792371     2.784728
      2.777084     2.769441     2.761798     2.754155     2.746511     2.738868     2.731225     2.723582     2.715939     2.708295
      2.700652     2.693009     2.685366     2.677722     2.670079     2.662436     2.654793     2.647150     2.639506     2.631863
      2.624220     2.616577     2.608933     2.601290     2.593647     2.586004     2.578361     2.570717     2.563074     2.555431
      2.547788     2.540144     2.532501     2.524858     2.517215     2.509572     2.501928     2.494285     2.486642     2.478999
      2.471355     2.463712     2.456069     2.448426     2.440783     2.433139     2.425496     2.417853     2.410210     2.402566
      2.394923     2.387280     2.379637     2.371994     2.364350     2.356707     2.349064     2.341421     2.333777     2.326134
      2.318491     2.310848     2.303205     2.295561     2.287918     2.280275     2.272632     2.264988     2.257345     2.249702
      2.242059     2.234416     2.226772     2.219129     2.211486     2.203843     2.196199     2.188556     2.180913     2.173270
      2.165627     2.157983     2.150340     2.142697     2.135054     2.127410     2.119767     2.112124     2.104481     2.096838
      2.089194     2.081551     2.073908     2.066265     2.058621     2.050978     2.043335     2.035692     2.028049     2.020405
      2.012762     2.005119     1.997476     1.989833     1.982190     1.974546     1.966903     1.959260     1.951617     1.943974
      1.936331     1.928688     1.921045     1.913402     1.905759     1.898115     1.890472     1.882829     1.875186     1.867543
      1.859900     1.852257     1.844614     1.836971     1.829327     1.821684     1.814041     1.806398     1.798755     1.791112
      1.783469     1.775826     1.768183     1.760540     1.752896     1.745253     1.737610     1.729967     1.722324     1.714681
      1.707038     1.699395     1.691752     1.684108     1.676465     1.668822     1.661179     1.653536     1.645893     1.638250
      1.630607     1.622964     1.615321     1.607677     1.600034     1.592391     1.584748     1.577105     1.569462     1.561819
      1.554176     1.546533     1.538890     1.531246     1.523603     1.515960     1.508317     1.500674     1.493031     1.485388
      1.477745     1.470102     1.462458     1.454815     1.447172     1.439529     1.431886     1.424243     1.416600     1.408957
      1.401314     1.393671     1.386027     1.378384     1.370741     1.363098     1.355455     1.347812     1.340169     1.332526
      1.324883     1.317240     1.309596     1.301953     1.294310     1.286667     1.279024     1.271381     1.263738     1.256095
      1.248452     1.240808     1.233165     1.225522     1.217879     1.210236     1.202593     1.194950     1.187307     1.179664
      1.172021     1.164377     1.156734     1.149091     1.141448     1.133805     1.126162     1.118519     1.110876     1.103233
      1.095590     1.087946     1.080303     1.072660     1.065017     1.057374     1.049731     1.042088     1.034445     1.026802
      1.019158     1.011515     1.003872     0.996229     0.988586     0.980943     0.973300     0.965657     0.958014     0.950371
      0.942727     0.935084     0.927441     0.919798     0.912155     0.904512     0.896869     0.889226     0.881583     0.873940
      0.866296     0.858653     0.851010     0.843367     0.835724     0.828081     0.820438     0.812795     0.805152     0.797508
      0.789865     0.782222     0.774579     0.766936     0.759293     0.751650     0.744007     0.736364     0.728721     0.721077
      0.713434     0.705791     0.698148     0.690505     0.682862     0.675219     0.667576     0.659933     0.652290     0.644646
      0.637003     0.629360     0.621717     0.614074     0.606431     0.598788     0.591145     0.583502     0.575858     0.568215
      0.560572     0.552929     0.545286     0.537643     0.530000     0.522357     0.514714     0.507071     0.499427     0.491784
      0.484141     0.476498     0.468855     0.461212     0.453569     0.445925     0.438282     0.430639     0.422996     0.415353
      0.407710     0.400067     0.392424     0.384780     0.377137     0.369494     0.361851     0.354208     0.346565     0.338922
      0.331278     0.323635     0.315992     0.308349     0.300706     0.293063     0.285420     0.277777     0.270133     0.262490
      0.254847     0.247204     0.239561     0.231918     0.224275     0.216631     0.208988     0.201345
 NY phased data points follow
   2.49270E+01  3.02602E+01  3.13273E+01  2.99316E+01  3.56351E+01  4.05758E+01  4.15445E+01  5.39473E+01  6.34016E+01  6.96503E+01
   7.59173E+01  7.39890E+01  6.87662E+01  6.19134E+01  5.29957E+01  4.00499E+01  4.09519E+01  3.40209E+01  3.86149E+01  3.47348E+01
   3.10275E+01  2.91107E+01  3.54659E+01  3.77812E+01  3.87651E+01  3.32981E+01  3.14843E+01  3.60538E+01  3.89502E+01  4.51602E+01
   4.08700E+01  4.48866E+01  4.00317E+01  3.41950E+01  3.41217E+01  3.15775E+01  2.95076E+01  2.76665E+01  3.41761E+01  3.64788E+01
   3.54720E+01  3.49604E+01  3.79099E+01  3.29920E+01  3.31896E+01  3.86536E+01  4.12292E+01  4.89226E+01  4.17921E+01  3.88027E+01
   3.34220E+01  2.92939E+01  2.96654E+01  3.16253E+01  2.28718E+01  2.81956E+01  3.52463E+01  2.93479E+01  3.11746E+01  2.98278E+01
   2.86103E+01  2.63083E+01  2.15510E+01  1.61425E+01  9.14877E+00  1.44897E+01  1.50986E+01  1.69211E+01  1.74082E+01  2.36080E+01
   1.77284E+01  1.62422E+01  1.31154E+01  2.09431E+01  2.31403E+01  2.23255E+01  1.68576E+01  1.78241E+01  1.69282E+01  1.45431E+01
   1.78442E+01  1.30221E+01  1.41923E+01  1.96371E+01  1.04359E+01  1.10441E+01  1.69850E+01  1.65272E+01  1.46135E+01  2.05654E+01
   1.56940E+01  1.98395E+01  1.80105E+01  1.81974E+01  1.78424E+01  1.24057E+01  1.97815E+01  1.97395E+01  2.90475E+01  3.53455E+01
   4.83519E+01  6.33339E+01  8.65549E+01  9.04441E+01  7.82255E+01  5.82791E+01  5.02299E+01  3.24207E+01  3.05386E+01  2.12564E+01
   2.20678E+01  2.09844E+01  2.27814E+01  2.19226E+01  1.97934E+01  1.75821E+01  1.61840E+01  2.03949E+01  2.44025E+01  2.02537E+01
   2.20707E+01  2.40973E+01  2.98485E+01  3.87019E+01  5.47844E+01  7.68446E+01  9.64221E+01  1.01264E+02  9.14095E+01  7.09748E+01
   5.53048E+01  4.01601E+01  3.15658E+01  2.97642E+01  2.38061E+01  1.49420E+01  1.39034E+01  1.49701E+01  1.78924E+01  1.58907E+01
   1.58273E+01  8.31999E+00  2.07587E+01  8.39723E+00  1.57594E+01  1.70202E+01  1.47761E+01  1.34082E+01  1.25322E+01  1.29552E+01
   1.35013E+01  6.36925E+00  1.03403E+01  1.13695E+01  1.03061E+01  5.43169E+00  6.38970E+00  9.24607E+00  9.29613E+00  5.30869E+00
   5.47566E+00  1.14623E+01 -2.69275E+00  2.11094E+00  5.88942E+00  5.64017E+00  1.15253E+01  7.24381E+00  5.17268E+00  9.88084E-01
   4.42448E+00 -9.09024E-01 -4.20405E+00 -1.61918E+00 -1.09051E+01 -7.74860E+00 -8.19384E+00 -4.80846E+00 -4.09640E+00 -1.18306E+00
  -1.12637E+01 -1.15496E+01 -1.20254E+01 -7.68816E+00 -4.62749E+00 -3.71005E+00 -7.30672E+00 -2.70579E+00  3.50127E+00  4.14444E+00
   9.58495E+00  5.03042E+00  9.07966E+00  9.42083E+00  6.25249E+00  4.36689E+00  2.63111E+00  5.61662E-01 -3.00182E-01 -6.08349E+00
   2.80785E+00  7.05136E+00  1.49939E+01  5.90397E+00  1.09008E+01  6.91019E+00  4.52207E+00 -4.05948E-01 -2.20220E+00 -3.83373E+00
  -3.20275E+00  8.67406E+00  7.53177E+00  2.15950E+01  1.93993E+01  2.39357E+01  1.81242E+01  1.84191E+01  1.24986E+01  4.57118E+00
  -4.71048E+00  1.24023E+00 -5.44005E+00  5.54992E+00  6.02288E+00  1.81630E+01  1.72576E+01  1.61787E+01  1.82237E+01  1.84944E+01
   1.69641E+01  1.48133E+01  2.05109E+01  1.58209E+01  1.30980E+01  1.21698E+01  1.91430E+01  1.66638E+01  1.45573E+01  1.38871E+01
   1.58965E+01  9.63102E+00  1.13047E+01  1.65792E+01  2.02680E+01  1.93079E+01  2.80270E+01  2.57508E+01  3.04631E+01  3.24730E+01
   4.29863E+01  4.13671E+01  3.78358E+01  4.59701E+01  4.56294E+01  5.33224E+01  6.95810E+01  9.04077E+01  1.16950E+02  1.38800E+02
   1.48848E+02  1.25315E+02  9.01046E+01  5.95360E+01  4.12154E+01  2.83130E+01  2.40446E+01  1.73435E+01  1.11525E+01  9.30253E+00
   1.31425E+01  1.36145E+01  1.31036E+01  1.27900E+01  1.52374E+01  1.00137E+01  6.63086E+00  9.48050E+00  7.21066E+00  1.29068E+01
   8.11117E+00  7.08510E+00  1.07149E+01  5.36957E+00  6.34003E+00  4.43659E+00  1.26757E+01  7.06897E+00  1.26803E+01  4.84589E+00
   1.24353E+01  1.08369E+01  1.61262E+01  6.86144E+00  1.23399E+01  8.56356E+00  9.94212E+00  1.40159E+01  1.22507E+01  1.26610E+01
   1.08538E+01  8.44699E+00  1.42106E+01  1.10103E+01  1.91497E+01  2.01993E+01  2.07333E+01  2.56479E+01  2.02799E+01  2.17105E+01
   2.11272E+01  2.89796E+01  2.67823E+01  2.57152E+01  2.37041E+01  2.61195E+01  2.15964E+01  3.07684E+01  3.05569E+01  2.96345E+01
   3.01314E+01  2.65744E+01  2.96387E+01  3.21101E+01  2.88486E+01  3.18394E+01  3.61071E+01  3.73975E+01  3.75346E+01  3.61791E+01
   4.14119E+01  3.97416E+01  4.08751E+01  4.67605E+01  4.47343E+01  4.25854E+01  4.54066E+01  4.37031E+01  3.95955E+01  4.35296E+01
   4.03054E+01  4.30896E+01  4.61014E+01  4.44740E+01  4.68727E+01  5.07899E+01  4.60817E+01  4.38025E+01  3.95240E+01  3.92238E+01
   3.58594E+01  3.75682E+01  3.63098E+01  3.76494E+01  3.56003E+01  3.96134E+01  3.39969E+01  3.07227E+01  2.77123E+01  2.83227E+01
   3.32038E+01  3.11110E+01  3.41928E+01  3.07180E+01  3.61229E+01  3.01657E+01  2.53429E+01  2.90879E+01  2.69900E+01  3.13415E+01
   2.46773E+01  2.54392E+01  2.60271E+01  1.96777E+01  2.47865E+01  2.48464E+01  2.61374E+01  2.46520E+01  2.33587E+01  2.44150E+01
   2.60664E+01  2.46825E+01  2.50399E+01  1.91675E+01  2.65111E+01  2.22683E+01  2.88348E+01  2.36382E+01  2.13436E+01  2.43353E+01
   1.87082E+01  2.69268E+01  2.68910E+01  2.74753E+01  3.09384E+01  2.55963E+01  2.61403E+01  2.84310E+01  3.03518E+01  3.15438E+01
   2.93998E+01  3.17252E+01  3.21321E+01  2.71994E+01  3.10541E+01  2.41593E+01  3.00102E+01  2.81425E+01  2.48196E+01  3.18358E+01
   2.70915E+01  2.55366E+01  2.35648E+01  2.34876E+01  2.32705E+01  1.95969E+01  1.82535E+01  1.99275E+01  2.22823E+01  1.66210E+01
   1.89227E+01  1.41141E+01  1.42561E+01  1.47443E+01  7.56919E+00  1.34002E+01  1.42307E+01  1.50487E+01  1.45630E+01  9.45987E+00
   1.01300E+01  1.18473E+01  1.13716E+01  7.59014E+00  6.38904E+00  1.21387E+01  4.97346E+00  6.15452E+00  1.02772E+01  8.65232E+00
   8.39713E+00  4.06296E+00  8.47814E+00  7.19715E+00  8.33806E+00  6.28321E+00  2.52072E+00  1.01992E+01  1.04841E+01  1.26620E+01
   7.59465E+00  1.12967E+01  7.60544E+00  9.07755E+00  2.12346E+00  7.70335E+00  5.73351E+00  7.80845E+00  7.23489E+00  8.66190E+00
   5.17400E+00  6.19665E+00  5.55891E+00  1.27059E+00  1.85399E-01  6.60311E+00  5.06946E+00  7.67253E+00  3.77304E+00  2.69008E+00
   5.81734E+00  1.48642E+00  7.65402E+00  2.15786E+00  4.63389E+00  7.74113E+00  5.50557E+00  3.60360E+00  5.23489E+00  4.76649E+00
   8.82298E+00  1.00260E+01 -6.39302E-02  5.70436E+00  4.35123E+00  7.75920E+00  9.68959E+00  3.09606E+00  5.74108E+00  9.14399E+00
   3.77785E+00  4.50356E+00  9.82014E+00  5.14641E+00  3.27439E+00  5.87916E+00  8.97897E+00  2.70113E+00
 NY points of the fit to the data follow
   3.26034E+01  3.24008E+01  3.25710E+01  3.33013E+01  3.52407E+01  3.88971E+01  4.44478E+01  5.27655E+01  6.22530E+01  7.04789E+01
   7.53027E+01  7.50729E+01  6.95326E+01  6.06403E+01  5.15422E+01  4.44174E+01  3.99036E+01  3.71571E+01  3.50205E+01  3.37598E+01
   3.30689E+01  3.24886E+01  3.17763E+01  3.06947E+01  2.97257E+01  2.98193E+01  3.12088E+01  3.44086E+01  3.91570E+01  4.39077E+01
   4.66009E+01  4.62231E+01  4.33322E+01  3.90586E+01  3.44863E+01  3.04530E+01  2.76526E+01  2.66026E+01  2.68454E+01  2.77014E+01
   2.84572E+01  2.91316E+01  3.03279E+01  3.23329E+01  3.49920E+01  3.78601E+01  3.99929E+01  4.01916E+01  3.78883E+01  3.38960E+01
   2.98665E+01  2.69593E+01  2.51854E+01  2.41273E+01  2.37780E+01  2.41609E+01  2.49946E+01  2.60558E+01  2.70791E+01  2.76467E+01
   2.73522E+01  2.60976E+01  2.42813E+01  2.25445E+01  2.13828E+01  2.09125E+01  2.10526E+01  2.16444E+01  2.23644E+01  2.30182E+01
   2.34706E+01  2.36128E+01  2.33532E+01  2.27295E+01  2.19687E+01  2.12932E+01  2.08064E+01  2.04529E+01  2.01412E+01  1.98777E+01
   1.96370E+01  1.93771E+01  1.89585E+01  1.82625E+01  1.72152E+01  1.58730E+01  1.44743E+01  1.34261E+01  1.30975E+01  1.35744E+01
   1.45874E+01  1.57927E+01  1.69078E+01  1.77328E+01  1.81522E+01  1.81779E+01  1.80446E+01  1.86992E+01  2.33419E+01  3.44760E+01
   5.04685E+01  6.88521E+01  8.40529E+01  8.88949E+01  8.05497E+01  6.36797E+01  4.62944E+01  3.36201E+01  2.59519E+01  2.08335E+01
   1.75400E+01  1.64255E+01  1.61033E+01  1.60112E+01  1.60077E+01  1.60400E+01  1.61000E+01  1.61996E+01  1.63851E+01  1.67767E+01
   1.76194E+01  1.97486E+01  2.62791E+01  3.95585E+01  5.78326E+01  7.83182E+01  9.50446E+01  1.00309E+02  9.12274E+01  7.29722E+01
   5.41219E+01  4.01760E+01  3.11125E+01  2.39961E+01  1.82737E+01  1.49636E+01  1.34101E+01  1.32608E+01  1.40639E+01  1.51774E+01
   1.60575E+01  1.63621E+01  1.59752E+01  1.51403E+01  1.42059E+01  1.33528E+01  1.26548E+01  1.20603E+01  1.15086E+01  1.09526E+01
   1.03602E+01  9.78696E+00  9.29948E+00  8.97946E+00  8.88519E+00  8.92735E+00  8.74832E+00  8.17173E+00  7.17666E+00  5.98559E+00
   5.22544E+00  5.22882E+00  5.91781E+00  6.75241E+00  6.95888E+00  6.17881E+00  4.83021E+00  3.61018E+00  2.81129E+00  2.42175E+00
   2.14729E+00  1.59705E+00  7.61664E-01 -1.41065E-01 -8.93780E-01 -1.09399E+00 -6.77725E-01  2.99785E-02  4.60991E-01  2.76795E-01
  -2.51648E-01 -5.43962E-01 -5.18109E-01 -4.19975E-01 -3.72667E-01 -2.36891E-02  1.20564E+00  3.57592E+00  6.40460E+00  8.66319E+00
   9.69732E+00  9.35966E+00  8.06104E+00  6.28471E+00  4.57450E+00  3.36211E+00  2.90367E+00  3.27172E+00  4.53852E+00  6.68599E+00
   9.18624E+00  1.14570E+01  1.29714E+01  1.32989E+01  1.20066E+01  8.79054E+00  4.56387E+00  4.01348E-01 -2.80222E+00 -4.01905E+00
  -2.72640E+00  1.10656E+00  6.36592E+00  1.19516E+01  1.66063E+01  1.88307E+01  1.75158E+01  1.27276E+01  6.32577E+00  4.29776E-01
  -3.74375E+00 -5.37458E+00 -3.78657E+00  8.33467E-01  6.64744E+00  1.16126E+01  1.46276E+01  1.57721E+01  1.57047E+01  1.48630E+01
   1.37174E+01  1.30474E+01  1.34845E+01  1.48192E+01  1.65654E+01  1.83560E+01  1.99179E+01  2.07159E+01  2.02927E+01  1.90015E+01
   1.76496E+01  1.70040E+01  1.75574E+01  1.94243E+01  2.21561E+01  2.48553E+01  2.67833E+01  2.77983E+01  2.83235E+01  2.88291E+01
   3.00559E+01  3.28624E+01  3.69231E+01  4.14876E+01  4.62292E+01  5.54718E+01  7.19903E+01  9.34940E+01  1.18533E+02  1.38944E+02
   1.42375E+02  1.24295E+02  9.38458E+01  6.49774E+01  4.51853E+01  3.33758E+01  2.46578E+01  1.87612E+01  1.64550E+01  1.50835E+01
   1.40957E+01  1.34560E+01  1.30426E+01  1.26668E+01  1.21927E+01  1.15407E+01  1.07659E+01  9.99572E+00  9.31590E+00  8.73640E+00
   8.27369E+00  7.95175E+00  7.74610E+00  7.59213E+00  7.44597E+00  7.30931E+00  7.21412E+00  7.18885E+00  7.24736E+00  7.40860E+00
   7.68545E+00  8.06528E+00  8.52043E+00  9.02740E+00  9.57644E+00  1.01747E+01  1.08321E+01  1.15546E+01  1.23505E+01  1.32247E+01
   1.41654E+01  1.51500E+01  1.61547E+01  1.71592E+01  1.81489E+01  1.91099E+01  2.00289E+01  2.08986E+01  2.17131E+01  2.24672E+01
   2.31591E+01  2.37900E+01  2.43659E+01  2.48976E+01  2.53995E+01  2.58876E+01  2.63791E+01  2.68918E+01  2.74437E+01  2.80518E+01
   2.87302E+01  2.94881E+01  3.03306E+01  3.12584E+01  3.22679E+01  3.33506E+01  3.44925E+01  3.56750E+01  3.68762E+01  3.80726E+01
   3.92399E+01  4.03531E+01  4.13878E+01  4.23211E+01  4.31341E+01  4.38121E+01  4.43457E+01  4.47300E+01  4.49656E+01  4.50602E+01
   4.50316E+01  4.49166E+01  4.47812E+01  4.45923E+01  4.42460E+01  4.36640E+01  4.27376E+01  4.14377E+01  3.99234E+01  3.84706E+01
   3.73622E+01  3.66767E+01  3.63376E+01  3.62712E+01  3.63735E+01  3.63983E+01  3.61140E+01  3.55245E+01  3.47781E+01  3.40201E+01
   3.32951E+01  3.25657E+01  3.18474E+01  3.11522E+01  3.04585E+01  2.97566E+01  2.90441E+01  2.83220E+01  2.75948E+01  2.68686E+01
   2.61510E+01  2.54503E+01  2.47756E+01  2.41363E+01  2.35429E+01  2.30054E+01  2.25331E+01  2.21343E+01  2.18168E+01  2.15871E+01
   2.14512E+01  2.14132E+01  2.14752E+01  2.16374E+01  2.18986E+01  2.22555E+01  2.27031E+01  2.32339E+01  2.38378E+01  2.45028E+01
   2.52151E+01  2.59592E+01  2.67186E+01  2.74744E+01  2.82077E+01  2.88990E+01  2.95297E+01  3.00822E+01  3.05406E+01  3.08901E+01
   3.11192E+01  3.12191E+01  3.11848E+01  3.10145E+01  3.07096E+01  3.02742E+01  2.97160E+01  2.90449E+01  2.82738E+01  2.74164E+01
   2.64876E+01  2.55023E+01  2.44762E+01  2.34242E+01  2.23610E+01  2.12992E+01  2.02504E+01  1.92243E+01  1.82296E+01  1.72732E+01
   1.63607E+01  1.54956E+01  1.46802E+01  1.39156E+01  1.32023E+01  1.25400E+01  1.19273E+01  1.13623E+01  1.08424E+01  1.03652E+01
   9.92846E+00  9.52937E+00  9.16522E+00  8.83292E+00  8.52990E+00  8.25370E+00  8.00238E+00  7.77364E+00  7.56543E+00  7.37552E+00
   7.20240E+00  7.04462E+00  6.90110E+00  6.77035E+00  6.65112E+00  6.54211E+00  6.44269E+00  6.35210E+00  6.26981E+00  6.19482E+00
   6.12645E+00  6.06400E+00  6.00733E+00  5.95604E+00  5.90983E+00  5.86796E+00  5.83010E+00  5.79589E+00  5.76543E+00  5.73842E+00
   5.71465E+00  5.69354E+00  5.67501E+00  5.65891E+00  5.64544E+00  5.63428E+00  5.62524E+00  5.61787E+00  5.61227E+00  5.60842E+00
   5.60647E+00  5.60610E+00  5.60714E+00  5.60929E+00  5.61278E+00  5.61761E+00  5.62387E+00  5.63116E+00  5.63941E+00  5.64844E+00
   5.65857E+00  5.66974E+00  5.68198E+00  5.69489E+00  5.70849E+00  5.72271E+00  5.73789E+00  5.75390E+00  5.77069E+00  5.78791E+00
   5.80567E+00  5.82400E+00  5.84320E+00  5.86305E+00  5.88347E+00  5.90419E+00  5.92543E+00  5.94726E+00
 NY background values follow
     2.902E+01    2.887E+01    2.872E+01    2.857E+01    2.841E+01    2.826E+01    2.811E+01    2.795E+01    2.780E+01    2.765E+01
     2.749E+01    2.734E+01    2.719E+01    2.703E+01    2.688E+01    2.673E+01    2.658E+01    2.642E+01    2.627E+01    2.611E+01
     2.596E+01    2.581E+01    2.565E+01    2.550E+01    2.535E+01    2.519E+01    2.504E+01    2.489E+01    2.473E+01    2.458E+01
     2.443E+01    2.427E+01    2.412E+01    2.396E+01    2.381E+01    2.366E+01    2.350E+01    2.335E+01    2.320E+01    2.304E+01
     2.289E+01    2.273E+01    2.258E+01    2.243E+01    2.227E+01    2.212E+01    2.196E+01    2.181E+01    2.166E+01    2.150E+01
     2.135E+01    2.119E+01    2.104E+01    2.089E+01    2.073E+01    2.058E+01    2.043E+01    2.027E+01    2.012E+01    1.996E+01
     1.981E+01    1.966E+01    1.950E+01    1.935E+01    1.920E+01    1.905E+01    1.889E+01    1.874E+01    1.859E+01    1.843E+01
     1.828E+01    1.813E+01    1.798E+01    1.783E+01    1.767E+01    1.752E+01    1.737E+01    1.722E+01    1.707E+01    1.692E+01
     1.677E+01    1.662E+01    1.647E+01    1.632E+01    1.617E+01    1.602E+01    1.587E+01    1.572E+01    1.557E+01    1.543E+01
     1.528E+01    1.513E+01    1.498E+01    1.484E+01    1.469E+01    1.454E+01    1.440E+01    1.425E+01    1.411E+01    1.396E+01
     1.382E+01    1.367E+01    1.353E+01    1.339E+01    1.324E+01    1.310E+01    1.296E+01    1.281E+01    1.267E+01    1.253E+01
     1.239E+01    1.225E+01    1.211E+01    1.197E+01    1.183E+01    1.169E+01    1.155E+01    1.141E+01    1.127E+01    1.114E+01
     1.100E+01    1.086E+01    1.073E+01    1.059E+01    1.046E+01    1.032E+01    1.019E+01    1.005E+01    9.917E+00    9.784E+00
     9.651E+00    9.518E+00    9.386E+00    9.255E+00    9.124E+00    8.993E+00    8.863E+00    8.733E+00    8.604E+00    8.475E+00
     8.347E+00    8.219E+00    8.092E+00    7.966E+00    7.840E+00    7.715E+00    7.590E+00    7.466E+00    7.342E+00    7.219E+00
     7.097E+00    6.976E+00    6.855E+00    6.735E+00    6.616E+00    6.497E+00    6.379E+00    6.262E+00    6.146E+00    6.031E+00
     5.916E+00    5.802E+00    5.689E+00    5.577E+00    5.466E+00    5.356E+00    5.246E+00    5.138E+00    5.030E+00    4.924E+00
     4.818E+00    4.713E+00    4.610E+00    4.507E+00    4.405E+00    4.305E+00    4.205E+00    4.107E+00    4.009E+00    3.913E+00
     3.818E+00    3.724E+00    3.631E+00    3.539E+00    3.448E+00    3.359E+00    3.270E+00    3.183E+00    3.097E+00    3.011E+00
     2.927E+00    2.844E+00    2.762E+00    2.682E+00    2.602E+00    2.523E+00    2.445E+00    2.369E+00    2.293E+00    2.218E+00
     2.145E+00    2.072E+00    2.000E+00    1.930E+00    1.860E+00    1.792E+00    1.724E+00    1.657E+00    1.592E+00    1.527E+00
     1.463E+00    1.400E+00    1.338E+00    1.277E+00    1.217E+00    1.158E+00    1.100E+00    1.043E+00    9.863E-01    9.308E-01
     8.762E-01    8.225E-01    7.696E-01    7.177E-01    6.665E-01    6.163E-01    5.669E-01    5.183E-01    4.706E-01    4.237E-01
     3.777E-01    3.324E-01    2.881E-01    2.445E-01    2.018E-01    1.599E-01    1.188E-01    7.851E-02    3.906E-02    4.227E-04
    -3.740E-02   -7.442E-02   -1.106E-01   -1.460E-01   -1.806E-01   -2.145E-01   -2.475E-01   -2.797E-01   -3.111E-01   -3.418E-01
    -3.716E-01   -4.007E-01   -4.290E-01   -4.565E-01   -4.832E-01   -5.092E-01   -5.344E-01   -5.588E-01   -5.824E-01   -6.053E-01
    -6.275E-01   -6.489E-01   -6.695E-01   -6.893E-01   -7.085E-01   -7.268E-01   -7.445E-01   -7.613E-01   -7.775E-01   -7.929E-01
    -8.075E-01   -8.215E-01   -8.347E-01   -8.472E-01   -8.589E-01   -8.700E-01   -8.803E-01   -8.900E-01   -8.989E-01   -9.072E-01
    -9.147E-01   -9.216E-01   -9.279E-01   -9.334E-01   -9.384E-01   -9.426E-01   -9.462E-01   -9.492E-01   -9.515E-01   -9.532E-01
    -9.543E-01   -9.548E-01   -9.547E-01   -9.539E-01   -9.526E-01   -9.507E-01   -9.482E-01   -9.451E-01   -9.414E-01   -9.372E-01
    -9.324E-01   -9.270E-01   -9.211E-01   -9.147E-01   -9.077E-01   -9.002E-01   -8.921E-01   -8.836E-01   -8.745E-01   -8.649E-01
    -8.549E-01   -8.443E-01   -8.332E-01   -8.217E-01   -8.097E-01   -7.972E-01   -7.843E-01   -7.708E-01   -7.570E-01   -7.427E-01
    -7.279E-01   -7.127E-01   -6.971E-01   -6.810E-01   -6.646E-01   -6.477E-01   -6.303E-01   -6.126E-01   -5.945E-01   -5.760E-01
    -5.570E-01   -5.377E-01   -5.180E-01   -4.979E-01   -4.775E-01   -4.566E-01   -4.355E-01   -4.139E-01   -3.920E-01   -3.697E-01
    -3.471E-01   -3.241E-01   -3.008E-01   -2.772E-01   -2.533E-01   -2.290E-01   -2.044E-01   -1.795E-01   -1.543E-01   -1.287E-01
    -1.029E-01   -7.679E-02   -5.039E-02   -2.369E-02    3.277E-03    3.052E-02    5.804E-02    8.582E-02    1.139E-01    1.422E-01
     1.707E-01    1.995E-01    2.285E-01    2.578E-01    2.873E-01    3.171E-01    3.470E-01    3.772E-01    4.076E-01    4.383E-01
     4.691E-01    5.002E-01    5.314E-01    5.629E-01    5.945E-01    6.264E-01    6.584E-01    6.907E-01    7.231E-01    7.557E-01
     7.885E-01    8.214E-01    8.546E-01    8.879E-01    9.213E-01    9.550E-01    9.888E-01    1.023E+00    1.057E+00    1.091E+00
     1.125E+00    1.160E+00    1.195E+00    1.229E+00    1.264E+00    1.299E+00    1.335E+00    1.370E+00    1.405E+00    1.441E+00
     1.476E+00    1.512E+00    1.548E+00    1.584E+00    1.620E+00    1.656E+00    1.692E+00    1.729E+00    1.765E+00    1.802E+00
     1.838E+00    1.875E+00    1.911E+00    1.948E+00    1.985E+00    2.022E+00    2.059E+00    2.096E+00    2.133E+00    2.170E+00
     2.207E+00    2.245E+00    2.282E+00    2.319E+00    2.357E+00    2.394E+00    2.431E+00    2.469E+00    2.506E+00    2.544E+00
     2.581E+00    2.619E+00    2.657E+00    2.694E+00    2.732E+00    2.770E+00    2.807E+00    2.845E+00    2.883E+00    2.920E+00
     2.958E+00    2.996E+00    3.033E+00    3.071E+00    3.109E+00    3.146E+00    3.184E+00    3.222E+00    3.259E+00    3.297E+00
     3.334E+00    3.372E+00    3.409E+00    3.447E+00    3.484E+00    3.521E+00    3.559E+00    3.596E+00    3.633E+00    3.671E+00
     3.708E+00    3.745E+00    3.782E+00    3.820E+00    3.857E+00    3.894E+00    3.931E+00    3.968E+00    4.005E+00    4.042E+00
     4.079E+00    4.116E+00    4.153E+00    4.190E+00    4.227E+00    4.264E+00    4.301E+00    4.338E+00    4.375E+00    4.412E+00
     4.449E+00    4.486E+00    4.523E+00    4.560E+00    4.597E+00    4.634E+00    4.671E+00    4.708E+00    4.745E+00    4.782E+00
     4.819E+00    4.856E+00    4.893E+00    4.930E+00    4.967E+00    5.004E+00    5.041E+00    5.078E+00
 Cr       Conc. = 1.12E+03
