 LCModel (Version 6.3-1L) Copyright: S.W. Provencher.          Ref.: Magn. Reson. Med. 30:672-679 (1993).                
 Slice#1 Row#5 Col#11  K_02_press_1_raw_act
 36 lines in following concentration table = NCONC+1
    Conc.  %SD /Cr+PCr  Metabolite                                         
  790.462  29%   0.642 Ala                                                 
    0.000 999%   0.000 Asp                                                 
  193.024 185%   0.157 Cr                                                  
 1.04E+03  35%   0.843 PCr                                                 
    0.000 999%   0.000 GABA                                                
    0.000 999%   0.000 Glc                                                 
  868.825  62%   0.706 Gln                                                 
 1.41E+03  43%   1.148 Glu                                                 
  426.635   7%   0.347 GPC                                                 
    0.000 999%   0.000 PCh                                                 
  442.162  26%   0.359 GSH                                                 
 1.56E+03  22%   1.267 Ins                                                 
    0.000 999%   0.000 Lac                                                 
 2.57E+03   8%   2.092 NAA                                                 
  134.471 182%   0.109 NAAG                                                
  166.205  21%   0.135 Scyllo                                              
  317.679  73%   0.258 Tau                                                 
  804.462  17%   0.654 -CrCH2                                              
  426.635   7%   0.347 GPC+PCh                                             
 2.71E+03   4%   2.201 NAA+NAAG                                            
 1.23E+03   6%   1.000 Cr+PCr                                              
 2.28E+03  44%   1.854 Glu+Gln                                             
 1.01E+03  44%   0.818 Lip13a                                              
    0.000 999%   0.000 Lip13b                                              
    0.000 999%   0.000 Lip09                                               
 2.24E+03  10%   1.821 MM09                                                
  261.239  94%   0.212 Lip20                                               
 3.03E+03  14%   2.461 MM20                                                
 1.08E+03  17%   0.875 MM12                                                
  971.039  40%   0.789 MM14                                                
 2.74E+03  13%   2.225 MM17                                                
 1.01E+03  44%   0.818 Lip13a+Lip13b                                       
 3.05E+03  13%   2.482 MM14+Lip13a+Lip13b+MM12                             
 2.24E+03  10%   1.821 MM09+Lip09                                          
 3.29E+03  13%   2.673 MM20+Lip20                                          
   6 lines in following misc. output table
  FWHM = 0.084 ppm    S/N =   9                                            
  Data shift = 0.046 ppm                                                   
  Ph: -23 deg     -10.2 deg/ppm                                            
  alphaB,S = 8.5E+01,   8.2E+02                                            
   14 spline knots.   Ns =10(1)                                            
   2 inflections.     1 extrema                                            
  498 points on ppm-axis = NY
      4.000000     3.992357     3.984714     3.977070     3.969427     3.961784     3.954141     3.946497     3.938854     3.931211
      3.923568     3.915925     3.908281     3.900638     3.892995     3.885352     3.877708     3.870065     3.862422     3.854779
      3.847136     3.839492     3.831849     3.824206     3.816563     3.808919     3.801276     3.793633     3.785990     3.778347
      3.770703     3.763060     3.755417     3.747774     3.740130     3.732487     3.724844     3.717201     3.709558     3.701914
      3.694271     3.686628     3.678985     3.671341     3.663698     3.656055     3.648412     3.640769     3.633125     3.625482
      3.617839     3.610196     3.602552     3.594909     3.587266     3.579623     3.571980     3.564336     3.556693     3.549050
      3.541407     3.533763     3.526120     3.518477     3.510834     3.503191     3.495547     3.487904     3.480261     3.472618
      3.464974     3.457331     3.449688     3.442045     3.434402     3.426758     3.419115     3.411472     3.403829     3.396185
      3.388542     3.380899     3.373256     3.365613     3.357969     3.350326     3.342683     3.335040     3.327396     3.319753
      3.312110     3.304467     3.296824     3.289180     3.281537     3.273894     3.266251     3.258607     3.250964     3.243321
      3.235678     3.228034     3.220391     3.212748     3.205105     3.197462     3.189818     3.182175     3.174532     3.166889
      3.159245     3.151602     3.143959     3.136316     3.128673     3.121029     3.113386     3.105743     3.098100     3.090456
      3.082813     3.075170     3.067527     3.059884     3.052240     3.044597     3.036954     3.029311     3.021667     3.014024
      3.006381     2.998738     2.991095     2.983451     2.975808     2.968165     2.960522     2.952878     2.945235     2.937592
      2.929949     2.922306     2.914662     2.907019     2.899376     2.891733     2.884089     2.876446     2.868803     2.861160
      2.853517     2.845873     2.838230     2.830587     2.822944     2.815300     2.807657     2.800014     2.792371     2.784728
      2.777084     2.769441     2.761798     2.754155     2.746511     2.738868     2.731225     2.723582     2.715939     2.708295
      2.700652     2.693009     2.685366     2.677722     2.670079     2.662436     2.654793     2.647150     2.639506     2.631863
      2.624220     2.616577     2.608933     2.601290     2.593647     2.586004     2.578361     2.570717     2.563074     2.555431
      2.547788     2.540144     2.532501     2.524858     2.517215     2.509572     2.501928     2.494285     2.486642     2.478999
      2.471355     2.463712     2.456069     2.448426     2.440783     2.433139     2.425496     2.417853     2.410210     2.402566
      2.394923     2.387280     2.379637     2.371994     2.364350     2.356707     2.349064     2.341421     2.333777     2.326134
      2.318491     2.310848     2.303205     2.295561     2.287918     2.280275     2.272632     2.264988     2.257345     2.249702
      2.242059     2.234416     2.226772     2.219129     2.211486     2.203843     2.196199     2.188556     2.180913     2.173270
      2.165627     2.157983     2.150340     2.142697     2.135054     2.127410     2.119767     2.112124     2.104481     2.096838
      2.089194     2.081551     2.073908     2.066265     2.058621     2.050978     2.043335     2.035692     2.028049     2.020405
      2.012762     2.005119     1.997476     1.989833     1.982190     1.974546     1.966903     1.959260     1.951617     1.943974
      1.936331     1.928688     1.921045     1.913402     1.905759     1.898115     1.890472     1.882829     1.875186     1.867543
      1.859900     1.852257     1.844614     1.836971     1.829327     1.821684     1.814041     1.806398     1.798755     1.791112
      1.783469     1.775826     1.768183     1.760540     1.752896     1.745253     1.737610     1.729967     1.722324     1.714681
      1.707038     1.699395     1.691752     1.684108     1.676465     1.668822     1.661179     1.653536     1.645893     1.638250
      1.630607     1.622964     1.615321     1.607677     1.600034     1.592391     1.584748     1.577105     1.569462     1.561819
      1.554176     1.546533     1.538890     1.531246     1.523603     1.515960     1.508317     1.500674     1.493031     1.485388
      1.477745     1.470102     1.462458     1.454815     1.447172     1.439529     1.431886     1.424243     1.416600     1.408957
      1.401314     1.393671     1.386027     1.378384     1.370741     1.363098     1.355455     1.347812     1.340169     1.332526
      1.324883     1.317240     1.309596     1.301953     1.294310     1.286667     1.279024     1.271381     1.263738     1.256095
      1.248452     1.240808     1.233165     1.225522     1.217879     1.210236     1.202593     1.194950     1.187307     1.179664
      1.172021     1.164377     1.156734     1.149091     1.141448     1.133805     1.126162     1.118519     1.110876     1.103233
      1.095590     1.087946     1.080303     1.072660     1.065017     1.057374     1.049731     1.042088     1.034445     1.026802
      1.019158     1.011515     1.003872     0.996229     0.988586     0.980943     0.973300     0.965657     0.958014     0.950371
      0.942727     0.935084     0.927441     0.919798     0.912155     0.904512     0.896869     0.889226     0.881583     0.873940
      0.866296     0.858653     0.851010     0.843367     0.835724     0.828081     0.820438     0.812795     0.805152     0.797508
      0.789865     0.782222     0.774579     0.766936     0.759293     0.751650     0.744007     0.736364     0.728721     0.721077
      0.713434     0.705791     0.698148     0.690505     0.682862     0.675219     0.667576     0.659933     0.652290     0.644646
      0.637003     0.629360     0.621717     0.614074     0.606431     0.598788     0.591145     0.583502     0.575858     0.568215
      0.560572     0.552929     0.545286     0.537643     0.530000     0.522357     0.514714     0.507071     0.499427     0.491784
      0.484141     0.476498     0.468855     0.461212     0.453569     0.445925     0.438282     0.430639     0.422996     0.415353
      0.407710     0.400067     0.392424     0.384780     0.377137     0.369494     0.361851     0.354208     0.346565     0.338922
      0.331278     0.323635     0.315992     0.308349     0.300706     0.293063     0.285420     0.277777     0.270133     0.262490
      0.254847     0.247204     0.239561     0.231918     0.224275     0.216631     0.208988     0.201345
 NY phased data points follow
   9.28918E+00  6.73174E+00  5.92511E+00  4.60327E+00  7.27446E+00  8.87149E+00  5.25809E+00  8.52657E+00  1.46077E+01  9.33295E+00
   1.30928E+01  9.28526E+00  7.38301E+00  8.15541E+00  5.51691E+00  3.95427E+00  6.02327E+00  8.24338E+00  9.86793E+00  1.27937E+01
   5.08518E+00  6.37724E+00  4.91952E+00  8.91568E+00  8.62565E+00  8.71482E+00  2.51838E+00  7.62739E+00  4.36343E+00  8.18646E+00
   4.71912E+00  1.21481E+01  1.07830E+01  1.04917E+01  9.16260E+00  7.39355E+00  1.12103E+01  1.03304E+01  1.10807E+01  9.10938E+00
   9.72828E+00  4.57321E+00  1.02042E+01  6.39747E+00  1.15815E+01  1.10813E+01  1.59133E+01  1.18911E+01  9.48800E+00  1.38153E+01
   9.75841E+00  1.41343E+01  1.14255E+01  7.41791E+00  7.87575E+00  8.28454E+00  6.01937E+00  6.44552E+00  5.83239E+00  2.82619E+00
   5.79241E+00  5.36646E+00  5.45164E+00  4.33238E+00  5.85109E+00  4.90242E+00  3.34829E+00  2.81120E+00  6.88577E+00  2.02415E+00
   7.82968E+00  9.71059E+00  4.48671E+00  4.90568E+00  7.23554E+00  2.46030E+00  4.42066E+00  4.69344E+00  2.68183E+00  4.14505E+00
   2.97379E+00  7.82282E+00  3.26339E+00  1.12696E+01  3.65328E+00  8.54460E+00  3.72188E+00  5.40222E+00  7.39429E+00  1.26597E+01
   1.44191E+01  9.86557E+00  1.06294E+01  1.20824E+01  1.73906E+01  1.16168E+01  1.59067E+01  2.07880E+01  2.61762E+01  2.69628E+01
   2.95781E+01  3.15238E+01  2.68688E+01  2.84937E+01  2.34212E+01  2.46535E+01  1.76166E+01  1.24021E+01  1.40256E+01  1.16929E+01
   8.27989E+00  3.76291E+00  1.15870E+01  7.84944E+00  3.17096E+00  6.86417E+00  7.99680E+00  8.62187E+00  1.34336E+01  1.29652E+01
   1.61287E+01  1.69246E+01  1.80503E+01  2.40375E+01  3.29455E+01  3.29011E+01  3.45502E+01  3.06928E+01  3.77415E+01  2.83945E+01
   2.07740E+01  1.80297E+01  1.68216E+01  1.13678E+01  1.11493E+01  1.01343E+01  9.00977E+00  8.64791E+00  6.10036E+00  6.98396E+00
   9.47096E+00  6.23821E+00  6.65154E+00  5.38879E+00  4.75128E+00  7.36271E+00  9.00278E+00  9.09328E+00  8.67900E+00  5.25402E+00
   6.95668E+00  1.07982E+01  7.51951E+00  7.53231E+00  3.59654E+00  6.89603E+00  6.17209E+00  7.12952E+00  3.64303E+00  1.15515E+01
   9.60380E+00  4.59509E+00  1.64911E+00  4.29242E+00  3.01639E+00 -4.58129E-02  4.68086E-01 -7.42207E+00 -5.66519E+00 -8.27369E+00
  -8.05976E+00 -8.38231E+00 -9.63639E+00 -1.07590E+01 -7.30938E+00 -4.52725E+00 -1.01302E+01 -1.00526E+01 -4.03805E+00 -9.77918E+00
  -6.24559E+00 -9.33368E+00 -5.66036E+00 -5.42104E+00  1.72206E+00  1.76493E+00 -2.59820E-01  1.38187E+00 -3.01106E-01  4.33256E-01
  -3.00364E+00  8.64920E-02  1.31073E+00  2.78790E-01 -1.34060E+00 -3.50228E+00 -4.73531E+00 -2.03479E+00 -4.23993E+00 -6.05834E+00
   2.25625E-01  2.66429E+00 -2.25588E+00  4.90786E+00  3.64438E+00  4.78418E+00  5.20288E+00  9.61978E+00  5.57575E+00  2.92322E+00
   4.00392E+00  9.25547E+00  1.11625E+01  1.09230E+01  1.08206E+01  1.54387E+01  1.20681E+01  1.08304E+01  5.75624E+00  5.60880E+00
   7.20547E+00  3.43783E+00  6.79797E+00  4.50672E+00  3.43272E+00  7.68470E+00  8.88138E+00  9.83579E+00  1.07656E+01  7.37418E+00
   8.40224E+00  1.27886E+01  1.41197E+01  5.12125E+00  7.35731E+00  6.63411E+00  8.06341E+00  9.00694E+00  1.09864E+01  7.77822E+00
   5.73577E+00  7.41109E+00  7.25379E+00  5.90315E+00  1.22085E+01  1.33148E+01  1.40587E+01  1.73504E+01  1.43392E+01  1.51431E+01
   1.73328E+01  2.88481E+01  3.10787E+01  4.20332E+01  4.36767E+01  5.15366E+01  5.21148E+01  5.96274E+01  7.28494E+01  7.81950E+01
   7.97610E+01  7.55787E+01  6.24646E+01  5.85251E+01  5.12200E+01  4.05077E+01  3.45493E+01  2.86121E+01  2.12318E+01  1.34674E+01
   1.80700E+01  7.78838E+00  1.06374E+01  8.11316E+00  8.46509E+00  6.62961E+00  5.70297E+00  8.45443E+00  4.90891E+00  7.85227E+00
   5.94874E+00  9.47389E+00  2.08023E+00  9.64445E+00  5.93945E+00  4.14197E+00  6.77448E+00  1.00318E+01  1.05096E+01  3.96834E+00
   1.09619E+01  1.26457E+01  9.99530E+00  1.33491E+01  8.98577E+00  6.68686E+00  9.48649E+00  1.47220E+01  1.83185E+01  1.19824E+01
   1.76546E+01  1.48187E+01  1.53845E+01  1.68135E+01  1.46248E+01  1.92382E+01  1.74235E+01  1.67313E+01  2.09604E+01  2.09838E+01
   2.13105E+01  2.01915E+01  2.61747E+01  2.47876E+01  2.68139E+01  1.95000E+01  2.13812E+01  2.41905E+01  2.17875E+01  2.28151E+01
   2.31169E+01  2.32046E+01  2.02409E+01  2.07053E+01  1.59334E+01  1.52571E+01  1.38575E+01  1.47552E+01  1.19685E+01  5.92520E+00
   9.94387E+00  6.16181E+00  7.64434E+00  6.92263E+00  7.98579E+00  1.10177E+01  1.02456E+01  6.33543E+00  1.23783E+01  1.15856E+01
   1.02513E+01  1.21279E+01  1.16815E+01  8.24809E+00  9.38327E+00  1.22065E+01  1.10156E+01  6.73093E+00  9.04261E+00  5.13594E+00
   9.66414E+00  1.06054E+01  1.01790E+01  1.53433E+01  1.09613E+01  1.11510E+01  1.19461E+01  1.03498E+01  1.21430E+01  1.29291E+01
   1.64060E+01  1.19844E+01  1.71814E+01  1.22232E+01  1.19321E+01  1.62263E+01  1.43236E+01  1.69482E+01  1.49695E+01  1.52383E+01
   1.64241E+01  1.25855E+01  1.53552E+01  1.67944E+01  1.35681E+01  1.67038E+01  1.41159E+01  1.14002E+01  1.34460E+01  1.40550E+01
   9.44313E+00  1.11850E+01  8.02172E+00  9.55578E+00  5.60505E+00  8.50695E+00  8.23034E+00  1.02948E+01  1.30113E+01  8.48780E+00
   1.11877E+01  1.16253E+01  9.85013E+00  1.56449E+01  1.56283E+01  1.57659E+01  1.67555E+01  1.20435E+01  1.51272E+01  9.32589E+00
   8.38696E+00  1.46582E+01  1.51497E+01  1.69440E+01  1.57113E+01  1.79780E+01  1.58125E+01  2.26003E+01  1.42259E+01  1.38194E+01
   1.36540E+01  1.25890E+01  1.76099E+01  1.36967E+01  1.13460E+01  1.34223E+01  1.22187E+01  5.76723E+00  1.07670E+01  1.16367E+01
   1.02623E+01  4.41039E+00  7.22223E+00  2.60660E+00  5.83751E+00  5.96259E+00  3.16773E+00 -1.71020E+00  4.08984E+00  5.29919E+00
   3.72645E+00  3.56876E+00  2.36861E+00  5.64466E+00  6.91581E+00  6.51721E+00  5.89785E+00  2.20437E+00  6.52097E+00  1.89307E+00
   2.51198E+00  1.67969E+00  3.11193E+00  4.19107E+00  2.82975E+00  6.05862E-01  2.13016E+00  2.79210E+00  5.77120E+00  7.60711E+00
   5.41876E+00  5.40253E+00  1.21095E+00  2.13717E+00  2.42036E+00  3.95961E+00  1.98647E+00  4.27713E+00  1.51150E+00 -2.78167E+00
   3.72174E+00  7.61106E-01  2.65535E-01 -6.72715E-01 -1.23300E+00  1.74619E+00  4.98206E+00  2.14051E+00 -2.25248E+00 -5.26106E+00
   3.32212E+00 -1.01680E-02  2.76046E+00  1.75086E+00 -3.07460E+00 -2.45436E+00 -3.13092E-01  3.40592E+00  4.18131E+00  2.88828E+00
  -1.73788E-01  3.81804E+00  9.80437E-01  5.15999E+00 -2.00597E+00  4.64916E+00  3.37367E+00  1.29402E+00  4.65134E+00  1.72101E+00
   2.42714E+00  4.45519E+00  9.76234E-01  1.02651E-01  2.07603E-01  2.71642E+00  5.64147E+00  1.59768E+00
 NY points of the fit to the data follow
   6.65844E+00  6.74535E+00  7.02948E+00  7.47591E+00  8.04591E+00  8.68375E+00  9.28889E+00  9.77322E+00  1.00741E+01  1.01501E+01
   1.00030E+01  9.66193E+00  9.17396E+00  8.59909E+00  7.99399E+00  7.43004E+00  6.92746E+00  6.46665E+00  6.00571E+00  5.56879E+00
   5.31516E+00  5.26022E+00  5.38561E+00  5.72701E+00  6.27809E+00  6.99607E+00  7.82430E+00  8.72149E+00  9.64920E+00  1.05102E+01
   1.11930E+01  1.16236E+01  1.17679E+01  1.15925E+01  1.11083E+01  1.03900E+01  9.54211E+00  8.73942E+00  8.17286E+00  7.92911E+00
   7.97390E+00  8.26925E+00  8.79351E+00  9.45289E+00  1.01441E+01  1.07668E+01  1.12056E+01  1.13445E+01  1.11134E+01  1.05565E+01
   9.78944E+00  8.92287E+00  8.07050E+00  7.30972E+00  6.67962E+00  6.18503E+00  5.83120E+00  5.62546E+00  5.55084E+00  5.59371E+00
   5.69674E+00  5.76100E+00  5.75093E+00  5.68438E+00  5.58790E+00  5.50491E+00  5.48060E+00  5.51892E+00  5.60326E+00  5.70829E+00
   5.80647E+00  5.88564E+00  5.93950E+00  5.94856E+00  5.89343E+00  5.76442E+00  5.61028E+00  5.58032E+00  5.71514E+00  5.95061E+00
   6.24138E+00  6.57225E+00  6.93221E+00  7.29758E+00  7.62718E+00  7.84927E+00  7.91036E+00  7.79144E+00  7.49870E+00  7.07809E+00
   6.63030E+00  6.55419E+00  7.44269E+00  9.23806E+00  1.16467E+01  1.44352E+01  1.74510E+01  2.05600E+01  2.36045E+01  2.63388E+01
   2.83980E+01  2.94732E+01  2.94265E+01  2.82850E+01  2.62169E+01  2.34731E+01  2.03377E+01  1.70850E+01  1.39399E+01  1.10578E+01
   8.55008E+00  6.50843E+00  5.00604E+00  4.12387E+00  3.80145E+00  3.84325E+00  4.59980E+00  6.36906E+00  8.95508E+00  1.20607E+01
   1.54652E+01  1.90079E+01  2.25405E+01  2.58809E+01  2.87781E+01  3.09038E+01  3.19692E+01  3.18388E+01  3.05529E+01  2.83050E+01
   2.53826E+01  2.20898E+01  1.87126E+01  1.54623E+01  1.24938E+01  9.93596E+00  7.90039E+00  6.48527E+00  5.74136E+00  5.46577E+00
   5.37228E+00  5.33582E+00  5.30546E+00  5.25497E+00  5.17178E+00  5.05168E+00  4.89310E+00  4.68989E+00  4.45208E+00  4.20217E+00
   3.94523E+00  3.65758E+00  3.34814E+00  3.04202E+00  2.77455E+00  2.57213E+00  2.40612E+00  2.24081E+00  2.06313E+00  1.87726E+00
   1.69337E+00  1.51868E+00  1.34943E+00  1.17021E+00  9.59895E-01  6.90981E-01  3.27772E-01 -1.11882E-01 -5.60102E-01 -9.75149E-01
  -1.35230E+00 -1.72480E+00 -2.09566E+00 -2.43678E+00 -2.69818E+00 -2.86315E+00 -2.95347E+00 -3.01754E+00 -3.05992E+00 -3.04205E+00
  -2.92516E+00 -2.68197E+00 -2.29953E+00 -1.78612E+00 -1.17318E+00 -4.85270E-01  2.49945E-01  9.91013E-01  1.65440E+00  2.21003E+00
   2.65117E+00  2.97061E+00  3.18029E+00  3.32723E+00  3.49018E+00  3.72238E+00  4.04591E+00  4.44212E+00  4.87025E+00  5.27222E+00
   5.53623E+00  5.61637E+00  5.50385E+00  5.15862E+00  4.60467E+00  3.92546E+00  3.28759E+00  2.81489E+00  2.54368E+00  2.50122E+00
   2.69650E+00  3.11520E+00  3.64933E+00  4.15297E+00  4.54912E+00  4.81798E+00  4.92002E+00  4.83769E+00  4.59746E+00  4.26455E+00
   3.93940E+00  3.70652E+00  3.61849E+00  3.76070E+00  4.15709E+00  4.75074E+00  5.46429E+00  6.25808E+00  7.10922E+00  7.93240E+00
   8.65510E+00  9.26863E+00  9.76414E+00  1.00924E+01  1.02600E+01  1.03352E+01  1.04025E+01  1.04860E+01  1.05751E+01  1.06647E+01
   1.07528E+01  1.08527E+01  1.09903E+01  1.12024E+01  1.15269E+01  1.20081E+01  1.26977E+01  1.35853E+01  1.46466E+01  1.61502E+01
   1.92649E+01  2.44374E+01  3.09877E+01  3.82297E+01  4.56786E+01  5.29847E+01  5.98284E+01  6.58003E+01  7.03499E+01  7.28938E+01
   7.30271E+01  7.06621E+01  6.60532E+01  5.97176E+01  5.23034E+01  4.44738E+01  3.67951E+01  2.96804E+01  2.34098E+01  1.81609E+01
   1.40670E+01  1.12693E+01  9.82632E+00  9.16436E+00  8.71808E+00  8.35726E+00  8.04614E+00  7.76447E+00  7.50218E+00  7.26285E+00
   7.04769E+00  6.85884E+00  6.70043E+00  6.57721E+00  6.49413E+00  6.45830E+00  6.47563E+00  6.54822E+00  6.67741E+00  6.86574E+00
   7.11758E+00  7.43752E+00  7.82936E+00  8.29681E+00  8.84413E+00  9.47343E+00  1.01843E+01  1.09736E+01  1.18357E+01  1.27618E+01
   1.37395E+01  1.47535E+01  1.57852E+01  1.68136E+01  1.78158E+01  1.87677E+01  1.96455E+01  2.04269E+01  2.10924E+01  2.16266E+01
   2.20191E+01  2.22658E+01  2.23701E+01  2.23433E+01  2.22070E+01  2.19972E+01  2.17809E+01  2.16690E+01  2.16131E+01  2.14374E+01
   2.10519E+01  2.04261E+01  1.95431E+01  1.83692E+01  1.68514E+01  1.50743E+01  1.32574E+01  1.15224E+01  9.95784E+00  8.66047E+00
   7.72989E+00  7.24556E+00  7.24230E+00  7.68766E+00  8.47781E+00  9.46550E+00  1.05002E+01  1.14570E+01  1.22506E+01  1.28207E+01
   1.30914E+01  1.30615E+01  1.28171E+01  1.24358E+01  1.19830E+01  1.15192E+01  1.11092E+01  1.08397E+01  1.07408E+01  1.07527E+01
   1.08397E+01  1.09844E+01  1.11756E+01  1.14044E+01  1.16624E+01  1.19417E+01  1.22338E+01  1.25299E+01  1.28207E+01  1.30968E+01
   1.33487E+01  1.35669E+01  1.37427E+01  1.38685E+01  1.39379E+01  1.39464E+01  1.38913E+01  1.37725E+01  1.35918E+01  1.33538E+01
   1.30651E+01  1.27342E+01  1.23713E+01  1.19876E+01  1.15953E+01  1.12065E+01  1.08333E+01  1.04870E+01  1.01780E+01  9.91559E+00
   9.70744E+00  9.55981E+00  9.47741E+00  9.46337E+00  9.51940E+00  9.64573E+00  9.84126E+00  1.01035E+01  1.04286E+01  1.08116E+01
   1.12459E+01  1.17239E+01  1.22364E+01  1.27733E+01  1.33231E+01  1.38733E+01  1.44109E+01  1.49223E+01  1.53939E+01  1.58124E+01
   1.61657E+01  1.64426E+01  1.66340E+01  1.67329E+01  1.67348E+01  1.66378E+01  1.64429E+01  1.61537E+01  1.57764E+01  1.53193E+01
   1.47926E+01  1.42078E+01  1.35772E+01  1.29135E+01  1.22292E+01  1.15362E+01  1.08453E+01  1.01662E+01  9.50719E+00  8.87497E+00
   8.27471E+00  7.71008E+00  7.18337E+00  6.69568E+00  6.24706E+00  5.83673E+00  5.46321E+00  5.12455E+00  4.81846E+00  4.54248E+00
   4.29410E+00  4.07079E+00  3.87011E+00  3.68972E+00  3.52748E+00  3.38143E+00  3.24978E+00  3.13092E+00  3.02340E+00  2.92594E+00
   2.83742E+00  2.75686E+00  2.68338E+00  2.61623E+00  2.55471E+00  2.49823E+00  2.44629E+00  2.39845E+00  2.35430E+00  2.31347E+00
   2.27566E+00  2.24058E+00  2.20800E+00  2.17772E+00  2.14952E+00  2.12323E+00  2.09868E+00  2.07575E+00  2.05431E+00  2.03426E+00
   2.01549E+00  1.99788E+00  1.98136E+00  1.96586E+00  1.95133E+00  1.93768E+00  1.92486E+00  1.91281E+00  1.90148E+00  1.89084E+00
   1.88085E+00  1.87148E+00  1.86268E+00  1.85440E+00  1.84665E+00  1.83940E+00  1.83262E+00  1.82629E+00  1.82038E+00  1.81486E+00
   1.80975E+00  1.80504E+00  1.80069E+00  1.79670E+00  1.79304E+00  1.78973E+00  1.78677E+00  1.78415E+00  1.78186E+00  1.77990E+00
   1.77827E+00  1.77698E+00  1.77606E+00  1.77552E+00  1.77534E+00  1.77555E+00  1.77619E+00  1.77730E+00
 NY background values follow
     1.104E+00    1.106E+00    1.108E+00    1.110E+00    1.112E+00    1.113E+00    1.115E+00    1.117E+00    1.119E+00    1.121E+00
     1.123E+00    1.125E+00    1.127E+00    1.129E+00    1.131E+00    1.133E+00    1.135E+00    1.137E+00    1.139E+00    1.141E+00
     1.142E+00    1.144E+00    1.146E+00    1.148E+00    1.150E+00    1.152E+00    1.154E+00    1.156E+00    1.158E+00    1.160E+00
     1.162E+00    1.164E+00    1.166E+00    1.168E+00    1.170E+00    1.171E+00    1.173E+00    1.175E+00    1.177E+00    1.179E+00
     1.181E+00    1.183E+00    1.185E+00    1.187E+00    1.189E+00    1.191E+00    1.193E+00    1.195E+00    1.197E+00    1.198E+00
     1.200E+00    1.202E+00    1.204E+00    1.206E+00    1.208E+00    1.210E+00    1.212E+00    1.214E+00    1.216E+00    1.218E+00
     1.220E+00    1.222E+00    1.224E+00    1.225E+00    1.227E+00    1.229E+00    1.231E+00    1.233E+00    1.235E+00    1.237E+00
     1.239E+00    1.241E+00    1.243E+00    1.245E+00    1.247E+00    1.249E+00    1.251E+00    1.252E+00    1.254E+00    1.256E+00
     1.258E+00    1.260E+00    1.262E+00    1.264E+00    1.266E+00    1.268E+00    1.270E+00    1.272E+00    1.274E+00    1.276E+00
     1.278E+00    1.279E+00    1.281E+00    1.283E+00    1.285E+00    1.287E+00    1.289E+00    1.291E+00    1.293E+00    1.295E+00
     1.297E+00    1.299E+00    1.301E+00    1.303E+00    1.304E+00    1.306E+00    1.308E+00    1.310E+00    1.312E+00    1.314E+00
     1.316E+00    1.318E+00    1.320E+00    1.322E+00    1.324E+00    1.326E+00    1.328E+00    1.329E+00    1.331E+00    1.333E+00
     1.335E+00    1.337E+00    1.339E+00    1.341E+00    1.343E+00    1.345E+00    1.347E+00    1.349E+00    1.351E+00    1.352E+00
     1.354E+00    1.356E+00    1.358E+00    1.360E+00    1.362E+00    1.364E+00    1.366E+00    1.368E+00    1.370E+00    1.372E+00
     1.374E+00    1.375E+00    1.377E+00    1.379E+00    1.381E+00    1.383E+00    1.385E+00    1.387E+00    1.389E+00    1.391E+00
     1.393E+00    1.395E+00    1.396E+00    1.398E+00    1.400E+00    1.402E+00    1.404E+00    1.406E+00    1.408E+00    1.410E+00
     1.412E+00    1.414E+00    1.416E+00    1.417E+00    1.419E+00    1.421E+00    1.423E+00    1.425E+00    1.427E+00    1.429E+00
     1.431E+00    1.433E+00    1.435E+00    1.437E+00    1.438E+00    1.440E+00    1.442E+00    1.444E+00    1.446E+00    1.448E+00
     1.450E+00    1.452E+00    1.454E+00    1.456E+00    1.458E+00    1.459E+00    1.461E+00    1.463E+00    1.465E+00    1.467E+00
     1.469E+00    1.471E+00    1.473E+00    1.475E+00    1.477E+00    1.478E+00    1.480E+00    1.482E+00    1.484E+00    1.486E+00
     1.488E+00    1.490E+00    1.492E+00    1.494E+00    1.496E+00    1.497E+00    1.499E+00    1.501E+00    1.503E+00    1.505E+00
     1.507E+00    1.509E+00    1.511E+00    1.513E+00    1.514E+00    1.516E+00    1.518E+00    1.520E+00    1.522E+00    1.524E+00
     1.526E+00    1.528E+00    1.530E+00    1.532E+00    1.533E+00    1.535E+00    1.537E+00    1.539E+00    1.541E+00    1.543E+00
     1.545E+00    1.547E+00    1.549E+00    1.550E+00    1.552E+00    1.554E+00    1.556E+00    1.558E+00    1.560E+00    1.562E+00
     1.564E+00    1.566E+00    1.567E+00    1.569E+00    1.571E+00    1.573E+00    1.575E+00    1.577E+00    1.579E+00    1.581E+00
     1.582E+00    1.584E+00    1.586E+00    1.588E+00    1.590E+00    1.592E+00    1.594E+00    1.596E+00    1.598E+00    1.599E+00
     1.601E+00    1.603E+00    1.605E+00    1.607E+00    1.609E+00    1.611E+00    1.613E+00    1.614E+00    1.616E+00    1.618E+00
     1.620E+00    1.622E+00    1.624E+00    1.626E+00    1.628E+00    1.629E+00    1.631E+00    1.633E+00    1.635E+00    1.637E+00
     1.639E+00    1.641E+00    1.642E+00    1.644E+00    1.646E+00    1.648E+00    1.650E+00    1.652E+00    1.654E+00    1.656E+00
     1.657E+00    1.659E+00    1.661E+00    1.663E+00    1.665E+00    1.667E+00    1.669E+00    1.670E+00    1.672E+00    1.674E+00
     1.676E+00    1.678E+00    1.680E+00    1.682E+00    1.684E+00    1.685E+00    1.687E+00    1.689E+00    1.691E+00    1.693E+00
     1.695E+00    1.697E+00    1.698E+00    1.700E+00    1.702E+00    1.704E+00    1.706E+00    1.708E+00    1.709E+00    1.711E+00
     1.713E+00    1.715E+00    1.717E+00    1.719E+00    1.721E+00    1.722E+00    1.724E+00    1.726E+00    1.728E+00    1.730E+00
     1.732E+00    1.734E+00    1.735E+00    1.737E+00    1.739E+00    1.741E+00    1.743E+00    1.745E+00    1.746E+00    1.748E+00
     1.750E+00    1.752E+00    1.754E+00    1.756E+00    1.757E+00    1.759E+00    1.761E+00    1.763E+00    1.765E+00    1.767E+00
     1.768E+00    1.770E+00    1.772E+00    1.774E+00    1.776E+00    1.778E+00    1.779E+00    1.781E+00    1.783E+00    1.785E+00
     1.787E+00    1.789E+00    1.790E+00    1.792E+00    1.794E+00    1.796E+00    1.798E+00    1.800E+00    1.801E+00    1.803E+00
     1.805E+00    1.807E+00    1.809E+00    1.811E+00    1.812E+00    1.814E+00    1.816E+00    1.818E+00    1.820E+00    1.821E+00
     1.823E+00    1.825E+00    1.827E+00    1.829E+00    1.831E+00    1.832E+00    1.834E+00    1.836E+00    1.838E+00    1.840E+00
     1.841E+00    1.843E+00    1.845E+00    1.847E+00    1.849E+00    1.851E+00    1.852E+00    1.854E+00    1.856E+00    1.858E+00
     1.860E+00    1.861E+00    1.863E+00    1.865E+00    1.867E+00    1.869E+00    1.870E+00    1.872E+00    1.874E+00    1.876E+00
     1.878E+00    1.879E+00    1.881E+00    1.883E+00    1.885E+00    1.887E+00    1.888E+00    1.890E+00    1.892E+00    1.894E+00
     1.896E+00    1.897E+00    1.899E+00    1.901E+00    1.903E+00    1.905E+00    1.906E+00    1.908E+00    1.910E+00    1.912E+00
     1.913E+00    1.915E+00    1.917E+00    1.919E+00    1.921E+00    1.922E+00    1.924E+00    1.926E+00    1.928E+00    1.930E+00
     1.931E+00    1.933E+00    1.935E+00    1.937E+00    1.938E+00    1.940E+00    1.942E+00    1.944E+00    1.946E+00    1.947E+00
     1.949E+00    1.951E+00    1.953E+00    1.954E+00    1.956E+00    1.958E+00    1.960E+00    1.961E+00    1.963E+00    1.965E+00
     1.967E+00    1.969E+00    1.970E+00    1.972E+00    1.974E+00    1.976E+00    1.977E+00    1.979E+00    1.981E+00    1.983E+00
     1.984E+00    1.986E+00    1.988E+00    1.990E+00    1.991E+00    1.993E+00    1.995E+00    1.997E+00    1.998E+00    2.000E+00
     2.002E+00    2.004E+00    2.005E+00    2.007E+00    2.009E+00    2.011E+00    2.012E+00    2.014E+00    2.016E+00    2.018E+00
     2.019E+00    2.021E+00    2.023E+00    2.025E+00    2.026E+00    2.028E+00    2.030E+00    2.032E+00
 Ala      Conc. = 7.90E+02
