 LCModel (Version 6.3-1L) Copyright: S.W. Provencher.          Ref.: Magn. Reson. Med. 30:672-679 (1993).                
 Slice#3 Row#5 Col#10  K_02_press_1_raw_act
 36 lines in following concentration table = NCONC+1
    Conc.  %SD /Cr+PCr  Metabolite                                         
  120.493 101% 5.5E-02 Ala                                                 
    0.000 999%   0.000 Asp                                                 
  947.278  26%   0.433 Cr                                                  
 1.24E+03  20%   0.567 PCr                                                 
    0.000 999%   0.000 GABA                                                
    0.000 999%   0.000 Glc                                                 
  862.000  29%   0.394 Gln                                                 
 2.02E+03  14%   0.922 Glu                                                 
  677.766   4%   0.310 GPC                                                 
    0.000 999%   0.000 PCh                                                 
  622.980  13%   0.285 GSH                                                 
  669.090  41%   0.306 Ins                                                 
    0.000 999%   0.000 Lac                                                 
 3.00E+03   5%   1.370 NAA                                                 
    5.189 999% 2.4E-03 NAAG                                                
   21.283 139% 9.7E-03 Scyllo                                              
    0.000 999%   0.000 Tau                                                 
    0.000 999%   0.000 -CrCH2                                              
  677.766   4%   0.310 GPC+PCh                                             
 3.00E+03   3%   1.372 NAA+NAAG                                            
 2.19E+03   3%   1.000 Cr+PCr                                              
 2.88E+03  14%   1.316 Glu+Gln                                             
 5.68E+03  22%   2.595 Lip13a                                              
    0.000 999%   0.000 Lip13b                                              
 1.10E+03  50%   0.503 Lip09                                               
 1.09E+03  44%   0.497 MM09                                                
  778.894  49%   0.356 Lip20                                               
 3.75E+03  15%   1.711 MM20                                                
  212.778 168% 9.7E-02 MM12                                                
 4.33E+03  21%   1.977 MM14                                                
 2.09E+03  23%   0.954 MM17                                                
 5.68E+03  22%   2.595 Lip13a+Lip13b                                       
 1.02E+04   8%   4.669 MM14+Lip13a+Lip13b+MM12                             
 2.19E+03  15%   0.999 MM09+Lip09                                          
 4.52E+03  12%   2.067 MM20+Lip20                                          
   6 lines in following misc. output table
  FWHM = 0.054 ppm    S/N =  15                                            
  Data shift = 0.015 ppm                                                   
  Ph:  -1 deg      -6.2 deg/ppm                                            
  alphaB,S = 6.6E-01,   2.0E+02                                            
   14 spline knots.   Ns = 7(1)                                            
  (12) 3 infls.   ( 5) 1 extrs.                                            
  498 points on ppm-axis = NY
      4.000000     3.992357     3.984714     3.977070     3.969427     3.961784     3.954141     3.946497     3.938854     3.931211
      3.923568     3.915925     3.908281     3.900638     3.892995     3.885352     3.877708     3.870065     3.862422     3.854779
      3.847136     3.839492     3.831849     3.824206     3.816563     3.808919     3.801276     3.793633     3.785990     3.778347
      3.770703     3.763060     3.755417     3.747774     3.740130     3.732487     3.724844     3.717201     3.709558     3.701914
      3.694271     3.686628     3.678985     3.671341     3.663698     3.656055     3.648412     3.640769     3.633125     3.625482
      3.617839     3.610196     3.602552     3.594909     3.587266     3.579623     3.571980     3.564336     3.556693     3.549050
      3.541407     3.533763     3.526120     3.518477     3.510834     3.503191     3.495547     3.487904     3.480261     3.472618
      3.464974     3.457331     3.449688     3.442045     3.434402     3.426758     3.419115     3.411472     3.403829     3.396185
      3.388542     3.380899     3.373256     3.365613     3.357969     3.350326     3.342683     3.335040     3.327396     3.319753
      3.312110     3.304467     3.296824     3.289180     3.281537     3.273894     3.266251     3.258607     3.250964     3.243321
      3.235678     3.228034     3.220391     3.212748     3.205105     3.197462     3.189818     3.182175     3.174532     3.166889
      3.159245     3.151602     3.143959     3.136316     3.128673     3.121029     3.113386     3.105743     3.098100     3.090456
      3.082813     3.075170     3.067527     3.059884     3.052240     3.044597     3.036954     3.029311     3.021667     3.014024
      3.006381     2.998738     2.991095     2.983451     2.975808     2.968165     2.960522     2.952878     2.945235     2.937592
      2.929949     2.922306     2.914662     2.907019     2.899376     2.891733     2.884089     2.876446     2.868803     2.861160
      2.853517     2.845873     2.838230     2.830587     2.822944     2.815300     2.807657     2.800014     2.792371     2.784728
      2.777084     2.769441     2.761798     2.754155     2.746511     2.738868     2.731225     2.723582     2.715939     2.708295
      2.700652     2.693009     2.685366     2.677722     2.670079     2.662436     2.654793     2.647150     2.639506     2.631863
      2.624220     2.616577     2.608933     2.601290     2.593647     2.586004     2.578361     2.570717     2.563074     2.555431
      2.547788     2.540144     2.532501     2.524858     2.517215     2.509572     2.501928     2.494285     2.486642     2.478999
      2.471355     2.463712     2.456069     2.448426     2.440783     2.433139     2.425496     2.417853     2.410210     2.402566
      2.394923     2.387280     2.379637     2.371994     2.364350     2.356707     2.349064     2.341421     2.333777     2.326134
      2.318491     2.310848     2.303205     2.295561     2.287918     2.280275     2.272632     2.264988     2.257345     2.249702
      2.242059     2.234416     2.226772     2.219129     2.211486     2.203843     2.196199     2.188556     2.180913     2.173270
      2.165627     2.157983     2.150340     2.142697     2.135054     2.127410     2.119767     2.112124     2.104481     2.096838
      2.089194     2.081551     2.073908     2.066265     2.058621     2.050978     2.043335     2.035692     2.028049     2.020405
      2.012762     2.005119     1.997476     1.989833     1.982190     1.974546     1.966903     1.959260     1.951617     1.943974
      1.936331     1.928688     1.921045     1.913402     1.905759     1.898115     1.890472     1.882829     1.875186     1.867543
      1.859900     1.852257     1.844614     1.836971     1.829327     1.821684     1.814041     1.806398     1.798755     1.791112
      1.783469     1.775826     1.768183     1.760540     1.752896     1.745253     1.737610     1.729967     1.722324     1.714681
      1.707038     1.699395     1.691752     1.684108     1.676465     1.668822     1.661179     1.653536     1.645893     1.638250
      1.630607     1.622964     1.615321     1.607677     1.600034     1.592391     1.584748     1.577105     1.569462     1.561819
      1.554176     1.546533     1.538890     1.531246     1.523603     1.515960     1.508317     1.500674     1.493031     1.485388
      1.477745     1.470102     1.462458     1.454815     1.447172     1.439529     1.431886     1.424243     1.416600     1.408957
      1.401314     1.393671     1.386027     1.378384     1.370741     1.363098     1.355455     1.347812     1.340169     1.332526
      1.324883     1.317240     1.309596     1.301953     1.294310     1.286667     1.279024     1.271381     1.263738     1.256095
      1.248452     1.240808     1.233165     1.225522     1.217879     1.210236     1.202593     1.194950     1.187307     1.179664
      1.172021     1.164377     1.156734     1.149091     1.141448     1.133805     1.126162     1.118519     1.110876     1.103233
      1.095590     1.087946     1.080303     1.072660     1.065017     1.057374     1.049731     1.042088     1.034445     1.026802
      1.019158     1.011515     1.003872     0.996229     0.988586     0.980943     0.973300     0.965657     0.958014     0.950371
      0.942727     0.935084     0.927441     0.919798     0.912155     0.904512     0.896869     0.889226     0.881583     0.873940
      0.866296     0.858653     0.851010     0.843367     0.835724     0.828081     0.820438     0.812795     0.805152     0.797508
      0.789865     0.782222     0.774579     0.766936     0.759293     0.751650     0.744007     0.736364     0.728721     0.721077
      0.713434     0.705791     0.698148     0.690505     0.682862     0.675219     0.667576     0.659933     0.652290     0.644646
      0.637003     0.629360     0.621717     0.614074     0.606431     0.598788     0.591145     0.583502     0.575858     0.568215
      0.560572     0.552929     0.545286     0.537643     0.530000     0.522357     0.514714     0.507071     0.499427     0.491784
      0.484141     0.476498     0.468855     0.461212     0.453569     0.445925     0.438282     0.430639     0.422996     0.415353
      0.407710     0.400067     0.392424     0.384780     0.377137     0.369494     0.361851     0.354208     0.346565     0.338922
      0.331278     0.323635     0.315992     0.308349     0.300706     0.293063     0.285420     0.277777     0.270133     0.262490
      0.254847     0.247204     0.239561     0.231918     0.224275     0.216631     0.208988     0.201345
 NY phased data points follow
   4.86526E+01  4.51105E+01  4.90154E+01  5.53746E+01  5.64485E+01  6.09765E+01  6.30231E+01  6.69916E+01  7.78379E+01  8.36179E+01
   8.63192E+01  9.25826E+01  9.01819E+01  7.69178E+01  7.03989E+01  5.90776E+01  5.34247E+01  5.48240E+01  4.36205E+01  4.54881E+01
   4.26485E+01  4.39439E+01  4.00633E+01  4.01284E+01  4.02375E+01  4.47520E+01  4.86786E+01  4.25570E+01  4.39619E+01  4.61841E+01
   5.05617E+01  4.80096E+01  5.00315E+01  4.67714E+01  4.32247E+01  4.39425E+01  3.94247E+01  4.08170E+01  3.73087E+01  4.18064E+01
   3.66434E+01  4.14043E+01  3.92001E+01  4.28307E+01  3.93530E+01  3.89101E+01  4.14965E+01  4.26066E+01  4.40470E+01  4.04120E+01
   4.11826E+01  3.47217E+01  3.61847E+01  2.85868E+01  3.05118E+01  3.52751E+01  3.11533E+01  3.19092E+01  2.84222E+01  2.78745E+01
   2.65671E+01  2.73496E+01  1.75415E+01  2.06084E+01  1.16247E+01  1.58209E+01  1.52756E+01  1.22867E+01  9.15368E+00  1.33331E+01
   1.64848E+01  1.22059E+01  1.35804E+01  1.50257E+01  1.71490E+01  1.71156E+01  1.67384E+01  1.44691E+01  1.53885E+01  1.16501E+01
   1.60692E+01  1.94951E+01  1.77888E+01  1.67926E+01  1.53657E+01  1.76643E+01  1.78164E+01  1.75872E+01  1.18103E+01  1.52539E+01
   1.80074E+01  1.63487E+01  2.09832E+01  1.97995E+01  2.01769E+01  2.10955E+01  2.44441E+01  2.57676E+01  3.51225E+01  3.90598E+01
   4.39226E+01  5.85015E+01  7.19660E+01  7.28407E+01  7.57782E+01  6.82878E+01  5.37511E+01  4.32668E+01  3.25441E+01  2.64019E+01
   2.05391E+01  1.99065E+01  1.38047E+01  1.81116E+01  1.81050E+01  1.43814E+01  1.34025E+01  1.65590E+01  1.73630E+01  2.21780E+01
   1.51588E+01  2.52563E+01  2.68956E+01  3.77232E+01  4.56117E+01  6.08118E+01  7.18560E+01  8.27487E+01  8.28704E+01  7.67502E+01
   5.90362E+01  4.80218E+01  3.58248E+01  2.81602E+01  1.92773E+01  1.61898E+01  1.32840E+01  1.33031E+01  1.07326E+01  4.43422E+00
   7.38379E+00  1.43117E+01  1.06290E+01  9.20569E+00  1.14410E+01  7.37715E+00  5.41448E+00  9.21042E+00  1.11610E+01  9.15724E+00
   2.41490E+00  6.58636E+00  8.01372E+00  4.41915E+00  5.92192E+00  7.74403E+00  5.57422E+00  3.84726E+00  4.23202E+00  9.20238E+00
   7.12211E+00  4.83629E+00 -5.25505E-01 -1.92035E+00 -4.13590E+00  3.27693E+00  8.85598E-01  4.45065E-01 -5.96917E+00 -2.96177E+00
  -8.52971E+00 -8.11661E+00 -7.10021E+00 -9.52704E+00 -1.03496E+01 -1.12476E+01 -1.60623E+01 -1.13959E+01 -1.01737E+01 -7.83154E+00
  -9.25543E+00 -5.27383E+00 -9.64962E+00 -8.06405E+00 -1.05431E+01 -9.08689E+00 -9.51572E+00 -6.67266E+00 -1.84777E+00 -8.75110E-01
   2.42598E-01  5.44353E+00  3.51969E+00  9.73537E+00  3.93942E+00  4.89800E+00  7.99127E+00  1.37414E+00 -2.20941E+00 -1.12698E+00
  -6.25424E-01  3.18213E+00  1.31941E+00  6.72687E+00  6.34533E+00  3.40373E+00 -9.18891E-01 -3.07340E+00 -3.64622E+00 -2.62794E+00
  -5.96006E+00  7.42618E-01  1.14207E+00  5.82759E+00  9.22726E+00  1.11561E+01  1.88747E+01  1.27767E+01  6.37433E+00  8.83823E+00
   1.04410E+00 -3.69174E+00 -3.25529E+00 -1.71943E+00  1.77133E+00  5.61323E+00  4.11165E+00  1.23867E+01  8.64394E+00  1.20137E+01
   1.20973E+01  1.25260E+01  1.19406E+01  1.01614E+01  1.10907E+01  7.71872E+00  4.52412E+00  1.15807E+01  1.00416E+01  5.46032E+00
   7.40903E+00  6.40198E+00  5.11582E+00  7.63069E+00  7.59420E+00  1.43721E+01  1.77650E+01  1.65624E+01  1.47294E+01  1.76020E+01
   2.55108E+01  2.61632E+01  2.76034E+01  2.62114E+01  3.86266E+01  4.91798E+01  5.84936E+01  6.93346E+01  7.99487E+01  1.04499E+02
   1.21800E+02  1.20032E+02  9.87646E+01  7.81686E+01  5.32918E+01  3.47777E+01  2.39823E+01  1.62352E+01  1.06436E+01  1.53462E+01
   1.39644E+01  7.66569E+00  1.18345E+01  8.75442E+00  1.01168E+01  9.97181E+00  7.92448E+00  7.08878E+00  1.25375E+01  6.74864E+00
   8.18493E+00  5.37252E+00  8.28618E+00  7.32130E+00  7.20770E-01  6.40211E+00  7.70638E+00  9.37267E+00  6.33590E+00  8.00122E+00
   9.93816E+00  8.05603E+00  9.21874E+00  7.36181E+00  1.27432E+01  1.20624E+01  7.71157E+00  6.97255E+00  1.09155E+01  1.17958E+01
   1.29205E+01  1.28445E+01  1.42972E+01  7.33724E+00  1.26583E+01  1.41118E+01  1.42032E+01  1.53702E+01  1.66859E+01  1.60144E+01
   2.25492E+01  1.86648E+01  1.77961E+01  1.84375E+01  2.00418E+01  1.99387E+01  1.80480E+01  2.41792E+01  2.33281E+01  2.18313E+01
   2.19065E+01  2.27139E+01  2.48396E+01  2.33150E+01  2.20772E+01  2.37992E+01  2.40446E+01  2.50323E+01  2.42234E+01  2.62541E+01
   2.94564E+01  2.67371E+01  2.98031E+01  3.63587E+01  3.51358E+01  3.47126E+01  3.48160E+01  3.87880E+01  3.72531E+01  4.12747E+01
   3.71679E+01  3.77340E+01  3.91642E+01  4.13450E+01  4.23091E+01  4.31234E+01  4.11092E+01  4.16288E+01  4.18819E+01  4.08995E+01
   3.87446E+01  4.06489E+01  4.04852E+01  4.00320E+01  3.82886E+01  3.82334E+01  3.47806E+01  2.95693E+01  3.37109E+01  2.93174E+01
   3.52667E+01  2.82746E+01  2.61042E+01  2.72604E+01  2.80594E+01  2.28238E+01  2.44354E+01  2.03960E+01  2.25629E+01  1.39520E+01
   1.66136E+01  1.36760E+01  1.54464E+01  1.51698E+01  1.34118E+01  1.86326E+01  1.16495E+01  1.47161E+01  1.32081E+01  1.44918E+01
   1.29342E+01  1.24668E+01  1.38857E+01  1.48460E+01  1.09774E+01  1.59368E+01  1.34983E+01  1.17237E+01  1.07575E+01  1.28118E+01
   1.70119E+01  1.39832E+01  1.65318E+01  1.54635E+01  1.20943E+01  1.40045E+01  1.62213E+01  2.13374E+01  1.86912E+01  1.86353E+01
   1.58595E+01  1.46947E+01  1.97497E+01  1.25907E+01  1.75942E+01  1.61411E+01  1.92761E+01  1.76609E+01  2.12343E+01  1.91088E+01
   1.79969E+01  1.68031E+01  1.53016E+01  1.38326E+01  1.64501E+01  1.38052E+01  1.36095E+01  9.38289E+00  1.36328E+01  1.60842E+01
   1.13660E+01  1.37936E+01  1.24822E+01  1.07649E+01  1.52459E+01  8.29331E+00  1.09057E+01  5.52132E+00  9.97173E+00  1.08497E+01
   7.97525E+00  1.18968E+01  1.07286E+01  1.21510E+01  3.34470E+00  1.33142E+01  1.26490E+01  6.41031E+00  7.56112E+00  6.11853E+00
   8.98829E+00  8.87518E+00  5.24012E+00  9.34844E+00  1.20507E+01  5.44524E+00  8.96027E+00  7.18336E+00  8.98878E+00  7.68377E+00
   8.03917E+00  7.56412E+00  7.47050E+00  7.83152E+00  6.16756E+00  7.44146E+00  6.67322E+00  5.64527E+00  4.73666E+00  4.54100E+00
   5.42713E+00  4.95616E+00  6.43560E+00  6.16697E+00  6.30997E+00  3.32190E+00  5.26614E+00  8.71629E+00  7.05915E+00  6.85959E+00
   6.91000E+00  5.45021E+00  3.60875E+00  6.57728E+00  2.37570E+00  8.44264E+00  6.82071E+00  3.74706E+00  4.60503E+00  3.91406E+00
   6.51993E+00  6.76450E+00  5.16663E+00  4.87532E+00  5.74849E+00  4.61715E+00  7.15042E+00  4.98785E+00  1.94789E+00  1.00207E+00
   6.98508E+00  6.88211E+00  1.30485E+00  5.82961E+00  5.07036E+00  5.38012E+00  6.53566E+00  7.24114E+00
 NY points of the fit to the data follow
   4.53263E+01  4.53947E+01  4.65784E+01  4.92070E+01  5.30822E+01  5.80801E+01  6.38790E+01  7.04957E+01  7.77122E+01  8.44347E+01
   8.88551E+01  8.93357E+01  8.54312E+01  7.82052E+01  6.96187E+01  6.15261E+01  5.49570E+01  5.00903E+01  4.67778E+01  4.46139E+01
   4.31729E+01  4.20664E+01  4.11055E+01  4.06824E+01  4.07541E+01  4.10598E+01  4.16434E+01  4.28576E+01  4.49948E+01  4.78072E+01
   5.04969E+01  5.20567E+01  5.18098E+01  4.97812E+01  4.64273E+01  4.24989E+01  3.88402E+01  3.59753E+01  3.41910E+01  3.36563E+01
   3.40895E+01  3.49638E+01  3.58269E+01  3.64948E+01  3.69538E+01  3.72550E+01  3.74132E+01  3.72945E+01  3.67294E+01  3.56902E+01
   3.42616E+01  3.26630E+01  3.11727E+01  2.99403E+01  2.89835E+01  2.82975E+01  2.78317E+01  2.75061E+01  2.72471E+01  2.69994E+01
   2.66821E+01  2.62074E+01  2.55458E+01  2.47493E+01  2.39485E+01  2.32912E+01  2.28341E+01  2.25589E+01  2.24170E+01  2.23465E+01
   2.22859E+01  2.21823E+01  2.19861E+01  2.16752E+01  2.12639E+01  2.07973E+01  2.03301E+01  1.98995E+01  1.95250E+01  1.92207E+01
   1.89517E+01  1.86656E+01  1.83470E+01  1.80226E+01  1.77048E+01  1.73635E+01  1.69489E+01  1.64529E+01  1.59384E+01  1.55271E+01
   1.53061E+01  1.52818E+01  1.54164E+01  1.56790E+01  1.61446E+01  1.74438E+01  2.12121E+01  2.69788E+01  3.33469E+01  4.03258E+01
   4.87906E+01  5.90064E+01  6.92245E+01  7.58643E+01  7.57677E+01  6.85219E+01  5.66285E+01  4.37051E+01  3.25412E+01  2.42271E+01
   1.85236E+01  1.49177E+01  1.32418E+01  1.26446E+01  1.23660E+01  1.22282E+01  1.21953E+01  1.22849E+01  1.26062E+01  1.36989E+01
   1.74378E+01  2.39047E+01  3.13052E+01  3.92927E+01  4.87217E+01  6.01317E+01  7.20716E+01  8.07961E+01  8.23671E+01  7.56599E+01
   6.31038E+01  4.87576E+01  3.59491E+01  2.60449E+01  1.87489E+01  1.34671E+01  1.02382E+01  8.66035E+00  8.03987E+00  8.18006E+00
   8.80857E+00  9.54316E+00  1.00580E+01  1.01673E+01  9.83937E+00  9.21287E+00  8.47853E+00  7.76349E+00  7.12803E+00  6.58867E+00
   6.12951E+00  5.74109E+00  5.39727E+00  5.04171E+00  4.59590E+00  4.14789E+00  3.76160E+00  3.44440E+00  3.13063E+00  2.63327E+00
   2.01502E+00  1.54350E+00  1.43066E+00  1.62599E+00  1.82498E+00  1.69734E+00  1.12265E+00  2.32062E-01 -7.60916E-01 -1.76113E+00
  -2.62297E+00 -3.24443E+00 -3.73267E+00 -4.23403E+00 -4.82567E+00 -5.32146E+00 -5.46820E+00 -5.23606E+00 -4.89463E+00 -4.78138E+00
  -5.00988E+00 -5.26977E+00 -5.30640E+00 -5.08475E+00 -4.70488E+00 -4.21157E+00 -3.44859E+00 -2.23125E+00 -5.65697E-01  1.27618E+00
   2.82657E+00  3.62635E+00  3.61569E+00  3.00729E+00  2.09869E+00  1.13347E+00  3.76819E-01  1.44248E-01  5.80375E-01  1.70060E+00
   3.29710E+00  4.99239E+00  6.29806E+00  6.76632E+00  6.32697E+00  4.92873E+00  2.60989E+00 -1.58158E-01 -2.63303E+00 -3.95361E+00
  -3.84794E+00 -2.49627E+00 -8.83894E-02  3.10763E+00  6.52222E+00  9.17466E+00  1.01162E+01  9.06927E+00  6.37347E+00  2.65490E+00
  -1.16043E+00 -4.19364E+00 -5.67067E+00 -5.07292E+00 -2.59668E+00  1.00686E+00  4.72662E+00  7.71712E+00  9.52888E+00  1.01930E+01
   1.01320E+01  9.77667E+00  9.46564E+00  9.49940E+00  1.00114E+01  1.08707E+01  1.18411E+01  1.26663E+01  1.30712E+01  1.28752E+01
   1.20518E+01  1.09250E+01  1.00496E+01  9.89140E+00  1.06040E+01  1.20352E+01  1.38724E+01  1.56882E+01  1.71400E+01  1.81251E+01
   1.88072E+01  1.94915E+01  2.14905E+01  2.82151E+01  3.82071E+01  4.87194E+01  5.97641E+01  7.30232E+01  8.91248E+01  1.05120E+02
   1.14938E+02  1.13422E+02  1.00285E+02  8.00666E+01  5.88226E+01  4.09097E+01  2.77850E+01  1.87742E+01  1.29932E+01  1.03768E+01
   9.31524E+00  8.65156E+00  8.22898E+00  8.00495E+00  7.88519E+00  7.76805E+00  7.60297E+00  7.36572E+00  7.06937E+00  6.74914E+00
   6.44419E+00  6.18630E+00  6.00505E+00  5.91488E+00  5.90481E+00  5.95426E+00  6.04863E+00  6.18318E+00  6.36015E+00  6.58249E+00
   6.85251E+00  7.17470E+00  7.55024E+00  7.97839E+00  8.45708E+00  8.98264E+00  9.55007E+00  1.01527E+01  1.07835E+01  1.14357E+01
   1.21018E+01  1.27730E+01  1.34396E+01  1.40911E+01  1.47177E+01  1.53105E+01  1.58627E+01  1.63695E+01  1.68283E+01  1.72393E+01
   1.76060E+01  1.79341E+01  1.82321E+01  1.85103E+01  1.87809E+01  1.90584E+01  1.93591E+01  1.97008E+01  2.01034E+01  2.05947E+01
   2.12054E+01  2.18899E+01  2.26042E+01  2.33623E+01  2.41767E+01  2.50146E+01  2.57907E+01  2.64210E+01  2.69523E+01  2.75172E+01
   2.82116E+01  2.90965E+01  3.01985E+01  3.15174E+01  3.30140E+01  3.45880E+01  3.60872E+01  3.73495E+01  3.83059E+01  3.89951E+01
   3.94973E+01  3.98838E+01  4.01910E+01  4.04281E+01  4.06119E+01  4.07449E+01  4.08051E+01  4.07790E+01  4.06584E+01  4.04368E+01
   4.01091E+01  3.96712E+01  3.91199E+01  3.84540E+01  3.76746E+01  3.67853E+01  3.57922E+01  3.47037E+01  3.35304E+01  3.22852E+01
   3.09830E+01  2.96399E+01  2.82727E+01  2.68979E+01  2.55318E+01  2.41898E+01  2.28864E+01  2.16341E+01  2.04436E+01  1.93233E+01
   1.82799E+01  1.73181E+01  1.64414E+01  1.56512E+01  1.49478E+01  1.43300E+01  1.37963E+01  1.33446E+01  1.29728E+01  1.26781E+01
   1.24575E+01  1.23084E+01  1.22281E+01  1.22145E+01  1.22652E+01  1.23776E+01  1.25487E+01  1.27756E+01  1.30549E+01  1.33827E+01
   1.37542E+01  1.41633E+01  1.46034E+01  1.50665E+01  1.55441E+01  1.60267E+01  1.65038E+01  1.69643E+01  1.73972E+01  1.77915E+01
   1.81371E+01  1.84247E+01  1.86458E+01  1.87938E+01  1.88641E+01  1.88542E+01  1.87639E+01  1.85946E+01  1.83500E+01  1.80355E+01
   1.76581E+01  1.72263E+01  1.67491E+01  1.62360E+01  1.56964E+01  1.51397E+01  1.45748E+01  1.40101E+01  1.34527E+01  1.29087E+01
   1.23829E+01  1.18795E+01  1.14018E+01  1.09517E+01  1.05305E+01  1.01385E+01  9.77547E+00  9.44094E+00  9.13400E+00  8.85335E+00
   8.59732E+00  8.36421E+00  8.15236E+00  7.96026E+00  7.78632E+00  7.62887E+00  7.48625E+00  7.35702E+00  7.23996E+00  7.13401E+00
   7.03807E+00  6.95102E+00  6.87184E+00  6.79973E+00  6.73410E+00  6.67437E+00  6.61989E+00  6.56998E+00  6.52411E+00  6.48195E+00
   6.44324E+00  6.40768E+00  6.37484E+00  6.34433E+00  6.31594E+00  6.28959E+00  6.26518E+00  6.24252E+00  6.22131E+00  6.20135E+00
   6.18260E+00  6.16507E+00  6.14872E+00  6.13336E+00  6.11881E+00  6.10497E+00  6.09190E+00  6.07964E+00  6.06813E+00  6.05719E+00
   6.04671E+00  6.03671E+00  6.02728E+00  6.01844E+00  6.01011E+00  6.00213E+00  5.99447E+00  5.98720E+00  5.98042E+00  5.97410E+00
   5.96814E+00  5.96244E+00  5.95702E+00  5.95200E+00  5.94744E+00  5.94330E+00  5.93945E+00  5.93585E+00  5.93260E+00  5.92981E+00
   5.92751E+00  5.92560E+00  5.92402E+00  5.92278E+00  5.92202E+00  5.92184E+00  5.92223E+00  5.92309E+00
 NY background values follow
     4.229E+01    4.196E+01    4.163E+01    4.130E+01    4.097E+01    4.064E+01    4.031E+01    3.998E+01    3.965E+01    3.931E+01
     3.898E+01    3.865E+01    3.832E+01    3.799E+01    3.766E+01    3.733E+01    3.700E+01    3.667E+01    3.634E+01    3.601E+01
     3.568E+01    3.535E+01    3.502E+01    3.469E+01    3.436E+01    3.404E+01    3.371E+01    3.338E+01    3.305E+01    3.273E+01
     3.240E+01    3.208E+01    3.175E+01    3.143E+01    3.110E+01    3.078E+01    3.046E+01    3.013E+01    2.981E+01    2.949E+01
     2.917E+01    2.885E+01    2.853E+01    2.821E+01    2.790E+01    2.758E+01    2.726E+01    2.695E+01    2.663E+01    2.632E+01
     2.601E+01    2.570E+01    2.539E+01    2.508E+01    2.477E+01    2.446E+01    2.416E+01    2.385E+01    2.355E+01    2.324E+01
     2.294E+01    2.264E+01    2.234E+01    2.205E+01    2.175E+01    2.145E+01    2.116E+01    2.087E+01    2.058E+01    2.029E+01
     2.000E+01    1.971E+01    1.942E+01    1.914E+01    1.886E+01    1.858E+01    1.830E+01    1.802E+01    1.774E+01    1.747E+01
     1.720E+01    1.693E+01    1.666E+01    1.639E+01    1.612E+01    1.586E+01    1.560E+01    1.534E+01    1.508E+01    1.482E+01
     1.457E+01    1.431E+01    1.406E+01    1.381E+01    1.357E+01    1.332E+01    1.308E+01    1.284E+01    1.260E+01    1.236E+01
     1.213E+01    1.189E+01    1.166E+01    1.143E+01    1.120E+01    1.098E+01    1.075E+01    1.053E+01    1.031E+01    1.009E+01
     9.876E+00    9.660E+00    9.447E+00    9.235E+00    9.025E+00    8.817E+00    8.611E+00    8.406E+00    8.203E+00    8.001E+00
     7.802E+00    7.604E+00    7.407E+00    7.213E+00    7.020E+00    6.828E+00    6.639E+00    6.450E+00    6.264E+00    6.079E+00
     5.896E+00    5.714E+00    5.534E+00    5.355E+00    5.178E+00    5.003E+00    4.829E+00    4.656E+00    4.485E+00    4.316E+00
     4.148E+00    3.982E+00    3.818E+00    3.655E+00    3.494E+00    3.335E+00    3.177E+00    3.022E+00    2.868E+00    2.716E+00
     2.565E+00    2.417E+00    2.271E+00    2.126E+00    1.983E+00    1.843E+00    1.704E+00    1.567E+00    1.433E+00    1.300E+00
     1.170E+00    1.042E+00    9.155E-01    7.916E-01    6.698E-01    5.502E-01    4.329E-01    3.178E-01    2.050E-01    9.451E-02
    -1.363E-02   -1.194E-01   -2.228E-01   -3.238E-01   -4.224E-01   -5.185E-01   -6.121E-01   -7.032E-01   -7.918E-01   -8.779E-01
    -9.614E-01   -1.042E+00   -1.120E+00   -1.196E+00   -1.269E+00   -1.340E+00   -1.408E+00   -1.474E+00   -1.537E+00   -1.598E+00
    -1.657E+00   -1.713E+00   -1.767E+00   -1.818E+00   -1.868E+00   -1.915E+00   -1.960E+00   -2.003E+00   -2.044E+00   -2.083E+00
    -2.120E+00   -2.155E+00   -2.188E+00   -2.219E+00   -2.248E+00   -2.275E+00   -2.301E+00   -2.324E+00   -2.346E+00   -2.366E+00
    -2.385E+00   -2.401E+00   -2.416E+00   -2.430E+00   -2.442E+00   -2.452E+00   -2.461E+00   -2.469E+00   -2.475E+00   -2.479E+00
    -2.482E+00   -2.484E+00   -2.485E+00   -2.484E+00   -2.482E+00   -2.479E+00   -2.475E+00   -2.469E+00   -2.463E+00   -2.455E+00
    -2.446E+00   -2.436E+00   -2.425E+00   -2.413E+00   -2.400E+00   -2.386E+00   -2.371E+00   -2.355E+00   -2.337E+00   -2.319E+00
    -2.300E+00   -2.280E+00   -2.260E+00   -2.238E+00   -2.215E+00   -2.192E+00   -2.167E+00   -2.142E+00   -2.116E+00   -2.089E+00
    -2.061E+00   -2.033E+00   -2.004E+00   -1.974E+00   -1.943E+00   -1.912E+00   -1.880E+00   -1.847E+00   -1.813E+00   -1.779E+00
    -1.744E+00   -1.709E+00   -1.673E+00   -1.636E+00   -1.599E+00   -1.561E+00   -1.523E+00   -1.484E+00   -1.445E+00   -1.405E+00
    -1.365E+00   -1.324E+00   -1.282E+00   -1.241E+00   -1.199E+00   -1.156E+00   -1.113E+00   -1.070E+00   -1.026E+00   -9.815E-01
    -9.369E-01   -8.920E-01   -8.468E-01   -8.012E-01   -7.553E-01   -7.091E-01   -6.626E-01   -6.158E-01   -5.688E-01   -5.215E-01
    -4.739E-01   -4.261E-01   -3.781E-01   -3.299E-01   -2.814E-01   -2.328E-01   -1.840E-01   -1.351E-01   -8.597E-02   -3.672E-02
     1.266E-02    6.216E-02    1.118E-01    1.615E-01    2.112E-01    2.611E-01    3.110E-01    3.610E-01    4.109E-01    4.610E-01
     5.110E-01    5.610E-01    6.110E-01    6.610E-01    7.110E-01    7.609E-01    8.107E-01    8.605E-01    9.102E-01    9.598E-01
     1.009E+00    1.059E+00    1.108E+00    1.157E+00    1.207E+00    1.256E+00    1.305E+00    1.354E+00    1.403E+00    1.451E+00
     1.500E+00    1.549E+00    1.597E+00    1.645E+00    1.694E+00    1.742E+00    1.790E+00    1.838E+00    1.886E+00    1.933E+00
     1.981E+00    2.028E+00    2.076E+00    2.123E+00    2.170E+00    2.217E+00    2.264E+00    2.310E+00    2.357E+00    2.404E+00
     2.450E+00    2.496E+00    2.542E+00    2.588E+00    2.634E+00    2.679E+00    2.725E+00    2.770E+00    2.815E+00    2.860E+00
     2.905E+00    2.950E+00    2.995E+00    3.039E+00    3.083E+00    3.128E+00    3.171E+00    3.215E+00    3.259E+00    3.302E+00
     3.345E+00    3.388E+00    3.431E+00    3.474E+00    3.516E+00    3.558E+00    3.600E+00    3.642E+00    3.683E+00    3.724E+00
     3.765E+00    3.806E+00    3.847E+00    3.887E+00    3.927E+00    3.967E+00    4.006E+00    4.045E+00    4.084E+00    4.123E+00
     4.161E+00    4.199E+00    4.237E+00    4.274E+00    4.311E+00    4.348E+00    4.384E+00    4.420E+00    4.456E+00    4.492E+00
     4.527E+00    4.561E+00    4.596E+00    4.630E+00    4.664E+00    4.697E+00    4.730E+00    4.763E+00    4.795E+00    4.827E+00
     4.858E+00    4.889E+00    4.920E+00    4.950E+00    4.980E+00    5.009E+00    5.039E+00    5.067E+00    5.096E+00    5.123E+00
     5.151E+00    5.178E+00    5.204E+00    5.231E+00    5.256E+00    5.282E+00    5.307E+00    5.331E+00    5.355E+00    5.379E+00
     5.402E+00    5.425E+00    5.447E+00    5.469E+00    5.490E+00    5.511E+00    5.531E+00    5.551E+00    5.571E+00    5.590E+00
     5.608E+00    5.626E+00    5.644E+00    5.661E+00    5.678E+00    5.694E+00    5.709E+00    5.724E+00    5.739E+00    5.753E+00
     5.767E+00    5.780E+00    5.793E+00    5.805E+00    5.816E+00    5.828E+00    5.838E+00    5.848E+00    5.858E+00    5.868E+00
     5.876E+00    5.885E+00    5.893E+00    5.901E+00    5.908E+00    5.916E+00    5.922E+00    5.929E+00    5.935E+00    5.941E+00
     5.946E+00    5.952E+00    5.957E+00    5.962E+00    5.967E+00    5.971E+00    5.975E+00    5.980E+00    5.984E+00    5.987E+00
     5.991E+00    5.995E+00    5.998E+00    6.002E+00    6.005E+00    6.009E+00    6.012E+00    6.015E+00    6.018E+00    6.022E+00
     6.025E+00    6.028E+00    6.031E+00    6.035E+00    6.038E+00    6.042E+00    6.046E+00    6.049E+00
 Ala      Conc. = 1.20E+02
