 LCModel (Version 6.3-1L) Copyright: S.W. Provencher.          Ref.: Magn. Reson. Med. 30:672-679 (1993).                
 Slice#2 Row#6 Col#10  K_02_press_1_raw_act
 36 lines in following concentration table = NCONC+1
    Conc.  %SD /Cr+PCr  Metabolite                                         
   73.826 149% 3.5E-02 Ala                                                 
    0.000 999%   0.000 Asp                                                 
  226.716 110%   0.107 Cr                                                  
 1.89E+03  14%   0.893 PCr                                                 
    0.000 999%   0.000 GABA                                                
    0.000 999%   0.000 Glc                                                 
  663.420  34%   0.313 Gln                                                 
 2.04E+03  13%   0.965 Glu                                                 
  918.491   3%   0.434 GPC                                                 
    0.000 999%   0.000 PCh                                                 
  531.310  15%   0.251 GSH                                                 
 1.57E+03  18%   0.741 Ins                                                 
    0.000 999%   0.000 Lac                                                 
 3.29E+03   4%   1.555 NAA                                                 
  564.799  23%   0.267 NAAG                                                
  123.911  27% 5.9E-02 Scyllo                                              
    0.000 999%   0.000 Tau                                                 
  470.312  29%   0.222 -CrCH2                                              
  918.491   3%   0.434 GPC+PCh                                             
 3.86E+03   3%   1.821 NAA+NAAG                                            
 2.12E+03   4%   1.000 Cr+PCr                                              
 2.71E+03  13%   1.278 Glu+Gln                                             
    0.000 999%   0.000 Lip13a                                              
    0.000 999%   0.000 Lip13b                                              
    0.000 999%   0.000 Lip09                                               
 2.24E+03  15%   1.060 MM09                                                
    3.774 940% 1.8E-03 Lip20                                               
 4.50E+03  13%   2.124 MM20                                                
  519.098  49%   0.245 MM12                                                
  645.901  66%   0.305 MM14                                                
 2.40E+03  18%   1.133 MM17                                                
    0.000 999%   0.000 Lip13a+Lip13b                                       
 1.16E+03  47%   0.550 MM14+Lip13a+Lip13b+MM12                             
 2.24E+03  15%   1.060 MM09+Lip09                                          
 4.50E+03  13%   2.126 MM20+Lip20                                          
   6 lines in following misc. output table
  FWHM = 0.038 ppm    S/N =  17                                            
  Data shift = 0.008 ppm                                                   
  Ph: -29 deg      -8.8 deg/ppm                                            
  alphaB,S = 8.5E-01,   8.6E+01                                            
   14 spline knots.   Ns = 6(1)                                            
  ( 7) 3 infls.   ( 3) 1 extrs.                                            
  498 points on ppm-axis = NY
      4.000000     3.992357     3.984714     3.977070     3.969427     3.961784     3.954141     3.946497     3.938854     3.931211
      3.923568     3.915925     3.908281     3.900638     3.892995     3.885352     3.877708     3.870065     3.862422     3.854779
      3.847136     3.839492     3.831849     3.824206     3.816563     3.808919     3.801276     3.793633     3.785990     3.778347
      3.770703     3.763060     3.755417     3.747774     3.740130     3.732487     3.724844     3.717201     3.709558     3.701914
      3.694271     3.686628     3.678985     3.671341     3.663698     3.656055     3.648412     3.640769     3.633125     3.625482
      3.617839     3.610196     3.602552     3.594909     3.587266     3.579623     3.571980     3.564336     3.556693     3.549050
      3.541407     3.533763     3.526120     3.518477     3.510834     3.503191     3.495547     3.487904     3.480261     3.472618
      3.464974     3.457331     3.449688     3.442045     3.434402     3.426758     3.419115     3.411472     3.403829     3.396185
      3.388542     3.380899     3.373256     3.365613     3.357969     3.350326     3.342683     3.335040     3.327396     3.319753
      3.312110     3.304467     3.296824     3.289180     3.281537     3.273894     3.266251     3.258607     3.250964     3.243321
      3.235678     3.228034     3.220391     3.212748     3.205105     3.197462     3.189818     3.182175     3.174532     3.166889
      3.159245     3.151602     3.143959     3.136316     3.128673     3.121029     3.113386     3.105743     3.098100     3.090456
      3.082813     3.075170     3.067527     3.059884     3.052240     3.044597     3.036954     3.029311     3.021667     3.014024
      3.006381     2.998738     2.991095     2.983451     2.975808     2.968165     2.960522     2.952878     2.945235     2.937592
      2.929949     2.922306     2.914662     2.907019     2.899376     2.891733     2.884089     2.876446     2.868803     2.861160
      2.853517     2.845873     2.838230     2.830587     2.822944     2.815300     2.807657     2.800014     2.792371     2.784728
      2.777084     2.769441     2.761798     2.754155     2.746511     2.738868     2.731225     2.723582     2.715939     2.708295
      2.700652     2.693009     2.685366     2.677722     2.670079     2.662436     2.654793     2.647150     2.639506     2.631863
      2.624220     2.616577     2.608933     2.601290     2.593647     2.586004     2.578361     2.570717     2.563074     2.555431
      2.547788     2.540144     2.532501     2.524858     2.517215     2.509572     2.501928     2.494285     2.486642     2.478999
      2.471355     2.463712     2.456069     2.448426     2.440783     2.433139     2.425496     2.417853     2.410210     2.402566
      2.394923     2.387280     2.379637     2.371994     2.364350     2.356707     2.349064     2.341421     2.333777     2.326134
      2.318491     2.310848     2.303205     2.295561     2.287918     2.280275     2.272632     2.264988     2.257345     2.249702
      2.242059     2.234416     2.226772     2.219129     2.211486     2.203843     2.196199     2.188556     2.180913     2.173270
      2.165627     2.157983     2.150340     2.142697     2.135054     2.127410     2.119767     2.112124     2.104481     2.096838
      2.089194     2.081551     2.073908     2.066265     2.058621     2.050978     2.043335     2.035692     2.028049     2.020405
      2.012762     2.005119     1.997476     1.989833     1.982190     1.974546     1.966903     1.959260     1.951617     1.943974
      1.936331     1.928688     1.921045     1.913402     1.905759     1.898115     1.890472     1.882829     1.875186     1.867543
      1.859900     1.852257     1.844614     1.836971     1.829327     1.821684     1.814041     1.806398     1.798755     1.791112
      1.783469     1.775826     1.768183     1.760540     1.752896     1.745253     1.737610     1.729967     1.722324     1.714681
      1.707038     1.699395     1.691752     1.684108     1.676465     1.668822     1.661179     1.653536     1.645893     1.638250
      1.630607     1.622964     1.615321     1.607677     1.600034     1.592391     1.584748     1.577105     1.569462     1.561819
      1.554176     1.546533     1.538890     1.531246     1.523603     1.515960     1.508317     1.500674     1.493031     1.485388
      1.477745     1.470102     1.462458     1.454815     1.447172     1.439529     1.431886     1.424243     1.416600     1.408957
      1.401314     1.393671     1.386027     1.378384     1.370741     1.363098     1.355455     1.347812     1.340169     1.332526
      1.324883     1.317240     1.309596     1.301953     1.294310     1.286667     1.279024     1.271381     1.263738     1.256095
      1.248452     1.240808     1.233165     1.225522     1.217879     1.210236     1.202593     1.194950     1.187307     1.179664
      1.172021     1.164377     1.156734     1.149091     1.141448     1.133805     1.126162     1.118519     1.110876     1.103233
      1.095590     1.087946     1.080303     1.072660     1.065017     1.057374     1.049731     1.042088     1.034445     1.026802
      1.019158     1.011515     1.003872     0.996229     0.988586     0.980943     0.973300     0.965657     0.958014     0.950371
      0.942727     0.935084     0.927441     0.919798     0.912155     0.904512     0.896869     0.889226     0.881583     0.873940
      0.866296     0.858653     0.851010     0.843367     0.835724     0.828081     0.820438     0.812795     0.805152     0.797508
      0.789865     0.782222     0.774579     0.766936     0.759293     0.751650     0.744007     0.736364     0.728721     0.721077
      0.713434     0.705791     0.698148     0.690505     0.682862     0.675219     0.667576     0.659933     0.652290     0.644646
      0.637003     0.629360     0.621717     0.614074     0.606431     0.598788     0.591145     0.583502     0.575858     0.568215
      0.560572     0.552929     0.545286     0.537643     0.530000     0.522357     0.514714     0.507071     0.499427     0.491784
      0.484141     0.476498     0.468855     0.461212     0.453569     0.445925     0.438282     0.430639     0.422996     0.415353
      0.407710     0.400067     0.392424     0.384780     0.377137     0.369494     0.361851     0.354208     0.346565     0.338922
      0.331278     0.323635     0.315992     0.308349     0.300706     0.293063     0.285420     0.277777     0.270133     0.262490
      0.254847     0.247204     0.239561     0.231918     0.224275     0.216631     0.208988     0.201345
 NY phased data points follow
  -1.19838E+01 -8.45223E+00 -1.41389E+01 -9.57776E+00 -5.99910E+00  2.51823E+00  9.00122E+00  1.32514E+01  2.35145E+01  3.24480E+01
   3.99306E+01  3.08138E+01  2.44632E+01  1.47740E+01  3.36078E+00 -1.35557E+00 -1.14194E+01 -9.91990E+00 -5.70324E+00 -9.23586E+00
  -4.31975E+00 -8.98251E+00 -8.53885E+00 -7.71829E+00 -5.39242E+00 -3.62608E+00 -2.94055E+00 -1.94579E+00 -1.08838E+00  4.72367E-01
   2.92824E+00  5.57020E+00  6.41488E+00  1.74135E+00 -2.51331E+00 -3.35242E+00 -6.24024E+00 -4.03000E+00 -4.03205E+00  1.47781E+00
  -5.31922E-01  1.07973E+00  3.58144E+00 -6.12282E-01  6.61595E+00  6.27933E+00  1.58363E+01  1.55748E+01  1.18476E+01  1.14846E+01
   5.85682E+00 -1.12499E+00  2.32403E+00 -8.21682E-01  2.69991E+00  2.87127E+00  2.65127E+00  3.42304E+00 -2.30566E+00 -1.17180E+00
  -5.70107E+00 -1.16976E+01 -7.92741E+00 -1.48827E+01 -1.35174E+01 -1.55084E+01 -1.67768E+01 -1.31443E+01 -1.41138E+01 -1.42386E+01
  -1.32307E+01 -7.20235E+00 -1.05986E+01 -8.76552E+00 -5.89870E+00 -6.16669E+00 -6.38259E+00 -5.37747E+00 -9.77914E+00 -9.30717E+00
  -8.66234E+00 -6.35656E+00 -4.24139E+00 -7.44321E+00 -7.50130E+00 -9.51419E+00 -2.98286E+00 -1.33671E+00  1.05959E+00 -3.94250E+00
  -7.67181E-01  9.99409E-01 -1.43749E+00  4.31595E+00  4.75831E+00  8.50631E+00  1.10692E+01  1.28840E+01  1.81875E+01  3.10407E+01
   4.64058E+01  7.08495E+01  8.79073E+01  9.70855E+01  8.32018E+01  6.06327E+01  3.94609E+01  2.30165E+01  8.20321E+00  4.81152E+00
   5.17172E-01  3.20923E-02  1.17309E+00 -3.37334E+00 -7.87915E-01 -1.75300E+00  5.71445E-01 -7.50980E+00  6.91914E-01  1.45437E+00
   8.71503E+00  4.52386E+00  9.58298E+00  1.68735E+01  3.33343E+01  5.53424E+01  7.15355E+01  8.02976E+01  7.96805E+01  6.23530E+01
   4.67722E+01  2.83539E+01  1.64791E+01  5.65720E+00  8.62118E+00  1.69255E+00 -4.44507E-01 -1.93326E+00 -6.06335E+00  3.10836E+00
   1.03766E+00  2.41104E+00  3.74467E+00 -7.52659E+00 -2.17320E+00  5.90432E-01  1.52152E+00  2.40897E+00 -1.35628E+00  1.83141E+00
  -1.83125E+00 -3.39192E+00 -2.42106E+00 -7.72964E+00 -4.64110E-01 -4.17501E-01 -1.98168E+00  9.82779E-01  5.38641E+00 -7.19320E-01
   1.18273E+00 -3.66134E+00 -8.83017E+00 -4.70833E+00 -4.26861E+00  1.05471E+00  6.23211E-01 -7.63007E+00 -1.19059E+01 -1.47667E+01
  -1.58019E+01 -2.18605E+01 -1.45459E+01 -2.19625E+01 -2.14358E+01 -2.54130E+01 -2.39302E+01 -2.34979E+01 -1.78866E+01 -1.91292E+01
  -1.52341E+01 -1.54462E+01 -1.54650E+01 -1.68970E+01 -1.92356E+01 -1.46926E+01 -1.86592E+01 -1.67533E+01 -1.12627E+01  7.73311E-01
  -3.70395E-01  2.17237E+00  2.21885E+00 -2.75860E+00  4.12619E+00  1.46256E+00 -2.08095E+00 -4.30189E+00 -1.07567E+01 -1.15991E+01
  -5.98784E+00 -9.66447E+00  2.92270E+00  4.50185E-01 -3.63478E+00  2.41445E+00  2.90342E+00 -3.93809E+00 -7.07102E+00 -9.06400E+00
  -4.45063E+00 -3.21583E+00  9.63351E-01  5.73508E+00  8.43229E+00  1.47824E+01  2.33945E+01  1.82910E+01  1.26819E+01  5.03737E+00
   6.06352E-01 -9.59847E+00 -9.56439E+00 -5.17096E+00 -3.17916E+00  1.02141E+01  7.72871E+00  1.19127E+01  1.42661E+01  1.46756E+01
   1.65371E+01  1.26731E+01  1.43941E+01  1.52699E+01  1.13858E+01  7.54471E+00  5.12262E+00  1.49680E+01  1.28854E+01  9.98482E+00
   5.34791E+00 -1.48874E-01  4.83405E-01 -1.38734E+00  4.19253E+00  1.15974E+01  1.26823E+01  1.92038E+01  1.58427E+01  2.13982E+01
   2.22431E+01  2.82574E+01  2.98112E+01  3.61792E+01  5.00110E+01  6.31195E+01  6.68859E+01  7.85827E+01  1.01329E+02  1.33030E+02
   1.57252E+02  1.57533E+02  1.33932E+02  9.94444E+01  6.09969E+01  3.51878E+01  2.00902E+01  1.89993E+01  9.86480E+00  1.46837E+01
   1.32237E+01  1.13099E+01  8.72638E+00  1.37166E+01  1.28928E+01  9.89054E+00  1.42667E+01  1.34705E+01  8.06352E+00  1.42357E+01
   9.87416E+00  1.04374E+01  9.83901E+00  5.31741E+00  6.56785E+00  8.25012E+00  4.49427E+00  5.66170E+00  9.53229E+00  9.53065E+00
   1.08741E+01  1.08540E+01  1.07602E+01  9.06155E+00  1.49209E+01  1.37114E+01  1.35124E+01  1.51341E+01  6.57573E+00  1.12169E+01
   9.20554E+00  1.09905E+01  1.26573E+01  1.11978E+01  1.77302E+01  1.55896E+01  1.93939E+01  1.68154E+01  2.08653E+01  1.54157E+01
   1.89532E+01  1.84772E+01  2.09158E+01  1.66827E+01  1.86395E+01  1.66866E+01  1.69714E+01  1.72933E+01  2.62532E+01  1.98699E+01
   1.72755E+01  1.76075E+01  1.88186E+01  1.93783E+01  1.99815E+01  1.58159E+01  1.01979E+01  1.70197E+01  1.55746E+01  9.92039E+00
   9.40145E+00  9.83891E+00  9.38376E+00  1.20424E+01  1.41278E+01  1.78327E+01  1.55910E+01  9.28830E+00  8.13459E+00  9.39233E+00
   8.34259E+00  2.86820E+00  2.25524E+00  9.86392E+00  1.12458E+01  1.10799E+01  1.08570E+01  1.00011E+01  5.23364E+00  8.06167E+00
   1.14349E+01  9.45900E+00  5.51690E+00  9.13223E+00  1.30910E+01  7.50305E+00  7.14294E+00  9.51045E+00  9.49364E+00  7.57756E+00
   7.69988E+00  1.04474E+01  1.10847E+01  1.14484E+01  1.54784E+01  1.65280E+01  1.26321E+01  1.04165E+01  9.51866E+00  1.01121E+01
   6.87039E+00  7.08195E+00  1.14176E+01  1.24609E+01  5.03427E+00  9.36093E+00  7.51846E+00  8.98751E+00  9.72202E+00  6.81841E+00
   1.11914E+01  1.09515E+01  1.50931E+01  1.08503E+01  1.77481E+01  1.50461E+01  1.62844E+01  1.55905E+01  1.61453E+01  1.02572E+01
   1.25960E+01  1.62699E+01  1.43926E+01  1.99581E+01  1.12402E+01  1.74222E+01  1.67156E+01  1.90949E+01  2.21898E+01  2.09106E+01
   2.09291E+01  2.31885E+01  1.52637E+01  2.29808E+01  1.93008E+01  2.48189E+01  2.21169E+01  2.76644E+01  2.58686E+01  2.68579E+01
   2.58442E+01  2.24768E+01  2.61905E+01  2.19586E+01  2.41130E+01  2.33815E+01  2.11076E+01  2.37762E+01  1.90719E+01  1.62837E+01
   2.20147E+01  1.75513E+01  1.38672E+01  1.17000E+01  1.83495E+01  1.52801E+01  1.65394E+01  1.36906E+01  6.88044E+00  1.22235E+01
   1.45175E+01  1.39008E+01  1.78872E+01  1.34321E+01  1.14060E+01  1.22877E+01  1.10265E+01  1.64197E+01  1.07589E+01  1.25461E+01
   1.25235E+01  1.34287E+01  1.26269E+01  1.28936E+01  1.34171E+01  1.54172E+01  1.22537E+01  9.40888E+00  1.08334E+01  6.42614E+00
   1.00542E+01  1.53253E+01  1.02215E+01  1.10228E+01  1.45745E+01  1.02786E+01  1.56481E+01  9.56135E+00  1.31929E+01  1.04487E+01
   1.10962E+01  9.88182E+00  1.40883E+01  9.01951E+00  6.54583E+00  9.53622E+00  1.36594E+01  7.38481E+00  1.25302E+01  1.20032E+01
   8.79939E+00  9.60957E+00  9.24781E+00  9.68895E+00  1.17282E+01  7.32758E+00  9.53298E+00  8.93230E+00  1.05235E+01  8.09163E+00
   9.93607E+00  1.51704E+01  8.01600E+00  1.01919E+01  9.98029E+00  1.15614E+01  1.13743E+01  9.32490E+00  7.17299E+00  8.41902E+00
   1.04333E+01  1.03387E+01  1.10346E+01  1.17205E+01  1.06013E+01  9.82051E+00  1.17594E+01  8.24192E+00
 NY points of the fit to the data follow
  -1.14242E+01 -1.12609E+01 -1.04165E+01 -7.67565E+00 -3.45230E+00  9.14682E-01  6.83248E+00  1.54328E+01  2.54860E+01  3.34858E+01
   3.59061E+01  3.16958E+01  2.29523E+01  1.32075E+01  5.31959E+00  3.73798E-01 -2.29474E+00 -3.76966E+00 -4.72562E+00 -5.47252E+00
  -6.04483E+00 -6.47598E+00 -7.06847E+00 -7.43234E+00 -7.05871E+00 -6.77621E+00 -6.33211E+00 -4.67189E+00 -1.29593E+00  3.06038E+00
   6.85276E+00  8.98346E+00  8.98726E+00  6.96918E+00  3.68567E+00  4.53977E-02 -3.18746E+00 -5.58986E+00 -7.02234E+00 -7.26426E+00
  -6.10056E+00 -3.97272E+00 -1.76708E+00  2.73647E-01  2.62718E+00  5.46956E+00  8.08672E+00  9.21675E+00  8.11642E+00  5.06087E+00
   1.10735E+00 -2.56957E+00 -5.12360E+00 -6.28171E+00 -6.45117E+00 -6.04516E+00 -5.31227E+00 -4.35144E+00 -3.26879E+00 -2.41400E+00
  -2.21075E+00 -2.86266E+00 -4.25285E+00 -5.89269E+00 -7.22834E+00 -7.78572E+00 -7.54324E+00 -6.82114E+00 -5.90737E+00 -4.98644E+00
  -4.20428E+00 -3.72534E+00 -3.65490E+00 -3.96901E+00 -4.50353E+00 -5.04704E+00 -5.45413E+00 -5.67225E+00 -5.74899E+00 -5.74885E+00
  -5.70305E+00 -5.34421E+00 -4.93859E+00 -4.65468E+00 -4.08021E+00 -3.07147E+00 -2.01396E+00 -1.49582E+00 -1.86064E+00 -2.90516E+00
  -3.98201E+00 -4.65641E+00 -4.72284E+00 -4.23620E+00 -3.42368E+00 -1.97477E+00  2.38526E+00  1.00505E+01  1.79478E+01  2.95090E+01
   4.84869E+01  7.18928E+01  9.06549E+01  9.57995E+01  8.48271E+01  6.30772E+01  3.91731E+01  1.98479E+01  7.71160E+00  1.44465E+00
  -1.49218E+00 -2.63314E+00 -3.07520E+00 -3.26360E+00 -3.33927E+00 -3.33389E+00 -3.26031E+00 -3.12121E+00 -2.85937E+00 -2.26746E+00
  -2.89320E-01  5.65151E+00  1.28132E+01  2.05184E+01  3.30696E+01  5.15322E+01  7.05706E+01  8.18042E+01  7.96236E+01  6.52516E+01
   4.54829E+01  2.73367E+01  1.45538E+01  7.12125E+00  2.63209E+00 -4.13752E-01 -2.45891E+00 -3.56157E+00 -3.54192E+00 -2.57006E+00
  -1.21305E+00 -1.07187E-01  3.68501E-01  1.64422E-01 -5.02886E-01 -1.30547E+00 -2.00664E+00 -2.52785E+00 -2.93866E+00 -3.29618E+00
  -3.62447E+00 -3.97553E+00 -4.33219E+00 -4.61962E+00 -4.79097E+00 -4.95773E+00 -4.95896E+00 -4.88644E+00 -5.14080E+00 -5.84345E+00
  -7.00119E+00 -7.97476E+00 -7.99804E+00 -7.12002E+00 -6.09881E+00 -5.71283E+00 -6.32581E+00 -7.64903E+00 -9.03435E+00 -1.00582E+01
  -1.06573E+01 -1.09119E+01 -1.09723E+01 -1.13936E+01 -1.22833E+01 -1.32503E+01 -1.34796E+01 -1.26579E+01 -1.14686E+01 -1.08119E+01
  -1.09016E+01 -1.13919E+01 -1.14764E+01 -1.09026E+01 -1.01879E+01 -9.56522E+00 -8.66884E+00 -7.07211E+00 -4.57450E+00 -1.61749E+00
   8.77223E-01  2.19193E+00  1.90567E+00  6.14623E-01 -8.94361E-01 -2.16622E+00 -2.98968E+00 -3.12401E+00 -2.30200E+00 -8.56931E-01
   9.42880E-01  2.86394E+00  4.61199E+00  5.73936E+00  5.64127E+00  4.27510E+00  1.51430E+00 -2.38227E+00 -6.06038E+00 -8.27884E+00
  -8.34195E+00 -6.77050E+00 -3.99132E+00  2.27786E-01  5.44758E+00  1.00448E+01  1.19645E+01  1.03525E+01  6.02918E+00  3.38609E-01
  -5.62427E+00 -1.03213E+01 -1.21863E+01 -1.05321E+01 -5.93094E+00 -1.15327E-01  5.14100E+00  8.82468E+00  1.05061E+01  1.03767E+01
   9.29199E+00  8.28916E+00  7.90697E+00  8.29441E+00  9.43648E+00  1.10588E+01  1.26056E+01  1.34723E+01  1.34259E+01  1.24412E+01
   1.07337E+01  8.88055E+00  7.88690E+00  8.42366E+00  1.03765E+01  1.30443E+01  1.56092E+01  1.75235E+01  1.86253E+01  1.96297E+01
   2.11201E+01  2.27881E+01  2.57459E+01  3.17240E+01  4.46927E+01  6.07953E+01  7.16904E+01  8.44554E+01  1.06502E+02  1.34149E+02
   1.54370E+02  1.54978E+02  1.33767E+02  9.98192E+01  6.57095E+01  4.00529E+01  2.51681E+01  1.78540E+01  1.43456E+01  1.28309E+01
   1.19022E+01  1.12801E+01  1.09536E+01  1.08445E+01  1.07563E+01  1.05284E+01  1.01362E+01  9.64627E+00  9.12701E+00  8.65691E+00
   8.29620E+00  8.06515E+00  7.94551E+00  7.89148E+00  7.84815E+00  7.79440E+00  7.73382E+00  7.67822E+00  7.66181E+00  7.72325E+00
   7.88895E+00  8.16078E+00  8.50987E+00  8.90140E+00  9.32049E+00  9.75574E+00  1.02083E+01  1.06950E+01  1.12365E+01  1.18470E+01
   1.25284E+01  1.32647E+01  1.40310E+01  1.48008E+01  1.55505E+01  1.62621E+01  1.69218E+01  1.75162E+01  1.80352E+01  1.84693E+01
   1.88097E+01  1.90482E+01  1.91795E+01  1.92024E+01  1.91213E+01  1.89444E+01  1.86822E+01  1.83471E+01  1.79547E+01  1.75251E+01
   1.70880E+01  1.66726E+01  1.62268E+01  1.57671E+01  1.53573E+01  1.49536E+01  1.44369E+01  1.37213E+01  1.28396E+01  1.19880E+01
   1.13166E+01  1.08412E+01  1.06009E+01  1.06283E+01  1.08798E+01  1.12321E+01  1.15145E+01  1.16022E+01  1.14835E+01  1.12291E+01
   1.09346E+01  1.06713E+01  1.04579E+01  1.02872E+01  1.01512E+01  1.00393E+01  9.94650E+00  9.87131E+00  9.81363E+00  9.77320E+00
   9.74936E+00  9.74090E+00  9.74709E+00  9.76729E+00  9.80081E+00  9.84591E+00  9.90033E+00  9.96153E+00  1.00276E+01  1.00968E+01
   1.01674E+01  1.02368E+01  1.03029E+01  1.03638E+01  1.04187E+01  1.04672E+01  1.05091E+01  1.05437E+01  1.05715E+01  1.05933E+01
   1.06111E+01  1.06269E+01  1.06428E+01  1.06605E+01  1.06826E+01  1.07120E+01  1.07522E+01  1.08063E+01  1.08772E+01  1.09675E+01
   1.10806E+01  1.12202E+01  1.13900E+01  1.15932E+01  1.18331E+01  1.21125E+01  1.24352E+01  1.28044E+01  1.32230E+01  1.36929E+01
   1.42149E+01  1.47893E+01  1.54152E+01  1.60905E+01  1.68106E+01  1.75686E+01  1.83560E+01  1.91618E+01  1.99741E+01  2.07782E+01
   2.15583E+01  2.22969E+01  2.29770E+01  2.35819E+01  2.40965E+01  2.45071E+01  2.48022E+01  2.49734E+01  2.50165E+01  2.49310E+01
   2.47204E+01  2.43914E+01  2.39537E+01  2.34200E+01  2.28055E+01  2.21269E+01  2.14012E+01  2.06449E+01  1.98740E+01  1.91032E+01
   1.83459E+01  1.76134E+01  1.69145E+01  1.62557E+01  1.56415E+01  1.50747E+01  1.45567E+01  1.40874E+01  1.36652E+01  1.32872E+01
   1.29508E+01  1.26529E+01  1.23905E+01  1.21599E+01  1.19576E+01  1.17801E+01  1.16247E+01  1.14890E+01  1.13707E+01  1.12674E+01
   1.11770E+01  1.10978E+01  1.10284E+01  1.09679E+01  1.09152E+01  1.08691E+01  1.08286E+01  1.07929E+01  1.07619E+01  1.07349E+01
   1.07116E+01  1.06912E+01  1.06733E+01  1.06576E+01  1.06443E+01  1.06331E+01  1.06236E+01  1.06155E+01  1.06085E+01  1.06028E+01
   1.05984E+01  1.05952E+01  1.05928E+01  1.05910E+01  1.05899E+01  1.05896E+01  1.05902E+01  1.05914E+01  1.05929E+01  1.05947E+01
   1.05970E+01  1.05999E+01  1.06034E+01  1.06072E+01  1.06111E+01  1.06153E+01  1.06198E+01  1.06249E+01  1.06304E+01  1.06360E+01
   1.06417E+01  1.06476E+01  1.06539E+01  1.06607E+01  1.06678E+01  1.06749E+01  1.06821E+01  1.06897E+01  1.06977E+01  1.07062E+01
   1.07148E+01  1.07235E+01  1.07325E+01  1.07419E+01  1.07519E+01  1.07622E+01  1.07727E+01  1.07834E+01
 NY background values follow
    -1.556E+01   -1.546E+01   -1.537E+01   -1.528E+01   -1.518E+01   -1.509E+01   -1.499E+01   -1.490E+01   -1.481E+01   -1.471E+01
    -1.462E+01   -1.453E+01   -1.443E+01   -1.434E+01   -1.425E+01   -1.415E+01   -1.406E+01   -1.397E+01   -1.388E+01   -1.378E+01
    -1.369E+01   -1.360E+01   -1.351E+01   -1.341E+01   -1.332E+01   -1.323E+01   -1.314E+01   -1.305E+01   -1.296E+01   -1.287E+01
    -1.278E+01   -1.269E+01   -1.260E+01   -1.251E+01   -1.242E+01   -1.233E+01   -1.224E+01   -1.215E+01   -1.207E+01   -1.198E+01
    -1.189E+01   -1.181E+01   -1.172E+01   -1.163E+01   -1.155E+01   -1.146E+01   -1.138E+01   -1.130E+01   -1.121E+01   -1.113E+01
    -1.105E+01   -1.096E+01   -1.088E+01   -1.080E+01   -1.072E+01   -1.064E+01   -1.056E+01   -1.048E+01   -1.040E+01   -1.033E+01
    -1.025E+01   -1.017E+01   -1.009E+01   -1.002E+01   -9.943E+00   -9.868E+00   -9.794E+00   -9.720E+00   -9.647E+00   -9.574E+00
    -9.502E+00   -9.430E+00   -9.359E+00   -9.289E+00   -9.219E+00   -9.149E+00   -9.080E+00   -9.012E+00   -8.944E+00   -8.877E+00
    -8.811E+00   -8.745E+00   -8.680E+00   -8.615E+00   -8.551E+00   -8.487E+00   -8.425E+00   -8.362E+00   -8.301E+00   -8.240E+00
    -8.179E+00   -8.120E+00   -8.060E+00   -8.002E+00   -7.944E+00   -7.887E+00   -7.831E+00   -7.775E+00   -7.720E+00   -7.666E+00
    -7.612E+00   -7.559E+00   -7.507E+00   -7.456E+00   -7.405E+00   -7.355E+00   -7.306E+00   -7.258E+00   -7.210E+00   -7.164E+00
    -7.118E+00   -7.073E+00   -7.029E+00   -6.985E+00   -6.943E+00   -6.901E+00   -6.861E+00   -6.821E+00   -6.782E+00   -6.744E+00
    -6.707E+00   -6.671E+00   -6.636E+00   -6.602E+00   -6.568E+00   -6.536E+00   -6.505E+00   -6.474E+00   -6.445E+00   -6.417E+00
    -6.390E+00   -6.363E+00   -6.338E+00   -6.314E+00   -6.291E+00   -6.269E+00   -6.248E+00   -6.228E+00   -6.210E+00   -6.192E+00
    -6.175E+00   -6.158E+00   -6.143E+00   -6.128E+00   -6.114E+00   -6.100E+00   -6.087E+00   -6.074E+00   -6.062E+00   -6.050E+00
    -6.038E+00   -6.026E+00   -6.015E+00   -6.003E+00   -5.991E+00   -5.980E+00   -5.968E+00   -5.956E+00   -5.943E+00   -5.931E+00
    -5.917E+00   -5.904E+00   -5.890E+00   -5.875E+00   -5.859E+00   -5.843E+00   -5.826E+00   -5.808E+00   -5.789E+00   -5.769E+00
    -5.748E+00   -5.726E+00   -5.703E+00   -5.679E+00   -5.653E+00   -5.626E+00   -5.597E+00   -5.567E+00   -5.535E+00   -5.502E+00
    -5.467E+00   -5.430E+00   -5.391E+00   -5.351E+00   -5.309E+00   -5.265E+00   -5.220E+00   -5.172E+00   -5.124E+00   -5.074E+00
    -5.022E+00   -4.969E+00   -4.915E+00   -4.859E+00   -4.802E+00   -4.743E+00   -4.683E+00   -4.623E+00   -4.561E+00   -4.497E+00
    -4.433E+00   -4.368E+00   -4.302E+00   -4.235E+00   -4.167E+00   -4.098E+00   -4.028E+00   -3.957E+00   -3.886E+00   -3.814E+00
    -3.741E+00   -3.668E+00   -3.594E+00   -3.520E+00   -3.445E+00   -3.370E+00   -3.294E+00   -3.218E+00   -3.141E+00   -3.064E+00
    -2.987E+00   -2.910E+00   -2.833E+00   -2.755E+00   -2.677E+00   -2.600E+00   -2.522E+00   -2.444E+00   -2.366E+00   -2.289E+00
    -2.211E+00   -2.134E+00   -2.056E+00   -1.979E+00   -1.901E+00   -1.824E+00   -1.747E+00   -1.670E+00   -1.592E+00   -1.515E+00
    -1.438E+00   -1.362E+00   -1.285E+00   -1.208E+00   -1.132E+00   -1.055E+00   -9.792E-01   -9.031E-01   -8.271E-01   -7.512E-01
    -6.755E-01   -5.999E-01   -5.245E-01   -4.492E-01   -3.741E-01   -2.991E-01   -2.244E-01   -1.497E-01   -7.533E-02   -1.094E-03
     7.295E-02    1.468E-01    2.204E-01    2.939E-01    3.671E-01    4.401E-01    5.129E-01    5.855E-01    6.578E-01    7.299E-01
     8.018E-01    8.734E-01    9.448E-01    1.016E+00    1.087E+00    1.157E+00    1.228E+00    1.298E+00    1.368E+00    1.437E+00
     1.506E+00    1.575E+00    1.644E+00    1.712E+00    1.780E+00    1.848E+00    1.915E+00    1.982E+00    2.049E+00    2.115E+00
     2.182E+00    2.247E+00    2.313E+00    2.378E+00    2.443E+00    2.507E+00    2.571E+00    2.635E+00    2.698E+00    2.761E+00
     2.823E+00    2.886E+00    2.947E+00    3.009E+00    3.070E+00    3.130E+00    3.190E+00    3.250E+00    3.310E+00    3.369E+00
     3.427E+00    3.485E+00    3.543E+00    3.600E+00    3.657E+00    3.713E+00    3.769E+00    3.825E+00    3.880E+00    3.934E+00
     3.988E+00    4.042E+00    4.096E+00    4.149E+00    4.201E+00    4.253E+00    4.305E+00    4.357E+00    4.408E+00    4.459E+00
     4.510E+00    4.560E+00    4.610E+00    4.660E+00    4.709E+00    4.759E+00    4.808E+00    4.857E+00    4.905E+00    4.954E+00
     5.002E+00    5.050E+00    5.098E+00    5.146E+00    5.193E+00    5.241E+00    5.288E+00    5.336E+00    5.383E+00    5.430E+00
     5.477E+00    5.524E+00    5.571E+00    5.618E+00    5.665E+00    5.712E+00    5.759E+00    5.806E+00    5.853E+00    5.900E+00
     5.948E+00    5.995E+00    6.042E+00    6.090E+00    6.137E+00    6.185E+00    6.232E+00    6.280E+00    6.327E+00    6.375E+00
     6.423E+00    6.471E+00    6.518E+00    6.566E+00    6.614E+00    6.662E+00    6.709E+00    6.757E+00    6.805E+00    6.852E+00
     6.900E+00    6.947E+00    6.995E+00    7.042E+00    7.089E+00    7.136E+00    7.183E+00    7.230E+00    7.277E+00    7.324E+00
     7.370E+00    7.417E+00    7.463E+00    7.509E+00    7.555E+00    7.600E+00    7.646E+00    7.691E+00    7.736E+00    7.781E+00
     7.826E+00    7.870E+00    7.915E+00    7.959E+00    8.002E+00    8.046E+00    8.089E+00    8.132E+00    8.174E+00    8.217E+00
     8.259E+00    8.301E+00    8.342E+00    8.383E+00    8.424E+00    8.464E+00    8.505E+00    8.544E+00    8.584E+00    8.623E+00
     8.662E+00    8.700E+00    8.738E+00    8.776E+00    8.813E+00    8.850E+00    8.887E+00    8.923E+00    8.959E+00    8.994E+00
     9.029E+00    9.064E+00    9.098E+00    9.132E+00    9.166E+00    9.198E+00    9.231E+00    9.263E+00    9.295E+00    9.326E+00
     9.357E+00    9.387E+00    9.417E+00    9.446E+00    9.475E+00    9.504E+00    9.532E+00    9.559E+00    9.586E+00    9.612E+00
     9.638E+00    9.664E+00    9.689E+00    9.713E+00    9.737E+00    9.761E+00    9.784E+00    9.806E+00    9.828E+00    9.850E+00
     9.871E+00    9.892E+00    9.912E+00    9.932E+00    9.952E+00    9.972E+00    9.991E+00    1.001E+01    1.003E+01    1.005E+01
     1.006E+01    1.008E+01    1.010E+01    1.012E+01    1.013E+01    1.015E+01    1.017E+01    1.018E+01    1.020E+01    1.021E+01
     1.023E+01    1.025E+01    1.026E+01    1.028E+01    1.029E+01    1.031E+01    1.032E+01    1.034E+01    1.035E+01    1.037E+01
     1.039E+01    1.040E+01    1.042E+01    1.043E+01    1.045E+01    1.046E+01    1.048E+01    1.049E+01
 Ala      Conc. = 7.38E+01
