 LCModel (Version 6.3-1L) Copyright: S.W. Provencher.          Ref.: Magn. Reson. Med. 30:672-679 (1993).                
 Slice#3 Row#4 Col#6  K_02_press_1_raw_act
 36 lines in following concentration table = NCONC+1
    Conc.  %SD /Cr+PCr  Metabolite                                         
  289.947  51%   0.112 Ala                                                 
    0.000 999%   0.000 Asp                                                 
 1.54E+03  19%   0.594 Cr                                                  
 1.06E+03  27%   0.406 PCr                                                 
    0.000 999%   0.000 GABA                                                
    0.000 999%   0.000 Glc                                                 
 1.23E+03  25%   0.475 Gln                                                 
 2.22E+03  16%   0.854 Glu                                                 
  813.094   3%   0.313 GPC                                                 
    0.000 999%   0.000 PCh                                                 
  859.470  10%   0.331 GSH                                                 
 1.05E+03  28%   0.403 Ins                                                 
  214.361  78% 8.2E-02 Lac                                                 
 2.99E+03   5%   1.151 NAA                                                 
  126.496 135% 4.9E-02 NAAG                                                
    0.000 999%   0.000 Scyllo                                              
    0.000 999%   0.000 Tau                                                 
    0.000 999%   0.000 -CrCH2                                              
  813.094   3%   0.313 GPC+PCh                                             
 3.12E+03   3%   1.199 NAA+NAAG                                            
 2.60E+03   3%   1.000 Cr+PCr                                              
 3.45E+03  15%   1.328 Glu+Gln                                             
 2.61E+03  26%   1.003 Lip13a                                              
  180.709 115% 7.0E-02 Lip13b                                              
  341.454 107%   0.131 Lip09                                               
 1.66E+03  23%   0.639 MM09                                                
  561.546  50%   0.216 Lip20                                               
 4.35E+03  11%   1.674 MM20                                                
  734.349  39%   0.282 MM12                                                
    0.000 999%   0.000 MM14                                                
 1.03E+03  29%   0.396 MM17                                                
 2.79E+03  23%   1.072 Lip13a+Lip13b                                       
 3.52E+03  16%   1.355 MM14+Lip13a+Lip13b+MM12                             
 2.00E+03  13%   0.771 MM09+Lip09                                          
 4.91E+03  10%   1.890 MM20+Lip20                                          
   6 lines in following misc. output table
  FWHM = 0.054 ppm    S/N =  14                                            
  Data shift = 0.038 ppm                                                   
  Ph:  17 deg      -3.0 deg/ppm                                            
  alphaB,S = 1.1E+00,   9.9E+01                                            
   14 spline knots.   Ns = 8(1)                                            
  (16) 4 infls.   (11) 1 extrs.                                            
  498 points on ppm-axis = NY
      4.000000     3.992357     3.984714     3.977070     3.969427     3.961784     3.954141     3.946497     3.938854     3.931211
      3.923568     3.915925     3.908281     3.900638     3.892995     3.885352     3.877708     3.870065     3.862422     3.854779
      3.847136     3.839492     3.831849     3.824206     3.816563     3.808919     3.801276     3.793633     3.785990     3.778347
      3.770703     3.763060     3.755417     3.747774     3.740130     3.732487     3.724844     3.717201     3.709558     3.701914
      3.694271     3.686628     3.678985     3.671341     3.663698     3.656055     3.648412     3.640769     3.633125     3.625482
      3.617839     3.610196     3.602552     3.594909     3.587266     3.579623     3.571980     3.564336     3.556693     3.549050
      3.541407     3.533763     3.526120     3.518477     3.510834     3.503191     3.495547     3.487904     3.480261     3.472618
      3.464974     3.457331     3.449688     3.442045     3.434402     3.426758     3.419115     3.411472     3.403829     3.396185
      3.388542     3.380899     3.373256     3.365613     3.357969     3.350326     3.342683     3.335040     3.327396     3.319753
      3.312110     3.304467     3.296824     3.289180     3.281537     3.273894     3.266251     3.258607     3.250964     3.243321
      3.235678     3.228034     3.220391     3.212748     3.205105     3.197462     3.189818     3.182175     3.174532     3.166889
      3.159245     3.151602     3.143959     3.136316     3.128673     3.121029     3.113386     3.105743     3.098100     3.090456
      3.082813     3.075170     3.067527     3.059884     3.052240     3.044597     3.036954     3.029311     3.021667     3.014024
      3.006381     2.998738     2.991095     2.983451     2.975808     2.968165     2.960522     2.952878     2.945235     2.937592
      2.929949     2.922306     2.914662     2.907019     2.899376     2.891733     2.884089     2.876446     2.868803     2.861160
      2.853517     2.845873     2.838230     2.830587     2.822944     2.815300     2.807657     2.800014     2.792371     2.784728
      2.777084     2.769441     2.761798     2.754155     2.746511     2.738868     2.731225     2.723582     2.715939     2.708295
      2.700652     2.693009     2.685366     2.677722     2.670079     2.662436     2.654793     2.647150     2.639506     2.631863
      2.624220     2.616577     2.608933     2.601290     2.593647     2.586004     2.578361     2.570717     2.563074     2.555431
      2.547788     2.540144     2.532501     2.524858     2.517215     2.509572     2.501928     2.494285     2.486642     2.478999
      2.471355     2.463712     2.456069     2.448426     2.440783     2.433139     2.425496     2.417853     2.410210     2.402566
      2.394923     2.387280     2.379637     2.371994     2.364350     2.356707     2.349064     2.341421     2.333777     2.326134
      2.318491     2.310848     2.303205     2.295561     2.287918     2.280275     2.272632     2.264988     2.257345     2.249702
      2.242059     2.234416     2.226772     2.219129     2.211486     2.203843     2.196199     2.188556     2.180913     2.173270
      2.165627     2.157983     2.150340     2.142697     2.135054     2.127410     2.119767     2.112124     2.104481     2.096838
      2.089194     2.081551     2.073908     2.066265     2.058621     2.050978     2.043335     2.035692     2.028049     2.020405
      2.012762     2.005119     1.997476     1.989833     1.982190     1.974546     1.966903     1.959260     1.951617     1.943974
      1.936331     1.928688     1.921045     1.913402     1.905759     1.898115     1.890472     1.882829     1.875186     1.867543
      1.859900     1.852257     1.844614     1.836971     1.829327     1.821684     1.814041     1.806398     1.798755     1.791112
      1.783469     1.775826     1.768183     1.760540     1.752896     1.745253     1.737610     1.729967     1.722324     1.714681
      1.707038     1.699395     1.691752     1.684108     1.676465     1.668822     1.661179     1.653536     1.645893     1.638250
      1.630607     1.622964     1.615321     1.607677     1.600034     1.592391     1.584748     1.577105     1.569462     1.561819
      1.554176     1.546533     1.538890     1.531246     1.523603     1.515960     1.508317     1.500674     1.493031     1.485388
      1.477745     1.470102     1.462458     1.454815     1.447172     1.439529     1.431886     1.424243     1.416600     1.408957
      1.401314     1.393671     1.386027     1.378384     1.370741     1.363098     1.355455     1.347812     1.340169     1.332526
      1.324883     1.317240     1.309596     1.301953     1.294310     1.286667     1.279024     1.271381     1.263738     1.256095
      1.248452     1.240808     1.233165     1.225522     1.217879     1.210236     1.202593     1.194950     1.187307     1.179664
      1.172021     1.164377     1.156734     1.149091     1.141448     1.133805     1.126162     1.118519     1.110876     1.103233
      1.095590     1.087946     1.080303     1.072660     1.065017     1.057374     1.049731     1.042088     1.034445     1.026802
      1.019158     1.011515     1.003872     0.996229     0.988586     0.980943     0.973300     0.965657     0.958014     0.950371
      0.942727     0.935084     0.927441     0.919798     0.912155     0.904512     0.896869     0.889226     0.881583     0.873940
      0.866296     0.858653     0.851010     0.843367     0.835724     0.828081     0.820438     0.812795     0.805152     0.797508
      0.789865     0.782222     0.774579     0.766936     0.759293     0.751650     0.744007     0.736364     0.728721     0.721077
      0.713434     0.705791     0.698148     0.690505     0.682862     0.675219     0.667576     0.659933     0.652290     0.644646
      0.637003     0.629360     0.621717     0.614074     0.606431     0.598788     0.591145     0.583502     0.575858     0.568215
      0.560572     0.552929     0.545286     0.537643     0.530000     0.522357     0.514714     0.507071     0.499427     0.491784
      0.484141     0.476498     0.468855     0.461212     0.453569     0.445925     0.438282     0.430639     0.422996     0.415353
      0.407710     0.400067     0.392424     0.384780     0.377137     0.369494     0.361851     0.354208     0.346565     0.338922
      0.331278     0.323635     0.315992     0.308349     0.300706     0.293063     0.285420     0.277777     0.270133     0.262490
      0.254847     0.247204     0.239561     0.231918     0.224275     0.216631     0.208988     0.201345
 NY phased data points follow
   7.08889E+01  6.93327E+01  7.43080E+01  7.41949E+01  8.12958E+01  8.87686E+01  8.80384E+01  9.83176E+01  1.03488E+02  1.16427E+02
   1.17716E+02  1.18471E+02  1.13203E+02  1.06482E+02  1.00977E+02  9.41640E+01  7.85569E+01  7.78930E+01  7.14486E+01  7.31407E+01
   6.57293E+01  6.31672E+01  6.53364E+01  6.65369E+01  6.22871E+01  6.66740E+01  6.19113E+01  6.72293E+01  6.99279E+01  6.84908E+01
   7.31120E+01  7.62512E+01  7.16989E+01  6.89325E+01  7.10784E+01  6.38222E+01  6.10499E+01  6.34775E+01  5.95356E+01  7.16298E+01
   5.97975E+01  6.24831E+01  6.11102E+01  6.19038E+01  5.83125E+01  6.08101E+01  6.39330E+01  6.51361E+01  6.20444E+01  5.65939E+01
   5.66904E+01  6.02992E+01  5.40715E+01  5.48731E+01  4.88731E+01  4.98707E+01  5.18987E+01  4.52974E+01  4.37502E+01  4.72828E+01
   4.51960E+01  4.32817E+01  4.11504E+01  3.87843E+01  3.62618E+01  3.74422E+01  2.98537E+01  3.42501E+01  3.45590E+01  3.48256E+01
   3.24392E+01  3.72459E+01  4.04428E+01  3.71915E+01  3.49384E+01  3.30886E+01  4.07231E+01  3.20577E+01  3.19763E+01  3.25810E+01
   3.03167E+01  3.56526E+01  2.78589E+01  3.15799E+01  3.21087E+01  3.06906E+01  2.66789E+01  3.12006E+01  3.20529E+01  3.07607E+01
   3.00450E+01  3.34652E+01  3.13889E+01  3.53471E+01  3.60996E+01  3.76452E+01  4.07280E+01  4.54203E+01  5.65470E+01  5.84765E+01
   7.05108E+01  8.19338E+01  9.08725E+01  9.59643E+01  8.91651E+01  8.51842E+01  7.71869E+01  6.77801E+01  5.45385E+01  4.71706E+01
   4.60813E+01  4.08374E+01  3.88863E+01  3.37346E+01  2.94767E+01  2.78113E+01  3.54205E+01  3.38603E+01  3.39751E+01  3.68208E+01
   3.81951E+01  4.76581E+01  4.87936E+01  5.58128E+01  7.03337E+01  8.53027E+01  9.52757E+01  1.01023E+02  9.19160E+01  9.14850E+01
   8.02125E+01  7.19284E+01  5.78090E+01  4.96931E+01  4.66070E+01  3.90492E+01  2.62893E+01  2.96155E+01  2.71187E+01  2.34879E+01
   2.50606E+01  2.39071E+01  2.47975E+01  2.67274E+01  3.06909E+01  2.60597E+01  2.67758E+01  2.78911E+01  2.24470E+01  2.37564E+01
   1.93909E+01  2.40067E+01  1.72404E+01  2.49635E+01  1.80188E+01  2.07821E+01  1.82218E+01  2.02219E+01  1.33208E+01  1.76314E+01
   1.75820E+01  1.73488E+01  1.46167E+01  2.05149E+01  1.28158E+01  1.88272E+01  1.56138E+01  1.33870E+01  1.41823E+01  1.47229E+01
   1.17720E+01  1.11370E+01  6.86256E+00  9.19334E+00  1.59143E+00  5.63330E+00  5.31143E+00  5.16104E+00  5.55616E+00 -1.75597E-01
   4.11556E+00  5.51661E+00  4.00966E+00  3.72679E+00  2.53714E-01  3.52575E+00  3.99878E+00  5.64924E+00  8.59111E+00  1.46425E+01
   1.59924E+01  1.79451E+01  1.91447E+01  1.98540E+01  2.55237E+01  2.03780E+01  1.90647E+01  2.04657E+01  1.68257E+01  1.12052E+01
   1.24793E+01  1.92668E+01  1.72620E+01  1.46621E+01  1.15702E+01  1.47678E+01  1.14788E+01  1.22269E+01  1.18093E+01  9.35899E+00
   1.09994E+01  9.60973E+00  1.34026E+01  1.47865E+01  2.13220E+01  2.56276E+01  2.56749E+01  2.31641E+01  2.25075E+01  1.54518E+01
   1.03897E+01  1.35330E+01  9.68142E+00  1.18920E+01  1.32545E+01  1.58058E+01  2.21584E+01  2.05914E+01  2.42686E+01  1.95005E+01
   2.28571E+01  2.31623E+01  2.20634E+01  1.96872E+01  2.31097E+01  2.31776E+01  2.38348E+01  2.26339E+01  2.37864E+01  2.03699E+01
   1.28433E+01  1.25330E+01  1.56925E+01  1.76606E+01  1.61093E+01  2.23107E+01  2.56919E+01  3.38974E+01  2.78085E+01  3.37825E+01
   3.31942E+01  3.76523E+01  4.25293E+01  5.44107E+01  6.16339E+01  5.72093E+01  6.00805E+01  7.88412E+01  1.06913E+02  1.19588E+02
   1.19415E+02  1.15308E+02  9.62346E+01  8.06056E+01  6.66150E+01  5.31526E+01  4.12320E+01  3.43640E+01  2.80855E+01  2.89582E+01
   2.97552E+01  2.54736E+01  2.09738E+01  2.63115E+01  1.77510E+01  1.70069E+01  2.17679E+01  1.57289E+01  1.66997E+01  2.06150E+01
   1.75410E+01  1.58656E+01  1.79338E+01  1.64594E+01  1.35298E+01  1.49004E+01  1.53585E+01  1.55399E+01  1.62697E+01  1.62650E+01
   1.46165E+01  1.69917E+01  1.84007E+01  1.38879E+01  1.00653E+01  1.61650E+01  1.48634E+01  1.28119E+01  1.44977E+01  1.63310E+01
   1.36995E+01  1.58539E+01  1.42241E+01  1.56401E+01  1.85938E+01  1.63635E+01  1.87034E+01  1.72534E+01  1.49598E+01  2.05708E+01
   2.08389E+01  1.56670E+01  1.98660E+01  1.70691E+01  1.37456E+01  1.54319E+01  1.58053E+01  1.64344E+01  1.46563E+01  1.71573E+01
   1.36199E+01  2.16129E+01  5.59688E+00  1.91050E+01  1.08810E+01  1.41367E+01  9.17197E+00  1.31345E+01  1.22100E+01  1.00802E+01
   1.26508E+01  9.25238E+00  9.15758E+00  9.42060E+00  1.01496E+01  1.11819E+01  1.32169E+01  1.61231E+01  1.54246E+01  1.60919E+01
   1.67932E+01  1.65815E+01  1.72876E+01  2.01313E+01  2.19396E+01  2.45152E+01  1.73284E+01  2.16552E+01  2.11669E+01  2.29019E+01
   1.81561E+01  1.98267E+01  2.40786E+01  2.30493E+01  2.78963E+01  2.84450E+01  2.80958E+01  3.14562E+01  2.92107E+01  2.63446E+01
   2.84837E+01  2.55820E+01  2.50086E+01  2.84479E+01  2.65903E+01  2.64565E+01  2.34081E+01  2.85105E+01  1.92916E+01  2.32100E+01
   2.37031E+01  2.51386E+01  2.01700E+01  1.96928E+01  2.45448E+01  1.89068E+01  2.49009E+01  2.22697E+01  2.18580E+01  1.90721E+01
   2.23175E+01  1.90101E+01  2.53127E+01  1.66219E+01  2.06228E+01  2.24201E+01  1.98896E+01  2.05773E+01  2.16373E+01  2.25472E+01
   2.11312E+01  2.14771E+01  2.27091E+01  2.04838E+01  2.05586E+01  2.45819E+01  2.42120E+01  2.27894E+01  2.02008E+01  2.20426E+01
   2.20976E+01  2.46853E+01  2.40759E+01  1.89452E+01  2.14538E+01  2.21386E+01  2.05552E+01  2.33419E+01  2.67297E+01  2.12789E+01
   2.05019E+01  2.27591E+01  2.12000E+01  2.25538E+01  2.11977E+01  1.55368E+01  2.20551E+01  2.13256E+01  2.10990E+01  1.44027E+01
   1.68073E+01  1.83602E+01  1.88505E+01  1.51147E+01  1.89495E+01  1.67865E+01  1.26081E+01  1.54211E+01  1.72927E+01  1.28893E+01
   1.18236E+01  1.70737E+01  1.25563E+01  1.41381E+01  1.96831E+01  1.57031E+01  1.65588E+01  1.83848E+01  1.47929E+01  1.67291E+01
   1.08296E+01  1.31857E+01  1.50914E+01  1.68261E+01  1.84603E+01  1.41788E+01  1.18416E+01  1.23463E+01  1.42241E+01  1.49092E+01
   1.56007E+01  1.10598E+01  1.26114E+01  1.02800E+01  1.26729E+01  1.77355E+01  1.18697E+01  1.21950E+01  1.23803E+01  1.16810E+01
   1.07923E+01  8.75962E+00  1.07605E+01  1.31974E+01  1.12760E+01  9.21869E+00  1.21341E+01  1.50541E+01  1.54899E+01  1.14252E+01
   1.51900E+01  1.50657E+01  1.40286E+01  1.23946E+01  7.16937E+00  1.52481E+01  1.17848E+01  1.01286E+01  1.13291E+01  1.09101E+01
   1.38072E+01  7.02193E+00  1.09805E+01  1.24814E+01  1.03339E+01  1.74965E+01  9.35647E+00  1.00992E+01  1.24952E+01  1.33427E+01
   1.13917E+01  1.33248E+01  1.19945E+01  1.00391E+01  1.26746E+01  9.51202E+00  1.16571E+01  1.46144E+01
 NY points of the fit to the data follow
   6.85936E+01  6.90653E+01  7.14247E+01  7.58139E+01  8.02839E+01  8.36068E+01  8.74738E+01  9.41179E+01  1.03305E+02  1.11832E+02
   1.16226E+02  1.15400E+02  1.10577E+02  1.03639E+02  9.60056E+01  8.86149E+01  8.22050E+01  7.71070E+01  7.31160E+01  6.95485E+01
   6.62953E+01  6.40096E+01  6.33029E+01  6.40874E+01  6.44213E+01  6.37101E+01  6.33257E+01  6.50685E+01  6.88866E+01  7.31186E+01
   7.61271E+01  7.70128E+01  7.58981E+01  7.30378E+01  6.90119E+01  6.46960E+01  6.12387E+01  5.91109E+01  5.78817E+01  5.71221E+01
   5.68376E+01  5.70951E+01  5.71726E+01  5.73175E+01  5.80113E+01  5.89873E+01  5.94544E+01  5.90670E+01  5.79968E+01  5.64254E+01
   5.46875E+01  5.29448E+01  5.13462E+01  5.01122E+01  4.92345E+01  4.83998E+01  4.76045E+01  4.71139E+01  4.69039E+01  4.66702E+01
   4.61939E+01  4.54665E+01  4.45509E+01  4.35946E+01  4.27652E+01  4.21239E+01  4.16754E+01  4.13668E+01  4.11570E+01  4.10366E+01
   4.09288E+01  4.07285E+01  4.04042E+01  3.99664E+01  3.94645E+01  3.89352E+01  3.83909E+01  3.78611E+01  3.73350E+01  3.67551E+01
   3.61061E+01  3.54404E+01  3.48374E+01  3.42237E+01  3.34976E+01  3.26667E+01  3.18694E+01  3.12437E+01  3.08893E+01  3.07848E+01
   3.08531E+01  3.10681E+01  3.14408E+01  3.20278E+01  3.33796E+01  3.78743E+01  4.48414E+01  4.98016E+01  5.27030E+01  5.75933E+01
   6.80306E+01  8.19517E+01  9.31826E+01  9.73170E+01  9.43446E+01  8.66457E+01  7.66914E+01  6.60605E+01  5.59064E+01  4.77761E+01
   4.22827E+01  3.80833E+01  3.36849E+01  3.03280E+01  2.90991E+01  2.86607E+01  2.85375E+01  2.87609E+01  3.01340E+01  3.50866E+01
   4.25923E+01  4.83080E+01  5.21174E+01  5.82324E+01  7.01380E+01  8.55628E+01  9.81336E+01  1.03048E+02  9.99618E+01  9.15674E+01
   8.08480E+01  6.96265E+01  5.90284E+01  5.01483E+01  4.33919E+01  3.75177E+01  3.14613E+01  2.69412E+01  2.51774E+01  2.49704E+01
   2.54571E+01  2.60838E+01  2.64032E+01  2.62550E+01  2.58186E+01  2.52611E+01  2.46051E+01  2.39188E+01  2.32470E+01  2.25891E+01
   2.19677E+01  2.13312E+01  2.06461E+01  1.98633E+01  1.92296E+01  1.88936E+01  1.87822E+01  1.85969E+01  1.79329E+01  1.70061E+01
   1.63282E+01  1.61642E+01  1.63201E+01  1.63881E+01  1.61275E+01  1.55803E+01  1.48507E+01  1.39596E+01  1.29113E+01  1.20941E+01
   1.17101E+01  1.14076E+01  1.07893E+01  9.71650E+00  8.83433E+00  8.65036E+00  8.89863E+00  9.04537E+00  8.75499E+00  8.21255E+00
   8.04257E+00  8.29295E+00  8.57799E+00  8.68277E+00  8.81000E+00  9.27581E+00  1.00811E+01  1.11616E+01  1.26189E+01  1.42559E+01
   1.53935E+01  1.57708E+01  1.58127E+01  1.56643E+01  1.51598E+01  1.44275E+01  1.39261E+01  1.39417E+01  1.46723E+01  1.57785E+01
   1.68229E+01  1.76204E+01  1.82694E+01  1.85030E+01  1.75708E+01  1.51482E+01  1.23568E+01  1.04316E+01  9.92043E+00  1.01509E+01
   1.06934E+01  1.18822E+01  1.41531E+01  1.72753E+01  1.99360E+01  2.09905E+01  2.07485E+01  1.97750E+01  1.77087E+01  1.43780E+01
   1.07240E+01  8.31035E+00  8.01013E+00  9.35679E+00  1.14639E+01  1.37580E+01  1.61746E+01  1.82459E+01  1.95970E+01  2.01765E+01
   2.03600E+01  2.04950E+01  2.04986E+01  2.03915E+01  2.08384E+01  2.21493E+01  2.38508E+01  2.50517E+01  2.51447E+01  2.40463E+01
   2.22566E+01  2.05048E+01  1.93858E+01  1.92898E+01  2.02386E+01  2.19557E+01  2.40228E+01  2.59288E+01  2.75455E+01  2.88113E+01
   2.97963E+01  3.22464E+01  4.10929E+01  5.14761E+01  5.74676E+01  6.09108E+01  6.89728E+01  8.51512E+01  1.03771E+02  1.15963E+02
   1.17701E+02  1.10765E+02  9.87591E+01  8.46311E+01  6.98258E+01  5.61241E+01  4.60113E+01  3.93988E+01  3.33900E+01  2.66198E+01
   2.26714E+01  2.12354E+01  2.04061E+01  1.97722E+01  1.92574E+01  1.87910E+01  1.82928E+01  1.77717E+01  1.72227E+01  1.66782E+01
   1.61916E+01  1.57855E+01  1.54321E+01  1.51197E+01  1.48641E+01  1.46677E+01  1.45173E+01  1.44023E+01  1.43283E+01  1.43082E+01
   1.43410E+01  1.44135E+01  1.45261E+01  1.46784E+01  1.48646E+01  1.50749E+01  1.53019E+01  1.55406E+01  1.57858E+01  1.60314E+01
   1.62699E+01  1.64922E+01  1.66894E+01  1.68529E+01  1.69755E+01  1.70517E+01  1.70782E+01  1.70542E+01  1.69813E+01  1.68623E+01
   1.67027E+01  1.65087E+01  1.62873E+01  1.60475E+01  1.58004E+01  1.55584E+01  1.53362E+01  1.51547E+01  1.50555E+01  1.51178E+01
   1.51900E+01  1.50274E+01  1.47912E+01  1.47343E+01  1.48696E+01  1.48515E+01  1.43105E+01  1.33725E+01  1.25184E+01  1.17956E+01
   1.11162E+01  1.05729E+01  1.05198E+01  1.12275E+01  1.25064E+01  1.38744E+01  1.50280E+01  1.60174E+01  1.69261E+01  1.77352E+01
   1.83061E+01  1.86020E+01  1.89170E+01  1.94722E+01  2.01320E+01  2.05889E+01  2.07664E+01  2.08695E+01  2.10551E+01  2.12881E+01
   2.15687E+01  2.20620E+01  2.29947E+01  2.43731E+01  2.58855E+01  2.71568E+01  2.80312E+01  2.85891E+01  2.88506E+01  2.87743E+01
   2.84295E+01  2.79471E+01  2.74284E+01  2.68645E+01  2.62035E+01  2.55431E+01  2.49366E+01  2.43592E+01  2.38000E+01  2.32556E+01
   2.27262E+01  2.22140E+01  2.17229E+01  2.12576E+01  2.08231E+01  2.04252E+01  2.00693E+01  1.97605E+01  1.95028E+01  1.92992E+01
   1.91524E+01  1.90643E+01  1.90359E+01  1.90673E+01  1.91577E+01  1.93049E+01  1.95064E+01  1.97586E+01  2.00570E+01  2.03955E+01
   2.07672E+01  2.11640E+01  2.15772E+01  2.19975E+01  2.24147E+01  2.28183E+01  2.31974E+01  2.35419E+01  2.38423E+01  2.40902E+01
   2.42781E+01  2.44000E+01  2.44517E+01  2.44311E+01  2.43381E+01  2.41744E+01  2.39435E+01  2.36501E+01  2.33005E+01  2.29024E+01
   2.24640E+01  2.19939E+01  2.15005E+01  2.09920E+01  2.04765E+01  1.99613E+01  1.94531E+01  1.89572E+01  1.84781E+01  1.80192E+01
   1.75834E+01  1.71727E+01  1.67882E+01  1.64300E+01  1.60980E+01  1.57914E+01  1.55096E+01  1.52514E+01  1.50153E+01  1.47998E+01
   1.46031E+01  1.44239E+01  1.42608E+01  1.41124E+01  1.39774E+01  1.38541E+01  1.37416E+01  1.36388E+01  1.35450E+01  1.34592E+01
   1.33805E+01  1.33081E+01  1.32414E+01  1.31800E+01  1.31235E+01  1.30713E+01  1.30228E+01  1.29778E+01  1.29359E+01  1.28970E+01
   1.28608E+01  1.28270E+01  1.27953E+01  1.27654E+01  1.27375E+01  1.27113E+01  1.26868E+01  1.26636E+01  1.26416E+01  1.26208E+01
   1.26013E+01  1.25829E+01  1.25655E+01  1.25488E+01  1.25330E+01  1.25179E+01  1.25038E+01  1.24904E+01  1.24775E+01  1.24652E+01
   1.24534E+01  1.24423E+01  1.24317E+01  1.24217E+01  1.24121E+01  1.24027E+01  1.23939E+01  1.23855E+01  1.23777E+01  1.23701E+01
   1.23628E+01  1.23557E+01  1.23491E+01  1.23429E+01  1.23370E+01  1.23313E+01  1.23258E+01  1.23206E+01  1.23158E+01  1.23114E+01
   1.23071E+01  1.23030E+01  1.22991E+01  1.22955E+01  1.22923E+01  1.22893E+01  1.22865E+01  1.22838E+01
 NY background values follow
     6.376E+01    6.337E+01    6.298E+01    6.260E+01    6.221E+01    6.182E+01    6.143E+01    6.105E+01    6.066E+01    6.027E+01
     5.988E+01    5.950E+01    5.911E+01    5.872E+01    5.833E+01    5.795E+01    5.756E+01    5.717E+01    5.679E+01    5.640E+01
     5.602E+01    5.563E+01    5.524E+01    5.486E+01    5.447E+01    5.409E+01    5.371E+01    5.332E+01    5.294E+01    5.256E+01
     5.218E+01    5.180E+01    5.142E+01    5.104E+01    5.066E+01    5.028E+01    4.990E+01    4.952E+01    4.915E+01    4.877E+01
     4.840E+01    4.802E+01    4.765E+01    4.728E+01    4.691E+01    4.654E+01    4.617E+01    4.580E+01    4.543E+01    4.506E+01
     4.470E+01    4.434E+01    4.397E+01    4.361E+01    4.325E+01    4.289E+01    4.253E+01    4.218E+01    4.182E+01    4.147E+01
     4.112E+01    4.076E+01    4.041E+01    4.007E+01    3.972E+01    3.938E+01    3.903E+01    3.869E+01    3.835E+01    3.801E+01
     3.767E+01    3.734E+01    3.701E+01    3.667E+01    3.634E+01    3.602E+01    3.569E+01    3.537E+01    3.504E+01    3.472E+01
     3.441E+01    3.409E+01    3.378E+01    3.346E+01    3.315E+01    3.285E+01    3.254E+01    3.224E+01    3.194E+01    3.164E+01
     3.134E+01    3.105E+01    3.075E+01    3.046E+01    3.018E+01    2.989E+01    2.961E+01    2.933E+01    2.905E+01    2.878E+01
     2.850E+01    2.823E+01    2.796E+01    2.770E+01    2.743E+01    2.717E+01    2.691E+01    2.665E+01    2.639E+01    2.614E+01
     2.589E+01    2.564E+01    2.539E+01    2.515E+01    2.491E+01    2.467E+01    2.443E+01    2.419E+01    2.396E+01    2.372E+01
     2.349E+01    2.327E+01    2.304E+01    2.282E+01    2.259E+01    2.237E+01    2.216E+01    2.194E+01    2.173E+01    2.151E+01
     2.130E+01    2.110E+01    2.089E+01    2.069E+01    2.048E+01    2.028E+01    2.009E+01    1.989E+01    1.970E+01    1.950E+01
     1.931E+01    1.912E+01    1.894E+01    1.875E+01    1.857E+01    1.839E+01    1.821E+01    1.803E+01    1.786E+01    1.769E+01
     1.751E+01    1.735E+01    1.718E+01    1.701E+01    1.685E+01    1.669E+01    1.653E+01    1.637E+01    1.622E+01    1.606E+01
     1.591E+01    1.576E+01    1.561E+01    1.547E+01    1.532E+01    1.518E+01    1.504E+01    1.490E+01    1.477E+01    1.463E+01
     1.450E+01    1.437E+01    1.424E+01    1.411E+01    1.399E+01    1.387E+01    1.375E+01    1.363E+01    1.351E+01    1.340E+01
     1.328E+01    1.317E+01    1.306E+01    1.296E+01    1.285E+01    1.275E+01    1.265E+01    1.255E+01    1.245E+01    1.236E+01
     1.226E+01    1.217E+01    1.208E+01    1.199E+01    1.190E+01    1.182E+01    1.173E+01    1.165E+01    1.157E+01    1.149E+01
     1.141E+01    1.134E+01    1.126E+01    1.119E+01    1.111E+01    1.104E+01    1.097E+01    1.091E+01    1.084E+01    1.077E+01
     1.071E+01    1.065E+01    1.059E+01    1.053E+01    1.047E+01    1.041E+01    1.035E+01    1.029E+01    1.024E+01    1.019E+01
     1.013E+01    1.008E+01    1.003E+01    9.979E+00    9.930E+00    9.882E+00    9.834E+00    9.787E+00    9.742E+00    9.697E+00
     9.653E+00    9.609E+00    9.567E+00    9.525E+00    9.484E+00    9.444E+00    9.405E+00    9.366E+00    9.328E+00    9.291E+00
     9.255E+00    9.219E+00    9.185E+00    9.150E+00    9.117E+00    9.085E+00    9.053E+00    9.021E+00    8.991E+00    8.961E+00
     8.932E+00    8.904E+00    8.876E+00    8.849E+00    8.823E+00    8.797E+00    8.772E+00    8.748E+00    8.724E+00    8.701E+00
     8.678E+00    8.657E+00    8.635E+00    8.615E+00    8.595E+00    8.575E+00    8.557E+00    8.538E+00    8.521E+00    8.504E+00
     8.487E+00    8.471E+00    8.456E+00    8.441E+00    8.427E+00    8.413E+00    8.400E+00    8.388E+00    8.376E+00    8.364E+00
     8.353E+00    8.343E+00    8.333E+00    8.324E+00    8.315E+00    8.307E+00    8.300E+00    8.292E+00    8.286E+00    8.280E+00
     8.274E+00    8.269E+00    8.265E+00    8.261E+00    8.258E+00    8.255E+00    8.253E+00    8.251E+00    8.250E+00    8.249E+00
     8.249E+00    8.249E+00    8.250E+00    8.252E+00    8.254E+00    8.256E+00    8.259E+00    8.262E+00    8.266E+00    8.271E+00
     8.276E+00    8.282E+00    8.288E+00    8.294E+00    8.301E+00    8.309E+00    8.317E+00    8.325E+00    8.334E+00    8.344E+00
     8.354E+00    8.365E+00    8.375E+00    8.387E+00    8.399E+00    8.411E+00    8.424E+00    8.437E+00    8.451E+00    8.465E+00
     8.479E+00    8.494E+00    8.509E+00    8.525E+00    8.541E+00    8.557E+00    8.574E+00    8.591E+00    8.608E+00    8.626E+00
     8.644E+00    8.662E+00    8.681E+00    8.700E+00    8.719E+00    8.739E+00    8.759E+00    8.779E+00    8.799E+00    8.820E+00
     8.841E+00    8.862E+00    8.883E+00    8.905E+00    8.926E+00    8.948E+00    8.970E+00    8.993E+00    9.015E+00    9.038E+00
     9.061E+00    9.084E+00    9.107E+00    9.131E+00    9.154E+00    9.178E+00    9.202E+00    9.225E+00    9.249E+00    9.274E+00
     9.298E+00    9.322E+00    9.346E+00    9.371E+00    9.395E+00    9.420E+00    9.444E+00    9.469E+00    9.494E+00    9.519E+00
     9.543E+00    9.568E+00    9.593E+00    9.618E+00    9.642E+00    9.667E+00    9.692E+00    9.717E+00    9.741E+00    9.766E+00
     9.791E+00    9.815E+00    9.840E+00    9.864E+00    9.888E+00    9.913E+00    9.937E+00    9.961E+00    9.985E+00    1.001E+01
     1.003E+01    1.006E+01    1.008E+01    1.010E+01    1.013E+01    1.015E+01    1.017E+01    1.019E+01    1.022E+01    1.024E+01
     1.026E+01    1.028E+01    1.031E+01    1.033E+01    1.035E+01    1.037E+01    1.039E+01    1.041E+01    1.043E+01    1.045E+01
     1.047E+01    1.049E+01    1.051E+01    1.053E+01    1.055E+01    1.057E+01    1.059E+01    1.061E+01    1.063E+01    1.065E+01
     1.066E+01    1.068E+01    1.070E+01    1.072E+01    1.073E+01    1.075E+01    1.077E+01    1.078E+01    1.080E+01    1.082E+01
     1.083E+01    1.085E+01    1.086E+01    1.088E+01    1.089E+01    1.091E+01    1.092E+01    1.093E+01    1.095E+01    1.096E+01
     1.097E+01    1.099E+01    1.100E+01    1.101E+01    1.102E+01    1.104E+01    1.105E+01    1.106E+01    1.107E+01    1.108E+01
     1.109E+01    1.110E+01    1.111E+01    1.112E+01    1.113E+01    1.114E+01    1.115E+01    1.116E+01    1.117E+01    1.118E+01
     1.119E+01    1.120E+01    1.121E+01    1.121E+01    1.122E+01    1.123E+01    1.124E+01    1.125E+01    1.125E+01    1.126E+01
     1.127E+01    1.128E+01    1.129E+01    1.129E+01    1.130E+01    1.131E+01    1.132E+01    1.133E+01    1.133E+01    1.134E+01
     1.135E+01    1.136E+01    1.136E+01    1.137E+01    1.138E+01    1.139E+01    1.140E+01    1.140E+01
 Ala      Conc. = 2.90E+02
