 LCModel (Version 6.3-1L) Copyright: S.W. Provencher.          Ref.: Magn. Reson. Med. 30:672-679 (1993).                
 Slice#2 Row#10 Col#3  K_02_press_1_raw_act
 36 lines in following concentration table = NCONC+1
    Conc.  %SD /Cr+PCr  Metabolite                                         
  210.329  61%   0.153 Ala                                                 
    0.000 999%   0.000 Asp                                                 
  883.108  29%   0.642 Cr                                                  
  492.768  52%   0.358 PCr                                                 
  212.972  84%   0.155 GABA                                                
   35.876 450% 2.6E-02 Glc                                                 
  475.316  63%   0.345 Gln                                                 
 1.90E+03  19%   1.384 Glu                                                 
  562.884   4%   0.409 GPC                                                 
    0.000 999%   0.000 PCh                                                 
  860.543  10%   0.625 GSH                                                 
 2.43E+03  15%   1.767 Ins                                                 
    0.000 999%   0.000 Lac                                                 
 2.46E+03   5%   1.785 NAA                                                 
  146.135  92%   0.106 NAAG                                                
  181.035  18%   0.132 Scyllo                                              
    0.000 999%   0.000 Tau                                                 
  158.410  76%   0.115 -CrCH2                                              
  562.884   4%   0.409 GPC+PCh                                             
 2.60E+03   3%   1.892 NAA+NAAG                                            
 1.38E+03   4%   1.000 Cr+PCr                                              
 2.38E+03  23%   1.729 Glu+Gln                                             
  115.092 294% 8.4E-02 Lip13a                                              
  121.055  96% 8.8E-02 Lip13b                                              
    0.000 999%   0.000 Lip09                                               
  739.146  23%   0.537 MM09                                                
   68.750 116% 5.0E-02 Lip20                                               
 1.17E+03  23%   0.853 MM20                                                
  222.576  27%   0.162 MM12                                                
  776.016  20%   0.564 MM14                                                
  265.177  41%   0.193 MM17                                                
  236.147 113%   0.172 Lip13a+Lip13b                                       
 1.23E+03  27%   0.897 MM14+Lip13a+Lip13b+MM12                             
  739.146  23%   0.537 MM09+Lip09                                          
 1.24E+03  22%   0.903 MM20+Lip20                                          
   6 lines in following misc. output table
  FWHM = 0.069 ppm    S/N =  12                                            
  Data shift = 0.000 ppm                                                   
  Ph: -34 deg     -18.8 deg/ppm                                            
  alphaB,S = 6.3E-01,   2.0E+02                                            
   14 spline knots.   Ns = 9(1)                                            
  (15) 4 infls.   ( 5) 1 extrs.                                            
  498 points on ppm-axis = NY
      4.000000     3.992357     3.984714     3.977070     3.969427     3.961784     3.954141     3.946497     3.938854     3.931211
      3.923568     3.915925     3.908281     3.900638     3.892995     3.885352     3.877708     3.870065     3.862422     3.854779
      3.847136     3.839492     3.831849     3.824206     3.816563     3.808919     3.801276     3.793633     3.785990     3.778347
      3.770703     3.763060     3.755417     3.747774     3.740130     3.732487     3.724844     3.717201     3.709558     3.701914
      3.694271     3.686628     3.678985     3.671341     3.663698     3.656055     3.648412     3.640769     3.633125     3.625482
      3.617839     3.610196     3.602552     3.594909     3.587266     3.579623     3.571980     3.564336     3.556693     3.549050
      3.541407     3.533763     3.526120     3.518477     3.510834     3.503191     3.495547     3.487904     3.480261     3.472618
      3.464974     3.457331     3.449688     3.442045     3.434402     3.426758     3.419115     3.411472     3.403829     3.396185
      3.388542     3.380899     3.373256     3.365613     3.357969     3.350326     3.342683     3.335040     3.327396     3.319753
      3.312110     3.304467     3.296824     3.289180     3.281537     3.273894     3.266251     3.258607     3.250964     3.243321
      3.235678     3.228034     3.220391     3.212748     3.205105     3.197462     3.189818     3.182175     3.174532     3.166889
      3.159245     3.151602     3.143959     3.136316     3.128673     3.121029     3.113386     3.105743     3.098100     3.090456
      3.082813     3.075170     3.067527     3.059884     3.052240     3.044597     3.036954     3.029311     3.021667     3.014024
      3.006381     2.998738     2.991095     2.983451     2.975808     2.968165     2.960522     2.952878     2.945235     2.937592
      2.929949     2.922306     2.914662     2.907019     2.899376     2.891733     2.884089     2.876446     2.868803     2.861160
      2.853517     2.845873     2.838230     2.830587     2.822944     2.815300     2.807657     2.800014     2.792371     2.784728
      2.777084     2.769441     2.761798     2.754155     2.746511     2.738868     2.731225     2.723582     2.715939     2.708295
      2.700652     2.693009     2.685366     2.677722     2.670079     2.662436     2.654793     2.647150     2.639506     2.631863
      2.624220     2.616577     2.608933     2.601290     2.593647     2.586004     2.578361     2.570717     2.563074     2.555431
      2.547788     2.540144     2.532501     2.524858     2.517215     2.509572     2.501928     2.494285     2.486642     2.478999
      2.471355     2.463712     2.456069     2.448426     2.440783     2.433139     2.425496     2.417853     2.410210     2.402566
      2.394923     2.387280     2.379637     2.371994     2.364350     2.356707     2.349064     2.341421     2.333777     2.326134
      2.318491     2.310848     2.303205     2.295561     2.287918     2.280275     2.272632     2.264988     2.257345     2.249702
      2.242059     2.234416     2.226772     2.219129     2.211486     2.203843     2.196199     2.188556     2.180913     2.173270
      2.165627     2.157983     2.150340     2.142697     2.135054     2.127410     2.119767     2.112124     2.104481     2.096838
      2.089194     2.081551     2.073908     2.066265     2.058621     2.050978     2.043335     2.035692     2.028049     2.020405
      2.012762     2.005119     1.997476     1.989833     1.982190     1.974546     1.966903     1.959260     1.951617     1.943974
      1.936331     1.928688     1.921045     1.913402     1.905759     1.898115     1.890472     1.882829     1.875186     1.867543
      1.859900     1.852257     1.844614     1.836971     1.829327     1.821684     1.814041     1.806398     1.798755     1.791112
      1.783469     1.775826     1.768183     1.760540     1.752896     1.745253     1.737610     1.729967     1.722324     1.714681
      1.707038     1.699395     1.691752     1.684108     1.676465     1.668822     1.661179     1.653536     1.645893     1.638250
      1.630607     1.622964     1.615321     1.607677     1.600034     1.592391     1.584748     1.577105     1.569462     1.561819
      1.554176     1.546533     1.538890     1.531246     1.523603     1.515960     1.508317     1.500674     1.493031     1.485388
      1.477745     1.470102     1.462458     1.454815     1.447172     1.439529     1.431886     1.424243     1.416600     1.408957
      1.401314     1.393671     1.386027     1.378384     1.370741     1.363098     1.355455     1.347812     1.340169     1.332526
      1.324883     1.317240     1.309596     1.301953     1.294310     1.286667     1.279024     1.271381     1.263738     1.256095
      1.248452     1.240808     1.233165     1.225522     1.217879     1.210236     1.202593     1.194950     1.187307     1.179664
      1.172021     1.164377     1.156734     1.149091     1.141448     1.133805     1.126162     1.118519     1.110876     1.103233
      1.095590     1.087946     1.080303     1.072660     1.065017     1.057374     1.049731     1.042088     1.034445     1.026802
      1.019158     1.011515     1.003872     0.996229     0.988586     0.980943     0.973300     0.965657     0.958014     0.950371
      0.942727     0.935084     0.927441     0.919798     0.912155     0.904512     0.896869     0.889226     0.881583     0.873940
      0.866296     0.858653     0.851010     0.843367     0.835724     0.828081     0.820438     0.812795     0.805152     0.797508
      0.789865     0.782222     0.774579     0.766936     0.759293     0.751650     0.744007     0.736364     0.728721     0.721077
      0.713434     0.705791     0.698148     0.690505     0.682862     0.675219     0.667576     0.659933     0.652290     0.644646
      0.637003     0.629360     0.621717     0.614074     0.606431     0.598788     0.591145     0.583502     0.575858     0.568215
      0.560572     0.552929     0.545286     0.537643     0.530000     0.522357     0.514714     0.507071     0.499427     0.491784
      0.484141     0.476498     0.468855     0.461212     0.453569     0.445925     0.438282     0.430639     0.422996     0.415353
      0.407710     0.400067     0.392424     0.384780     0.377137     0.369494     0.361851     0.354208     0.346565     0.338922
      0.331278     0.323635     0.315992     0.308349     0.300706     0.293063     0.285420     0.277777     0.270133     0.262490
      0.254847     0.247204     0.239561     0.231918     0.224275     0.216631     0.208988     0.201345
 NY phased data points follow
  -1.67569E+02 -1.61919E+02 -1.60180E+02 -1.58134E+02 -1.50307E+02 -1.45885E+02 -1.40678E+02 -1.39847E+02 -1.32309E+02 -1.27532E+02
  -1.23390E+02 -1.22864E+02 -1.24308E+02 -1.27932E+02 -1.27909E+02 -1.32647E+02 -1.30078E+02 -1.35993E+02 -1.32634E+02 -1.33346E+02
  -1.33067E+02 -1.31511E+02 -1.27473E+02 -1.24212E+02 -1.22756E+02 -1.17105E+02 -1.14797E+02 -1.13196E+02 -1.08706E+02 -1.09621E+02
  -1.08166E+02 -1.06906E+02 -1.03384E+02 -1.04123E+02 -1.04356E+02 -1.02414E+02 -1.01465E+02 -1.02080E+02 -1.01588E+02 -1.00823E+02
  -9.31147E+01 -9.69213E+01 -9.69261E+01 -9.30801E+01 -9.04711E+01 -8.78543E+01 -8.93876E+01 -8.96737E+01 -8.99974E+01 -9.10887E+01
  -8.67936E+01 -8.75798E+01 -9.24578E+01 -9.07282E+01 -8.69368E+01 -8.97182E+01 -8.70122E+01 -8.68190E+01 -8.83689E+01 -8.61752E+01
  -8.46984E+01 -8.42865E+01 -8.32965E+01 -8.37961E+01 -8.36628E+01 -8.47893E+01 -8.00417E+01 -8.24714E+01 -8.05030E+01 -7.94906E+01
  -7.57780E+01 -7.77813E+01 -7.43065E+01 -7.39699E+01 -7.15456E+01 -7.21395E+01 -7.15879E+01 -6.85281E+01 -6.65382E+01 -7.08809E+01
  -6.75473E+01 -6.84587E+01 -6.91010E+01 -6.43619E+01 -6.38671E+01 -6.38440E+01 -6.14108E+01 -6.08145E+01 -5.90912E+01 -5.72327E+01
  -5.80101E+01 -5.76494E+01 -5.15838E+01 -5.31252E+01 -4.93500E+01 -4.71718E+01 -4.57960E+01 -3.93231E+01 -3.11576E+01 -2.82551E+01
  -2.24339E+01 -1.79037E+01 -1.99718E+01 -2.20560E+01 -2.42723E+01 -2.42384E+01 -3.02559E+01 -3.09029E+01 -3.55989E+01 -4.18491E+01
  -4.24253E+01 -4.62325E+01 -4.37624E+01 -4.75559E+01 -4.53697E+01 -4.40710E+01 -4.22074E+01 -4.48618E+01 -3.95838E+01 -4.05691E+01
  -3.50690E+01 -3.15122E+01 -2.87379E+01 -1.92356E+01 -1.35853E+01 -1.14874E+01 -8.38945E+00 -5.72116E+00 -6.88861E+00 -5.37842E+00
  -1.07885E+01 -1.95836E+01 -2.18665E+01 -2.49552E+01 -3.08898E+01 -3.31906E+01 -3.81697E+01 -3.63559E+01 -3.81003E+01 -3.80230E+01
  -3.59061E+01 -3.60111E+01 -3.95661E+01 -3.63741E+01 -3.45506E+01 -3.10790E+01 -3.53129E+01 -3.13661E+01 -3.32790E+01 -3.28051E+01
  -3.11436E+01 -3.11199E+01 -3.11289E+01 -3.12794E+01 -3.07864E+01 -2.81437E+01 -2.90210E+01 -3.07220E+01 -2.83264E+01 -2.72066E+01
  -2.62995E+01 -3.08956E+01 -3.15820E+01 -2.98689E+01 -2.85206E+01 -2.91348E+01 -2.70568E+01 -3.38419E+01 -3.18107E+01 -2.96506E+01
  -3.23573E+01 -3.29368E+01 -3.65788E+01 -3.36548E+01 -3.64500E+01 -3.29401E+01 -3.58707E+01 -3.62378E+01 -3.42671E+01 -3.44155E+01
  -3.39765E+01 -3.01512E+01 -3.05024E+01 -2.73278E+01 -3.18737E+01 -3.05543E+01 -2.73884E+01 -2.67070E+01 -2.58001E+01 -2.34287E+01
  -2.04115E+01 -1.84407E+01 -1.73278E+01 -1.41033E+01 -1.88140E+01 -1.77703E+01 -1.83618E+01 -1.80918E+01 -1.87633E+01 -1.61898E+01
  -1.83512E+01 -1.53716E+01 -1.79964E+01 -1.50100E+01 -1.44992E+01 -1.54892E+01 -1.58125E+01 -1.73062E+01 -1.61606E+01 -1.64660E+01
  -1.54078E+01 -1.58133E+01 -1.21827E+01 -1.30590E+01 -8.52695E+00 -9.26415E+00 -7.16591E+00 -6.85762E+00 -1.18808E+01 -8.68818E+00
  -1.10518E+01 -1.40071E+01 -1.50644E+01 -1.45192E+01 -1.24813E+01 -1.07593E+01 -1.01328E+01 -6.53260E+00 -4.97176E+00 -6.64505E+00
  -3.46027E+00 -4.34360E+00 -4.51664E+00 -4.93099E+00 -1.96766E+00 -4.18670E+00 -4.99270E+00 -5.08320E+00  6.67994E-01 -5.16318E+00
  -6.33866E+00 -6.55104E+00 -6.27486E+00 -2.51065E+00 -1.56181E+00  1.44741E+00  1.94650E+00  3.77146E+00  6.12315E+00  5.95932E+00
   9.67251E+00  1.46035E+01  1.65092E+01  1.85189E+01  2.45089E+01  3.46220E+01  3.82468E+01  4.51723E+01  5.35074E+01  5.94991E+01
   7.00002E+01  7.17399E+01  6.30075E+01  5.29036E+01  4.40093E+01  3.15676E+01  2.47218E+01  2.14013E+01  1.62594E+01  1.28087E+01
   6.26715E+00  8.37367E+00  8.21876E+00  2.87386E+00  8.63788E+00  5.50965E+00  7.67254E+00  4.90880E+00  5.43596E+00  3.66152E+00
   7.79491E+00  3.41252E+00  5.18275E+00  2.59482E+00  3.59655E+00  2.20641E+00  1.67153E+00  5.04547E-01  4.37245E+00  4.98236E+00
   1.97267E-01 -2.12574E-01  5.52936E+00  1.87785E+00  5.50687E+00  6.19524E+00  4.95334E+00  4.17003E+00  5.29370E+00  5.86815E+00
   5.23123E+00  7.72610E+00  8.99128E+00  9.70537E+00  9.83361E+00  1.31634E+01  9.30573E+00  8.59232E+00  1.00036E+01  1.01815E+01
   9.86193E+00  1.24291E+01  9.78042E+00  1.14248E+01  1.02636E+01  1.19311E+01  1.14113E+01  1.05321E+01  1.37428E+01  1.30442E+01
   1.22491E+01  1.49394E+01  1.71863E+01  1.56866E+01  1.75021E+01  1.72736E+01  1.33363E+01  1.43433E+01  1.45387E+01  1.44643E+01
   1.79835E+01  1.55183E+01  1.60601E+01  1.58530E+01  1.48759E+01  1.45966E+01  1.85412E+01  1.72803E+01  1.85787E+01  1.58502E+01
   1.60746E+01  1.53711E+01  1.36624E+01  1.75798E+01  1.42212E+01  1.47628E+01  1.79578E+01  1.91670E+01  1.57035E+01  1.43491E+01
   1.69724E+01  2.08146E+01  1.56673E+01  1.45417E+01  1.93673E+01  1.48498E+01  1.72178E+01  1.10643E+01  1.51139E+01  1.34844E+01
   1.11654E+01  1.50655E+01  1.04385E+01  1.41190E+01  1.23238E+01  1.40585E+01  9.90605E+00  1.48346E+01  9.52190E+00  1.57412E+01
   1.40763E+01  1.20569E+01  1.57604E+01  1.41277E+01  1.66169E+01  1.60256E+01  1.53708E+01  1.60347E+01  1.30342E+01  1.67213E+01
   1.38162E+01  1.75548E+01  1.21949E+01  1.25851E+01  1.34428E+01  1.13402E+01  1.50179E+01  1.67597E+01  1.41397E+01  1.14969E+01
   1.52629E+01  1.58201E+01  1.43217E+01  1.28933E+01  1.21111E+01  1.10529E+01  1.55213E+01  1.26833E+01  1.36952E+01  1.51582E+01
   1.39588E+01  1.36556E+01  1.45771E+01  1.31207E+01  9.90670E+00  1.43556E+01  1.13805E+01  1.30223E+01  1.12372E+01  1.35844E+01
   1.37659E+01  1.15138E+01  1.46214E+01  1.52273E+01  1.28300E+01  1.38344E+01  1.44584E+01  1.81337E+01  1.31607E+01  1.28719E+01
   1.22312E+01  1.29925E+01  1.10622E+01  1.19291E+01  1.05700E+01  1.22511E+01  1.27015E+01  1.12776E+01  1.47956E+01  1.14031E+01
   1.29287E+01  1.28895E+01  1.15230E+01  8.11725E+00  7.46116E+00  8.62914E+00  9.30113E+00  1.04636E+01  1.14228E+01  1.02982E+01
   1.18823E+01  1.26377E+01  1.23564E+01  8.73878E+00  1.06750E+01  9.34818E+00  1.14854E+01  1.26933E+01  1.35832E+01  7.24420E+00
   1.19403E+01  9.11069E+00  1.51917E+01  1.15959E+01  1.22105E+01  1.15494E+01  1.06082E+01  1.04601E+01  1.29769E+01  1.45288E+01
   1.18769E+01  1.08159E+01  1.24727E+01  1.34519E+01  1.37191E+01  1.12291E+01  1.34761E+01  1.86835E+01  1.08157E+01  1.06103E+01
   1.28619E+01  1.24346E+01  1.39235E+01  1.42461E+01  1.01446E+01  1.26284E+01  1.11576E+01  9.40919E+00  1.20520E+01  1.16869E+01
   7.90529E+00  8.75157E+00  1.06813E+01  8.88997E+00  1.03337E+01  7.48177E+00  1.31728E+01  1.16839E+01  9.96737E+00  1.33157E+01
   1.02873E+01  7.63014E+00  1.04742E+01  1.35058E+01  1.32860E+01  1.28013E+01  1.29920E+01  7.97681E+00
 NY points of the fit to the data follow
  -1.60471E+02 -1.58794E+02 -1.56085E+02 -1.52939E+02 -1.49605E+02 -1.45942E+02 -1.41945E+02 -1.37722E+02 -1.33494E+02 -1.29663E+02
  -1.26783E+02 -1.25307E+02 -1.25236E+02 -1.26138E+02 -1.27475E+02 -1.28837E+02 -1.29942E+02 -1.30747E+02 -1.31296E+02 -1.31695E+02
  -1.31726E+02 -1.30646E+02 -1.28663E+02 -1.26420E+02 -1.23948E+02 -1.21126E+02 -1.17913E+02 -1.14406E+02 -1.10776E+02 -1.07381E+02
  -1.04711E+02 -1.03097E+02 -1.02452E+02 -1.02572E+02 -1.03288E+02 -1.04320E+02 -1.05136E+02 -1.05323E+02 -1.04930E+02 -1.04125E+02
  -1.02731E+02 -1.00514E+02 -9.77952E+01 -9.49800E+01 -9.23430E+01 -9.02271E+01 -8.90017E+01 -8.88482E+01 -8.94764E+01 -9.03784E+01
  -9.11730E+01 -9.15738E+01 -9.15090E+01 -9.10712E+01 -9.04000E+01 -8.95589E+01 -8.84369E+01 -8.70263E+01 -8.56425E+01 -8.45858E+01
  -8.39212E+01 -8.34672E+01 -8.30481E+01 -8.25293E+01 -8.18050E+01 -8.08401E+01 -7.96973E+01 -7.84920E+01 -7.72734E+01 -7.60640E+01
  -7.49394E+01 -7.39520E+01 -7.31362E+01 -7.24668E+01 -7.18927E+01 -7.13745E+01 -7.09342E+01 -7.04674E+01 -6.97241E+01 -6.88666E+01
  -6.80486E+01 -6.71856E+01 -6.62319E+01 -6.51705E+01 -6.39953E+01 -6.27108E+01 -6.13979E+01 -6.03056E+01 -5.95668E+01 -5.91127E+01
  -5.87892E+01 -5.83864E+01 -5.73018E+01 -5.45934E+01 -5.11211E+01 -4.75991E+01 -4.38480E+01 -3.95168E+01 -3.44040E+01 -2.87731E+01
  -2.32702E+01 -1.89321E+01 -1.69366E+01 -1.77891E+01 -2.09692E+01 -2.54457E+01 -3.01987E+01 -3.45159E+01 -3.81758E+01 -4.12676E+01
  -4.39364E+01 -4.62203E+01 -4.77648E+01 -4.81316E+01 -4.78514E+01 -4.73634E+01 -4.66582E+01 -4.51967E+01 -4.22648E+01 -3.86691E+01
  -3.49385E+01 -3.08683E+01 -2.62809E+01 -2.11762E+01 -1.57170E+01 -1.04521E+01 -6.47431E+00 -4.83547E+00 -5.85001E+00 -8.96790E+00
  -1.32103E+01 -1.76817E+01 -2.18250E+01 -2.55152E+01 -2.89263E+01 -3.20834E+01 -3.47500E+01 -3.63850E+01 -3.66001E+01 -3.59635E+01
  -3.50453E+01 -3.41458E+01 -3.34417E+01 -3.29792E+01 -3.26802E+01 -3.24757E+01 -3.23813E+01 -3.23649E+01 -3.24036E+01 -3.24989E+01
  -3.26036E+01 -3.26781E+01 -3.27455E+01 -3.27740E+01 -3.27298E+01 -3.26084E+01 -3.24054E+01 -3.21974E+01 -3.20718E+01 -3.20120E+01
  -3.19679E+01 -3.18829E+01 -3.17081E+01 -3.14551E+01 -3.11995E+01 -3.10402E+01 -3.10458E+01 -3.12086E+01 -3.14478E+01 -3.16069E+01
  -3.16551E+01 -3.16569E+01 -3.17247E+01 -3.18671E+01 -3.19730E+01 -3.19625E+01 -3.18129E+01 -3.15546E+01 -3.12838E+01 -3.10279E+01
  -3.07099E+01 -3.02773E+01 -2.96770E+01 -2.88872E+01 -2.79500E+01 -2.69026E+01 -2.57249E+01 -2.44279E+01 -2.30558E+01 -2.17433E+01
  -2.05890E+01 -1.97179E+01 -1.92487E+01 -1.91437E+01 -1.92094E+01 -1.92041E+01 -1.90125E+01 -1.85855E+01 -1.79174E+01 -1.70790E+01
  -1.61321E+01 -1.52757E+01 -1.45652E+01 -1.40581E+01 -1.39140E+01 -1.41379E+01 -1.45558E+01 -1.49330E+01 -1.50912E+01 -1.51434E+01
  -1.49215E+01 -1.42906E+01 -1.33127E+01 -1.22103E+01 -1.12442E+01 -1.05096E+01 -1.01178E+01 -1.03244E+01 -1.11598E+01 -1.23525E+01
  -1.35533E+01 -1.44643E+01 -1.48219E+01 -1.44907E+01 -1.34801E+01 -1.20296E+01 -1.04577E+01 -8.95133E+00 -7.54821E+00 -6.36787E+00
  -5.43504E+00 -4.61995E+00 -3.80767E+00 -3.04778E+00 -2.50346E+00 -2.15316E+00 -1.88683E+00 -1.76860E+00 -1.93145E+00 -2.30624E+00
  -2.69822E+00 -2.94484E+00 -2.94914E+00 -2.62167E+00 -1.87565E+00 -8.04298E-01  4.06469E-01  1.68567E+00  2.94020E+00  4.15224E+00
   5.58707E+00  8.64564E+00  1.43063E+01  2.06413E+01  2.70231E+01  3.37558E+01  4.09581E+01  4.84727E+01  5.59227E+01  6.23992E+01
   6.62966E+01  6.60608E+01  6.14962E+01  5.38400E+01  4.47751E+01  3.58303E+01  2.79792E+01  2.13736E+01  1.57269E+01  1.07821E+01
   6.64562E+00  4.08341E+00  3.36486E+00  3.33695E+00  3.48878E+00  3.69171E+00  3.87998E+00  4.00381E+00  4.07195E+00  4.10710E+00
   4.12627E+00  4.14781E+00  4.19046E+00  4.25935E+00  4.35893E+00  4.49561E+00  4.66427E+00  4.85395E+00  5.05693E+00  5.26617E+00
   5.47814E+00  5.69275E+00  5.90518E+00  6.11539E+00  6.32670E+00  6.54093E+00  6.76101E+00  6.99067E+00  7.23012E+00  7.47795E+00
   7.73329E+00  7.99491E+00  8.26046E+00  8.52806E+00  8.79574E+00  9.06071E+00  9.32176E+00  9.57866E+00  9.83165E+00  1.00811E+01
   1.03278E+01  1.05736E+01  1.08211E+01  1.10735E+01  1.13354E+01  1.16128E+01  1.19150E+01  1.22608E+01  1.26814E+01  1.31183E+01
   1.34927E+01  1.38298E+01  1.41425E+01  1.44124E+01  1.46052E+01  1.46744E+01  1.46341E+01  1.45342E+01  1.43549E+01  1.41583E+01
   1.40464E+01  1.40871E+01  1.43100E+01  1.47047E+01  1.52217E+01  1.57760E+01  1.62616E+01  1.66130E+01  1.68262E+01  1.68881E+01
   1.68076E+01  1.66490E+01  1.64543E+01  1.62424E+01  1.60201E+01  1.57973E+01  1.56232E+01  1.55435E+01  1.55351E+01  1.55760E+01
   1.56479E+01  1.57310E+01  1.58040E+01  1.58464E+01  1.58413E+01  1.57787E+01  1.56566E+01  1.54813E+01  1.52658E+01  1.50274E+01
   1.47837E+01  1.45505E+01  1.43392E+01  1.41563E+01  1.40033E+01  1.38782E+01  1.37765E+01  1.36927E+01  1.36217E+01  1.35591E+01
   1.35019E+01  1.34481E+01  1.33969E+01  1.33482E+01  1.33026E+01  1.32609E+01  1.32244E+01  1.31941E+01  1.31712E+01  1.31569E+01
   1.31524E+01  1.31586E+01  1.31765E+01  1.32066E+01  1.32497E+01  1.33061E+01  1.33759E+01  1.34590E+01  1.35549E+01  1.36628E+01
   1.37814E+01  1.39090E+01  1.40437E+01  1.41829E+01  1.43236E+01  1.44627E+01  1.45966E+01  1.47217E+01  1.48341E+01  1.49304E+01
   1.50070E+01  1.50609E+01  1.50898E+01  1.50916E+01  1.50655E+01  1.50110E+01  1.49286E+01  1.48198E+01  1.46866E+01  1.45315E+01
   1.43575E+01  1.41682E+01  1.39672E+01  1.37585E+01  1.35457E+01  1.33326E+01  1.31223E+01  1.29179E+01  1.27219E+01  1.25362E+01
   1.23625E+01  1.22017E+01  1.20546E+01  1.19215E+01  1.18022E+01  1.16964E+01  1.16037E+01  1.15233E+01  1.14544E+01  1.13961E+01
   1.13476E+01  1.13079E+01  1.12762E+01  1.12515E+01  1.12332E+01  1.12205E+01  1.12126E+01  1.12090E+01  1.12092E+01  1.12125E+01
   1.12185E+01  1.12268E+01  1.12370E+01  1.12487E+01  1.12617E+01  1.12756E+01  1.12901E+01  1.13051E+01  1.13202E+01  1.13352E+01
   1.13500E+01  1.13643E+01  1.13781E+01  1.13910E+01  1.14031E+01  1.14144E+01  1.14249E+01  1.14345E+01  1.14432E+01  1.14510E+01
   1.14579E+01  1.14639E+01  1.14690E+01  1.14732E+01  1.14766E+01  1.14790E+01  1.14807E+01  1.14814E+01  1.14814E+01  1.14806E+01
   1.14789E+01  1.14765E+01  1.14734E+01  1.14695E+01  1.14649E+01  1.14596E+01  1.14537E+01  1.14472E+01  1.14400E+01  1.14323E+01
   1.14240E+01  1.14153E+01  1.14060E+01  1.13963E+01  1.13861E+01  1.13756E+01  1.13647E+01  1.13536E+01  1.13421E+01  1.13304E+01
   1.13185E+01  1.13065E+01  1.12943E+01  1.12822E+01  1.12700E+01  1.12579E+01  1.12460E+01  1.12342E+01
 NY background values follow
    -1.664E+02   -1.650E+02   -1.636E+02   -1.622E+02   -1.608E+02   -1.595E+02   -1.581E+02   -1.567E+02   -1.553E+02   -1.540E+02
    -1.526E+02   -1.512E+02   -1.499E+02   -1.485E+02   -1.471E+02   -1.458E+02   -1.444E+02   -1.431E+02   -1.417E+02   -1.404E+02
    -1.391E+02   -1.377E+02   -1.364E+02   -1.351E+02   -1.338E+02   -1.325E+02   -1.312E+02   -1.299E+02   -1.286E+02   -1.273E+02
    -1.260E+02   -1.247E+02   -1.235E+02   -1.222E+02   -1.210E+02   -1.197E+02   -1.185E+02   -1.173E+02   -1.160E+02   -1.148E+02
    -1.136E+02   -1.124E+02   -1.112E+02   -1.101E+02   -1.089E+02   -1.077E+02   -1.066E+02   -1.054E+02   -1.043E+02   -1.032E+02
    -1.021E+02   -1.010E+02   -9.987E+01   -9.879E+01   -9.771E+01   -9.664E+01   -9.559E+01   -9.454E+01   -9.350E+01   -9.247E+01
    -9.145E+01   -9.044E+01   -8.944E+01   -8.845E+01   -8.747E+01   -8.649E+01   -8.553E+01   -8.457E+01   -8.363E+01   -8.269E+01
    -8.176E+01   -8.084E+01   -7.993E+01   -7.903E+01   -7.813E+01   -7.725E+01   -7.637E+01   -7.551E+01   -7.465E+01   -7.380E+01
    -7.296E+01   -7.213E+01   -7.130E+01   -7.049E+01   -6.968E+01   -6.888E+01   -6.810E+01   -6.732E+01   -6.654E+01   -6.578E+01
    -6.503E+01   -6.428E+01   -6.354E+01   -6.281E+01   -6.209E+01   -6.138E+01   -6.068E+01   -5.998E+01   -5.929E+01   -5.861E+01
    -5.794E+01   -5.728E+01   -5.662E+01   -5.598E+01   -5.534E+01   -5.471E+01   -5.409E+01   -5.347E+01   -5.287E+01   -5.227E+01
    -5.168E+01   -5.110E+01   -5.052E+01   -4.995E+01   -4.940E+01   -4.885E+01   -4.830E+01   -4.777E+01   -4.724E+01   -4.672E+01
    -4.621E+01   -4.570E+01   -4.521E+01   -4.472E+01   -4.424E+01   -4.376E+01   -4.329E+01   -4.284E+01   -4.238E+01   -4.194E+01
    -4.150E+01   -4.107E+01   -4.065E+01   -4.024E+01   -3.983E+01   -3.943E+01   -3.904E+01   -3.865E+01   -3.827E+01   -3.790E+01
    -3.753E+01   -3.718E+01   -3.682E+01   -3.647E+01   -3.613E+01   -3.580E+01   -3.546E+01   -3.514E+01   -3.482E+01   -3.450E+01
    -3.419E+01   -3.388E+01   -3.357E+01   -3.327E+01   -3.297E+01   -3.267E+01   -3.238E+01   -3.209E+01   -3.181E+01   -3.152E+01
    -3.124E+01   -3.096E+01   -3.068E+01   -3.040E+01   -3.012E+01   -2.984E+01   -2.957E+01   -2.929E+01   -2.902E+01   -2.874E+01
    -2.847E+01   -2.819E+01   -2.791E+01   -2.764E+01   -2.736E+01   -2.708E+01   -2.680E+01   -2.651E+01   -2.623E+01   -2.594E+01
    -2.565E+01   -2.536E+01   -2.506E+01   -2.476E+01   -2.446E+01   -2.416E+01   -2.385E+01   -2.355E+01   -2.324E+01   -2.292E+01
    -2.261E+01   -2.229E+01   -2.198E+01   -2.166E+01   -2.134E+01   -2.102E+01   -2.069E+01   -2.037E+01   -2.005E+01   -1.972E+01
    -1.939E+01   -1.907E+01   -1.874E+01   -1.841E+01   -1.808E+01   -1.776E+01   -1.743E+01   -1.710E+01   -1.677E+01   -1.644E+01
    -1.612E+01   -1.579E+01   -1.547E+01   -1.514E+01   -1.482E+01   -1.449E+01   -1.417E+01   -1.385E+01   -1.353E+01   -1.321E+01
    -1.290E+01   -1.258E+01   -1.227E+01   -1.196E+01   -1.165E+01   -1.135E+01   -1.104E+01   -1.074E+01   -1.044E+01   -1.015E+01
    -9.851E+00   -9.559E+00   -9.270E+00   -8.983E+00   -8.698E+00   -8.415E+00   -8.134E+00   -7.856E+00   -7.580E+00   -7.306E+00
    -7.034E+00   -6.764E+00   -6.496E+00   -6.231E+00   -5.967E+00   -5.706E+00   -5.446E+00   -5.188E+00   -4.933E+00   -4.679E+00
    -4.428E+00   -4.178E+00   -3.930E+00   -3.684E+00   -3.439E+00   -3.197E+00   -2.956E+00   -2.717E+00   -2.480E+00   -2.245E+00
    -2.011E+00   -1.779E+00   -1.548E+00   -1.319E+00   -1.092E+00   -8.664E-01   -6.423E-01   -4.197E-01   -1.986E-01    2.091E-02
     2.390E-01    4.556E-01    6.709E-01    8.846E-01    1.097E+00    1.308E+00    1.517E+00    1.725E+00    1.931E+00    2.136E+00
     2.339E+00    2.541E+00    2.741E+00    2.940E+00    3.137E+00    3.332E+00    3.526E+00    3.718E+00    3.908E+00    4.097E+00
     4.284E+00    4.469E+00    4.652E+00    4.834E+00    5.014E+00    5.192E+00    5.369E+00    5.543E+00    5.716E+00    5.887E+00
     6.056E+00    6.223E+00    6.389E+00    6.552E+00    6.713E+00    6.873E+00    7.031E+00    7.186E+00    7.340E+00    7.492E+00
     7.641E+00    7.789E+00    7.934E+00    8.078E+00    8.219E+00    8.359E+00    8.496E+00    8.631E+00    8.764E+00    8.895E+00
     9.023E+00    9.150E+00    9.274E+00    9.395E+00    9.515E+00    9.631E+00    9.746E+00    9.858E+00    9.967E+00    1.007E+01
     1.018E+01    1.028E+01    1.038E+01    1.048E+01    1.057E+01    1.066E+01    1.075E+01    1.083E+01    1.092E+01    1.099E+01
     1.107E+01    1.114E+01    1.121E+01    1.128E+01    1.135E+01    1.141E+01    1.147E+01    1.152E+01    1.157E+01    1.162E+01
     1.166E+01    1.171E+01    1.174E+01    1.178E+01    1.181E+01    1.184E+01    1.186E+01    1.188E+01    1.190E+01    1.191E+01
     1.192E+01    1.193E+01    1.193E+01    1.193E+01    1.192E+01    1.191E+01    1.190E+01    1.189E+01    1.187E+01    1.185E+01
     1.183E+01    1.180E+01    1.177E+01    1.174E+01    1.171E+01    1.168E+01    1.164E+01    1.160E+01    1.156E+01    1.152E+01
     1.148E+01    1.144E+01    1.140E+01    1.136E+01    1.131E+01    1.127E+01    1.122E+01    1.118E+01    1.113E+01    1.109E+01
     1.105E+01    1.100E+01    1.096E+01    1.092E+01    1.088E+01    1.084E+01    1.080E+01    1.077E+01    1.073E+01    1.070E+01
     1.067E+01    1.064E+01    1.061E+01    1.059E+01    1.057E+01    1.055E+01    1.053E+01    1.052E+01    1.051E+01    1.050E+01
     1.050E+01    1.050E+01    1.050E+01    1.050E+01    1.051E+01    1.052E+01    1.053E+01    1.054E+01    1.055E+01    1.057E+01
     1.059E+01    1.061E+01    1.063E+01    1.066E+01    1.068E+01    1.071E+01    1.073E+01    1.076E+01    1.079E+01    1.082E+01
     1.086E+01    1.089E+01    1.092E+01    1.095E+01    1.099E+01    1.102E+01    1.106E+01    1.109E+01    1.112E+01    1.116E+01
     1.119E+01    1.123E+01    1.126E+01    1.129E+01    1.132E+01    1.136E+01    1.139E+01    1.142E+01    1.144E+01    1.147E+01
     1.150E+01    1.152E+01    1.155E+01    1.157E+01    1.159E+01    1.161E+01    1.163E+01    1.164E+01    1.166E+01    1.167E+01
     1.168E+01    1.169E+01    1.170E+01    1.171E+01    1.172E+01    1.173E+01    1.173E+01    1.173E+01    1.174E+01    1.174E+01
     1.174E+01    1.174E+01    1.174E+01    1.174E+01    1.173E+01    1.173E+01    1.173E+01    1.172E+01    1.171E+01    1.171E+01
     1.170E+01    1.169E+01    1.168E+01    1.167E+01    1.166E+01    1.165E+01    1.164E+01    1.163E+01    1.162E+01    1.160E+01
     1.159E+01    1.158E+01    1.156E+01    1.155E+01    1.153E+01    1.152E+01    1.150E+01    1.149E+01
 Ala      Conc. = 2.10E+02
