 LCModel (Version 6.3-1L) Copyright: S.W. Provencher.          Ref.: Magn. Reson. Med. 30:672-679 (1993).                
 Slice#1 Row#1 Col#14  K_02_press_1_raw_act
 36 lines in following concentration table = NCONC+1
    Conc.  %SD /Cr+PCr  Metabolite                                         
    0.000 999%   0.000 Ala                                                 
    3.193 128% 9.9E-02 Asp                                                 
    0.000 999%   0.000 Cr                                                  
   32.205 102%   1.000 PCr                                                 
    1.821 135% 5.7E-02 GABA                                                
    1.898 129% 5.9E-02 Glc                                                 
    0.000 999%   0.000 Gln                                                 
    0.000 999%   0.000 Glu                                                 
   10.247 127%   0.318 GPC                                                 
    0.000 999%   0.000 PCh                                                 
    0.000 999%   0.000 GSH                                                 
   11.714 999%   0.364 Ins                                                 
 2.92E+03   7%  90.606 Lac                                                 
    0.000 999%   0.000 NAA                                                 
    0.000 999%   0.000 NAAG                                                
    0.651 126% 2.0E-02 Scyllo                                              
    3.218 126%   0.100 Tau                                                 
    3.262 117%   0.101 -CrCH2                                              
   10.247 127%   0.318 GPC+PCh                                             
    0.000 999%   0.000 NAA+NAAG                                            
   32.205 102%   1.000 Cr+PCr                                              
    0.000 999%   0.000 Glu+Gln                                             
    0.000 999%   0.000 Lip13a                                              
  733.738  10%  22.783 Lip13b                                              
  195.911  10%   6.083 Lip09                                               
  301.694  13%   9.368 MM09                                                
  110.058  10%   3.417 Lip20                                               
  452.541  13%  14.052 MM20                                                
   90.508  13%   2.810 MM12                                                
  226.271  13%   7.026 MM14                                                
  113.136  13%   3.513 MM17                                                
  733.738  10%  22.783 Lip13a+Lip13b                                       
 1.05E+03   8%  32.619 MM14+Lip13a+Lip13b+MM12                             
  497.606   9%  15.451 MM09+Lip09                                          
  562.599  11%  17.469 MM20+Lip20                                          
   6 lines in following misc. output table
  FWHM = 0.168 ppm    S/N =   5                                            
  Data shift = 0.084 ppm                                                   
  Ph:  68 deg      42.3 deg/ppm                                            
  alphaB,S = 1.9E+00,   3.5E+02                                            
    8 spline knots.   Ns = 9(2)                                            
  (11) 4 infls.   ( 5) 1 extrs.                                            
  498 points on ppm-axis = NY
      4.000000     3.992357     3.984714     3.977070     3.969427     3.961784     3.954141     3.946497     3.938854     3.931211
      3.923568     3.915925     3.908281     3.900638     3.892995     3.885352     3.877708     3.870065     3.862422     3.854779
      3.847136     3.839492     3.831849     3.824206     3.816563     3.808919     3.801276     3.793633     3.785990     3.778347
      3.770703     3.763060     3.755417     3.747774     3.740130     3.732487     3.724844     3.717201     3.709558     3.701914
      3.694271     3.686628     3.678985     3.671341     3.663698     3.656055     3.648412     3.640769     3.633125     3.625482
      3.617839     3.610196     3.602552     3.594909     3.587266     3.579623     3.571980     3.564336     3.556693     3.549050
      3.541407     3.533763     3.526120     3.518477     3.510834     3.503191     3.495547     3.487904     3.480261     3.472618
      3.464974     3.457331     3.449688     3.442045     3.434402     3.426758     3.419115     3.411472     3.403829     3.396185
      3.388542     3.380899     3.373256     3.365613     3.357969     3.350326     3.342683     3.335040     3.327396     3.319753
      3.312110     3.304467     3.296824     3.289180     3.281537     3.273894     3.266251     3.258607     3.250964     3.243321
      3.235678     3.228034     3.220391     3.212748     3.205105     3.197462     3.189818     3.182175     3.174532     3.166889
      3.159245     3.151602     3.143959     3.136316     3.128673     3.121029     3.113386     3.105743     3.098100     3.090456
      3.082813     3.075170     3.067527     3.059884     3.052240     3.044597     3.036954     3.029311     3.021667     3.014024
      3.006381     2.998738     2.991095     2.983451     2.975808     2.968165     2.960522     2.952878     2.945235     2.937592
      2.929949     2.922306     2.914662     2.907019     2.899376     2.891733     2.884089     2.876446     2.868803     2.861160
      2.853517     2.845873     2.838230     2.830587     2.822944     2.815300     2.807657     2.800014     2.792371     2.784728
      2.777084     2.769441     2.761798     2.754155     2.746511     2.738868     2.731225     2.723582     2.715939     2.708295
      2.700652     2.693009     2.685366     2.677722     2.670079     2.662436     2.654793     2.647150     2.639506     2.631863
      2.624220     2.616577     2.608933     2.601290     2.593647     2.586004     2.578361     2.570717     2.563074     2.555431
      2.547788     2.540144     2.532501     2.524858     2.517215     2.509572     2.501928     2.494285     2.486642     2.478999
      2.471355     2.463712     2.456069     2.448426     2.440783     2.433139     2.425496     2.417853     2.410210     2.402566
      2.394923     2.387280     2.379637     2.371994     2.364350     2.356707     2.349064     2.341421     2.333777     2.326134
      2.318491     2.310848     2.303205     2.295561     2.287918     2.280275     2.272632     2.264988     2.257345     2.249702
      2.242059     2.234416     2.226772     2.219129     2.211486     2.203843     2.196199     2.188556     2.180913     2.173270
      2.165627     2.157983     2.150340     2.142697     2.135054     2.127410     2.119767     2.112124     2.104481     2.096838
      2.089194     2.081551     2.073908     2.066265     2.058621     2.050978     2.043335     2.035692     2.028049     2.020405
      2.012762     2.005119     1.997476     1.989833     1.982190     1.974546     1.966903     1.959260     1.951617     1.943974
      1.936331     1.928688     1.921045     1.913402     1.905759     1.898115     1.890472     1.882829     1.875186     1.867543
      1.859900     1.852257     1.844614     1.836971     1.829327     1.821684     1.814041     1.806398     1.798755     1.791112
      1.783469     1.775826     1.768183     1.760540     1.752896     1.745253     1.737610     1.729967     1.722324     1.714681
      1.707038     1.699395     1.691752     1.684108     1.676465     1.668822     1.661179     1.653536     1.645893     1.638250
      1.630607     1.622964     1.615321     1.607677     1.600034     1.592391     1.584748     1.577105     1.569462     1.561819
      1.554176     1.546533     1.538890     1.531246     1.523603     1.515960     1.508317     1.500674     1.493031     1.485388
      1.477745     1.470102     1.462458     1.454815     1.447172     1.439529     1.431886     1.424243     1.416600     1.408957
      1.401314     1.393671     1.386027     1.378384     1.370741     1.363098     1.355455     1.347812     1.340169     1.332526
      1.324883     1.317240     1.309596     1.301953     1.294310     1.286667     1.279024     1.271381     1.263738     1.256095
      1.248452     1.240808     1.233165     1.225522     1.217879     1.210236     1.202593     1.194950     1.187307     1.179664
      1.172021     1.164377     1.156734     1.149091     1.141448     1.133805     1.126162     1.118519     1.110876     1.103233
      1.095590     1.087946     1.080303     1.072660     1.065017     1.057374     1.049731     1.042088     1.034445     1.026802
      1.019158     1.011515     1.003872     0.996229     0.988586     0.980943     0.973300     0.965657     0.958014     0.950371
      0.942727     0.935084     0.927441     0.919798     0.912155     0.904512     0.896869     0.889226     0.881583     0.873940
      0.866296     0.858653     0.851010     0.843367     0.835724     0.828081     0.820438     0.812795     0.805152     0.797508
      0.789865     0.782222     0.774579     0.766936     0.759293     0.751650     0.744007     0.736364     0.728721     0.721077
      0.713434     0.705791     0.698148     0.690505     0.682862     0.675219     0.667576     0.659933     0.652290     0.644646
      0.637003     0.629360     0.621717     0.614074     0.606431     0.598788     0.591145     0.583502     0.575858     0.568215
      0.560572     0.552929     0.545286     0.537643     0.530000     0.522357     0.514714     0.507071     0.499427     0.491784
      0.484141     0.476498     0.468855     0.461212     0.453569     0.445925     0.438282     0.430639     0.422996     0.415353
      0.407710     0.400067     0.392424     0.384780     0.377137     0.369494     0.361851     0.354208     0.346565     0.338922
      0.331278     0.323635     0.315992     0.308349     0.300706     0.293063     0.285420     0.277777     0.270133     0.262490
      0.254847     0.247204     0.239561     0.231918     0.224275     0.216631     0.208988     0.201345
 NY phased data points follow
  -1.20822E+00  3.39829E-01  1.16111E+00  1.15142E+00  3.28192E-01  2.16091E+00 -1.04908E+00  2.54535E-01 -5.42988E-01 -5.53015E-02
  -5.23601E-01  9.89501E-01  1.42191E-01  4.64365E-01  6.16565E-01 -4.81109E-01 -9.75824E-01 -5.97827E-01 -3.91467E-01  2.23087E-01
  -6.98428E-01  8.68380E-02 -1.08051E+00  2.39798E-01  9.55907E-01 -3.07075E-01 -4.06390E-01  6.85395E-02 -2.10702E-01 -7.30281E-01
   5.97981E-01 -1.44677E-01 -8.16036E-01  1.43042E+00 -1.45570E-01 -9.97972E-01 -1.30484E+00  8.90922E-01  6.77552E-01 -3.12901E-02
  -1.21976E+00  7.27758E-02 -1.93437E+00 -1.39817E-01 -1.37185E+00  3.12915E-01  1.88096E-01  4.20363E-01 -1.72610E+00  5.81832E-01
  -1.03671E-01  8.47761E-01 -3.00709E-01 -9.24104E-01 -5.11384E-01 -6.09244E-01 -5.71368E-01  1.98756E-01 -1.24323E+00 -2.09945E+00
  -1.26070E+00 -9.06312E-01  1.05022E+00  2.12215E-01 -1.41821E+00 -1.00761E-01 -5.71290E-01 -1.69214E+00 -6.37678E-01  9.14255E-02
  -2.42002E-01  1.32005E-01 -6.57787E-01 -1.30215E+00 -1.00638E+00 -1.35677E+00 -2.43916E+00 -9.05385E-01  1.22415E+00 -1.94194E+00
  -4.99078E-01  5.36198E-01 -1.13193E+00  2.77411E-01 -1.72622E+00 -1.12960E+00 -1.53141E+00  8.10236E-01  2.18819E-01 -1.09217E+00
   6.64536E-02 -6.04619E-01  1.30601E+00  5.57352E-01 -1.14257E+00  2.64991E-01 -2.65475E+00 -7.74871E-01 -1.18771E+00 -1.04632E+00
  -1.11605E+00 -1.55333E+00 -1.59899E+00 -2.04631E+00 -3.07651E+00 -2.66083E-01 -1.49555E+00 -8.71301E-01 -1.18631E+00 -1.92074E+00
  -9.75270E-01 -3.42630E-01  4.01885E-01  2.69645E-01  9.30766E-01  3.62087E-01 -1.49978E-01  5.57304E-01 -1.36498E+00 -1.22873E+00
  -1.05063E+00 -1.23892E+00 -8.83690E-01 -2.10034E+00 -3.09201E-01 -7.16984E-01 -1.64989E+00 -1.98542E+00 -1.49334E+00  1.06429E+00
  -1.34030E+00 -2.30941E+00 -8.91083E-01 -2.10849E+00 -1.98541E+00 -1.82695E+00 -1.59629E+00 -5.11757E-01 -1.26338E+00 -7.50645E-01
  -1.82932E+00 -1.95993E+00 -2.57822E+00 -6.92137E-01 -3.08742E+00 -1.93853E+00 -3.97901E+00 -3.09782E+00  1.96425E-01 -1.28452E+00
  -2.67984E+00 -2.40141E+00 -1.78816E+00 -2.29480E+00 -2.44841E+00 -1.36252E+00 -2.43533E+00 -1.74217E+00 -1.80448E+00 -2.83034E+00
  -2.76526E+00 -1.97772E+00 -2.72689E+00 -5.79670E-01 -3.53343E+00 -1.78991E+00 -2.10253E+00 -2.19644E+00 -1.05401E+00 -1.46777E+00
  -1.93671E+00 -1.40114E+00 -1.52016E+00 -6.76023E-01 -7.71656E-01 -8.07365E-01 -8.84963E-01 -1.96316E+00 -1.59145E+00 -2.78758E+00
  -1.39046E+00 -1.57008E+00 -2.25003E+00 -2.15643E+00 -1.66704E+00 -2.50912E+00 -2.77433E+00 -1.69795E+00 -2.09119E+00 -1.83746E+00
  -3.15256E+00 -2.27881E+00 -1.53113E+00 -2.91958E+00 -6.86917E-01 -2.53096E+00 -3.06264E+00 -1.19357E+00 -8.11355E-01 -1.99196E+00
  -1.86919E+00 -3.85767E+00 -1.28522E+00 -1.93352E+00 -1.72433E+00 -2.44539E+00 -2.55076E+00 -1.77127E+00 -1.01654E+00 -1.35519E+00
  -2.55587E+00 -2.43571E+00 -1.60952E+00 -1.68413E+00 -1.06637E+00 -1.39206E+00 -1.47903E+00 -1.14267E+00 -3.38094E+00 -2.24591E+00
  -2.15569E+00 -3.14976E+00 -2.71902E+00 -1.72652E+00 -2.70773E+00 -3.57874E+00 -2.12288E+00 -2.49453E+00 -3.20884E+00 -2.60628E+00
  -3.16290E+00 -3.73754E+00 -1.47159E+00 -3.34751E+00 -3.44749E+00 -4.59042E+00 -2.75948E+00 -3.15159E+00 -4.17393E+00 -1.56915E+00
  -2.73661E+00 -1.93547E+00 -2.15176E+00 -1.35748E+00 -2.07577E+00 -1.09931E+00 -2.28941E+00 -2.31842E+00 -3.27796E+00 -1.55389E-01
  -2.29233E+00 -3.90081E+00 -4.42232E+00 -7.40771E+00 -4.12580E+00 -5.63730E+00 -2.91753E+00 -5.87073E+00 -5.43776E+00 -3.59510E+00
  -2.50450E+00 -4.83024E+00 -3.49904E+00 -2.88848E+00 -4.45375E+00 -4.62870E+00 -3.39661E+00 -4.22375E+00 -3.41439E+00 -2.68267E+00
  -3.33093E+00 -2.83638E+00 -2.32044E+00 -4.14647E+00 -2.68556E+00 -3.46252E+00 -2.51209E+00 -1.65991E+00 -5.01700E+00 -3.36609E+00
  -2.78769E+00 -3.28938E+00 -3.08962E+00 -4.17852E+00 -2.45696E+00 -5.61485E+00 -2.48666E+00 -3.52762E+00 -3.35744E+00 -4.47318E+00
  -3.06976E+00 -3.78849E+00 -2.94149E+00 -3.53867E+00 -4.32300E+00 -6.69241E+00 -3.60435E+00 -3.92462E+00 -4.34426E+00 -5.17370E+00
  -5.13938E+00 -5.30743E+00 -4.72550E+00 -5.07890E+00 -4.63297E+00 -4.41559E+00 -5.17138E+00 -5.04860E+00 -4.78307E+00 -5.48117E+00
  -5.01040E+00 -3.77386E+00 -3.16838E+00 -5.51329E+00 -2.79783E+00 -3.41849E+00 -2.66712E+00 -1.84163E+00 -1.06195E+00 -4.93505E-01
  -9.39455E-01  1.85209E+00 -1.54904E-01  1.65575E+00  3.25313E+00  2.59369E+00  3.53627E+00  4.94316E+00  6.30685E+00  5.64418E+00
   9.22933E+00  6.59822E+00  7.06082E+00  7.63720E+00  7.77445E+00  8.35754E+00  7.79283E+00  8.37853E+00  8.96817E+00  7.63054E+00
   8.41511E+00  7.08050E+00  7.84636E+00  1.00273E+01  8.81571E+00  7.87853E+00  7.73712E+00  7.28754E+00  5.94747E+00  7.04416E+00
   6.23830E+00  8.06703E+00  4.14125E+00  4.11482E+00  4.36031E+00  6.22304E+00  4.10167E+00  6.13869E+00  2.89924E+00  2.99649E+00
   3.18727E+00  1.35459E+00  2.83378E+00  2.69746E+00  2.05617E+00  4.74199E-01  2.65321E+00  1.27823E+00  5.45389E-01  1.05106E+00
   6.57529E-01  1.81020E+00  1.34505E+00  3.61109E-01  1.93015E+00  3.00632E+00  7.83819E-01  1.52757E+00  1.77996E+00  7.82415E-01
   6.88666E-01  2.93150E+00  1.63713E+00  8.29227E-01  1.74103E+00 -6.52823E-01  9.27103E-01  2.22520E+00  1.00237E+00  2.54987E+00
   1.04342E+00  2.28738E+00  7.03368E-01  2.95651E+00 -9.96231E-01  3.95969E-01 -1.24338E-01  1.22114E+00  5.26181E-01  1.81725E+00
  -4.41581E-01  3.35573E-01 -2.99419E-01  3.56411E-01 -1.51950E-01  1.04376E+00  5.38226E-01  1.05779E+00  3.71088E-01 -8.68724E-01
   1.01992E+00  1.23561E+00 -5.29360E-02 -6.22048E-01 -1.10219E-01  4.28417E-02  3.99552E-01 -6.04125E-02  5.50905E-01  3.89996E-01
  -4.09992E-01  5.49382E-01 -2.89503E-01  3.19271E-01  7.40870E-01 -3.25182E-01 -1.63882E+00 -9.41589E-01  2.39123E+00 -3.23952E-01
  -7.22092E-01 -8.75095E-01 -8.22726E-01  1.44708E+00  1.09446E-01 -1.12581E+00 -6.57557E-01 -5.02124E-01 -1.17980E+00  3.93604E-02
   1.18449E+00 -5.11558E-01 -1.47238E+00 -9.01778E-01  5.02002E-01 -1.55105E+00  8.37697E-01  3.06450E-01 -1.14611E+00 -2.99915E-01
  -5.84694E-01  8.28857E-01 -3.27589E-01  2.65563E-01  1.94222E-01  1.73919E+00  1.56674E-02 -8.85338E-02  2.75759E-01 -5.08950E-01
  -8.05169E-01 -1.34859E+00 -1.51470E+00 -1.31784E+00  1.17387E+00 -1.17394E+00  1.03512E+00 -5.78988E-01  2.59352E-02 -9.83275E-01
  -1.91871E+00 -1.21230E-01  6.67304E-02 -1.18236E-01 -3.37783E-01  8.32305E-01 -3.90444E-01  1.82752E-02  2.63844E+00 -4.98136E-01
   1.34102E+00 -3.48990E-01 -9.73122E-02  8.54234E-02 -1.23037E+00  7.39619E-01  1.27784E+00  4.01830E-01 -1.26133E+00 -1.58352E+00
   7.75991E-02  1.18584E+00 -3.57800E-01  4.38122E-01  2.23022E-01  3.62300E-03 -1.27742E+00 -2.64016E-03
 NY points of the fit to the data follow
  -6.93807E-02  4.76613E-01  5.71265E-02  5.06185E-01  2.29326E-01  6.24541E-01  3.52908E-01  6.19166E-01  3.77194E-01  5.12805E-01
   3.03647E-01  3.18969E-01  1.57997E-01  2.25592E-01  1.34542E-01  1.98315E-01  1.54661E-01  1.98585E-01  1.79250E-01  1.75076E-01
   1.27184E-01  1.10900E-01  6.67722E-02  4.66755E-02  9.10800E-03 -1.19372E-02 -4.46841E-02 -6.76956E-02 -9.36116E-02 -1.15506E-01
  -1.32049E-01 -1.47303E-01 -1.61083E-01 -1.75908E-01 -1.88251E-01 -2.03592E-01 -2.15177E-01 -2.31088E-01 -2.42063E-01 -2.58772E-01
  -2.69962E-01 -2.87257E-01 -2.98438E-01 -3.16153E-01 -3.27646E-01 -3.46350E-01 -3.58616E-01 -3.78309E-01 -3.91459E-01 -4.11749E-01
  -4.25722E-01 -4.45867E-01 -4.60735E-01 -4.80388E-01 -4.95426E-01 -5.14484E-01 -5.29687E-01 -5.47833E-01 -5.62970E-01 -5.80558E-01
  -5.95713E-01 -6.12992E-01 -6.28515E-01 -6.45712E-01 -6.61054E-01 -6.77715E-01 -6.93202E-01 -7.09335E-01 -7.23368E-01 -7.39111E-01
  -7.52727E-01 -7.69017E-01 -7.82472E-01 -7.99466E-01 -8.12708E-01 -8.30336E-01 -8.43477E-01 -8.61506E-01 -8.74388E-01 -8.92603E-01
  -9.05015E-01 -9.22503E-01 -9.34051E-01 -9.48603E-01 -9.47578E-01 -9.35830E-01 -9.36773E-01 -9.08188E-01 -9.17571E-01 -8.74874E-01
  -8.94857E-01 -8.39476E-01 -8.72847E-01 -8.09430E-01 -8.56273E-01 -7.88538E-01 -8.48259E-01 -7.79873E-01 -8.50899E-01 -7.86240E-01
  -8.66901E-01 -8.11253E-01 -8.97312E-01 -8.52648E-01 -9.39097E-01 -9.05594E-01 -9.86588E-01 -9.59369E-01 -1.01569E+00 -9.71394E-01
  -1.01938E+00 -9.62396E-01 -1.01074E+00 -9.44843E-01 -9.97686E-01 -9.25993E-01 -9.85577E-01 -9.09977E-01 -9.76947E-01 -8.99953E-01
  -9.76371E-01 -9.03635E-01 -9.87802E-01 -9.21105E-01 -1.00809E+00 -9.43380E-01 -1.03810E+00 -9.86506E-01 -1.08532E+00 -1.04862E+00
  -1.14617E+00 -1.12324E+00 -1.21580E+00 -1.20474E+00 -1.28873E+00 -1.28587E+00 -1.36327E+00 -1.36942E+00 -1.44133E+00 -1.45714E+00
  -1.52085E+00 -1.54321E+00 -1.59838E+00 -1.62520E+00 -1.67414E+00 -1.70621E+00 -1.74718E+00 -1.78069E+00 -1.80813E+00 -1.83353E+00
  -1.85933E+00 -1.88382E+00 -1.90921E+00 -1.93318E+00 -1.95837E+00 -1.98199E+00 -2.00714E+00 -2.03057E+00 -2.05571E+00 -2.07909E+00
  -2.10426E+00 -2.12763E+00 -2.15284E+00 -2.17629E+00 -2.20163E+00 -2.22516E+00 -2.25032E+00 -2.27375E+00 -2.29867E+00 -2.32197E+00
  -2.34661E+00 -2.36964E+00 -2.39386E+00 -2.41652E+00 -2.44030E+00 -2.46258E+00 -2.48563E+00 -2.50734E+00 -2.52952E+00 -2.55060E+00
  -2.57185E+00 -2.59222E+00 -2.61247E+00 -2.63201E+00 -2.65119E+00 -2.66988E+00 -2.68796E+00 -2.70571E+00 -2.72259E+00 -2.73922E+00
  -2.75485E+00 -2.77029E+00 -2.78460E+00 -2.79872E+00 -2.81166E+00 -2.82438E+00 -2.83589E+00 -2.84708E+00 -2.85709E+00 -2.86665E+00
  -2.87503E+00 -2.88278E+00 -2.88935E+00 -2.89506E+00 -2.89953E+00 -2.90281E+00 -2.90483E+00 -2.90551E+00 -2.90515E+00 -2.90325E+00
  -2.90050E+00 -2.89611E+00 -2.89119E+00 -2.88451E+00 -2.87736E+00 -2.86835E+00 -2.85897E+00 -2.84779E+00 -2.83639E+00 -2.82326E+00
  -2.81000E+00 -2.79507E+00 -2.78006E+00 -2.76341E+00 -2.74663E+00 -2.72812E+00 -2.70926E+00 -2.68850E+00 -2.66708E+00 -2.64355E+00
  -2.61897E+00 -2.59203E+00 -2.56370E+00 -2.53287E+00 -2.50046E+00 -2.46559E+00 -2.42918E+00 -2.39064E+00 -2.35097E+00 -2.30992E+00
  -2.26855E+00 -2.22696E+00 -2.18630E+00 -2.14688E+00 -2.10995E+00 -2.07593E+00 -2.04603E+00 -2.02076E+00 -2.00115E+00 -1.98756E+00
  -1.98079E+00 -1.98102E+00 -1.98866E+00 -2.00345E+00 -2.02542E+00 -2.05407E+00 -2.08919E+00 -2.13001E+00 -2.17608E+00 -2.22649E+00
  -2.28076E+00 -2.33789E+00 -2.39746E+00 -2.45850E+00 -2.52061E+00 -2.58296E+00 -2.64527E+00 -2.70680E+00 -2.76744E+00 -2.82655E+00
  -2.88408E+00 -2.93954E+00 -2.99296E+00 -3.04397E+00 -3.09261E+00 -3.13856E+00 -3.18190E+00 -3.22235E+00 -3.26006E+00 -3.29476E+00
  -3.32664E+00 -3.35539E+00 -3.38131E+00 -3.40410E+00 -3.42414E+00 -3.44111E+00 -3.45542E+00 -3.46673E+00 -3.47552E+00 -3.48144E+00
  -3.48498E+00 -3.48580E+00 -3.48428E+00 -3.48003E+00 -3.47346E+00 -3.46414E+00 -3.45239E+00 -3.43768E+00 -3.42016E+00 -3.39924E+00
  -3.37494E+00 -3.34649E+00 -3.31365E+00 -3.27535E+00 -3.23101E+00 -3.17933E+00 -3.11940E+00 -3.04959E+00 -2.96861E+00 -2.87457E+00
  -2.76601E+00 -2.64102E+00 -2.49823E+00 -2.33591E+00 -2.15294E+00 -1.94810E+00 -1.72090E+00 -1.47086E+00 -1.19810E+00 -9.02482E-01
  -5.84104E-01 -2.42271E-01  1.24318E-01  5.19317E-01  9.49645E-01  1.42929E+00  1.98515E+00  2.67644E+00  3.66339E+00  5.14021E+00
   5.85887E+00  7.01620E+00  7.32667E+00  8.00005E+00  7.85946E+00  7.87097E+00  7.24578E+00  7.72512E+00  7.19900E+00  7.96385E+00
   7.44091E+00  8.32835E+00  7.70575E+00  8.61209E+00  7.81223E+00  8.50676E+00  7.51463E+00  8.00333E+00  6.88824E+00  7.25393E+00
   6.16368E+00  6.54291E+00  5.58676E+00  5.93971E+00  5.15412E+00  5.49268E+00  4.77280E+00  4.88059E+00  4.18642E+00  4.06668E+00
   3.48580E+00  3.30702E+00  2.84126E+00  2.76471E+00  2.42361E+00  2.31926E+00  2.14809E+00  2.04826E+00  2.07555E+00  2.23408E+00
   2.12112E+00  2.02276E+00  1.84024E+00  1.47639E+00  1.20283E+00  6.46351E-01  3.50510E-01  2.05948E-01  1.42242E-01  1.31966E-01
   1.60256E-01  2.17741E-01  2.96978E-01  3.92075E-01  4.97293E-01  6.07582E-01  7.17739E-01  8.23281E-01  9.19798E-01  1.00383E+00
   1.07221E+00  1.12291E+00  1.15435E+00  1.16630E+00  1.15904E+00  1.13405E+00  1.09310E+00  1.03884E+00  9.73900E-01  9.01427E-01
   8.24184E-01  7.45061E-01  6.66199E-01  5.89617E-01  5.16461E-01  4.47721E-01  3.83534E-01  3.23936E-01  2.68237E-01  2.15855E-01
   1.65730E-01  1.17135E-01  6.90443E-02  2.09015E-02 -2.80352E-02 -7.79337E-02 -1.29077E-01 -1.81177E-01 -2.34122E-01 -2.87312E-01
  -3.40398E-01 -3.92602E-01 -4.43469E-01 -4.92205E-01 -5.38437E-01 -5.81522E-01 -6.21259E-01 -6.57176E-01 -6.89249E-01 -7.17199E-01
  -7.41204E-01 -7.61164E-01 -7.77387E-01 -7.89863E-01 -7.98969E-01 -8.04757E-01 -8.07660E-01 -8.07752E-01 -8.05454E-01 -8.00806E-01
  -7.94201E-01 -7.85667E-01 -7.75583E-01 -7.63941E-01 -7.51070E-01 -7.36914E-01 -7.21779E-01 -7.05598E-01 -6.88658E-01 -6.70864E-01
  -6.52462E-01 -6.33333E-01 -6.13720E-01 -5.93504E-01 -5.72918E-01 -5.51818E-01 -5.30412E-01 -5.08551E-01 -4.86451E-01 -4.63969E-01
  -4.41307E-01 -4.18301E-01 -3.95142E-01 -3.71673E-01 -3.48096E-01 -3.24252E-01 -3.00330E-01 -2.76156E-01 -2.51916E-01 -2.27450E-01
  -2.02949E-01 -1.78249E-01 -1.53527E-01 -1.28609E-01 -1.03678E-01 -7.85718E-02 -5.34776E-02 -2.82221E-02 -2.98029E-03  2.24235E-02
   4.78042E-02  7.33282E-02  9.88124E-02  1.24436E-01  1.50025E-01  1.75754E-01  2.01438E-01  2.27248E-01  2.53006E-01  2.78896E-01
   3.04742E-01  3.30723E-01  3.56654E-01  3.82718E-01  4.08744E-01  4.34926E-01  4.61097E-01  4.87452E-01
 NY background values follow
     4.552E-02    3.172E-02    1.793E-02    4.153E-03   -9.620E-03   -2.339E-02   -3.714E-02   -5.090E-02   -6.465E-02   -7.839E-02
    -9.213E-02   -1.059E-01   -1.196E-01   -1.333E-01   -1.471E-01   -1.608E-01   -1.745E-01   -1.883E-01   -2.020E-01   -2.158E-01
    -2.295E-01   -2.433E-01   -2.570E-01   -2.708E-01   -2.846E-01   -2.984E-01   -3.121E-01   -3.259E-01   -3.398E-01   -3.536E-01
    -3.674E-01   -3.813E-01   -3.951E-01   -4.090E-01   -4.229E-01   -4.368E-01   -4.507E-01   -4.646E-01   -4.786E-01   -4.926E-01
    -5.066E-01   -5.206E-01   -5.346E-01   -5.487E-01   -5.628E-01   -5.769E-01   -5.910E-01   -6.051E-01   -6.193E-01   -6.335E-01
    -6.478E-01   -6.620E-01   -6.763E-01   -6.906E-01   -7.050E-01   -7.194E-01   -7.338E-01   -7.482E-01   -7.627E-01   -7.772E-01
    -7.918E-01   -8.063E-01   -8.210E-01   -8.356E-01   -8.503E-01   -8.650E-01   -8.798E-01   -8.946E-01   -9.095E-01   -9.244E-01
    -9.393E-01   -9.543E-01   -9.693E-01   -9.844E-01   -9.995E-01   -1.015E+00   -1.030E+00   -1.045E+00   -1.060E+00   -1.076E+00
    -1.091E+00   -1.107E+00   -1.122E+00   -1.138E+00   -1.153E+00   -1.169E+00   -1.185E+00   -1.201E+00   -1.216E+00   -1.232E+00
    -1.248E+00   -1.264E+00   -1.280E+00   -1.296E+00   -1.313E+00   -1.329E+00   -1.345E+00   -1.362E+00   -1.378E+00   -1.395E+00
    -1.411E+00   -1.428E+00   -1.444E+00   -1.461E+00   -1.478E+00   -1.495E+00   -1.512E+00   -1.529E+00   -1.546E+00   -1.563E+00
    -1.580E+00   -1.597E+00   -1.615E+00   -1.632E+00   -1.650E+00   -1.667E+00   -1.684E+00   -1.702E+00   -1.720E+00   -1.737E+00
    -1.755E+00   -1.773E+00   -1.790E+00   -1.808E+00   -1.826E+00   -1.844E+00   -1.862E+00   -1.880E+00   -1.898E+00   -1.916E+00
    -1.934E+00   -1.952E+00   -1.971E+00   -1.989E+00   -2.007E+00   -2.025E+00   -2.044E+00   -2.062E+00   -2.080E+00   -2.099E+00
    -2.117E+00   -2.136E+00   -2.154E+00   -2.173E+00   -2.191E+00   -2.210E+00   -2.228E+00   -2.247E+00   -2.266E+00   -2.284E+00
    -2.303E+00   -2.321E+00   -2.340E+00   -2.359E+00   -2.378E+00   -2.396E+00   -2.415E+00   -2.434E+00   -2.453E+00   -2.471E+00
    -2.490E+00   -2.509E+00   -2.528E+00   -2.546E+00   -2.565E+00   -2.584E+00   -2.603E+00   -2.622E+00   -2.640E+00   -2.659E+00
    -2.678E+00   -2.697E+00   -2.716E+00   -2.735E+00   -2.753E+00   -2.772E+00   -2.791E+00   -2.810E+00   -2.828E+00   -2.847E+00
    -2.866E+00   -2.885E+00   -2.903E+00   -2.922E+00   -2.941E+00   -2.959E+00   -2.978E+00   -2.997E+00   -3.015E+00   -3.034E+00
    -3.053E+00   -3.071E+00   -3.090E+00   -3.108E+00   -3.127E+00   -3.145E+00   -3.163E+00   -3.182E+00   -3.200E+00   -3.219E+00
    -3.237E+00   -3.255E+00   -3.273E+00   -3.292E+00   -3.310E+00   -3.328E+00   -3.346E+00   -3.364E+00   -3.382E+00   -3.400E+00
    -3.418E+00   -3.435E+00   -3.453E+00   -3.470E+00   -3.488E+00   -3.505E+00   -3.522E+00   -3.540E+00   -3.557E+00   -3.574E+00
    -3.591E+00   -3.607E+00   -3.624E+00   -3.640E+00   -3.657E+00   -3.673E+00   -3.689E+00   -3.705E+00   -3.721E+00   -3.737E+00
    -3.752E+00   -3.767E+00   -3.783E+00   -3.798E+00   -3.812E+00   -3.827E+00   -3.842E+00   -3.856E+00   -3.870E+00   -3.884E+00
    -3.898E+00   -3.912E+00   -3.925E+00   -3.938E+00   -3.951E+00   -3.964E+00   -3.976E+00   -3.989E+00   -4.001E+00   -4.013E+00
    -4.024E+00   -4.036E+00   -4.047E+00   -4.058E+00   -4.068E+00   -4.079E+00   -4.089E+00   -4.099E+00   -4.108E+00   -4.118E+00
    -4.127E+00   -4.136E+00   -4.144E+00   -4.152E+00   -4.160E+00   -4.168E+00   -4.175E+00   -4.182E+00   -4.189E+00   -4.196E+00
    -4.202E+00   -4.208E+00   -4.213E+00   -4.218E+00   -4.223E+00   -4.228E+00   -4.232E+00   -4.236E+00   -4.239E+00   -4.242E+00
    -4.245E+00   -4.247E+00   -4.250E+00   -4.251E+00   -4.253E+00   -4.254E+00   -4.254E+00   -4.254E+00   -4.254E+00   -4.254E+00
    -4.253E+00   -4.251E+00   -4.249E+00   -4.247E+00   -4.245E+00   -4.242E+00   -4.238E+00   -4.234E+00   -4.230E+00   -4.225E+00
    -4.220E+00   -4.215E+00   -4.209E+00   -4.202E+00   -4.196E+00   -4.189E+00   -4.181E+00   -4.173E+00   -4.165E+00   -4.156E+00
    -4.147E+00   -4.137E+00   -4.127E+00   -4.117E+00   -4.106E+00   -4.095E+00   -4.084E+00   -4.072E+00   -4.060E+00   -4.047E+00
    -4.034E+00   -4.021E+00   -4.008E+00   -3.994E+00   -3.980E+00   -3.965E+00   -3.951E+00   -3.935E+00   -3.920E+00   -3.904E+00
    -3.888E+00   -3.872E+00   -3.855E+00   -3.838E+00   -3.821E+00   -3.804E+00   -3.786E+00   -3.768E+00   -3.749E+00   -3.731E+00
    -3.712E+00   -3.693E+00   -3.673E+00   -3.654E+00   -3.634E+00   -3.614E+00   -3.593E+00   -3.573E+00   -3.552E+00   -3.531E+00
    -3.510E+00   -3.488E+00   -3.466E+00   -3.444E+00   -3.422E+00   -3.400E+00   -3.377E+00   -3.355E+00   -3.332E+00   -3.308E+00
    -3.285E+00   -3.262E+00   -3.238E+00   -3.214E+00   -3.190E+00   -3.166E+00   -3.142E+00   -3.117E+00   -3.093E+00   -3.068E+00
    -3.043E+00   -3.018E+00   -2.993E+00   -2.967E+00   -2.942E+00   -2.916E+00   -2.891E+00   -2.865E+00   -2.839E+00   -2.813E+00
    -2.787E+00   -2.761E+00   -2.734E+00   -2.708E+00   -2.682E+00   -2.655E+00   -2.628E+00   -2.602E+00   -2.575E+00   -2.548E+00
    -2.521E+00   -2.494E+00   -2.467E+00   -2.440E+00   -2.413E+00   -2.386E+00   -2.359E+00   -2.331E+00   -2.304E+00   -2.277E+00
    -2.250E+00   -2.222E+00   -2.195E+00   -2.168E+00   -2.140E+00   -2.113E+00   -2.085E+00   -2.058E+00   -2.031E+00   -2.003E+00
    -1.976E+00   -1.948E+00   -1.921E+00   -1.893E+00   -1.865E+00   -1.838E+00   -1.810E+00   -1.783E+00   -1.755E+00   -1.727E+00
    -1.700E+00   -1.672E+00   -1.644E+00   -1.617E+00   -1.589E+00   -1.561E+00   -1.533E+00   -1.506E+00   -1.478E+00   -1.450E+00
    -1.422E+00   -1.395E+00   -1.367E+00   -1.339E+00   -1.311E+00   -1.283E+00   -1.256E+00   -1.228E+00   -1.200E+00   -1.172E+00
    -1.144E+00   -1.117E+00   -1.089E+00   -1.061E+00   -1.033E+00   -1.005E+00   -9.775E-01   -9.497E-01   -9.219E-01   -8.941E-01
    -8.663E-01   -8.385E-01   -8.107E-01   -7.829E-01   -7.552E-01   -7.274E-01   -6.996E-01   -6.719E-01   -6.441E-01   -6.164E-01
    -5.886E-01   -5.609E-01   -5.332E-01   -5.055E-01   -4.778E-01   -4.501E-01   -4.225E-01   -3.948E-01   -3.672E-01   -3.396E-01
    -3.120E-01   -2.844E-01   -2.568E-01   -2.292E-01   -2.017E-01   -1.742E-01   -1.467E-01   -1.192E-01   -9.171E-02   -6.427E-02
    -3.684E-02   -9.439E-03    1.794E-02    4.530E-02    7.264E-02    9.995E-02    1.272E-01    1.545E-01    1.817E-01    2.090E-01
     2.361E-01    2.633E-01    2.904E-01    3.175E-01    3.446E-01    3.717E-01    3.987E-01    4.257E-01
 Asp      Conc. = 3.19E+00
