 LCModel (Version 6.3-1L) Copyright: S.W. Provencher.          Ref.: Magn. Reson. Med. 30:672-679 (1993).                
 Slice#2 Row#6 Col#6  K_02_press_1_raw_act
 36 lines in following concentration table = NCONC+1
    Conc.  %SD /Cr+PCr  Metabolite                                         
    0.000 999%   0.000 Ala                                                 
    0.000 999%   0.000 Asp                                                 
  886.555  32%   0.425 Cr                                                  
 1.20E+03  25%   0.575 PCr                                                 
    0.000 999%   0.000 GABA                                                
    0.000 999%   0.000 Glc                                                 
  689.812  41%   0.331 Gln                                                 
 2.13E+03  15%   1.023 Glu                                                 
  887.445   4%   0.426 GPC                                                 
    0.000 999%   0.000 PCh                                                 
  753.037  13%   0.361 GSH                                                 
 1.63E+03  23%   0.780 Ins                                                 
    0.000 999%   0.000 Lac                                                 
 3.03E+03   5%   1.453 NAA                                                 
  432.979  39%   0.208 NAAG                                                
  109.938  35% 5.3E-02 Scyllo                                              
    0.000 999%   0.000 Tau                                                 
   63.671 251% 3.1E-02 -CrCH2                                              
  887.445   4%   0.426 GPC+PCh                                             
 3.46E+03   3%   1.661 NAA+NAAG                                            
 2.09E+03   4%   1.000 Cr+PCr                                              
 2.82E+03  16%   1.353 Glu+Gln                                             
 4.72E+03  28%   2.262 Lip13a                                              
    0.000 999%   0.000 Lip13b                                              
  741.485  73%   0.356 Lip09                                               
 1.67E+03  30%   0.803 MM09                                                
  929.372  38%   0.446 Lip20                                               
 3.35E+03  21%   1.605 MM20                                                
  579.886  51%   0.278 MM12                                                
 2.36E+03  28%   1.134 MM14                                                
  702.018  55%   0.337 MM17                                                
 4.72E+03  28%   2.262 Lip13a+Lip13b                                       
 7.66E+03  15%   3.674 MM14+Lip13a+Lip13b+MM12                             
 2.42E+03  17%   1.159 MM09+Lip09                                          
 4.28E+03  15%   2.050 MM20+Lip20                                          
   6 lines in following misc. output table
  FWHM = 0.046 ppm    S/N =  13                                            
  Data shift = 0.008 ppm                                                   
  Ph: -23 deg      -7.4 deg/ppm                                            
  alphaB,S = 7.3E-01,   1.1E+02                                            
   14 spline knots.   Ns = 7(1)                                            
  ( 7) 3 infls.   ( 3) 1 extrs.                                            
  498 points on ppm-axis = NY
      4.000000     3.992357     3.984714     3.977070     3.969427     3.961784     3.954141     3.946497     3.938854     3.931211
      3.923568     3.915925     3.908281     3.900638     3.892995     3.885352     3.877708     3.870065     3.862422     3.854779
      3.847136     3.839492     3.831849     3.824206     3.816563     3.808919     3.801276     3.793633     3.785990     3.778347
      3.770703     3.763060     3.755417     3.747774     3.740130     3.732487     3.724844     3.717201     3.709558     3.701914
      3.694271     3.686628     3.678985     3.671341     3.663698     3.656055     3.648412     3.640769     3.633125     3.625482
      3.617839     3.610196     3.602552     3.594909     3.587266     3.579623     3.571980     3.564336     3.556693     3.549050
      3.541407     3.533763     3.526120     3.518477     3.510834     3.503191     3.495547     3.487904     3.480261     3.472618
      3.464974     3.457331     3.449688     3.442045     3.434402     3.426758     3.419115     3.411472     3.403829     3.396185
      3.388542     3.380899     3.373256     3.365613     3.357969     3.350326     3.342683     3.335040     3.327396     3.319753
      3.312110     3.304467     3.296824     3.289180     3.281537     3.273894     3.266251     3.258607     3.250964     3.243321
      3.235678     3.228034     3.220391     3.212748     3.205105     3.197462     3.189818     3.182175     3.174532     3.166889
      3.159245     3.151602     3.143959     3.136316     3.128673     3.121029     3.113386     3.105743     3.098100     3.090456
      3.082813     3.075170     3.067527     3.059884     3.052240     3.044597     3.036954     3.029311     3.021667     3.014024
      3.006381     2.998738     2.991095     2.983451     2.975808     2.968165     2.960522     2.952878     2.945235     2.937592
      2.929949     2.922306     2.914662     2.907019     2.899376     2.891733     2.884089     2.876446     2.868803     2.861160
      2.853517     2.845873     2.838230     2.830587     2.822944     2.815300     2.807657     2.800014     2.792371     2.784728
      2.777084     2.769441     2.761798     2.754155     2.746511     2.738868     2.731225     2.723582     2.715939     2.708295
      2.700652     2.693009     2.685366     2.677722     2.670079     2.662436     2.654793     2.647150     2.639506     2.631863
      2.624220     2.616577     2.608933     2.601290     2.593647     2.586004     2.578361     2.570717     2.563074     2.555431
      2.547788     2.540144     2.532501     2.524858     2.517215     2.509572     2.501928     2.494285     2.486642     2.478999
      2.471355     2.463712     2.456069     2.448426     2.440783     2.433139     2.425496     2.417853     2.410210     2.402566
      2.394923     2.387280     2.379637     2.371994     2.364350     2.356707     2.349064     2.341421     2.333777     2.326134
      2.318491     2.310848     2.303205     2.295561     2.287918     2.280275     2.272632     2.264988     2.257345     2.249702
      2.242059     2.234416     2.226772     2.219129     2.211486     2.203843     2.196199     2.188556     2.180913     2.173270
      2.165627     2.157983     2.150340     2.142697     2.135054     2.127410     2.119767     2.112124     2.104481     2.096838
      2.089194     2.081551     2.073908     2.066265     2.058621     2.050978     2.043335     2.035692     2.028049     2.020405
      2.012762     2.005119     1.997476     1.989833     1.982190     1.974546     1.966903     1.959260     1.951617     1.943974
      1.936331     1.928688     1.921045     1.913402     1.905759     1.898115     1.890472     1.882829     1.875186     1.867543
      1.859900     1.852257     1.844614     1.836971     1.829327     1.821684     1.814041     1.806398     1.798755     1.791112
      1.783469     1.775826     1.768183     1.760540     1.752896     1.745253     1.737610     1.729967     1.722324     1.714681
      1.707038     1.699395     1.691752     1.684108     1.676465     1.668822     1.661179     1.653536     1.645893     1.638250
      1.630607     1.622964     1.615321     1.607677     1.600034     1.592391     1.584748     1.577105     1.569462     1.561819
      1.554176     1.546533     1.538890     1.531246     1.523603     1.515960     1.508317     1.500674     1.493031     1.485388
      1.477745     1.470102     1.462458     1.454815     1.447172     1.439529     1.431886     1.424243     1.416600     1.408957
      1.401314     1.393671     1.386027     1.378384     1.370741     1.363098     1.355455     1.347812     1.340169     1.332526
      1.324883     1.317240     1.309596     1.301953     1.294310     1.286667     1.279024     1.271381     1.263738     1.256095
      1.248452     1.240808     1.233165     1.225522     1.217879     1.210236     1.202593     1.194950     1.187307     1.179664
      1.172021     1.164377     1.156734     1.149091     1.141448     1.133805     1.126162     1.118519     1.110876     1.103233
      1.095590     1.087946     1.080303     1.072660     1.065017     1.057374     1.049731     1.042088     1.034445     1.026802
      1.019158     1.011515     1.003872     0.996229     0.988586     0.980943     0.973300     0.965657     0.958014     0.950371
      0.942727     0.935084     0.927441     0.919798     0.912155     0.904512     0.896869     0.889226     0.881583     0.873940
      0.866296     0.858653     0.851010     0.843367     0.835724     0.828081     0.820438     0.812795     0.805152     0.797508
      0.789865     0.782222     0.774579     0.766936     0.759293     0.751650     0.744007     0.736364     0.728721     0.721077
      0.713434     0.705791     0.698148     0.690505     0.682862     0.675219     0.667576     0.659933     0.652290     0.644646
      0.637003     0.629360     0.621717     0.614074     0.606431     0.598788     0.591145     0.583502     0.575858     0.568215
      0.560572     0.552929     0.545286     0.537643     0.530000     0.522357     0.514714     0.507071     0.499427     0.491784
      0.484141     0.476498     0.468855     0.461212     0.453569     0.445925     0.438282     0.430639     0.422996     0.415353
      0.407710     0.400067     0.392424     0.384780     0.377137     0.369494     0.361851     0.354208     0.346565     0.338922
      0.331278     0.323635     0.315992     0.308349     0.300706     0.293063     0.285420     0.277777     0.270133     0.262490
      0.254847     0.247204     0.239561     0.231918     0.224275     0.216631     0.208988     0.201345
 NY phased data points follow
  -7.19985E+01 -6.80197E+01 -5.98408E+01 -5.90508E+01 -5.43828E+01 -4.87638E+01 -3.98981E+01 -2.72435E+01 -2.00159E+01 -8.44777E+00
  -7.56315E+00 -1.10487E+01 -1.77225E+01 -2.54707E+01 -3.00691E+01 -3.44870E+01 -4.97570E+01 -5.29706E+01 -4.95920E+01 -5.28478E+01
  -5.08124E+01 -4.88953E+01 -4.90290E+01 -4.66589E+01 -4.13794E+01 -4.02971E+01 -3.71758E+01 -3.38663E+01 -3.31910E+01 -3.39878E+01
  -3.19328E+01 -3.25401E+01 -3.03281E+01 -3.15514E+01 -3.59781E+01 -3.75858E+01 -3.23717E+01 -3.58939E+01 -3.04318E+01 -3.31931E+01
  -2.98927E+01 -2.84053E+01 -2.53494E+01 -2.83494E+01 -2.38186E+01 -2.31797E+01 -1.95212E+01 -1.91316E+01 -2.15514E+01 -2.24166E+01
  -2.48728E+01 -3.23139E+01 -3.12333E+01 -3.14353E+01 -2.79213E+01 -3.50729E+01 -3.19505E+01 -3.59139E+01 -3.44079E+01 -3.20534E+01
  -3.45244E+01 -3.62640E+01 -4.13056E+01 -3.63431E+01 -3.66768E+01 -4.54388E+01 -4.25118E+01 -3.92450E+01 -3.88460E+01 -3.84231E+01
  -3.74517E+01 -3.37529E+01 -3.15557E+01 -3.38834E+01 -3.39524E+01 -4.17433E+01 -3.47336E+01 -2.98897E+01 -3.86717E+01 -2.65333E+01
  -3.09107E+01 -2.30249E+01 -2.82675E+01 -2.69837E+01 -2.33591E+01 -2.71082E+01 -2.99507E+01 -2.73308E+01 -2.67170E+01 -2.74279E+01
  -2.41210E+01 -1.97349E+01 -2.05439E+01 -1.86394E+01 -2.08958E+01 -1.33292E+01 -1.28790E+01 -6.87602E+00  3.53764E+00  2.14129E+01
   3.07981E+01  4.45062E+01  5.96465E+01  5.94717E+01  5.33546E+01  3.05765E+01  1.16405E+01  6.52414E+00 -9.77479E+00 -1.65420E+01
  -1.38341E+01 -1.73841E+01 -2.02788E+01 -2.23635E+01 -1.98048E+01 -1.42265E+01 -1.55162E+01 -1.46120E+01 -1.44662E+01 -8.69248E+00
  -9.28995E+00 -3.04829E+00 -4.29608E+00  8.71222E+00  1.81022E+01  3.78393E+01  4.90368E+01  5.71861E+01  5.41189E+01  3.86282E+01
   1.90735E+01  1.40879E+01 -2.34008E+00 -1.25270E+01 -1.70538E+01 -1.44913E+01 -1.51403E+01 -2.03493E+01 -1.88433E+01 -1.31209E+01
  -2.09898E+01 -1.37967E+01 -1.54571E+01 -1.68486E+01 -1.93127E+01 -1.47126E+01 -1.40076E+01 -1.61744E+01 -1.98305E+01 -1.24295E+01
  -1.77002E+01 -1.30562E+01 -2.03730E+01 -1.67774E+01 -1.81074E+01 -1.47448E+01 -1.39402E+01 -1.54198E+01 -2.35353E+01 -1.44572E+01
  -1.95746E+01 -1.76093E+01 -1.70454E+01 -2.03509E+01 -1.03200E+01 -1.61628E+01 -1.59406E+01 -1.26835E+01 -2.51610E+01 -2.98040E+01
  -3.01950E+01 -3.16383E+01 -3.41886E+01 -3.86023E+01 -3.69927E+01 -3.51783E+01 -3.72966E+01 -3.67163E+01 -2.98432E+01 -3.33004E+01
  -3.27121E+01 -3.18073E+01 -3.13900E+01 -2.50064E+01 -2.54171E+01 -3.32590E+01 -2.10281E+01 -2.10905E+01 -2.19451E+01 -1.07865E+01
  -1.08916E+01 -1.28698E+01 -1.11489E+01 -5.90223E+00 -7.42311E+00 -1.42558E+01 -1.77606E+01 -1.74174E+01 -2.08949E+01 -1.93707E+01
  -9.42863E+00 -1.81463E+01 -1.57283E+01 -3.53804E+00 -1.16126E+01 -1.32052E+01 -1.47993E+01 -1.60131E+01 -1.14913E+01 -1.51319E+01
  -2.13155E+01 -1.23271E+01 -1.37980E+01 -9.01637E+00 -4.38321E-03  7.04391E+00  5.50927E+00  5.97657E+00 -1.94430E+00 -7.85680E+00
  -1.80601E+01 -1.09441E+01 -1.41944E+01 -1.56338E+01 -1.27059E+01 -4.96631E+00  8.95026E-01  3.34459E+00  3.86529E+00  2.47372E+00
  -1.14435E+00  8.65446E-01 -4.44318E+00  3.38373E+00 -2.50113E+00  1.94061E-01  4.02659E+00  3.30394E+00 -4.24019E-01 -1.86800E+00
  -8.67498E+00 -7.27095E+00 -2.72401E+00 -4.01738E+00  1.08937E+00 -4.19482E+00  3.56479E+00  8.02028E+00  1.33911E+01  1.08670E+01
   1.19995E+01  2.06001E+01  2.92562E+01  3.20700E+01  3.70796E+01  4.34818E+01  6.02251E+01  8.01465E+01  9.58999E+01  1.04431E+02
   1.17535E+02  1.14705E+02  9.33355E+01  6.91666E+01  4.75990E+01  2.67179E+01  1.94465E+01  1.50715E+01  8.41636E+00  3.59831E+00
   5.35993E+00  8.34887E+00  4.98123E+00  4.72735E+00  7.54765E+00  1.52617E+00  2.51774E+00  4.16054E+00  9.27768E-01 -2.58698E+00
  -8.78937E-01 -4.25635E+00 -2.01096E+00 -6.01136E+00 -2.65610E+00 -7.31735E+00 -7.02328E+00 -2.62659E+00  7.10127E+00 -2.42454E+00
   5.88007E-01  1.22868E+00 -1.19659E+00  5.67450E-01 -5.90089E+00  2.93312E+00 -3.17680E+00  2.79799E+00 -6.08102E-01 -9.10022E-01
   1.72901E+00  3.79993E+00  1.00428E+00  4.81262E+00  1.80470E+00  1.05534E+00  9.31184E+00  4.83741E+00  1.43102E+01  7.01281E+00
   1.08485E+01  7.86948E+00  7.93674E+00  5.44607E+00  6.40044E+00  6.63416E+00  2.46161E+00  6.50549E+00  5.90063E+00  8.47884E+00
   5.47695E+00  5.18846E+00  1.13138E+01  1.02707E+01  3.43704E+00  9.93847E+00  1.37947E+01  1.60212E+01  1.41745E+01  1.47736E+01
   1.66057E+01  1.79723E+01  2.22475E+01  2.22719E+01  2.04253E+01  2.41700E+01  2.07891E+01  2.16336E+01  2.38056E+01  2.34375E+01
   1.88366E+01  2.35473E+01  2.31401E+01  2.23027E+01  2.43534E+01  2.67852E+01  1.87950E+01  2.73292E+01  2.47261E+01  2.44179E+01
   2.53342E+01  3.11891E+01  2.39586E+01  2.65866E+01  2.44710E+01  2.54368E+01  2.54641E+01  2.31486E+01  2.10695E+01  2.57933E+01
   2.39715E+01  2.04633E+01  2.55901E+01  1.56903E+01  1.31336E+01  1.96816E+01  1.83280E+01  2.14354E+01  1.74133E+01  1.50725E+01
   2.28120E+01  1.44411E+01  1.81541E+01  2.23057E+01  1.95231E+01  1.94889E+01  1.36536E+01  1.62565E+01  2.17857E+01  1.37479E+01
   1.41714E+01  2.13455E+01  1.29986E+01  1.20772E+01  1.25892E+01  1.23184E+01  1.73445E+00  1.36704E+01  8.15327E+00  9.54012E+00
   1.62570E+01  8.68941E+00  1.70657E+01  1.85823E+01  1.99436E+01  1.53307E+01  1.98266E+01  2.05224E+01  1.67932E+01  2.17981E+01
   1.57591E+01  1.46985E+01  1.90319E+01  2.32111E+01  2.42406E+01  2.32439E+01  3.41168E+01  2.21256E+01  2.66758E+01  2.43591E+01
   2.61118E+01  2.34241E+01  2.03618E+01  1.63185E+01  2.05241E+01  1.38418E+01  1.59065E+01  1.06432E+01  1.09847E+01  1.44220E+01
   1.61386E+01  8.10393E+00  1.08728E+01  1.31610E+01  1.28177E+01  1.64289E+01  9.03491E+00  8.03005E+00  6.46128E+00  5.98106E+00
   7.09308E+00  1.12461E+01  3.72520E+00  9.28937E+00  6.46990E+00  9.33907E+00  6.45995E+00  7.33370E+00  6.47603E+00  9.23964E+00
   1.42145E+01  6.42689E+00  8.76742E+00  1.11145E+01  7.23122E+00  5.83709E+00  7.98909E+00  4.60062E+00  7.54418E+00  9.34477E+00
   2.81349E+00  7.42058E+00  9.25882E+00  6.08960E+00  6.68653E+00  8.75148E+00  1.45134E+01  9.74663E+00  7.46900E+00  4.60246E+00
   4.69897E+00  8.10934E+00  6.88040E+00  6.83817E+00  2.76313E+00  8.37291E+00  4.70277E+00  3.38834E+00  8.80154E+00  6.01957E+00
   1.18130E+01  1.23754E+01  9.42106E+00  1.39073E+01  1.25908E+01  1.19543E+01  8.81731E+00  1.23533E+01  1.09594E+01  9.07654E+00
   1.22542E+01  9.79652E+00  1.08688E+01  1.36346E+01  4.78584E+00  8.63941E+00  8.07774E+00  3.48737E+00  6.85894E+00  3.32746E+00
   6.69300E+00  1.23153E+01  4.41014E+00  4.83450E+00  9.72793E+00  8.77394E+00  4.61158E+00  4.92758E+00
 NY points of the fit to the data follow
  -6.26143E+01 -6.18525E+01 -5.96706E+01 -5.60973E+01 -5.11968E+01 -4.49367E+01 -3.73353E+01 -2.85711E+01 -1.96846E+01 -1.25180E+01
  -9.12464E+00 -1.06788E+01 -1.65357E+01 -2.45408E+01 -3.23257E+01 -3.83868E+01 -4.25046E+01 -4.51987E+01 -4.68335E+01 -4.78032E+01
  -4.83053E+01 -4.85999E+01 -4.83738E+01 -4.73872E+01 -4.62319E+01 -4.44025E+01 -4.14867E+01 -3.77750E+01 -3.37004E+01 -2.99477E+01
  -2.73638E+01 -2.67192E+01 -2.79603E+01 -3.02930E+01 -3.30673E+01 -3.59035E+01 -3.83772E+01 -4.03557E+01 -4.14483E+01 -4.11797E+01
  -3.97404E+01 -3.75786E+01 -3.50542E+01 -3.23449E+01 -2.96274E+01 -2.71452E+01 -2.52666E+01 -2.45769E+01 -2.55034E+01 -2.78115E+01
  -3.07252E+01 -3.33455E+01 -3.50572E+01 -3.58431E+01 -3.58648E+01 -3.53253E+01 -3.44176E+01 -3.33364E+01 -3.23072E+01 -3.15655E+01
  -3.13335E+01 -3.17224E+01 -3.25590E+01 -3.35086E+01 -3.41338E+01 -3.42015E+01 -3.37683E+01 -3.29691E+01 -3.19780E+01 -3.10043E+01
  -3.01881E+01 -2.96121E+01 -2.93320E+01 -2.93366E+01 -2.95178E+01 -2.97187E+01 -2.98278E+01 -2.98139E+01 -2.96643E+01 -2.93227E+01
  -2.87882E+01 -2.82993E+01 -2.77315E+01 -2.70006E+01 -2.62575E+01 -2.56919E+01 -2.54725E+01 -2.57455E+01 -2.64337E+01 -2.71091E+01
  -2.74157E+01 -2.72339E+01 -2.66531E+01 -2.57908E+01 -2.44193E+01 -2.06775E+01 -1.39486E+01 -6.41388E+00  3.59133E+00  1.74549E+01
   3.36489E+01  4.90384E+01  5.94609E+01  6.04871E+01  5.06673E+01  3.37506E+01  1.58994E+01  1.28005E+00 -8.90183E+00 -1.51196E+01
  -1.88396E+01 -2.09235E+01 -2.15904E+01 -2.17277E+01 -2.16897E+01 -2.15661E+01 -2.13757E+01 -2.10719E+01 -2.05037E+01 -1.87847E+01
  -1.38557E+01 -7.41786E+00  1.33498E-01  1.06187E+01  2.38156E+01  3.76130E+01  4.91202E+01  5.44725E+01  5.07000E+01  3.89414E+01
   2.39471E+01  1.02402E+01 -2.62907E-01 -7.63572E+00 -1.27897E+01 -1.66318E+01 -1.87530E+01 -1.92285E+01 -1.85907E+01 -1.73057E+01
  -1.59223E+01 -1.49198E+01 -1.45224E+01 -1.47083E+01 -1.52676E+01 -1.59193E+01 -1.65071E+01 -1.70107E+01 -1.74208E+01 -1.77703E+01
  -1.80916E+01 -1.83803E+01 -1.86015E+01 -1.87695E+01 -1.89555E+01 -1.90693E+01 -1.91208E+01 -1.92528E+01 -1.95151E+01 -2.00054E+01
  -2.05941E+01 -2.09737E+01 -2.09751E+01 -2.06951E+01 -2.04171E+01 -2.04686E+01 -2.10055E+01 -2.18859E+01 -2.28159E+01 -2.36152E+01
  -2.42127E+01 -2.45797E+01 -2.49505E+01 -2.54525E+01 -2.60217E+01 -2.64273E+01 -2.64533E+01 -2.61107E+01 -2.56378E+01 -2.53241E+01
  -2.53646E+01 -2.54901E+01 -2.53514E+01 -2.48821E+01 -2.40902E+01 -2.29755E+01 -2.15030E+01 -1.95539E+01 -1.71859E+01 -1.48572E+01
  -1.32158E+01 -1.26814E+01 -1.31556E+01 -1.43510E+01 -1.57819E+01 -1.69000E+01 -1.73434E+01 -1.69026E+01 -1.56335E+01 -1.37456E+01
  -1.15990E+01 -9.62907E+00 -8.16329E+00 -7.62425E+00 -8.00111E+00 -9.35303E+00 -1.17422E+01 -1.45718E+01 -1.70294E+01 -1.83572E+01
  -1.81905E+01 -1.65856E+01 -1.35130E+01 -9.46124E+00 -5.36871E+00 -2.34095E+00 -1.37967E+00 -2.81499E+00 -6.26130E+00 -1.09351E+01
  -1.54107E+01 -1.84328E+01 -1.93439E+01 -1.78612E+01 -1.43785E+01 -9.83101E+00 -5.45578E+00 -2.32471E+00 -7.12737E-01 -3.01948E-01
  -3.94296E-01 -5.39723E-01 -4.10088E-01  2.83843E-01  1.40847E+00  2.47245E+00  3.01525E+00  2.98157E+00  2.38637E+00  1.28980E+00
   3.75834E-02 -7.65358E-01 -7.22865E-01  2.81630E-01  2.14115E+00  4.43622E+00  6.63096E+00  8.29606E+00  9.55311E+00  1.09960E+01
   1.25717E+01  1.47275E+01  1.86423E+01  2.70245E+01  3.88456E+01  5.06917E+01  6.40712E+01  7.96098E+01  9.54184E+01  1.08755E+02
   1.15624E+02  1.11275E+02  9.48644E+01  7.16931E+01  4.90536E+01  3.12251E+01  1.89937E+01  1.14034E+01  6.53998E+00  3.64359E+00
   2.40266E+00  1.78033E+00  1.44187E+00  1.27357E+00  1.17198E+00  1.01880E+00  7.64299E-01  4.18580E-01  4.22119E-02 -2.98148E-01
  -5.66011E-01 -7.52486E-01 -8.58575E-01 -8.97984E-01 -8.99850E-01 -8.87975E-01 -8.72937E-01 -8.45698E-01 -7.86764E-01 -6.78253E-01
  -5.12658E-01 -2.90214E-01 -2.24877E-02  2.74966E-01  5.83005E-01  8.91641E-01  1.20256E+00  1.52112E+00  1.85223E+00  2.20030E+00
   2.56620E+00  2.94508E+00  3.32468E+00  3.69219E+00  4.03834E+00  4.35744E+00  4.64824E+00  4.91260E+00  5.15316E+00  5.37500E+00
   5.58398E+00  5.78625E+00  5.98901E+00  6.20041E+00  6.42916E+00  6.68420E+00  6.97416E+00  7.30671E+00  7.68839E+00  8.12438E+00
   8.61832E+00  9.17197E+00  9.78507E+00  1.04553E+01  1.11785E+01  1.19489E+01  1.27591E+01  1.36002E+01  1.44622E+01  1.53345E+01
   1.62060E+01  1.70662E+01  1.79047E+01  1.87120E+01  1.94798E+01  2.02013E+01  2.08713E+01  2.14866E+01  2.20456E+01  2.25483E+01
   2.29959E+01  2.33911E+01  2.37376E+01  2.40392E+01  2.43000E+01  2.45236E+01  2.47131E+01  2.48706E+01  2.49975E+01  2.50939E+01
   2.51585E+01  2.51892E+01  2.51831E+01  2.51367E+01  2.50464E+01  2.49084E+01  2.47194E+01  2.44769E+01  2.41790E+01  2.38254E+01
   2.34169E+01  2.29556E+01  2.24448E+01  2.18893E+01  2.12950E+01  2.06687E+01  2.00180E+01  1.93511E+01  1.86761E+01  1.80016E+01
   1.73357E+01  1.66866E+01  1.60618E+01  1.54680E+01  1.49117E+01  1.43985E+01  1.39337E+01  1.35216E+01  1.31663E+01  1.28713E+01
   1.26397E+01  1.24744E+01  1.23783E+01  1.23537E+01  1.24028E+01  1.25276E+01  1.27297E+01  1.30100E+01  1.33688E+01  1.38052E+01
   1.43171E+01  1.49003E+01  1.55492E+01  1.62556E+01  1.70091E+01  1.77966E+01  1.86028E+01  1.94102E+01  2.01996E+01  2.09506E+01
   2.16423E+01  2.22543E+01  2.27674E+01  2.31648E+01  2.34325E+01  2.35605E+01  2.35431E+01  2.33792E+01  2.30722E+01  2.26302E+01
   2.20654E+01  2.13931E+01  2.06314E+01  1.97999E+01  1.89190E+01  1.80091E+01  1.70893E+01  1.61772E+01  1.52882E+01  1.44349E+01
   1.36276E+01  1.28738E+01  1.21783E+01  1.15437E+01  1.09705E+01  1.04576E+01  1.00026E+01  9.60228E+00  9.25254E+00  8.94905E+00
   8.68736E+00  8.46305E+00  8.27193E+00  8.11003E+00  7.97372E+00  7.85967E+00  7.76496E+00  7.68703E+00  7.62363E+00  7.57280E+00
   7.53282E+00  7.50220E+00  7.47970E+00  7.46423E+00  7.45489E+00  7.45083E+00  7.45135E+00  7.45580E+00  7.46371E+00  7.47460E+00
   7.48809E+00  7.50380E+00  7.52139E+00  7.54059E+00  7.56121E+00  7.58306E+00  7.60597E+00  7.62974E+00  7.65424E+00  7.67934E+00
   7.70497E+00  7.73101E+00  7.75738E+00  7.78397E+00  7.81071E+00  7.83756E+00  7.86447E+00  7.89137E+00  7.91821E+00  7.94492E+00
   7.97147E+00  7.99785E+00  8.02404E+00  8.04999E+00  8.07567E+00  8.10103E+00  8.12608E+00  8.15079E+00  8.17517E+00  8.19917E+00
   8.22276E+00  8.24593E+00  8.26871E+00  8.29108E+00  8.31303E+00  8.33454E+00  8.35560E+00  8.37622E+00  8.39642E+00  8.41619E+00
   8.43553E+00  8.45443E+00  8.47292E+00  8.49100E+00  8.50873E+00  8.52610E+00  8.54313E+00  8.55985E+00
 NY background values follow
    -6.652E+01   -6.599E+01   -6.545E+01   -6.492E+01   -6.439E+01   -6.385E+01   -6.332E+01   -6.280E+01   -6.227E+01   -6.174E+01
    -6.121E+01   -6.069E+01   -6.017E+01   -5.965E+01   -5.913E+01   -5.861E+01   -5.810E+01   -5.758E+01   -5.707E+01   -5.656E+01
    -5.606E+01   -5.555E+01   -5.505E+01   -5.455E+01   -5.406E+01   -5.356E+01   -5.307E+01   -5.258E+01   -5.210E+01   -5.162E+01
    -5.114E+01   -5.066E+01   -5.019E+01   -4.972E+01   -4.926E+01   -4.880E+01   -4.834E+01   -4.789E+01   -4.744E+01   -4.699E+01
    -4.655E+01   -4.611E+01   -4.568E+01   -4.525E+01   -4.483E+01   -4.441E+01   -4.399E+01   -4.358E+01   -4.318E+01   -4.278E+01
    -4.238E+01   -4.199E+01   -4.160E+01   -4.122E+01   -4.084E+01   -4.047E+01   -4.010E+01   -3.973E+01   -3.937E+01   -3.901E+01
    -3.866E+01   -3.831E+01   -3.796E+01   -3.762E+01   -3.729E+01   -3.695E+01   -3.662E+01   -3.630E+01   -3.598E+01   -3.566E+01
    -3.534E+01   -3.503E+01   -3.473E+01   -3.442E+01   -3.413E+01   -3.383E+01   -3.354E+01   -3.325E+01   -3.296E+01   -3.268E+01
    -3.240E+01   -3.213E+01   -3.185E+01   -3.159E+01   -3.132E+01   -3.106E+01   -3.080E+01   -3.054E+01   -3.029E+01   -3.004E+01
    -2.979E+01   -2.955E+01   -2.930E+01   -2.907E+01   -2.883E+01   -2.860E+01   -2.837E+01   -2.814E+01   -2.792E+01   -2.770E+01
    -2.748E+01   -2.727E+01   -2.706E+01   -2.685E+01   -2.665E+01   -2.645E+01   -2.625E+01   -2.606E+01   -2.587E+01   -2.568E+01
    -2.550E+01   -2.532E+01   -2.515E+01   -2.498E+01   -2.481E+01   -2.465E+01   -2.449E+01   -2.434E+01   -2.419E+01   -2.404E+01
    -2.390E+01   -2.376E+01   -2.362E+01   -2.349E+01   -2.337E+01   -2.325E+01   -2.313E+01   -2.302E+01   -2.291E+01   -2.280E+01
    -2.270E+01   -2.261E+01   -2.252E+01   -2.243E+01   -2.235E+01   -2.228E+01   -2.221E+01   -2.214E+01   -2.208E+01   -2.202E+01
    -2.196E+01   -2.191E+01   -2.187E+01   -2.182E+01   -2.178E+01   -2.175E+01   -2.171E+01   -2.168E+01   -2.165E+01   -2.162E+01
    -2.159E+01   -2.157E+01   -2.154E+01   -2.152E+01   -2.150E+01   -2.148E+01   -2.146E+01   -2.143E+01   -2.141E+01   -2.139E+01
    -2.137E+01   -2.134E+01   -2.132E+01   -2.129E+01   -2.127E+01   -2.124E+01   -2.121E+01   -2.117E+01   -2.114E+01   -2.110E+01
    -2.106E+01   -2.101E+01   -2.096E+01   -2.091E+01   -2.086E+01   -2.080E+01   -2.073E+01   -2.066E+01   -2.059E+01   -2.051E+01
    -2.043E+01   -2.034E+01   -2.024E+01   -2.014E+01   -2.004E+01   -1.993E+01   -1.981E+01   -1.969E+01   -1.956E+01   -1.944E+01
    -1.930E+01   -1.917E+01   -1.902E+01   -1.888E+01   -1.873E+01   -1.858E+01   -1.842E+01   -1.827E+01   -1.811E+01   -1.794E+01
    -1.778E+01   -1.761E+01   -1.744E+01   -1.727E+01   -1.709E+01   -1.692E+01   -1.674E+01   -1.657E+01   -1.639E+01   -1.621E+01
    -1.603E+01   -1.585E+01   -1.567E+01   -1.549E+01   -1.531E+01   -1.513E+01   -1.495E+01   -1.477E+01   -1.459E+01   -1.441E+01
    -1.423E+01   -1.406E+01   -1.389E+01   -1.371E+01   -1.354E+01   -1.338E+01   -1.321E+01   -1.305E+01   -1.288E+01   -1.273E+01
    -1.257E+01   -1.241E+01   -1.226E+01   -1.211E+01   -1.196E+01   -1.182E+01   -1.167E+01   -1.153E+01   -1.139E+01   -1.125E+01
    -1.111E+01   -1.097E+01   -1.084E+01   -1.071E+01   -1.058E+01   -1.045E+01   -1.032E+01   -1.019E+01   -1.006E+01   -9.938E+00
    -9.815E+00   -9.692E+00   -9.571E+00   -9.450E+00   -9.331E+00   -9.212E+00   -9.095E+00   -8.978E+00   -8.862E+00   -8.746E+00
    -8.632E+00   -8.518E+00   -8.404E+00   -8.291E+00   -8.178E+00   -8.066E+00   -7.954E+00   -7.843E+00   -7.731E+00   -7.620E+00
    -7.509E+00   -7.398E+00   -7.287E+00   -7.176E+00   -7.066E+00   -6.955E+00   -6.844E+00   -6.733E+00   -6.623E+00   -6.512E+00
    -6.402E+00   -6.291E+00   -6.181E+00   -6.070E+00   -5.960E+00   -5.850E+00   -5.739E+00   -5.629E+00   -5.519E+00   -5.409E+00
    -5.299E+00   -5.189E+00   -5.080E+00   -4.970E+00   -4.860E+00   -4.751E+00   -4.641E+00   -4.532E+00   -4.422E+00   -4.313E+00
    -4.204E+00   -4.095E+00   -3.986E+00   -3.877E+00   -3.769E+00   -3.660E+00   -3.551E+00   -3.443E+00   -3.335E+00   -3.226E+00
    -3.118E+00   -3.010E+00   -2.902E+00   -2.795E+00   -2.687E+00   -2.580E+00   -2.472E+00   -2.365E+00   -2.258E+00   -2.151E+00
    -2.044E+00   -1.938E+00   -1.831E+00   -1.725E+00   -1.620E+00   -1.514E+00   -1.409E+00   -1.305E+00   -1.200E+00   -1.097E+00
    -9.932E-01   -8.902E-01   -7.878E-01   -6.859E-01   -5.846E-01   -4.838E-01   -3.836E-01   -2.840E-01   -1.851E-01   -8.685E-02
     1.070E-02    1.075E-01    2.036E-01    2.989E-01    3.934E-01    4.871E-01    5.800E-01    6.720E-01    7.630E-01    8.532E-01
     9.424E-01    1.031E+00    1.118E+00    1.204E+00    1.289E+00    1.373E+00    1.456E+00    1.538E+00    1.619E+00    1.699E+00
     1.777E+00    1.854E+00    1.930E+00    2.005E+00    2.078E+00    2.151E+00    2.222E+00    2.292E+00    2.361E+00    2.429E+00
     2.496E+00    2.562E+00    2.628E+00    2.692E+00    2.756E+00    2.819E+00    2.881E+00    2.942E+00    3.003E+00    3.063E+00
     3.123E+00    3.182E+00    3.241E+00    3.299E+00    3.357E+00    3.414E+00    3.471E+00    3.528E+00    3.585E+00    3.641E+00
     3.697E+00    3.753E+00    3.809E+00    3.865E+00    3.921E+00    3.976E+00    4.032E+00    4.088E+00    4.144E+00    4.201E+00
     4.257E+00    4.314E+00    4.371E+00    4.428E+00    4.486E+00    4.544E+00    4.603E+00    4.662E+00    4.721E+00    4.781E+00
     4.842E+00    4.903E+00    4.964E+00    5.026E+00    5.088E+00    5.150E+00    5.212E+00    5.275E+00    5.338E+00    5.401E+00
     5.464E+00    5.528E+00    5.591E+00    5.655E+00    5.718E+00    5.782E+00    5.845E+00    5.909E+00    5.972E+00    6.035E+00
     6.098E+00    6.161E+00    6.224E+00    6.287E+00    6.349E+00    6.411E+00    6.472E+00    6.534E+00    6.595E+00    6.655E+00
     6.715E+00    6.775E+00    6.834E+00    6.892E+00    6.950E+00    7.008E+00    7.064E+00    7.120E+00    7.176E+00    7.231E+00
     7.285E+00    7.338E+00    7.390E+00    7.442E+00    7.493E+00    7.543E+00    7.592E+00    7.640E+00    7.688E+00    7.735E+00
     7.781E+00    7.826E+00    7.870E+00    7.914E+00    7.956E+00    7.998E+00    8.039E+00    8.080E+00    8.119E+00    8.158E+00
     8.196E+00    8.233E+00    8.269E+00    8.305E+00    8.339E+00    8.373E+00    8.406E+00    8.439E+00    8.470E+00    8.501E+00
     8.531E+00    8.560E+00    8.589E+00    8.616E+00    8.643E+00    8.669E+00    8.694E+00    8.719E+00    8.742E+00    8.765E+00
     8.787E+00    8.809E+00    8.829E+00    8.849E+00    8.868E+00    8.886E+00    8.904E+00    8.920E+00
 Cr       Conc. = 8.87E+02
