 LCModel (Version 6.3-1L) Copyright: S.W. Provencher.          Ref.: Magn. Reson. Med. 30:672-679 (1993).                
 Slice#1 Row#6 Col#8  K_02_press_1_raw_act
 36 lines in following concentration table = NCONC+1
    Conc.  %SD /Cr+PCr  Metabolite                                         
    0.000 999%   0.000 Ala                                                 
   89.055 198% 8.9E-02 Asp                                                 
 1.00E+03   7%   1.000 Cr                                                  
    0.000 999%   0.000 PCr                                                 
   45.176 240% 4.5E-02 GABA                                                
   99.455 112% 9.9E-02 Glc                                                 
  591.273  36%   0.589 Gln                                                 
 1.26E+03  20%   1.251 Glu                                                 
  370.893   7%   0.369 GPC                                                 
    0.000 999%   0.000 PCh                                                 
  289.665  26%   0.288 GSH                                                 
 1.16E+03  22%   1.154 Ins                                                 
    0.000 999%   0.000 Lac                                                 
 1.29E+03   8%   1.283 NAA                                                 
  417.153  26%   0.415 NAAG                                                
    9.349 262% 9.3E-03 Scyllo                                              
    0.000 999%   0.000 Tau                                                 
    0.000 999%   0.000 -CrCH2                                              
  370.893   7%   0.369 GPC+PCh                                             
 1.71E+03   6%   1.698 NAA+NAAG                                            
 1.00E+03   7%   1.000 Cr+PCr                                              
 1.85E+03  18%   1.840 Glu+Gln                                             
 1.68E+03  36%   1.674 Lip13a                                              
    0.000 999%   0.000 Lip13b                                              
  329.587 116%   0.328 Lip09                                               
 2.20E+03  20%   2.195 MM09                                                
  160.256 169%   0.160 Lip20                                               
 1.79E+03  29%   1.779 MM20                                                
 1.36E+03  24%   1.355 MM12                                                
 2.71E+03   9%   2.694 MM14                                                
 1.48E+03  26%   1.469 MM17                                                
 1.68E+03  36%   1.674 Lip13a+Lip13b                                       
 5.75E+03   9%   5.723 MM14+Lip13a+Lip13b+MM12                             
 2.53E+03  11%   2.523 MM09+Lip09                                          
 1.95E+03  26%   1.939 MM20+Lip20                                          
   6 lines in following misc. output table
  FWHM = 0.046 ppm    S/N =   7                                            
  Data shift =-0.008 ppm                                                   
  Ph:  27 deg      19.2 deg/ppm                                            
  alphaB,S = 2.0E+00,   4.7E+01                                            
   14 spline knots.   Ns = 6(1)                                            
  (11) 3 infls.   ( 8) 2 extrs.                                            
  498 points on ppm-axis = NY
      4.000000     3.992357     3.984714     3.977070     3.969427     3.961784     3.954141     3.946497     3.938854     3.931211
      3.923568     3.915925     3.908281     3.900638     3.892995     3.885352     3.877708     3.870065     3.862422     3.854779
      3.847136     3.839492     3.831849     3.824206     3.816563     3.808919     3.801276     3.793633     3.785990     3.778347
      3.770703     3.763060     3.755417     3.747774     3.740130     3.732487     3.724844     3.717201     3.709558     3.701914
      3.694271     3.686628     3.678985     3.671341     3.663698     3.656055     3.648412     3.640769     3.633125     3.625482
      3.617839     3.610196     3.602552     3.594909     3.587266     3.579623     3.571980     3.564336     3.556693     3.549050
      3.541407     3.533763     3.526120     3.518477     3.510834     3.503191     3.495547     3.487904     3.480261     3.472618
      3.464974     3.457331     3.449688     3.442045     3.434402     3.426758     3.419115     3.411472     3.403829     3.396185
      3.388542     3.380899     3.373256     3.365613     3.357969     3.350326     3.342683     3.335040     3.327396     3.319753
      3.312110     3.304467     3.296824     3.289180     3.281537     3.273894     3.266251     3.258607     3.250964     3.243321
      3.235678     3.228034     3.220391     3.212748     3.205105     3.197462     3.189818     3.182175     3.174532     3.166889
      3.159245     3.151602     3.143959     3.136316     3.128673     3.121029     3.113386     3.105743     3.098100     3.090456
      3.082813     3.075170     3.067527     3.059884     3.052240     3.044597     3.036954     3.029311     3.021667     3.014024
      3.006381     2.998738     2.991095     2.983451     2.975808     2.968165     2.960522     2.952878     2.945235     2.937592
      2.929949     2.922306     2.914662     2.907019     2.899376     2.891733     2.884089     2.876446     2.868803     2.861160
      2.853517     2.845873     2.838230     2.830587     2.822944     2.815300     2.807657     2.800014     2.792371     2.784728
      2.777084     2.769441     2.761798     2.754155     2.746511     2.738868     2.731225     2.723582     2.715939     2.708295
      2.700652     2.693009     2.685366     2.677722     2.670079     2.662436     2.654793     2.647150     2.639506     2.631863
      2.624220     2.616577     2.608933     2.601290     2.593647     2.586004     2.578361     2.570717     2.563074     2.555431
      2.547788     2.540144     2.532501     2.524858     2.517215     2.509572     2.501928     2.494285     2.486642     2.478999
      2.471355     2.463712     2.456069     2.448426     2.440783     2.433139     2.425496     2.417853     2.410210     2.402566
      2.394923     2.387280     2.379637     2.371994     2.364350     2.356707     2.349064     2.341421     2.333777     2.326134
      2.318491     2.310848     2.303205     2.295561     2.287918     2.280275     2.272632     2.264988     2.257345     2.249702
      2.242059     2.234416     2.226772     2.219129     2.211486     2.203843     2.196199     2.188556     2.180913     2.173270
      2.165627     2.157983     2.150340     2.142697     2.135054     2.127410     2.119767     2.112124     2.104481     2.096838
      2.089194     2.081551     2.073908     2.066265     2.058621     2.050978     2.043335     2.035692     2.028049     2.020405
      2.012762     2.005119     1.997476     1.989833     1.982190     1.974546     1.966903     1.959260     1.951617     1.943974
      1.936331     1.928688     1.921045     1.913402     1.905759     1.898115     1.890472     1.882829     1.875186     1.867543
      1.859900     1.852257     1.844614     1.836971     1.829327     1.821684     1.814041     1.806398     1.798755     1.791112
      1.783469     1.775826     1.768183     1.760540     1.752896     1.745253     1.737610     1.729967     1.722324     1.714681
      1.707038     1.699395     1.691752     1.684108     1.676465     1.668822     1.661179     1.653536     1.645893     1.638250
      1.630607     1.622964     1.615321     1.607677     1.600034     1.592391     1.584748     1.577105     1.569462     1.561819
      1.554176     1.546533     1.538890     1.531246     1.523603     1.515960     1.508317     1.500674     1.493031     1.485388
      1.477745     1.470102     1.462458     1.454815     1.447172     1.439529     1.431886     1.424243     1.416600     1.408957
      1.401314     1.393671     1.386027     1.378384     1.370741     1.363098     1.355455     1.347812     1.340169     1.332526
      1.324883     1.317240     1.309596     1.301953     1.294310     1.286667     1.279024     1.271381     1.263738     1.256095
      1.248452     1.240808     1.233165     1.225522     1.217879     1.210236     1.202593     1.194950     1.187307     1.179664
      1.172021     1.164377     1.156734     1.149091     1.141448     1.133805     1.126162     1.118519     1.110876     1.103233
      1.095590     1.087946     1.080303     1.072660     1.065017     1.057374     1.049731     1.042088     1.034445     1.026802
      1.019158     1.011515     1.003872     0.996229     0.988586     0.980943     0.973300     0.965657     0.958014     0.950371
      0.942727     0.935084     0.927441     0.919798     0.912155     0.904512     0.896869     0.889226     0.881583     0.873940
      0.866296     0.858653     0.851010     0.843367     0.835724     0.828081     0.820438     0.812795     0.805152     0.797508
      0.789865     0.782222     0.774579     0.766936     0.759293     0.751650     0.744007     0.736364     0.728721     0.721077
      0.713434     0.705791     0.698148     0.690505     0.682862     0.675219     0.667576     0.659933     0.652290     0.644646
      0.637003     0.629360     0.621717     0.614074     0.606431     0.598788     0.591145     0.583502     0.575858     0.568215
      0.560572     0.552929     0.545286     0.537643     0.530000     0.522357     0.514714     0.507071     0.499427     0.491784
      0.484141     0.476498     0.468855     0.461212     0.453569     0.445925     0.438282     0.430639     0.422996     0.415353
      0.407710     0.400067     0.392424     0.384780     0.377137     0.369494     0.361851     0.354208     0.346565     0.338922
      0.331278     0.323635     0.315992     0.308349     0.300706     0.293063     0.285420     0.277777     0.270133     0.262490
      0.254847     0.247204     0.239561     0.231918     0.224275     0.216631     0.208988     0.201345
 NY phased data points follow
   3.11889E+01  2.74881E+01  2.37143E+01  2.39201E+01  2.20910E+01  2.66751E+01  2.13514E+01  2.81721E+01  3.17414E+01  4.11942E+01
   4.13325E+01  4.66612E+01  4.27295E+01  4.06053E+01  2.81938E+01  3.69431E+01  2.08333E+01  2.09861E+01  1.21935E+01  2.07790E+01
   1.01768E+01  1.67286E+01  2.64896E+01  1.93229E+01  1.40472E+01  2.06191E+01  9.11954E+00  1.88771E+01  1.70050E+01  2.38418E+01
   2.47864E+01  2.60395E+01  2.17172E+01  2.14968E+01  1.60635E+01  1.89439E+01  1.72194E+01  1.31263E+01  1.79784E+01  1.52268E+01
   1.59291E+01  1.13039E+01  2.00813E+01  2.75128E+01  1.47726E+01  1.54990E+01  1.41860E+01  2.44306E+01  3.05218E+01  2.22996E+01
   1.70289E+01  1.11706E+01  1.51978E+01  1.32235E+01  1.14136E+01  1.18982E+01  1.72195E+01  1.94124E+01  1.57491E+01  1.08577E+01
   9.64890E+00  1.29942E+01  9.18908E+00  1.00172E+01  1.16412E+00 -1.85791E+00  8.89841E+00  2.68142E+00  2.28184E+00  8.03135E+00
   9.56460E+00  1.43189E+00  1.17056E+00  5.29016E+00  7.20692E+00  6.82506E+00  1.12876E+01  6.85665E+00  5.20907E+00  3.60596E+00
   2.56838E+00  6.96940E+00  6.00938E+00  9.00036E+00 -1.71780E+00  9.81046E-01  2.98203E+00  3.27379E+00  2.12966E+00  4.60628E+00
   1.10765E+00  3.69466E+00  4.22438E+00  7.69798E+00  3.17898E+00  4.74348E+00  7.64945E+00  7.50581E+00  7.55501E+00  2.29666E+01
   2.79352E+01  4.24759E+01  3.77212E+01  4.68123E+01  3.88975E+01  3.08335E+01  2.19280E+01  1.13268E+01 -1.28962E+00 -1.65274E-01
  -4.58406E+00  5.28433E-01 -4.02488E+00  3.68676E+00 -5.57949E+00  8.35051E+00 -4.02360E+00  3.21926E+00 -2.28248E+00 -1.64944E+00
   4.42632E+00  5.98012E+00  8.51704E+00  2.17044E+01  2.31107E+01  3.04065E+01  3.96651E+01  4.16672E+01  3.24068E+01  3.46223E+01
   1.97430E+01  1.03834E+01  3.63352E+00 -5.44552E+00  1.88232E+00 -3.72926E+00  1.66082E+00 -4.79440E+00 -2.68499E+00 -1.41536E+00
  -1.10742E+00  8.29257E+00 -1.46199E-01  3.29651E+00 -3.41104E-01 -3.64704E+00 -2.98285E+00  1.62411E+00 -4.95230E+00 -1.48101E+00
  -7.61185E+00 -8.25691E-01 -2.63642E+00 -2.03576E+00 -3.36236E+00 -3.09117E+00 -4.69545E-01 -4.26660E+00 -6.43336E-02 -2.11738E+00
  -1.42778E+00  7.60590E-02 -6.97101E+00 -4.77537E+00 -1.19540E+01  4.86376E-01 -3.20995E+00 -4.93491E+00 -5.46108E+00 -1.33697E+01
  -2.02216E+01 -1.79175E-01 -1.01734E+01 -6.90402E+00 -1.72249E+01 -1.42988E+01 -1.72212E+01 -1.56543E+01 -1.20926E+01 -1.70093E+01
  -1.13195E+01 -1.14372E+01 -8.31898E+00 -1.01113E+01 -9.83490E+00 -2.15374E+00 -1.15964E+01 -9.54031E+00 -1.75114E+01 -5.91593E+00
  -1.76818E+00 -9.65093E+00 -8.95503E+00 -1.29971E+01 -1.68007E+01 -1.55254E+01 -1.40546E+01 -9.86992E+00 -9.52530E+00 -1.06359E+01
  -6.54397E+00 -7.79021E+00 -5.17709E+00 -2.92800E+00 -3.25307E+00  3.97835E+00 -9.48496E+00 -4.69524E+00 -1.31806E+01 -1.08874E+01
  -1.24525E+01 -1.23176E+01 -3.69352E+00  2.86705E+00 -1.38843E+00  2.04215E+00  1.95103E+00 -8.16321E+00 -1.02489E+00 -1.16859E+01
  -1.36906E+01 -1.55097E+01 -1.36613E+01 -1.03642E+01 -2.46135E+00  4.89295E-01  1.67502E+00  5.52297E+00  3.15628E+00  8.32540E-01
   1.16008E+00 -5.84322E+00 -1.61275E+00 -4.23441E-01 -7.45911E+00 -5.90136E+00 -6.22099E+00 -6.07012E+00  1.03732E-01 -3.17799E+00
  -9.01384E+00 -1.78762E+00 -4.21029E+00 -8.45074E+00 -4.62850E+00  2.89829E+00  2.36504E+00  4.42025E+00  2.86449E+00  3.16340E+00
   7.81967E+00  5.43051E+00  1.97240E+01  1.84228E+01  2.61460E+01  2.47122E+01  2.64282E+01  4.36833E+01  6.17811E+01  5.70551E+01
   5.04729E+01  3.70310E+01  3.12408E+01  1.33829E+01 -2.03249E+00 -1.31780E+01 -1.97886E+01 -1.64711E+01 -1.42907E+01 -8.53506E+00
  -1.10900E+01 -1.20801E+01 -5.69098E+00  2.97050E+00 -6.10023E-01 -1.53050E+01 -8.67553E+00 -5.53527E+00 -8.81925E-01 -7.34533E+00
  -6.13828E+00 -4.62017E+00 -7.76961E+00 -1.08517E+01 -6.26740E+00 -1.15997E+01 -8.10911E+00 -8.89708E+00 -5.39819E+00 -5.50286E+00
  -7.75250E+00 -4.71872E+00 -2.51714E+00 -4.11634E+00 -3.22705E-01  2.66977E+00 -8.41057E+00 -2.91409E+00  5.95898E-01 -5.07773E+00
  -4.02084E-01 -8.65712E+00  7.85653E-02 -4.43652E+00 -1.57841E+00  3.54935E+00  2.04873E+00  6.15491E+00 -4.08836E+00  3.20940E+00
   2.49326E+00  3.93384E+00  2.65465E+00  6.36374E+00  2.03597E+00  1.02058E+01 -1.94740E+00  9.85424E+00  5.56471E+00  2.20032E+00
   8.31570E+00  4.09510E+00  7.61625E+00  1.38371E+01  4.22785E+00  9.40516E+00  1.83930E+01  1.23286E+01  1.30157E+01  1.50939E+01
   9.13464E+00  1.73762E+01  1.26096E+01  1.51839E+01  1.11541E+01  6.56328E+00  3.96919E+00  2.10063E+00  3.86417E-01 -8.13344E+00
   8.76813E-01 -9.54100E+00 -5.83585E+00 -6.43413E+00 -4.06764E+00 -5.58873E+00  1.62555E+00 -3.77063E+00 -1.08678E+01 -3.60255E+00
  -2.70931E-01  2.54023E+00 -5.24190E+00  3.59736E+00 -1.13453E+00 -4.82562E+00  6.77741E-01  2.52263E-01  3.18942E+00  8.43884E+00
   6.57575E+00  4.37981E+00  6.71132E+00  4.13074E+00  7.38178E+00  4.65439E+00 -4.87023E+00  9.80361E+00 -1.77043E+00  3.22441E+00
   6.24839E+00  3.52996E+00  2.84912E+00 -1.54311E+00  6.05026E+00 -1.92787E+00  4.37147E+00 -1.49249E+00 -1.15289E+00 -3.10987E+00
  -6.84428E-02 -3.62043E-02  7.99214E-01 -5.10512E+00  2.92079E+00  7.00666E-01 -6.53648E-01 -3.42169E+00 -3.04949E+00  5.68668E+00
  -4.02547E+00  3.19917E+00  1.39385E+00 -1.29590E+00  8.56718E-01  9.56378E-01  1.76825E+00  7.58937E+00 -3.87586E-03 -4.05945E+00
   3.96242E+00  6.05085E+00  6.73786E-01 -3.40095E-01 -1.11234E+00  2.43378E+00  4.37770E+00  6.96619E+00  1.14116E+01  9.01933E+00
  -4.42974E+00 -5.28550E+00  4.53366E+00  2.24770E+00 -1.67352E+00 -5.92622E+00 -3.33248E+00 -1.77736E+00 -6.61611E+00 -5.31866E+00
  -1.00991E+01 -9.06346E+00 -1.03854E+01 -4.63488E+00 -5.44644E+00 -5.61924E+00 -7.02828E+00 -9.71693E+00 -9.59347E+00 -1.65750E+01
  -1.04009E+01 -2.54008E+00 -1.08910E+01 -1.11924E+01 -1.33877E+00 -6.40269E+00 -1.02929E+01 -1.06526E+01 -9.67143E+00 -8.26875E+00
  -7.77630E+00 -5.87579E+00 -5.26483E+00 -1.13939E+01 -9.65455E+00 -8.38365E+00 -1.68813E+01 -6.73098E+00 -1.26968E+01 -8.33783E+00
  -7.64905E+00 -1.47509E+01 -7.36929E+00 -6.95681E+00 -8.21552E+00 -8.81769E+00 -1.13010E+01 -1.17233E+01 -8.35184E+00 -7.22528E+00
  -1.51871E+01 -8.46074E+00 -8.28713E+00 -8.34404E+00 -1.33169E+01 -1.13130E+01 -9.48161E+00 -1.34737E+01 -1.63133E+01 -1.25046E+01
  -1.36044E+01 -8.06179E+00 -1.41612E+01 -6.28420E+00 -1.51222E+01 -1.01081E+01 -1.10131E+01 -1.30251E+01 -1.28818E+01 -9.80897E+00
  -5.21971E+00 -1.01247E+01 -1.16015E+01 -9.87802E+00 -1.51596E+01 -3.53114E+00 -5.91802E+00 -9.71670E+00 -1.41479E+01 -1.27089E+01
  -1.45580E+01 -1.13911E+01 -1.54922E+01 -1.70811E+01 -9.73413E+00 -1.40566E+01 -1.80870E+01 -1.45406E+01
 NY points of the fit to the data follow
   1.83636E+01  1.81387E+01  1.82518E+01  1.88069E+01  1.96177E+01  2.09924E+01  2.37693E+01  2.78496E+01  3.32373E+01  3.90798E+01
   4.32319E+01  4.41884E+01  4.20430E+01  3.76927E+01  3.18011E+01  2.50743E+01  1.89180E+01  1.51831E+01  1.46674E+01  1.58802E+01
   1.64430E+01  1.63737E+01  1.60927E+01  1.57223E+01  1.54241E+01  1.53183E+01  1.59811E+01  1.78155E+01  2.03494E+01  2.28031E+01
   2.45685E+01  2.52201E+01  2.43394E+01  2.17721E+01  1.81037E+01  1.45185E+01  1.21671E+01  1.12691E+01  1.12661E+01  1.19471E+01
   1.30676E+01  1.42644E+01  1.54543E+01  1.68006E+01  1.85388E+01  2.04561E+01  2.18435E+01  2.19662E+01  2.06263E+01  1.83041E+01
   1.54391E+01  1.23465E+01  9.64281E+00  8.20230E+00  8.30011E+00  9.31182E+00  1.05157E+01  1.16105E+01  1.24559E+01  1.28347E+01
   1.25953E+01  1.18009E+01  1.06582E+01  9.37855E+00  8.20690E+00  7.43221E+00  7.34264E+00  7.86527E+00  8.67324E+00  9.50958E+00
   1.00985E+01  1.03052E+01  1.01428E+01  9.74189E+00  9.24463E+00  8.70453E+00  8.14763E+00  7.64690E+00  7.27428E+00  7.05272E+00
   6.86333E+00  6.59455E+00  6.20694E+00  5.63389E+00  4.81426E+00  3.79376E+00  2.78067E+00  2.02987E+00  1.70989E+00  1.86717E+00
   2.48435E+00  3.49852E+00  4.66910E+00  5.66505E+00  6.19889E+00  6.32263E+00  6.53888E+00  8.38432E+00  1.29807E+01  2.01647E+01
   2.97887E+01  3.92616E+01  4.48033E+01  4.47793E+01  3.99399E+01  3.16232E+01  2.09783E+01  9.80188E+00  1.04199E+00 -2.61973E+00
  -1.42438E+00  7.58415E-01  1.38602E+00  1.56150E+00  1.64654E+00  1.68988E+00  1.71275E+00  1.74729E+00  1.85874E+00  2.14697E+00
   2.81988E+00  4.72498E+00  9.05730E+00  1.56067E+01  2.43042E+01  3.34498E+01  3.96613E+01  4.09218E+01  3.75853E+01  3.09167E+01
   2.18896E+01  1.16970E+01  2.50832E+00 -3.01933E+00 -3.99953E+00 -2.87312E+00 -2.60988E+00 -2.60019E+00 -2.23520E+00 -1.52457E+00
  -7.11162E-01 -1.48049E-01 -4.93278E-02 -3.31832E-01 -8.63798E-01 -1.48551E+00 -2.01585E+00 -2.39736E+00 -2.69022E+00 -2.96286E+00
  -3.27932E+00 -3.59396E+00 -3.84072E+00 -3.96660E+00 -4.00656E+00 -4.05989E+00 -4.19741E+00 -4.50653E+00 -4.95413E+00 -5.35748E+00
  -5.63093E+00 -5.73100E+00 -5.68678E+00 -5.61688E+00 -5.61564E+00 -5.71904E+00 -6.01376E+00 -6.53494E+00 -7.09710E+00 -7.47196E+00
  -7.67871E+00 -7.81533E+00 -8.00729E+00 -8.33503E+00 -8.57582E+00 -8.65405E+00 -8.64081E+00 -8.61827E+00 -8.56168E+00 -8.43651E+00
  -8.26753E+00 -8.19999E+00 -8.27590E+00 -8.31656E+00 -8.00781E+00 -7.23044E+00 -6.17814E+00 -5.10461E+00 -4.17764E+00 -3.41436E+00
  -2.98530E+00 -3.13114E+00 -3.99227E+00 -5.32036E+00 -6.72215E+00 -7.76086E+00 -8.11797E+00 -7.62934E+00 -6.37965E+00 -4.69354E+00
  -2.91305E+00 -1.39633E+00 -4.73717E-01 -5.69420E-01 -2.01361E+00 -4.54859E+00 -7.59074E+00 -1.06872E+01 -1.29743E+01 -1.36260E+01
  -1.22664E+01 -9.27938E+00 -5.24346E+00 -1.09274E+00  1.81527E+00  2.51855E+00  6.88687E-01 -3.06696E+00 -7.60281E+00 -1.19757E+01
  -1.50651E+01 -1.55816E+01 -1.35085E+01 -9.97171E+00 -6.32923E+00 -3.09501E+00 -7.29522E-01  1.96470E-01 -4.91216E-01 -2.10962E+00
  -3.51327E+00 -4.10223E+00 -4.06211E+00 -3.68427E+00 -2.98353E+00 -2.09906E+00 -1.40546E+00 -1.37052E+00 -1.92631E+00 -2.72476E+00
  -3.49202E+00 -4.02022E+00 -4.12006E+00 -3.75376E+00 -2.96510E+00 -1.98203E+00 -1.11043E+00 -4.08302E-01  2.04286E-01  1.10842E+00
   3.06506E+00  6.30914E+00  1.07253E+01  1.59121E+01  2.22224E+01  2.94186E+01  3.73893E+01  4.64781E+01  5.36123E+01  5.48648E+01
   4.98092E+01  4.09378E+01  3.01445E+01  1.74886E+01  3.81630E+00 -6.78902E+00 -1.08040E+01 -9.15934E+00 -7.20166E+00 -6.99613E+00
  -6.94534E+00 -6.80949E+00 -6.68443E+00 -6.59357E+00 -6.57969E+00 -6.70406E+00 -6.94830E+00 -7.27238E+00 -7.60428E+00 -7.84415E+00
  -7.91611E+00 -7.85119E+00 -7.73332E+00 -7.60734E+00 -7.47750E+00 -7.34152E+00 -7.20303E+00 -7.05356E+00 -6.85236E+00 -6.56256E+00
  -6.19113E+00 -5.76763E+00 -5.31071E+00 -4.83639E+00 -4.36422E+00 -3.90937E+00 -3.47246E+00 -3.03815E+00 -2.58700E+00 -2.11902E+00
  -1.65480E+00 -1.20789E+00 -7.86976E-01 -4.02174E-01 -6.27192E-02  2.30375E-01  4.90739E-01  7.40003E-01  9.91650E-01  1.26088E+00
   1.56362E+00  1.91381E+00  2.32464E+00  2.80694E+00  3.36729E+00  4.00753E+00  4.72412E+00  5.50762E+00  6.34242E+00  7.20700E+00
   8.07494E+00  8.91673E+00  9.70130E+00  1.03972E+01  1.09741E+01  1.14051E+01  1.16679E+01  1.17469E+01  1.16335E+01  1.13267E+01
   1.08333E+01  1.01675E+01  9.35023E+00  8.40828E+00  7.37244E+00  6.27593E+00  5.15286E+00  4.03679E+00  2.95944E+00  1.94933E+00
   1.03070E+00  2.22806E-01 -4.60232E-01 -1.00939E+00 -1.42053E+00 -1.69417E+00 -1.83509E+00 -1.85169E+00 -1.75521E+00 -1.55898E+00
  -1.27788E+00 -9.27976E-01 -5.26059E-01 -8.91196E-02  3.66150E-01  8.23708E-01  1.26829E+00  1.68556E+00  2.06234E+00  2.38699E+00
   2.64973E+00  2.84275E+00  2.96030E+00  2.99869E+00  2.95655E+00  2.83495E+00  2.63742E+00  2.36976E+00  2.03968E+00  1.65662E+00
   1.23152E+00  7.76534E-01  3.04642E-01 -1.70927E-01 -6.37162E-01 -1.08155E+00 -1.49230E+00 -1.85860E+00 -2.17087E+00 -2.42106E+00
  -2.60278E+00 -2.71119E+00 -2.74299E+00 -2.69639E+00 -2.57126E+00 -2.36915E+00 -2.09326E+00 -1.74832E+00 -1.34056E+00 -8.77740E-01
  -3.69219E-01  1.74057E-01  7.39802E-01  1.31465E+00  1.88440E+00  2.43430E+00  2.94928E+00  3.41454E+00  3.81605E+00  4.14119E+00
   4.37916E+00  4.52128E+00  4.56135E+00  4.49596E+00  4.32472E+00  4.05022E+00  3.67787E+00  3.21545E+00  2.67282E+00  2.06154E+00
   1.39438E+00  6.84783E-01 -5.37680E-02 -8.08291E-01 -1.56663E+00 -2.31774E+00 -3.05186E+00 -3.76082E+00 -4.43809E+00 -5.07885E+00
  -5.67978E+00 -6.23882E+00 -6.75514E+00 -7.22891E+00 -7.66127E+00 -8.05400E+00 -8.40933E+00 -8.72968E+00 -9.01766E+00 -9.27599E+00
  -9.50741E+00 -9.71461E+00 -9.90003E+00 -1.00659E+01 -1.02143E+01 -1.03471E+01 -1.04662E+01 -1.05731E+01 -1.06692E+01 -1.07555E+01
  -1.08333E+01 -1.09034E+01 -1.09667E+01 -1.10240E+01 -1.10759E+01 -1.11229E+01 -1.11655E+01 -1.12041E+01 -1.12393E+01 -1.12713E+01
  -1.13004E+01 -1.13268E+01 -1.13508E+01 -1.13727E+01 -1.13926E+01 -1.14107E+01 -1.14271E+01 -1.14419E+01 -1.14553E+01 -1.14675E+01
  -1.14786E+01 -1.14885E+01 -1.14973E+01 -1.15051E+01 -1.15121E+01 -1.15184E+01 -1.15239E+01 -1.15286E+01 -1.15326E+01 -1.15360E+01
  -1.15389E+01 -1.15413E+01 -1.15432E+01 -1.15445E+01 -1.15454E+01 -1.15458E+01 -1.15459E+01 -1.15456E+01 -1.15450E+01 -1.15439E+01
  -1.15425E+01 -1.15409E+01 -1.15390E+01 -1.15368E+01 -1.15343E+01 -1.15315E+01 -1.15284E+01 -1.15252E+01 -1.15217E+01 -1.15180E+01
  -1.15139E+01 -1.15096E+01 -1.15052E+01 -1.15005E+01 -1.14956E+01 -1.14904E+01 -1.14849E+01 -1.14792E+01
 NY background values follow
     1.470E+01    1.456E+01    1.443E+01    1.429E+01    1.415E+01    1.402E+01    1.388E+01    1.374E+01    1.361E+01    1.347E+01
     1.333E+01    1.320E+01    1.306E+01    1.293E+01    1.279E+01    1.265E+01    1.252E+01    1.238E+01    1.224E+01    1.211E+01
     1.197E+01    1.184E+01    1.170E+01    1.156E+01    1.143E+01    1.129E+01    1.116E+01    1.102E+01    1.089E+01    1.075E+01
     1.062E+01    1.048E+01    1.035E+01    1.021E+01    1.008E+01    9.940E+00    9.806E+00    9.671E+00    9.536E+00    9.402E+00
     9.268E+00    9.133E+00    8.999E+00    8.865E+00    8.731E+00    8.598E+00    8.464E+00    8.331E+00    8.197E+00    8.064E+00
     7.931E+00    7.799E+00    7.666E+00    7.533E+00    7.401E+00    7.269E+00    7.137E+00    7.005E+00    6.874E+00    6.743E+00
     6.611E+00    6.481E+00    6.350E+00    6.219E+00    6.089E+00    5.959E+00    5.830E+00    5.700E+00    5.571E+00    5.442E+00
     5.313E+00    5.185E+00    5.057E+00    4.929E+00    4.801E+00    4.674E+00    4.547E+00    4.420E+00    4.294E+00    4.168E+00
     4.042E+00    3.917E+00    3.792E+00    3.667E+00    3.542E+00    3.418E+00    3.295E+00    3.171E+00    3.048E+00    2.926E+00
     2.803E+00    2.682E+00    2.560E+00    2.439E+00    2.318E+00    2.198E+00    2.078E+00    1.958E+00    1.839E+00    1.720E+00
     1.602E+00    1.484E+00    1.367E+00    1.249E+00    1.133E+00    1.016E+00    9.004E-01    7.849E-01    6.697E-01    5.551E-01
     4.408E-01    3.269E-01    2.135E-01    1.005E-01   -1.205E-02   -1.242E-01   -2.359E-01   -3.472E-01   -4.580E-01   -5.684E-01
    -6.784E-01   -7.879E-01   -8.970E-01   -1.006E+00   -1.114E+00   -1.222E+00   -1.329E+00   -1.436E+00   -1.542E+00   -1.648E+00
    -1.753E+00   -1.858E+00   -1.963E+00   -2.067E+00   -2.171E+00   -2.274E+00   -2.376E+00   -2.479E+00   -2.580E+00   -2.682E+00
    -2.782E+00   -2.883E+00   -2.982E+00   -3.082E+00   -3.180E+00   -3.279E+00   -3.376E+00   -3.474E+00   -3.570E+00   -3.666E+00
    -3.762E+00   -3.857E+00   -3.952E+00   -4.046E+00   -4.140E+00   -4.233E+00   -4.325E+00   -4.417E+00   -4.508E+00   -4.599E+00
    -4.689E+00   -4.779E+00   -4.868E+00   -4.957E+00   -5.045E+00   -5.132E+00   -5.219E+00   -5.305E+00   -5.391E+00   -5.476E+00
    -5.561E+00   -5.645E+00   -5.728E+00   -5.811E+00   -5.893E+00   -5.974E+00   -6.055E+00   -6.135E+00   -6.215E+00   -6.294E+00
    -6.372E+00   -6.450E+00   -6.527E+00   -6.604E+00   -6.679E+00   -6.755E+00   -6.829E+00   -6.903E+00   -6.977E+00   -7.049E+00
    -7.121E+00   -7.193E+00   -7.264E+00   -7.334E+00   -7.404E+00   -7.473E+00   -7.541E+00   -7.609E+00   -7.676E+00   -7.743E+00
    -7.809E+00   -7.874E+00   -7.939E+00   -8.003E+00   -8.067E+00   -8.130E+00   -8.192E+00   -8.254E+00   -8.316E+00   -8.376E+00
    -8.436E+00   -8.496E+00   -8.555E+00   -8.613E+00   -8.671E+00   -8.728E+00   -8.785E+00   -8.841E+00   -8.897E+00   -8.952E+00
    -9.006E+00   -9.060E+00   -9.114E+00   -9.166E+00   -9.219E+00   -9.270E+00   -9.321E+00   -9.372E+00   -9.422E+00   -9.472E+00
    -9.520E+00   -9.569E+00   -9.617E+00   -9.664E+00   -9.711E+00   -9.757E+00   -9.803E+00   -9.848E+00   -9.893E+00   -9.937E+00
    -9.981E+00   -1.002E+01   -1.007E+01   -1.011E+01   -1.015E+01   -1.019E+01   -1.023E+01   -1.027E+01   -1.031E+01   -1.035E+01
    -1.039E+01   -1.043E+01   -1.047E+01   -1.050E+01   -1.054E+01   -1.058E+01   -1.061E+01   -1.065E+01   -1.068E+01   -1.072E+01
    -1.075E+01   -1.078E+01   -1.082E+01   -1.085E+01   -1.088E+01   -1.091E+01   -1.094E+01   -1.097E+01   -1.100E+01   -1.103E+01
    -1.106E+01   -1.109E+01   -1.112E+01   -1.115E+01   -1.117E+01   -1.120E+01   -1.123E+01   -1.125E+01   -1.128E+01   -1.130E+01
    -1.133E+01   -1.135E+01   -1.138E+01   -1.140E+01   -1.142E+01   -1.144E+01   -1.147E+01   -1.149E+01   -1.151E+01   -1.153E+01
    -1.155E+01   -1.157E+01   -1.159E+01   -1.161E+01   -1.163E+01   -1.165E+01   -1.167E+01   -1.168E+01   -1.170E+01   -1.172E+01
    -1.174E+01   -1.175E+01   -1.177E+01   -1.178E+01   -1.180E+01   -1.181E+01   -1.183E+01   -1.184E+01   -1.186E+01   -1.187E+01
    -1.188E+01   -1.189E+01   -1.191E+01   -1.192E+01   -1.193E+01   -1.194E+01   -1.195E+01   -1.196E+01   -1.197E+01   -1.198E+01
    -1.199E+01   -1.200E+01   -1.201E+01   -1.202E+01   -1.203E+01   -1.204E+01   -1.205E+01   -1.205E+01   -1.206E+01   -1.207E+01
    -1.208E+01   -1.208E+01   -1.209E+01   -1.209E+01   -1.210E+01   -1.210E+01   -1.211E+01   -1.211E+01   -1.212E+01   -1.212E+01
    -1.213E+01   -1.213E+01   -1.214E+01   -1.214E+01   -1.214E+01   -1.214E+01   -1.215E+01   -1.215E+01   -1.215E+01   -1.215E+01
    -1.216E+01   -1.216E+01   -1.216E+01   -1.216E+01   -1.216E+01   -1.216E+01   -1.216E+01   -1.216E+01   -1.216E+01   -1.216E+01
    -1.216E+01   -1.216E+01   -1.216E+01   -1.216E+01   -1.216E+01   -1.216E+01   -1.216E+01   -1.215E+01   -1.215E+01   -1.215E+01
    -1.215E+01   -1.215E+01   -1.214E+01   -1.214E+01   -1.214E+01   -1.214E+01   -1.213E+01   -1.213E+01   -1.213E+01   -1.212E+01
    -1.212E+01   -1.212E+01   -1.211E+01   -1.211E+01   -1.210E+01   -1.210E+01   -1.210E+01   -1.209E+01   -1.209E+01   -1.208E+01
    -1.208E+01   -1.207E+01   -1.207E+01   -1.206E+01   -1.206E+01   -1.205E+01   -1.205E+01   -1.204E+01   -1.204E+01   -1.203E+01
    -1.203E+01   -1.202E+01   -1.201E+01   -1.201E+01   -1.200E+01   -1.200E+01   -1.199E+01   -1.198E+01   -1.198E+01   -1.197E+01
    -1.197E+01   -1.196E+01   -1.195E+01   -1.195E+01   -1.194E+01   -1.193E+01   -1.193E+01   -1.192E+01   -1.191E+01   -1.191E+01
    -1.190E+01   -1.189E+01   -1.189E+01   -1.188E+01   -1.187E+01   -1.186E+01   -1.186E+01   -1.185E+01   -1.184E+01   -1.184E+01
    -1.183E+01   -1.182E+01   -1.181E+01   -1.181E+01   -1.180E+01   -1.179E+01   -1.179E+01   -1.178E+01   -1.177E+01   -1.176E+01
    -1.176E+01   -1.175E+01   -1.174E+01   -1.174E+01   -1.173E+01   -1.172E+01   -1.171E+01   -1.171E+01   -1.170E+01   -1.169E+01
    -1.169E+01   -1.168E+01   -1.167E+01   -1.166E+01   -1.166E+01   -1.165E+01   -1.164E+01   -1.164E+01   -1.163E+01   -1.162E+01
    -1.162E+01   -1.161E+01   -1.160E+01   -1.160E+01   -1.159E+01   -1.158E+01   -1.158E+01   -1.157E+01   -1.156E+01   -1.156E+01
    -1.155E+01   -1.154E+01   -1.154E+01   -1.153E+01   -1.152E+01   -1.152E+01   -1.151E+01   -1.150E+01   -1.150E+01   -1.149E+01
    -1.148E+01   -1.148E+01   -1.147E+01   -1.146E+01   -1.146E+01   -1.145E+01   -1.145E+01   -1.144E+01   -1.143E+01   -1.143E+01
    -1.142E+01   -1.141E+01   -1.141E+01   -1.140E+01   -1.139E+01   -1.139E+01   -1.138E+01   -1.138E+01
 Asp      Conc. = 8.91E+01
