 LCModel (Version 6.3-1L) Copyright: S.W. Provencher.          Ref.: Magn. Reson. Med. 30:672-679 (1993).                
 Slice#1 Row#3 Col#9  K_02_press_1_raw_act
 36 lines in following concentration table = NCONC+1
    Conc.  %SD /Cr+PCr  Metabolite                                         
  855.595  30%   0.525 Ala                                                 
    0.000 999%   0.000 Asp                                                 
  743.255  57%   0.456 Cr                                                  
  886.088  48%   0.544 PCr                                                 
  135.816 148% 8.3E-02 GABA                                                
    0.000 999%   0.000 Glc                                                 
    0.000 999%   0.000 Gln                                                 
  422.832 133%   0.260 Glu                                                 
  614.647   6%   0.377 GPC                                                 
    0.000 999%   0.000 PCh                                                 
  638.150  21%   0.392 GSH                                                 
 2.59E+03  17%   1.592 Ins                                                 
    0.000 999%   0.000 Lac                                                 
 1.59E+03  13%   0.978 NAA                                                 
  522.148  42%   0.320 NAAG                                                
   75.840  55% 4.7E-02 Scyllo                                              
    0.904 999% 5.6E-04 Tau                                                 
  411.828  43%   0.253 -CrCH2                                              
  614.647   6%   0.377 GPC+PCh                                             
 2.12E+03   6%   1.298 NAA+NAAG                                            
 1.63E+03   6%   1.000 Cr+PCr                                              
  422.832 133%   0.260 Glu+Gln                                             
 3.68E+03  20%   2.261 Lip13a                                              
    0.000 999%   0.000 Lip13b                                              
 1.20E+03  30%   0.734 Lip09                                               
 2.07E+03  19%   1.273 MM09                                                
 1.28E+03  20%   0.783 Lip20                                               
 1.44E+03  33%   0.885 MM20                                                
  911.951  45%   0.560 MM12                                                
    0.000 999%   0.000 MM14                                                
    0.000 999%   0.000 MM17                                                
 3.68E+03  20%   2.261 Lip13a+Lip13b                                       
 4.60E+03  12%   2.821 MM14+Lip13a+Lip13b+MM12                             
 3.27E+03   9%   2.006 MM09+Lip09                                          
 2.72E+03  16%   1.668 MM20+Lip20                                          
   6 lines in following misc. output table
  FWHM = 0.076 ppm    S/N =   7                                            
  Data shift = 0.031 ppm                                                   
  Ph:  34 deg      19.1 deg/ppm                                            
  alphaB,S = 1.3E+00,   9.9E+01                                            
   14 spline knots.   Ns =11(1)                                            
  (17) 5 infls.   (13) 1 extrs.                                            
  498 points on ppm-axis = NY
      4.000000     3.992357     3.984714     3.977070     3.969427     3.961784     3.954141     3.946497     3.938854     3.931211
      3.923568     3.915925     3.908281     3.900638     3.892995     3.885352     3.877708     3.870065     3.862422     3.854779
      3.847136     3.839492     3.831849     3.824206     3.816563     3.808919     3.801276     3.793633     3.785990     3.778347
      3.770703     3.763060     3.755417     3.747774     3.740130     3.732487     3.724844     3.717201     3.709558     3.701914
      3.694271     3.686628     3.678985     3.671341     3.663698     3.656055     3.648412     3.640769     3.633125     3.625482
      3.617839     3.610196     3.602552     3.594909     3.587266     3.579623     3.571980     3.564336     3.556693     3.549050
      3.541407     3.533763     3.526120     3.518477     3.510834     3.503191     3.495547     3.487904     3.480261     3.472618
      3.464974     3.457331     3.449688     3.442045     3.434402     3.426758     3.419115     3.411472     3.403829     3.396185
      3.388542     3.380899     3.373256     3.365613     3.357969     3.350326     3.342683     3.335040     3.327396     3.319753
      3.312110     3.304467     3.296824     3.289180     3.281537     3.273894     3.266251     3.258607     3.250964     3.243321
      3.235678     3.228034     3.220391     3.212748     3.205105     3.197462     3.189818     3.182175     3.174532     3.166889
      3.159245     3.151602     3.143959     3.136316     3.128673     3.121029     3.113386     3.105743     3.098100     3.090456
      3.082813     3.075170     3.067527     3.059884     3.052240     3.044597     3.036954     3.029311     3.021667     3.014024
      3.006381     2.998738     2.991095     2.983451     2.975808     2.968165     2.960522     2.952878     2.945235     2.937592
      2.929949     2.922306     2.914662     2.907019     2.899376     2.891733     2.884089     2.876446     2.868803     2.861160
      2.853517     2.845873     2.838230     2.830587     2.822944     2.815300     2.807657     2.800014     2.792371     2.784728
      2.777084     2.769441     2.761798     2.754155     2.746511     2.738868     2.731225     2.723582     2.715939     2.708295
      2.700652     2.693009     2.685366     2.677722     2.670079     2.662436     2.654793     2.647150     2.639506     2.631863
      2.624220     2.616577     2.608933     2.601290     2.593647     2.586004     2.578361     2.570717     2.563074     2.555431
      2.547788     2.540144     2.532501     2.524858     2.517215     2.509572     2.501928     2.494285     2.486642     2.478999
      2.471355     2.463712     2.456069     2.448426     2.440783     2.433139     2.425496     2.417853     2.410210     2.402566
      2.394923     2.387280     2.379637     2.371994     2.364350     2.356707     2.349064     2.341421     2.333777     2.326134
      2.318491     2.310848     2.303205     2.295561     2.287918     2.280275     2.272632     2.264988     2.257345     2.249702
      2.242059     2.234416     2.226772     2.219129     2.211486     2.203843     2.196199     2.188556     2.180913     2.173270
      2.165627     2.157983     2.150340     2.142697     2.135054     2.127410     2.119767     2.112124     2.104481     2.096838
      2.089194     2.081551     2.073908     2.066265     2.058621     2.050978     2.043335     2.035692     2.028049     2.020405
      2.012762     2.005119     1.997476     1.989833     1.982190     1.974546     1.966903     1.959260     1.951617     1.943974
      1.936331     1.928688     1.921045     1.913402     1.905759     1.898115     1.890472     1.882829     1.875186     1.867543
      1.859900     1.852257     1.844614     1.836971     1.829327     1.821684     1.814041     1.806398     1.798755     1.791112
      1.783469     1.775826     1.768183     1.760540     1.752896     1.745253     1.737610     1.729967     1.722324     1.714681
      1.707038     1.699395     1.691752     1.684108     1.676465     1.668822     1.661179     1.653536     1.645893     1.638250
      1.630607     1.622964     1.615321     1.607677     1.600034     1.592391     1.584748     1.577105     1.569462     1.561819
      1.554176     1.546533     1.538890     1.531246     1.523603     1.515960     1.508317     1.500674     1.493031     1.485388
      1.477745     1.470102     1.462458     1.454815     1.447172     1.439529     1.431886     1.424243     1.416600     1.408957
      1.401314     1.393671     1.386027     1.378384     1.370741     1.363098     1.355455     1.347812     1.340169     1.332526
      1.324883     1.317240     1.309596     1.301953     1.294310     1.286667     1.279024     1.271381     1.263738     1.256095
      1.248452     1.240808     1.233165     1.225522     1.217879     1.210236     1.202593     1.194950     1.187307     1.179664
      1.172021     1.164377     1.156734     1.149091     1.141448     1.133805     1.126162     1.118519     1.110876     1.103233
      1.095590     1.087946     1.080303     1.072660     1.065017     1.057374     1.049731     1.042088     1.034445     1.026802
      1.019158     1.011515     1.003872     0.996229     0.988586     0.980943     0.973300     0.965657     0.958014     0.950371
      0.942727     0.935084     0.927441     0.919798     0.912155     0.904512     0.896869     0.889226     0.881583     0.873940
      0.866296     0.858653     0.851010     0.843367     0.835724     0.828081     0.820438     0.812795     0.805152     0.797508
      0.789865     0.782222     0.774579     0.766936     0.759293     0.751650     0.744007     0.736364     0.728721     0.721077
      0.713434     0.705791     0.698148     0.690505     0.682862     0.675219     0.667576     0.659933     0.652290     0.644646
      0.637003     0.629360     0.621717     0.614074     0.606431     0.598788     0.591145     0.583502     0.575858     0.568215
      0.560572     0.552929     0.545286     0.537643     0.530000     0.522357     0.514714     0.507071     0.499427     0.491784
      0.484141     0.476498     0.468855     0.461212     0.453569     0.445925     0.438282     0.430639     0.422996     0.415353
      0.407710     0.400067     0.392424     0.384780     0.377137     0.369494     0.361851     0.354208     0.346565     0.338922
      0.331278     0.323635     0.315992     0.308349     0.300706     0.293063     0.285420     0.277777     0.270133     0.262490
      0.254847     0.247204     0.239561     0.231918     0.224275     0.216631     0.208988     0.201345
 NY phased data points follow
   9.06450E+00  1.13374E+01  1.15433E+01  8.08421E+00  1.25821E+01  1.03497E+01  1.63958E+01  1.71091E+01  2.41354E+01  2.29363E+01
   2.22339E+01  1.88059E+01  1.84887E+01  1.54638E+01  1.22532E+01  1.76393E+01  2.11279E+01  1.77839E+01  1.02368E+01  1.50407E+01
   7.04785E+00  6.79839E+00  1.03420E+01  7.43173E+00  8.46243E+00  5.70764E+00  1.08939E+01  1.03816E+01  8.57276E+00  2.34745E+00
   1.11656E+01  1.62045E+01  1.10494E+01  8.89460E+00  1.06884E+01  6.62593E+00  3.04648E+00  1.18507E+01  5.71443E+00  5.84887E+00
   6.14740E+00  1.09615E+01  5.96412E+00  1.26950E+01  1.57972E+01  1.63934E+01  2.04480E+01  1.48143E+01  1.44089E+01  7.99515E+00
   1.27877E+01  9.35626E+00  9.54037E+00  1.41204E+01  7.02844E+00  4.99081E+00  7.04819E+00  1.13735E+01  7.08688E+00  6.31360E+00
   5.59973E+00  3.14350E+00  7.08693E+00  6.23129E+00  1.88814E+00 -4.89227E-01  3.84282E+00  6.07476E-02  2.24482E+00  2.49457E+00
   3.49116E+00  2.62031E-02 -1.40672E+00  3.75647E+00  4.94447E-01  1.54765E+00  3.83077E+00  7.88622E-01 -4.63477E+00  4.38253E-02
   4.90915E+00 -2.52479E+00 -1.54645E-01 -2.96653E+00 -5.52610E+00 -5.13750E+00  2.75994E+00  3.69622E+00  4.85201E-01 -2.54105E-01
   5.93742E+00  2.81590E+00  1.47999E+00  7.70620E+00  5.13248E+00  4.51090E+00  5.83604E+00  1.16044E+01  1.41350E+01  1.81068E+01
   2.75123E+01  3.71649E+01  3.23256E+01  3.37669E+01  3.36566E+01  2.37343E+01  2.58219E+01  1.73250E+01  2.14097E+01  1.65127E+01
   8.07354E+00  1.08937E+01  8.22972E+00  9.06226E+00  2.75373E+00  1.07288E+00  8.24335E+00  7.28320E+00  7.27975E+00  1.04369E+01
   9.75094E+00  6.69374E+00  1.31684E+01  1.96869E+01  2.21090E+01  3.21001E+01  3.12143E+01  3.03946E+01  2.82341E+01  2.87955E+01
   2.13633E+01  2.70086E+01  1.90985E+01  1.62038E+01  1.57316E+01  1.59252E+01  9.42776E+00  2.17372E+00  4.66441E+00  8.68360E+00
   5.56223E+00  5.01864E+00  4.54834E+00  3.17238E+00  1.73117E+00  6.01439E+00  6.44174E+00  1.66323E+00 -3.58250E-01 -2.45067E+00
   1.67345E+00  5.45393E+00 -9.18732E-03  4.16671E+00  4.25385E+00 -2.78641E+00  7.87269E-01  7.16145E-01  1.45991E+00 -6.14506E+00
  -3.54309E+00  2.86741E+00 -3.21533E+00  1.31094E+00 -6.05088E+00 -3.03745E-01 -1.96409E+00 -8.48166E+00 -9.67527E+00 -5.37507E+00
  -9.22415E+00 -1.10355E+01 -9.09515E+00 -6.69771E+00 -1.38693E+01 -1.13833E+01 -1.86425E+01 -1.37675E+01 -1.13448E+01 -1.34278E+01
  -1.54377E+01 -8.42343E+00 -5.01628E+00 -4.56677E+00 -1.25959E+01 -7.29365E+00 -9.87769E+00 -7.10429E+00 -1.90634E+00 -3.89873E+00
  -1.30846E+00 -6.10425E+00 -9.19971E+00 -1.42521E+01 -1.38954E+01 -5.35308E+00 -1.08001E+01 -5.19848E+00 -2.53987E+00 -1.08481E+01
  -4.68624E+00 -7.48572E+00 -1.08421E+01 -9.10730E+00  2.38784E-01 -5.85628E+00 -5.88041E+00 -4.51958E+00 -2.29651E+00 -5.46988E+00
  -4.98433E+00 -2.35241E+00  1.60774E+00  1.64235E-01  2.00857E-01  3.42547E-01 -2.47972E+00 -1.93726E+00 -4.51720E+00 -6.37358E+00
  -4.09315E+00 -2.48941E+00 -1.58590E+00 -5.10845E+00  9.56279E-01 -3.20423E+00 -6.70054E+00 -5.35840E+00 -3.85295E+00 -1.47000E+00
  -2.86423E+00 -2.76956E+00  2.26344E+00  1.04288E-01  2.36052E+00 -1.83406E+00 -1.82365E+00  5.90734E+00 -6.11220E+00 -3.34628E+00
  -4.91085E+00 -1.46592E+00 -1.93493E+00  4.40242E-03  2.28836E+00  1.21110E+01  5.87618E+00  1.10958E+01  4.59557E+00  1.54516E+01
   8.06409E+00  1.79078E+01  2.41161E+01  2.39410E+01  2.53502E+01  3.38113E+01  3.63993E+01  5.16965E+01  5.60101E+01  5.20622E+01
   4.62359E+01  3.66527E+01  3.49510E+01  3.09228E+01  2.92620E+01  2.58378E+01  1.53404E+01  1.07118E+01  7.14734E+00  2.83077E+00
  -2.51708E+00 -3.89295E+00 -6.25868E+00 -4.52678E+00 -5.31118E+00 -1.24574E+01 -8.50659E+00 -1.08137E+01 -6.36366E+00 -8.41948E+00
  -9.79649E+00 -1.82643E+01 -2.74549E+00 -7.97025E+00 -8.72842E+00 -2.43220E+00 -5.50480E+00 -1.40430E+01 -8.19033E+00 -5.96194E+00
  -5.54092E+00 -1.26260E+01 -1.11225E+01 -4.78450E+00 -4.90528E+00 -7.71623E+00 -8.88700E+00 -3.88898E+00 -1.17095E+01 -8.07610E+00
  -8.94219E+00 -7.21213E+00 -8.55436E+00 -4.92107E+00 -8.29605E-01 -5.79842E+00 -4.81678E+00 -8.20443E+00 -9.40624E+00 -9.10361E+00
  -9.83024E+00 -6.26176E+00 -2.24093E+00 -7.36331E+00 -3.01589E+00  4.46039E-01 -4.95533E+00  5.86628E-01 -2.73563E+00 -2.93633E-01
   1.89333E+00 -3.73961E+00  2.18999E+00 -8.46053E+00 -2.77867E+00 -1.24137E+00 -3.02180E+00 -8.68448E+00 -8.04356E+00 -6.03212E+00
  -1.00991E+01 -1.25286E+01 -7.45627E+00 -9.14583E+00 -8.56628E+00 -6.38026E+00 -1.06944E+01 -3.64338E+00 -5.78848E+00 -2.94766E+00
  -2.69680E+00 -3.19910E+00  4.63585E+00  3.56000E+00  2.73856E+00  2.27984E+00  5.84631E+00  7.38277E+00  1.00250E+01  1.36319E+01
   1.31332E+01  1.10770E+01  1.43141E+01  1.31328E+01  1.21821E+01  9.39542E+00  1.29064E+01  1.09735E+01  1.02353E+01  1.10425E+01
   9.38515E+00  6.45715E+00  1.51806E+01  1.42804E+01  1.39296E+01  1.69061E+01  1.64700E+01  1.62869E+01  1.25920E+01  1.31890E+01
   1.24667E+01  1.03915E+01  1.32685E+01  1.20043E+01  1.11255E+01  6.70961E+00  1.18085E+01  1.36859E+01  1.39851E+01  1.48300E+01
   1.57707E+01  1.08753E+01  1.05462E+01  1.11429E+01  1.32344E+01  7.84983E+00  6.33453E+00  1.23358E+01  1.11301E+01  1.39986E+01
   9.85638E+00  1.43379E+01  1.49164E+01  1.56725E+01  1.50941E+01  1.79748E+01  1.70673E+01  1.54420E+01  1.59392E+01  1.31227E+01
   1.43664E+01  1.81032E+01  1.42464E+01  8.84042E+00  1.41470E+01  1.76184E+01  8.25983E+00  9.75930E+00  1.56620E+01  1.25469E+01
   8.19002E+00  9.73002E+00  1.04669E+01  1.36432E+01  1.23662E+01  1.34783E+01  1.04655E+01  3.43451E+00  6.86121E+00  4.92788E+00
   3.42705E+00  1.02743E+01  4.20930E+00  7.90887E-01  3.53862E+00  1.83375E+00  1.50432E+00  2.33270E+00  5.13474E+00  1.35099E+00
   4.39805E+00  2.34703E+00 -4.05441E+00  1.59221E+00  6.44742E-01  4.93944E+00  3.84683E+00  2.34075E+00 -1.64391E+00  4.37246E+00
   8.42552E-01  4.12224E+00 -5.98647E-01  3.15715E+00  2.95724E+00 -1.65875E+00 -2.50320E+00  1.31887E-01 -3.17078E+00 -2.49354E+00
  -4.74759E+00  1.63554E+00  3.82664E+00  3.46665E+00  1.66423E+00  4.03720E-01  2.51131E+00  2.58283E+00  4.92028E-01  4.27254E+00
  -3.76155E+00 -4.61133E+00 -1.42526E+00  4.37630E+00  8.53170E-01  5.92221E+00  2.52826E-02 -1.19234E-01 -1.90766E+00 -1.90588E+00
   3.06565E+00  4.16429E+00 -4.15778E+00 -1.53060E+00  4.30689E-01  9.03455E-01 -3.71770E+00 -1.16977E+00  2.44096E+00 -2.39372E+00
  -1.57058E+00  1.88241E+00 -2.80401E+00 -1.92498E-01 -2.61357E-02  4.53155E+00  1.03784E+00 -2.65380E+00  3.80161E+00  8.92871E-01
  -4.56447E+00 -1.52948E+00 -3.18063E+00 -1.62606E+00 -5.09142E-01 -9.68298E-01  1.30047E+00  2.08964E+00
 NY points of the fit to the data follow
   1.02830E+01  1.07424E+01  1.08564E+01  1.08219E+01  1.11134E+01  1.23386E+01  1.48591E+01  1.81164E+01  2.10055E+01  2.26041E+01
   2.25848E+01  2.14103E+01  1.98266E+01  1.83491E+01  1.71524E+01  1.59733E+01  1.45368E+01  1.29571E+01  1.16591E+01  1.09181E+01
   1.00236E+01  8.80530E+00  7.57834E+00  6.89326E+00  6.94386E+00  7.98779E+00  9.79018E+00  1.14874E+01  1.21728E+01  1.19402E+01
   1.13062E+01  1.07303E+01  1.04976E+01  1.05783E+01  1.05552E+01  1.02598E+01  1.00261E+01  9.78937E+00  9.16512E+00  8.29902E+00
   7.73402E+00  7.84939E+00  8.89921E+00  1.09391E+01  1.31642E+01  1.44435E+01  1.41582E+01  1.27739E+01  1.11878E+01  9.89697E+00
   9.09993E+00  8.63662E+00  8.06158E+00  7.30406E+00  6.60082E+00  6.19935E+00  6.13869E+00  6.16025E+00  5.96013E+00  5.37594E+00
   4.66653E+00  4.10701E+00  3.71224E+00  3.52887E+00  3.54901E+00  3.67272E+00  3.83219E+00  3.99038E+00  4.13464E+00  4.21260E+00
   4.12455E+00  3.87420E+00  3.59855E+00  3.38279E+00  3.26551E+00  3.24896E+00  3.18592E+00  2.85380E+00  2.34820E+00  1.85961E+00
   1.48545E+00  1.22645E+00  1.02279E+00  7.04111E-01  1.15063E-01 -6.24179E-01 -1.34739E+00 -1.86225E+00 -2.05998E+00 -1.93275E+00
  -1.53445E+00 -7.58972E-01  1.45821E+00  4.73234E+00  6.65779E+00  7.27422E+00  7.69229E+00  9.29140E+00  1.33541E+01  2.01601E+01
   2.81433E+01  3.40998E+01  3.57727E+01  3.37877E+01  3.01658E+01  2.64864E+01  2.35942E+01  2.14787E+01  1.92828E+01  1.64032E+01
   1.31952E+01  1.00843E+01  7.01675E+00  4.14316E+00  1.75759E+00  8.54506E-02  5.29442E-01  3.10844E+00  5.02573E+00  6.03081E+00
   6.94621E+00  8.87594E+00  1.29755E+01  1.94260E+01  2.67428E+01  3.22339E+01  3.39470E+01  3.24326E+01  2.95988E+01  2.67636E+01
   2.44675E+01  2.24491E+01  1.98780E+01  1.64390E+01  1.27888E+01  9.58684E+00  6.87356E+00  4.61970E+00  2.78798E+00  1.15956E+00
  -2.38336E-02 -4.73761E-01 -6.82359E-01 -7.86076E-01 -7.89634E-01 -7.04898E-01 -5.74998E-01 -4.67587E-01 -4.55304E-01 -5.96931E-01
  -8.99705E-01 -1.22833E+00 -1.44939E+00 -1.51488E+00 -1.48086E+00 -1.54398E+00 -1.79052E+00 -2.19757E+00 -2.64027E+00 -2.96267E+00
  -3.10351E+00 -3.15975E+00 -3.30597E+00 -3.66055E+00 -4.22916E+00 -4.91217E+00 -5.47847E+00 -5.85573E+00 -6.13083E+00 -6.42907E+00
  -6.88661E+00 -7.45451E+00 -8.01845E+00 -8.44494E+00 -8.70974E+00 -8.87344E+00 -9.07791E+00 -9.28300E+00 -9.41049E+00 -9.40835E+00
  -9.26732E+00 -9.06286E+00 -8.92179E+00 -8.82831E+00 -8.57780E+00 -8.00229E+00 -7.19441E+00 -6.34721E+00 -5.53088E+00 -4.94638E+00
  -4.70742E+00 -4.74856E+00 -4.90923E+00 -5.11930E+00 -5.36442E+00 -5.48683E+00 -5.41465E+00 -5.22214E+00 -5.02711E+00 -4.86355E+00
  -4.74984E+00 -4.73834E+00 -4.84519E+00 -4.93492E+00 -4.98749E+00 -4.99344E+00 -5.03228E+00 -5.17421E+00 -5.40865E+00 -5.65728E+00
  -5.79726E+00 -5.76928E+00 -5.54334E+00 -5.18585E+00 -4.86099E+00 -4.70569E+00 -4.68081E+00 -4.70657E+00 -4.70152E+00 -4.59259E+00
  -4.37636E+00 -3.97772E+00 -3.38558E+00 -2.75000E+00 -2.19475E+00 -1.81639E+00 -1.65462E+00 -1.70812E+00 -1.92209E+00 -2.03994E+00
  -1.88414E+00 -1.46870E+00 -9.20339E-01 -3.98340E-01 -7.08016E-02 -1.22439E-01 -5.77321E-01 -1.21252E+00 -1.78515E+00 -2.11344E+00
  -2.05743E+00 -1.58367E+00 -7.89801E-01  1.41961E-01  1.21233E+00  2.73505E+00  4.15358E+00  5.18920E+00  6.67423E+00  1.03563E+01
   1.46217E+01  1.82963E+01  2.17744E+01  2.52855E+01  2.91451E+01  3.40693E+01  4.02933E+01  4.62184E+01  4.91634E+01  4.82247E+01
   4.46840E+01  4.00788E+01  3.55204E+01  3.16888E+01  2.82336E+01  2.42605E+01  1.96979E+01  1.52099E+01  1.09993E+01  7.20691E+00
   3.94721E+00  1.19286E+00 -1.13231E+00 -2.45830E+00 -3.14258E+00 -3.65770E+00 -4.08457E+00 -4.44184E+00 -4.73935E+00 -4.98870E+00
  -5.19798E+00 -5.37063E+00 -5.51649E+00 -5.65052E+00 -5.77954E+00 -5.90391E+00 -6.01575E+00 -6.10512E+00 -6.16951E+00 -6.20544E+00
  -6.22201E+00 -6.23515E+00 -6.25252E+00 -6.27478E+00 -6.30366E+00 -6.33711E+00 -6.36628E+00 -6.38424E+00 -6.39081E+00 -6.38528E+00
  -6.37053E+00 -6.35138E+00 -6.32926E+00 -6.30328E+00 -6.27179E+00 -6.23077E+00 -6.17899E+00 -6.11643E+00 -6.04186E+00 -5.95412E+00
  -5.85089E+00 -5.72822E+00 -5.58066E+00 -5.39567E+00 -5.14888E+00 -4.78260E+00 -4.16031E+00 -3.50415E+00 -3.33991E+00 -3.40752E+00
  -3.37848E+00 -3.07021E+00 -2.46389E+00 -1.86065E+00 -1.60519E+00 -1.78833E+00 -2.82748E+00 -4.47474E+00 -6.18918E+00 -7.63805E+00
  -8.50862E+00 -8.49520E+00 -7.50311E+00 -5.82655E+00 -4.06354E+00 -2.69040E+00 -1.80800E+00 -1.19758E+00 -5.58935E-01  3.09985E-01
   1.44546E+00  2.64291E+00  3.61702E+00  4.43568E+00  5.13484E+00  5.71205E+00  6.22024E+00  6.67591E+00  7.09828E+00  7.68084E+00
   8.39356E+00  9.16555E+00  9.95883E+00  1.07471E+01  1.15089E+01  1.22255E+01  1.28805E+01  1.34594E+01  1.39502E+01  1.43434E+01
   1.46323E+01  1.48129E+01  1.48843E+01  1.48489E+01  1.47119E+01  1.44811E+01  1.41670E+01  1.37817E+01  1.33395E+01  1.28556E+01
   1.23460E+01  1.18268E+01  1.13143E+01  1.08237E+01  1.03698E+01  9.96583E+00  9.62376E+00  9.35354E+00  9.16338E+00  9.05926E+00
   9.04513E+00  9.12245E+00  9.29042E+00  9.54556E+00  9.88218E+00  1.02921E+01  1.07650E+01  1.12887E+01  1.18491E+01  1.24307E+01
   1.30176E+01  1.35931E+01  1.41412E+01  1.46463E+01  1.50944E+01  1.54732E+01  1.57728E+01  1.59857E+01  1.61073E+01  1.61355E+01
   1.60709E+01  1.59163E+01  1.56771E+01  1.53599E+01  1.49726E+01  1.45241E+01  1.40234E+01  1.34797E+01  1.29022E+01  1.22990E+01
   1.16781E+01  1.10463E+01  1.04099E+01  9.77446E+00  9.14469E+00  8.52464E+00  7.91786E+00  7.32720E+00  6.75525E+00  6.20401E+00
   5.67531E+00  5.17038E+00  4.69030E+00  4.23565E+00  3.80691E+00  3.40412E+00  3.02723E+00  2.67571E+00  2.34902E+00  2.04625E+00
   1.76657E+00  1.50883E+00  1.27197E+00  1.05466E+00  8.55743E-01  6.73882E-01  5.07993E-01  3.56796E-01  2.19251E-01  9.41465E-02
  -1.94284E-02 -1.22511E-01 -2.15841E-01 -3.00332E-01 -3.76637E-01 -4.45563E-01 -5.07613E-01 -5.63439E-01 -6.13424E-01 -6.58153E-01
  -6.97961E-01 -7.33351E-01 -7.64543E-01 -7.91939E-01 -8.15708E-01 -8.36237E-01 -8.53674E-01 -8.68347E-01 -8.80318E-01 -8.89861E-01
  -8.97036E-01 -9.02127E-01 -9.05174E-01 -9.06407E-01 -9.05807E-01 -9.03587E-01 -8.99752E-01 -8.94529E-01 -8.87895E-01 -8.80021E-01
  -8.70852E-01 -8.60570E-01 -8.49150E-01 -8.36781E-01 -8.23397E-01 -8.09143E-01 -7.93945E-01 -7.77977E-01 -7.61192E-01 -7.43751E-01
  -7.25561E-01 -7.06755E-01 -6.87255E-01 -6.67232E-01 -6.46619E-01 -6.25558E-01 -6.03941E-01 -5.81902E-01 -5.59365E-01 -5.36498E-01
  -5.13220E-01 -4.89659E-01 -4.65704E-01 -4.41498E-01 -4.16976E-01 -3.92300E-01 -3.67382E-01 -3.42343E-01
 NY background values follow
    -1.018E+00   -1.048E+00   -1.077E+00   -1.107E+00   -1.137E+00   -1.167E+00   -1.197E+00   -1.227E+00   -1.257E+00   -1.287E+00
    -1.316E+00   -1.346E+00   -1.376E+00   -1.406E+00   -1.436E+00   -1.466E+00   -1.496E+00   -1.526E+00   -1.555E+00   -1.585E+00
    -1.615E+00   -1.645E+00   -1.675E+00   -1.705E+00   -1.735E+00   -1.765E+00   -1.795E+00   -1.825E+00   -1.855E+00   -1.885E+00
    -1.914E+00   -1.944E+00   -1.974E+00   -2.004E+00   -2.034E+00   -2.064E+00   -2.094E+00   -2.124E+00   -2.154E+00   -2.184E+00
    -2.214E+00   -2.244E+00   -2.274E+00   -2.304E+00   -2.334E+00   -2.364E+00   -2.395E+00   -2.425E+00   -2.455E+00   -2.485E+00
    -2.515E+00   -2.545E+00   -2.575E+00   -2.605E+00   -2.636E+00   -2.666E+00   -2.696E+00   -2.726E+00   -2.756E+00   -2.786E+00
    -2.817E+00   -2.847E+00   -2.877E+00   -2.907E+00   -2.938E+00   -2.968E+00   -2.998E+00   -3.029E+00   -3.059E+00   -3.089E+00
    -3.120E+00   -3.150E+00   -3.180E+00   -3.211E+00   -3.241E+00   -3.271E+00   -3.302E+00   -3.332E+00   -3.363E+00   -3.393E+00
    -3.424E+00   -3.454E+00   -3.485E+00   -3.515E+00   -3.546E+00   -3.576E+00   -3.607E+00   -3.638E+00   -3.668E+00   -3.699E+00
    -3.729E+00   -3.760E+00   -3.791E+00   -3.821E+00   -3.852E+00   -3.883E+00   -3.914E+00   -3.944E+00   -3.975E+00   -4.006E+00
    -4.037E+00   -4.068E+00   -4.098E+00   -4.129E+00   -4.160E+00   -4.191E+00   -4.222E+00   -4.253E+00   -4.284E+00   -4.315E+00
    -4.346E+00   -4.377E+00   -4.408E+00   -4.439E+00   -4.471E+00   -4.502E+00   -4.533E+00   -4.564E+00   -4.596E+00   -4.627E+00
    -4.658E+00   -4.690E+00   -4.721E+00   -4.753E+00   -4.784E+00   -4.816E+00   -4.847E+00   -4.879E+00   -4.911E+00   -4.942E+00
    -4.974E+00   -5.006E+00   -5.038E+00   -5.069E+00   -5.101E+00   -5.133E+00   -5.165E+00   -5.197E+00   -5.229E+00   -5.261E+00
    -5.293E+00   -5.326E+00   -5.358E+00   -5.390E+00   -5.422E+00   -5.454E+00   -5.486E+00   -5.519E+00   -5.551E+00   -5.583E+00
    -5.615E+00   -5.647E+00   -5.680E+00   -5.712E+00   -5.744E+00   -5.776E+00   -5.808E+00   -5.840E+00   -5.872E+00   -5.904E+00
    -5.935E+00   -5.967E+00   -5.999E+00   -6.030E+00   -6.062E+00   -6.094E+00   -6.125E+00   -6.156E+00   -6.188E+00   -6.219E+00
    -6.250E+00   -6.281E+00   -6.312E+00   -6.342E+00   -6.373E+00   -6.404E+00   -6.434E+00   -6.464E+00   -6.494E+00   -6.524E+00
    -6.554E+00   -6.584E+00   -6.614E+00   -6.643E+00   -6.672E+00   -6.702E+00   -6.731E+00   -6.759E+00   -6.788E+00   -6.817E+00
    -6.845E+00   -6.873E+00   -6.901E+00   -6.929E+00   -6.957E+00   -6.984E+00   -7.012E+00   -7.039E+00   -7.066E+00   -7.093E+00
    -7.119E+00   -7.146E+00   -7.172E+00   -7.198E+00   -7.224E+00   -7.249E+00   -7.275E+00   -7.300E+00   -7.325E+00   -7.349E+00
    -7.374E+00   -7.398E+00   -7.422E+00   -7.446E+00   -7.470E+00   -7.493E+00   -7.516E+00   -7.539E+00   -7.562E+00   -7.585E+00
    -7.607E+00   -7.629E+00   -7.651E+00   -7.672E+00   -7.693E+00   -7.714E+00   -7.735E+00   -7.755E+00   -7.776E+00   -7.795E+00
    -7.815E+00   -7.835E+00   -7.854E+00   -7.872E+00   -7.891E+00   -7.909E+00   -7.927E+00   -7.945E+00   -7.962E+00   -7.979E+00
    -7.996E+00   -8.012E+00   -8.028E+00   -8.044E+00   -8.060E+00   -8.075E+00   -8.090E+00   -8.104E+00   -8.118E+00   -8.132E+00
    -8.145E+00   -8.158E+00   -8.171E+00   -8.184E+00   -8.196E+00   -8.207E+00   -8.219E+00   -8.229E+00   -8.240E+00   -8.250E+00
    -8.260E+00   -8.269E+00   -8.278E+00   -8.287E+00   -8.295E+00   -8.303E+00   -8.311E+00   -8.318E+00   -8.324E+00   -8.330E+00
    -8.336E+00   -8.342E+00   -8.347E+00   -8.351E+00   -8.355E+00   -8.359E+00   -8.362E+00   -8.365E+00   -8.367E+00   -8.369E+00
    -8.371E+00   -8.372E+00   -8.373E+00   -8.373E+00   -8.373E+00   -8.372E+00   -8.371E+00   -8.370E+00   -8.368E+00   -8.366E+00
    -8.363E+00   -8.360E+00   -8.357E+00   -8.353E+00   -8.348E+00   -8.344E+00   -8.338E+00   -8.333E+00   -8.327E+00   -8.321E+00
    -8.314E+00   -8.306E+00   -8.299E+00   -8.291E+00   -8.282E+00   -8.273E+00   -8.264E+00   -8.254E+00   -8.244E+00   -8.234E+00
    -8.223E+00   -8.211E+00   -8.199E+00   -8.187E+00   -8.175E+00   -8.161E+00   -8.148E+00   -8.134E+00   -8.120E+00   -8.105E+00
    -8.090E+00   -8.075E+00   -8.059E+00   -8.043E+00   -8.026E+00   -8.009E+00   -7.991E+00   -7.974E+00   -7.955E+00   -7.937E+00
    -7.918E+00   -7.898E+00   -7.879E+00   -7.859E+00   -7.838E+00   -7.817E+00   -7.796E+00   -7.775E+00   -7.753E+00   -7.731E+00
    -7.708E+00   -7.685E+00   -7.662E+00   -7.639E+00   -7.615E+00   -7.590E+00   -7.566E+00   -7.541E+00   -7.516E+00   -7.490E+00
    -7.464E+00   -7.438E+00   -7.412E+00   -7.385E+00   -7.358E+00   -7.331E+00   -7.303E+00   -7.275E+00   -7.247E+00   -7.218E+00
    -7.189E+00   -7.160E+00   -7.131E+00   -7.101E+00   -7.071E+00   -7.041E+00   -7.010E+00   -6.979E+00   -6.948E+00   -6.917E+00
    -6.885E+00   -6.854E+00   -6.821E+00   -6.789E+00   -6.757E+00   -6.724E+00   -6.691E+00   -6.657E+00   -6.624E+00   -6.590E+00
    -6.556E+00   -6.522E+00   -6.488E+00   -6.453E+00   -6.418E+00   -6.383E+00   -6.348E+00   -6.312E+00   -6.277E+00   -6.241E+00
    -6.205E+00   -6.169E+00   -6.132E+00   -6.095E+00   -6.059E+00   -6.022E+00   -5.985E+00   -5.947E+00   -5.910E+00   -5.872E+00
    -5.834E+00   -5.796E+00   -5.758E+00   -5.720E+00   -5.681E+00   -5.643E+00   -5.604E+00   -5.565E+00   -5.526E+00   -5.487E+00
    -5.448E+00   -5.408E+00   -5.369E+00   -5.329E+00   -5.289E+00   -5.250E+00   -5.210E+00   -5.169E+00   -5.129E+00   -5.089E+00
    -5.048E+00   -5.008E+00   -4.967E+00   -4.927E+00   -4.886E+00   -4.845E+00   -4.804E+00   -4.763E+00   -4.722E+00   -4.680E+00
    -4.639E+00   -4.598E+00   -4.556E+00   -4.515E+00   -4.473E+00   -4.431E+00   -4.389E+00   -4.348E+00   -4.306E+00   -4.264E+00
    -4.222E+00   -4.180E+00   -4.138E+00   -4.096E+00   -4.054E+00   -4.012E+00   -3.969E+00   -3.927E+00   -3.885E+00   -3.843E+00
    -3.800E+00   -3.758E+00   -3.716E+00   -3.673E+00   -3.631E+00   -3.589E+00   -3.546E+00   -3.504E+00   -3.461E+00   -3.419E+00
    -3.376E+00   -3.334E+00   -3.291E+00   -3.249E+00   -3.207E+00   -3.164E+00   -3.122E+00   -3.079E+00   -3.036E+00   -2.994E+00
    -2.951E+00   -2.909E+00   -2.866E+00   -2.824E+00   -2.781E+00   -2.739E+00   -2.696E+00   -2.654E+00   -2.611E+00   -2.569E+00
    -2.526E+00   -2.483E+00   -2.441E+00   -2.398E+00   -2.356E+00   -2.313E+00   -2.271E+00   -2.228E+00   -2.186E+00   -2.143E+00
    -2.101E+00   -2.058E+00   -2.016E+00   -1.973E+00   -1.931E+00   -1.888E+00   -1.846E+00   -1.803E+00
 Ala      Conc. = 8.56E+02
