 LCModel (Version 6.3-1L) Copyright: S.W. Provencher.          Ref.: Magn. Reson. Med. 30:672-679 (1993).                
 Slice#2 Row#7 Col#6  K_02_press_1_raw_act
 36 lines in following concentration table = NCONC+1
    Conc.  %SD /Cr+PCr  Metabolite                                         
   37.124 360% 1.9E-02 Ala                                                 
    0.000 999%   0.000 Asp                                                 
  642.597  42%   0.331 Cr                                                  
 1.30E+03  22%   0.669 PCr                                                 
    0.000 999%   0.000 GABA                                                
   62.264 338% 3.2E-02 Glc                                                 
  701.341  39%   0.361 Gln                                                 
 1.93E+03  16%   0.994 Glu                                                 
  791.841   4%   0.408 GPC                                                 
    0.000 999%   0.000 PCh                                                 
  560.297  18%   0.288 GSH                                                 
 1.55E+03  22%   0.799 Ins                                                 
   45.782 315% 2.4E-02 Lac                                                 
 2.93E+03   5%   1.511 NAA                                                 
  621.699  23%   0.320 NAAG                                                
   49.528  77% 2.5E-02 Scyllo                                              
    0.000 999%   0.000 Tau                                                 
  226.913  72%   0.117 -CrCH2                                              
  791.841   4%   0.408 GPC+PCh                                             
 3.56E+03   4%   1.831 NAA+NAAG                                            
 1.94E+03   5%   1.000 Cr+PCr                                              
 2.63E+03  16%   1.355 Glu+Gln                                             
 3.66E+03  30%   1.882 Lip13a                                              
    0.000 999%   0.000 Lip13b                                              
  401.988 119%   0.207 Lip09                                               
 1.89E+03  26%   0.973 MM09                                                
  670.048  49%   0.345 Lip20                                               
 3.86E+03  18%   1.988 MM20                                                
  654.793  43%   0.337 MM12                                                
 2.08E+03  31%   1.073 MM14                                                
  966.942  41%   0.498 MM17                                                
 3.66E+03  30%   1.882 Lip13a+Lip13b                                       
 6.39E+03  15%   3.292 MM14+Lip13a+Lip13b+MM12                             
 2.29E+03  16%   1.180 MM09+Lip09                                          
 4.53E+03  14%   2.333 MM20+Lip20                                          
   6 lines in following misc. output table
  FWHM = 0.046 ppm    S/N =  13                                            
  Data shift = 0.008 ppm                                                   
  Ph: -29 deg      -6.4 deg/ppm                                            
  alphaB,S = 1.3E+00,   4.4E+01                                            
   14 spline knots.   Ns = 6(1)                                            
  ( 6) 2 infls.   ( 3) 1 extrs.                                            
  498 points on ppm-axis = NY
      4.000000     3.992357     3.984714     3.977070     3.969427     3.961784     3.954141     3.946497     3.938854     3.931211
      3.923568     3.915925     3.908281     3.900638     3.892995     3.885352     3.877708     3.870065     3.862422     3.854779
      3.847136     3.839492     3.831849     3.824206     3.816563     3.808919     3.801276     3.793633     3.785990     3.778347
      3.770703     3.763060     3.755417     3.747774     3.740130     3.732487     3.724844     3.717201     3.709558     3.701914
      3.694271     3.686628     3.678985     3.671341     3.663698     3.656055     3.648412     3.640769     3.633125     3.625482
      3.617839     3.610196     3.602552     3.594909     3.587266     3.579623     3.571980     3.564336     3.556693     3.549050
      3.541407     3.533763     3.526120     3.518477     3.510834     3.503191     3.495547     3.487904     3.480261     3.472618
      3.464974     3.457331     3.449688     3.442045     3.434402     3.426758     3.419115     3.411472     3.403829     3.396185
      3.388542     3.380899     3.373256     3.365613     3.357969     3.350326     3.342683     3.335040     3.327396     3.319753
      3.312110     3.304467     3.296824     3.289180     3.281537     3.273894     3.266251     3.258607     3.250964     3.243321
      3.235678     3.228034     3.220391     3.212748     3.205105     3.197462     3.189818     3.182175     3.174532     3.166889
      3.159245     3.151602     3.143959     3.136316     3.128673     3.121029     3.113386     3.105743     3.098100     3.090456
      3.082813     3.075170     3.067527     3.059884     3.052240     3.044597     3.036954     3.029311     3.021667     3.014024
      3.006381     2.998738     2.991095     2.983451     2.975808     2.968165     2.960522     2.952878     2.945235     2.937592
      2.929949     2.922306     2.914662     2.907019     2.899376     2.891733     2.884089     2.876446     2.868803     2.861160
      2.853517     2.845873     2.838230     2.830587     2.822944     2.815300     2.807657     2.800014     2.792371     2.784728
      2.777084     2.769441     2.761798     2.754155     2.746511     2.738868     2.731225     2.723582     2.715939     2.708295
      2.700652     2.693009     2.685366     2.677722     2.670079     2.662436     2.654793     2.647150     2.639506     2.631863
      2.624220     2.616577     2.608933     2.601290     2.593647     2.586004     2.578361     2.570717     2.563074     2.555431
      2.547788     2.540144     2.532501     2.524858     2.517215     2.509572     2.501928     2.494285     2.486642     2.478999
      2.471355     2.463712     2.456069     2.448426     2.440783     2.433139     2.425496     2.417853     2.410210     2.402566
      2.394923     2.387280     2.379637     2.371994     2.364350     2.356707     2.349064     2.341421     2.333777     2.326134
      2.318491     2.310848     2.303205     2.295561     2.287918     2.280275     2.272632     2.264988     2.257345     2.249702
      2.242059     2.234416     2.226772     2.219129     2.211486     2.203843     2.196199     2.188556     2.180913     2.173270
      2.165627     2.157983     2.150340     2.142697     2.135054     2.127410     2.119767     2.112124     2.104481     2.096838
      2.089194     2.081551     2.073908     2.066265     2.058621     2.050978     2.043335     2.035692     2.028049     2.020405
      2.012762     2.005119     1.997476     1.989833     1.982190     1.974546     1.966903     1.959260     1.951617     1.943974
      1.936331     1.928688     1.921045     1.913402     1.905759     1.898115     1.890472     1.882829     1.875186     1.867543
      1.859900     1.852257     1.844614     1.836971     1.829327     1.821684     1.814041     1.806398     1.798755     1.791112
      1.783469     1.775826     1.768183     1.760540     1.752896     1.745253     1.737610     1.729967     1.722324     1.714681
      1.707038     1.699395     1.691752     1.684108     1.676465     1.668822     1.661179     1.653536     1.645893     1.638250
      1.630607     1.622964     1.615321     1.607677     1.600034     1.592391     1.584748     1.577105     1.569462     1.561819
      1.554176     1.546533     1.538890     1.531246     1.523603     1.515960     1.508317     1.500674     1.493031     1.485388
      1.477745     1.470102     1.462458     1.454815     1.447172     1.439529     1.431886     1.424243     1.416600     1.408957
      1.401314     1.393671     1.386027     1.378384     1.370741     1.363098     1.355455     1.347812     1.340169     1.332526
      1.324883     1.317240     1.309596     1.301953     1.294310     1.286667     1.279024     1.271381     1.263738     1.256095
      1.248452     1.240808     1.233165     1.225522     1.217879     1.210236     1.202593     1.194950     1.187307     1.179664
      1.172021     1.164377     1.156734     1.149091     1.141448     1.133805     1.126162     1.118519     1.110876     1.103233
      1.095590     1.087946     1.080303     1.072660     1.065017     1.057374     1.049731     1.042088     1.034445     1.026802
      1.019158     1.011515     1.003872     0.996229     0.988586     0.980943     0.973300     0.965657     0.958014     0.950371
      0.942727     0.935084     0.927441     0.919798     0.912155     0.904512     0.896869     0.889226     0.881583     0.873940
      0.866296     0.858653     0.851010     0.843367     0.835724     0.828081     0.820438     0.812795     0.805152     0.797508
      0.789865     0.782222     0.774579     0.766936     0.759293     0.751650     0.744007     0.736364     0.728721     0.721077
      0.713434     0.705791     0.698148     0.690505     0.682862     0.675219     0.667576     0.659933     0.652290     0.644646
      0.637003     0.629360     0.621717     0.614074     0.606431     0.598788     0.591145     0.583502     0.575858     0.568215
      0.560572     0.552929     0.545286     0.537643     0.530000     0.522357     0.514714     0.507071     0.499427     0.491784
      0.484141     0.476498     0.468855     0.461212     0.453569     0.445925     0.438282     0.430639     0.422996     0.415353
      0.407710     0.400067     0.392424     0.384780     0.377137     0.369494     0.361851     0.354208     0.346565     0.338922
      0.331278     0.323635     0.315992     0.308349     0.300706     0.293063     0.285420     0.277777     0.270133     0.262490
      0.254847     0.247204     0.239561     0.231918     0.224275     0.216631     0.208988     0.201345
 NY phased data points follow
  -7.19483E+01 -7.20700E+01 -6.33783E+01 -5.97276E+01 -6.31749E+01 -4.92614E+01 -3.85990E+01 -3.80657E+01 -2.16051E+01 -1.22341E+01
  -1.12011E+01 -1.27240E+01 -1.82371E+01 -2.82416E+01 -2.85269E+01 -4.35786E+01 -3.75286E+01 -6.25108E+01 -5.83846E+01 -5.39625E+01
  -5.86704E+01 -4.84793E+01 -3.99796E+01 -4.54694E+01 -4.62156E+01 -4.62922E+01 -4.27303E+01 -3.58809E+01 -3.91612E+01 -3.27855E+01
  -4.13732E+01 -3.08634E+01 -3.22324E+01 -3.32175E+01 -3.52005E+01 -3.64091E+01 -3.73583E+01 -3.63854E+01 -3.60110E+01 -3.01664E+01
  -3.20019E+01 -3.37983E+01 -3.25946E+01 -3.26551E+01 -2.36612E+01 -2.12086E+01 -1.93749E+01 -2.41412E+01 -1.84574E+01 -2.19192E+01
  -2.88773E+01 -3.29728E+01 -3.44193E+01 -2.84467E+01 -3.01380E+01 -3.35833E+01 -3.24247E+01 -3.10304E+01 -3.27889E+01 -3.20936E+01
  -3.18656E+01 -3.95419E+01 -3.97739E+01 -4.45186E+01 -3.84831E+01 -4.31698E+01 -4.48868E+01 -4.49920E+01 -3.97191E+01 -3.51871E+01
  -4.32517E+01 -3.97828E+01 -3.44858E+01 -3.18461E+01 -2.62446E+01 -3.43857E+01 -2.94067E+01 -3.17502E+01 -3.39150E+01 -3.17539E+01
  -3.45480E+01 -2.44434E+01 -2.63808E+01 -2.94639E+01 -2.91534E+01 -3.19751E+01 -3.24086E+01 -3.40360E+01 -2.91783E+01 -2.64253E+01
  -2.44706E+01 -2.43402E+01 -2.04491E+01 -1.86225E+01 -1.50668E+01 -1.80198E+01 -1.38503E+01 -1.62852E+01 -9.18150E+00  1.45752E+01
   2.15149E+01  3.93418E+01  5.86073E+01  6.06915E+01  4.75523E+01  2.96311E+01  1.27050E+01  2.90574E+00 -6.54022E+00 -1.21695E+01
  -1.55000E+01 -1.60595E+01 -2.07451E+01 -1.33525E+01 -2.20097E+01 -1.44031E+01 -1.96049E+01 -1.70080E+01 -1.48150E+01 -8.24397E+00
  -6.69377E+00 -1.12039E+01 -1.13788E+01 -3.06626E+00  1.22656E+01  3.37159E+01  5.27624E+01  6.09917E+01  5.72313E+01  3.80208E+01
   2.09329E+01  8.36062E+00 -8.08630E-01 -5.77838E+00 -1.11221E+01 -1.16481E+01 -1.59677E+01 -1.42206E+01 -2.26364E+01 -1.50412E+01
  -1.41865E+01 -1.48128E+01 -1.87709E+01 -1.36415E+01 -1.43698E+01 -1.23187E+01 -1.43036E+01 -1.24629E+01 -1.64615E+01 -1.44109E+01
  -1.74851E+01 -1.32289E+01 -1.92624E+01 -1.33342E+01 -1.36364E+01 -2.26525E+01 -1.41909E+01 -1.35112E+01 -1.90682E+01 -1.47834E+01
  -1.79562E+01 -1.52876E+01 -1.67705E+01 -2.04315E+01 -8.66714E+00 -1.94273E+01 -1.06282E+01 -1.49385E+01 -1.94828E+01 -2.60129E+01
  -2.87146E+01 -2.79567E+01 -2.94528E+01 -3.83812E+01 -3.84640E+01 -3.69365E+01 -3.67121E+01 -2.92033E+01 -2.88439E+01 -3.48127E+01
  -2.54959E+01 -3.14112E+01 -2.81611E+01 -2.95442E+01 -2.67438E+01 -3.46282E+01 -2.78674E+01 -1.81450E+01 -1.88807E+01 -6.15692E+00
  -1.16009E+01 -1.44516E+01 -1.90321E+00 -9.08502E+00 -6.39603E+00 -7.78534E+00 -1.41110E+01 -1.41648E+01 -1.70760E+01 -2.24796E+01
  -1.28456E+01 -1.23137E+01 -1.22145E+01 -1.69644E+00 -1.20290E+01 -5.17329E+00 -1.21938E+01 -1.48030E+01 -1.97915E+01 -2.15679E+01
  -1.64806E+01 -1.77201E+01 -1.71268E+01 -6.89989E+00  8.75983E-01  5.96343E+00  1.07063E+01  1.22273E+01 -5.49643E+00 -8.63273E+00
  -1.50250E+01 -8.63061E+00 -1.73989E+01 -1.13166E+01 -8.03091E+00 -2.66574E+00 -7.04859E-01  2.70534E+00  6.51331E+00  6.09065E+00
   4.95749E+00 -1.59638E+00  7.38613E-02  4.14191E+00 -1.46459E+00  2.51575E+00  1.13606E+00  5.28337E+00  4.54616E+00 -4.80677E+00
  -3.77016E+00 -1.01118E+01 -5.99623E+00 -1.80863E+00  8.78758E-01  3.19962E+00  5.85140E+00  7.96246E+00  1.13345E+01  2.33853E+01
   1.02334E+01  1.65942E+01  2.25265E+01  3.45525E+01  4.87991E+01  4.95220E+01  5.29343E+01  6.84188E+01  9.90513E+01  1.22648E+02
   1.31650E+02  1.22167E+02  9.65082E+01  6.55409E+01  4.89822E+01  2.41563E+01  2.00300E+01  7.94467E+00  7.03880E+00  6.44188E+00
   6.26603E+00  5.65136E+00  4.04965E+00  4.17464E+00  6.30865E+00  5.26905E+00  3.70330E+00  5.89770E+00 -5.82244E+00 -4.96775E+00
  -1.72427E+00 -9.94267E+00 -4.12112E+00  5.14805E-01 -1.50992E+00 -4.93960E+00 -2.44905E+00 -2.41904E+00 -4.24803E+00  1.27872E+00
   1.03634E+00  3.93233E+00 -7.86364E+00 -1.09254E+00 -3.55775E+00 -1.52197E+00 -3.24659E-02  3.98345E+00 -5.21712E-01  2.64133E+00
   4.80569E+00  3.15717E+00  3.40579E+00  7.67171E+00 -3.02252E-01 -5.36535E+00  1.05424E+01  3.14113E+00  7.65646E+00  8.06665E+00
   8.31188E+00  3.28009E+00  9.54150E-01 -1.44451E+00  1.90491E+00  7.81136E+00  4.34201E+00  9.02549E+00  1.19401E+01  1.11710E+01
   3.28592E+00  5.14981E+00  9.74578E+00  8.47685E+00  3.39549E+00  4.72912E+00  1.45608E+01  1.84990E+00  6.13562E+00  6.88348E+00
   9.48959E+00  1.24528E+01  1.21883E+01  1.32698E+01  1.36189E+01  1.67208E+01  8.03629E+00  7.20486E+00  1.51480E+01  2.29496E+01
   1.35570E+01  1.96164E+01  1.45202E+01  1.67632E+01  1.74197E+01  2.27006E+01  2.48124E+01  1.98317E+01  2.13260E+01  1.85573E+01
   1.97551E+01  2.38975E+01  1.29406E+01  1.49168E+01  1.66133E+01  1.68085E+01  1.62662E+01  2.06876E+01  1.55936E+01  1.60280E+01
   9.93380E+00  1.32194E+01  1.29927E+01  1.44454E+01  9.20579E+00  1.19455E+01  1.21311E+01  1.05107E+01  1.56614E+01  2.01600E+01
   9.84363E+00  1.13673E+01  1.44826E+01  1.66430E+01  1.48905E+01  1.52723E+01  1.59124E+01  7.56863E+00  1.33590E+01  3.77361E+00
   2.93103E+00  1.06827E+01  5.25989E+00  5.62817E+00  7.51622E+00  1.12936E+01  1.29186E+00 -5.87133E-01  2.87315E+00  7.17936E+00
   5.87267E+00  1.50615E+01  4.22640E+00  9.76942E+00  9.60034E+00  5.09865E+00  1.06268E+01  1.08432E+01  1.33758E+01  1.41958E+01
   9.90028E+00  1.05319E+01  1.77836E+01  1.92883E+01  1.89988E+01  1.24362E+01  2.09868E+01  1.53408E+01  3.14233E+01  1.68492E+01
   2.14527E+01  9.67439E+00  1.61065E+01  9.50479E+00  1.40966E+01  8.44451E+00  5.72981E+00  2.06135E-01  5.86658E+00  6.92732E-01
   8.58002E+00  5.63092E+00  1.16961E+01  4.25884E+00 -9.46518E-01  1.01464E+01 -5.29570E-01 -9.07825E-01 -2.39606E+00  6.12416E-01
  -9.07254E-01  1.31425E+01 -7.79905E+00  4.55871E-01  8.27062E-01  2.33936E+00  3.78250E+00  7.56206E+00 -4.30392E+00 -2.81750E+00
   3.81172E+00  3.12547E+00 -1.76949E+00  2.23942E+00  2.36826E+00 -2.83717E-01 -9.72001E-01 -5.93845E-01  5.51179E-01  9.87697E+00
  -3.19794E+00 -1.65318E+00 -1.80701E+00  1.57853E+00 -3.54864E+00  1.19267E+00 -3.64418E+00 -2.09382E+00  3.87316E+00  1.85484E-01
  -1.33570E+00 -3.44052E+00  7.54294E-01  3.40472E+00 -6.34064E+00 -2.29175E+00  2.50433E+00 -2.07709E+00  4.87413E+00  3.39620E+00
   1.67825E+00 -5.60685E-01  4.57682E+00 -2.06689E+00  5.41317E+00  6.61235E+00  5.03158E+00  4.67374E+00  1.53551E+00 -1.50220E+00
   7.33845E+00  1.82636E+00  9.82871E+00  3.10191E+00 -3.45558E+00 -2.61272E+00  3.97690E+00 -5.77786E+00  4.57338E+00 -2.08147E+00
  -3.20744E-01  3.95770E+00  6.17882E-01 -4.46660E+00  4.53768E+00 -2.23124E-01 -4.92535E+00 -9.64275E-01
 NY points of the fit to the data follow
  -6.07831E+01 -6.03926E+01 -5.95275E+01 -5.75299E+01 -5.42538E+01 -5.00414E+01 -4.32674E+01 -3.37590E+01 -2.28012E+01 -1.38067E+01
  -1.01360E+01 -1.27238E+01 -1.96156E+01 -2.76079E+01 -3.44510E+01 -3.94346E+01 -4.30592E+01 -4.56682E+01 -4.72145E+01 -4.79420E+01
  -4.81077E+01 -4.81199E+01 -4.82778E+01 -4.82101E+01 -4.76239E+01 -4.72818E+01 -4.61090E+01 -4.31911E+01 -3.88366E+01 -3.41324E+01
  -3.05955E+01 -2.89215E+01 -2.92358E+01 -3.10397E+01 -3.37345E+01 -3.68309E+01 -3.98109E+01 -4.20827E+01 -4.31279E+01 -4.29318E+01
  -4.15658E+01 -3.95330E+01 -3.74182E+01 -3.49463E+01 -3.16695E+01 -2.79730E+01 -2.51060E+01 -2.43778E+01 -2.59921E+01 -2.90395E+01
  -3.22502E+01 -3.47717E+01 -3.63568E+01 -3.70812E+01 -3.72042E+01 -3.66947E+01 -3.56282E+01 -3.42064E+01 -3.27031E+01 -3.16284E+01
  -3.14040E+01 -3.20685E+01 -3.32949E+01 -3.44810E+01 -3.51863E+01 -3.51736E+01 -3.46058E+01 -3.37244E+01 -3.26557E+01 -3.15253E+01
  -3.05046E+01 -2.98041E+01 -2.95100E+01 -2.95528E+01 -2.97353E+01 -2.98679E+01 -2.99020E+01 -2.98430E+01 -2.97561E+01 -2.96282E+01
  -2.94175E+01 -2.92015E+01 -2.90252E+01 -2.87438E+01 -2.85365E+01 -2.86965E+01 -2.92876E+01 -3.00383E+01 -3.05142E+01 -3.03985E+01
  -2.96288E+01 -2.85379E+01 -2.73450E+01 -2.62140E+01 -2.52243E+01 -2.41546E+01 -2.15479E+01 -1.62780E+01 -9.70951E+00  3.21830E+00
   2.37980E+01  4.58763E+01  6.02715E+01  6.07850E+01  4.84427E+01  3.01908E+01  1.32055E+01  3.56086E-01 -8.56418E+00 -1.49589E+01
  -1.93487E+01 -2.10391E+01 -2.14211E+01 -2.14466E+01 -2.13421E+01 -2.11585E+01 -2.09320E+01 -2.06718E+01 -2.03257E+01 -1.97455E+01
  -1.83133E+01 -1.40119E+01 -8.40338E+00 -2.94826E-01  1.49762E+01  3.50822E+01  5.24707E+01  5.95371E+01  5.36620E+01  3.90124E+01
   2.31333E+01  1.05172E+01  1.36313E+00 -5.71346E+00 -1.20117E+01 -1.64260E+01 -1.83615E+01 -1.88427E+01 -1.81846E+01 -1.68668E+01
  -1.55200E+01 -1.45963E+01 -1.42421E+01 -1.44104E+01 -1.48694E+01 -1.53565E+01 -1.57793E+01 -1.61219E+01 -1.64413E+01 -1.67423E+01
  -1.70240E+01 -1.73510E+01 -1.76614E+01 -1.78423E+01 -1.78329E+01 -1.76966E+01 -1.74459E+01 -1.73882E+01 -1.78749E+01 -1.87630E+01
  -1.97351E+01 -2.01307E+01 -1.96277E+01 -1.87257E+01 -1.81829E+01 -1.83992E+01 -1.93077E+01 -2.04144E+01 -2.12248E+01 -2.16827E+01
  -2.19326E+01 -2.21432E+01 -2.24967E+01 -2.32564E+01 -2.41304E+01 -2.46339E+01 -2.43175E+01 -2.33851E+01 -2.26381E+01 -2.25477E+01
  -2.28250E+01 -2.29665E+01 -2.25791E+01 -2.19047E+01 -2.14617E+01 -2.10369E+01 -1.99387E+01 -1.78614E+01 -1.50149E+01 -1.21666E+01
  -1.02676E+01 -9.68744E+00 -1.03530E+01 -1.16086E+01 -1.30153E+01 -1.42807E+01 -1.50584E+01 -1.50118E+01 -1.39940E+01 -1.22733E+01
  -1.00991E+01 -7.85546E+00 -5.95893E+00 -4.80244E+00 -5.07782E+00 -6.63955E+00 -9.52253E+00 -1.33441E+01 -1.67998E+01 -1.88854E+01
  -1.90019E+01 -1.73054E+01 -1.39641E+01 -8.96241E+00 -3.43960E+00  7.23171E-01  1.82356E+00 -3.33060E-01 -4.71281E+00 -1.00312E+01
  -1.52542E+01 -1.89661E+01 -1.98376E+01 -1.75250E+01 -1.28431E+01 -7.58018E+00 -3.31151E+00 -5.48217E-01  6.58388E-01  6.25149E-01
  -6.27559E-02 -5.87470E-01 -5.20533E-01  2.25959E-01  1.50006E+00  2.93530E+00  4.11050E+00  4.54682E+00  4.27759E+00  3.26005E+00
   1.75092E+00  4.39344E-01  1.98269E-01  1.33370E+00  3.44355E+00  5.88486E+00  7.99185E+00  9.43479E+00  1.03144E+01  1.14179E+01
   1.33386E+01  1.58916E+01  2.08461E+01  2.87872E+01  4.03076E+01  5.16488E+01  6.03435E+01  7.57044E+01  9.89371E+01  1.21384E+02
   1.31021E+02  1.21719E+02  9.75680E+01  6.96378E+01  4.67443E+01  3.03848E+01  1.89863E+01  1.03302E+01  4.67211E+00  2.59985E+00
   1.66745E+00  1.15628E+00  9.57353E-01  9.10494E-01  7.81164E-01  4.88003E-01  7.87302E-02 -3.56629E-01 -7.65559E-01 -1.09713E+00
  -1.33075E+00 -1.46362E+00 -1.50538E+00 -1.49798E+00 -1.50168E+00 -1.52686E+00 -1.55381E+00 -1.56499E+00 -1.52487E+00 -1.40588E+00
  -1.19281E+00 -8.95376E-01 -5.58529E-01 -2.21426E-01  1.07864E-01  4.20768E-01  7.21679E-01  1.02627E+00  1.34845E+00  1.69926E+00
   2.07920E+00  2.46910E+00  2.84652E+00  3.19641E+00  3.50952E+00  3.78250E+00  4.01380E+00  4.20263E+00  4.35535E+00  4.47730E+00
   4.57298E+00  4.64813E+00  4.71007E+00  4.76759E+00  4.83032E+00  4.90775E+00  5.00842E+00  5.14056E+00  5.31223E+00  5.53188E+00
   5.80935E+00  6.15350E+00  6.54200E+00  6.99037E+00  7.50248E+00  8.01140E+00  8.45114E+00  8.80476E+00  9.11758E+00  9.48513E+00
   9.94976E+00  1.04963E+01  1.11485E+01  1.19110E+01  1.27418E+01  1.35665E+01  1.42939E+01  1.48803E+01  1.53567E+01  1.57742E+01
   1.61685E+01  1.65609E+01  1.69235E+01  1.72702E+01  1.76350E+01  1.79379E+01  1.80889E+01  1.80566E+01  1.78950E+01  1.77326E+01
   1.76273E+01  1.75989E+01  1.76831E+01  1.78712E+01  1.80949E+01  1.82584E+01  1.82669E+01  1.80824E+01  1.77542E+01  1.73411E+01
   1.68757E+01  1.63675E+01  1.58133E+01  1.52311E+01  1.46334E+01  1.40176E+01  1.33860E+01  1.27445E+01  1.20996E+01  1.14589E+01
   1.08297E+01  1.02190E+01  9.63300E+00  9.07775E+00  8.55896E+00  8.08204E+00  7.65151E+00  7.27130E+00  6.94472E+00  6.67514E+00
   6.46573E+00  6.31960E+00  6.23926E+00  6.22708E+00  6.28521E+00  6.41598E+00  6.62136E+00  6.90281E+00  7.26058E+00  7.69395E+00
   8.20084E+00  8.77790E+00  9.41955E+00  1.01179E+01  1.08621E+01  1.16391E+01  1.24334E+01  1.32274E+01  1.40016E+01  1.47353E+01
   1.54067E+01  1.59950E+01  1.64809E+01  1.68476E+01  1.70809E+01  1.71709E+01  1.71118E+01  1.69031E+01  1.65492E+01  1.60591E+01
   1.54456E+01  1.47252E+01  1.39165E+01  1.30404E+01  1.21183E+01  1.11711E+01  1.02182E+01  9.27740E+00  8.36394E+00  7.49076E+00
   6.66778E+00  5.90205E+00  5.19764E+00  4.55652E+00  3.97864E+00  3.46260E+00  3.00544E+00  2.60330E+00  2.25151E+00  1.94546E+00
   1.68050E+00  1.45227E+00  1.25634E+00  1.08860E+00  9.45171E-01  8.22934E-01  7.19110E-01  6.31390E-01  5.57419E-01  4.95243E-01
   4.43119E-01  3.99903E-01  3.64514E-01  3.36071E-01  3.13486E-01  2.95981E-01  2.82872E-01  2.73886E-01  2.68594E-01  2.66627E-01
   2.67378E-01  2.70564E-01  2.75934E-01  2.83519E-01  2.93075E-01  3.04393E-01  3.17068E-01  3.31043E-01  3.46246E-01  3.62784E-01
   3.80428E-01  3.99022E-01  4.18297E-01  4.38346E-01  4.59169E-01  4.80863E-01  5.03168E-01  5.25968E-01  5.49095E-01  5.72732E-01
   5.96886E-01  6.21602E-01  6.46610E-01  6.71861E-01  6.97283E-01  7.23096E-01  7.49261E-01  7.75766E-01  8.02338E-01  8.29006E-01
   8.55772E-01  8.82858E-01  9.10165E-01  9.37643E-01  9.65064E-01  9.92539E-01  1.02011E+00  1.04797E+00  1.07595E+00  1.10399E+00
   1.13194E+00  1.15997E+00  1.18816E+00  1.21662E+00  1.24517E+00  1.27377E+00  1.30236E+00  1.33119E+00
 NY background values follow
    -6.430E+01   -6.385E+01   -6.340E+01   -6.295E+01   -6.250E+01   -6.205E+01   -6.160E+01   -6.115E+01   -6.070E+01   -6.026E+01
    -5.981E+01   -5.936E+01   -5.892E+01   -5.847E+01   -5.803E+01   -5.758E+01   -5.714E+01   -5.670E+01   -5.626E+01   -5.582E+01
    -5.538E+01   -5.494E+01   -5.450E+01   -5.407E+01   -5.363E+01   -5.320E+01   -5.277E+01   -5.233E+01   -5.191E+01   -5.148E+01
    -5.105E+01   -5.063E+01   -5.020E+01   -4.978E+01   -4.936E+01   -4.895E+01   -4.853E+01   -4.812E+01   -4.771E+01   -4.730E+01
    -4.689E+01   -4.648E+01   -4.608E+01   -4.568E+01   -4.528E+01   -4.489E+01   -4.449E+01   -4.410E+01   -4.371E+01   -4.333E+01
    -4.294E+01   -4.256E+01   -4.218E+01   -4.181E+01   -4.143E+01   -4.106E+01   -4.070E+01   -4.033E+01   -3.997E+01   -3.961E+01
    -3.925E+01   -3.890E+01   -3.854E+01   -3.820E+01   -3.785E+01   -3.751E+01   -3.717E+01   -3.683E+01   -3.649E+01   -3.616E+01
    -3.583E+01   -3.551E+01   -3.518E+01   -3.486E+01   -3.455E+01   -3.423E+01   -3.392E+01   -3.362E+01   -3.331E+01   -3.301E+01
    -3.271E+01   -3.242E+01   -3.213E+01   -3.184E+01   -3.155E+01   -3.127E+01   -3.099E+01   -3.072E+01   -3.044E+01   -3.018E+01
    -2.991E+01   -2.965E+01   -2.939E+01   -2.913E+01   -2.888E+01   -2.863E+01   -2.839E+01   -2.815E+01   -2.791E+01   -2.767E+01
    -2.744E+01   -2.721E+01   -2.699E+01   -2.677E+01   -2.655E+01   -2.633E+01   -2.612E+01   -2.591E+01   -2.571E+01   -2.551E+01
    -2.531E+01   -2.512E+01   -2.492E+01   -2.474E+01   -2.455E+01   -2.437E+01   -2.419E+01   -2.402E+01   -2.384E+01   -2.368E+01
    -2.351E+01   -2.335E+01   -2.319E+01   -2.304E+01   -2.288E+01   -2.274E+01   -2.259E+01   -2.245E+01   -2.231E+01   -2.217E+01
    -2.204E+01   -2.191E+01   -2.179E+01   -2.166E+01   -2.155E+01   -2.143E+01   -2.132E+01   -2.121E+01   -2.110E+01   -2.100E+01
    -2.090E+01   -2.080E+01   -2.070E+01   -2.061E+01   -2.052E+01   -2.043E+01   -2.035E+01   -2.026E+01   -2.018E+01   -2.010E+01
    -2.002E+01   -1.994E+01   -1.987E+01   -1.979E+01   -1.972E+01   -1.965E+01   -1.957E+01   -1.950E+01   -1.943E+01   -1.937E+01
    -1.930E+01   -1.923E+01   -1.916E+01   -1.909E+01   -1.902E+01   -1.896E+01   -1.889E+01   -1.882E+01   -1.875E+01   -1.868E+01
    -1.861E+01   -1.854E+01   -1.847E+01   -1.840E+01   -1.832E+01   -1.825E+01   -1.817E+01   -1.809E+01   -1.801E+01   -1.793E+01
    -1.785E+01   -1.776E+01   -1.767E+01   -1.758E+01   -1.749E+01   -1.740E+01   -1.730E+01   -1.721E+01   -1.711E+01   -1.701E+01
    -1.691E+01   -1.680E+01   -1.670E+01   -1.659E+01   -1.648E+01   -1.638E+01   -1.627E+01   -1.615E+01   -1.604E+01   -1.593E+01
    -1.581E+01   -1.570E+01   -1.558E+01   -1.547E+01   -1.535E+01   -1.523E+01   -1.511E+01   -1.499E+01   -1.487E+01   -1.475E+01
    -1.463E+01   -1.451E+01   -1.439E+01   -1.427E+01   -1.415E+01   -1.402E+01   -1.390E+01   -1.378E+01   -1.366E+01   -1.354E+01
    -1.342E+01   -1.329E+01   -1.317E+01   -1.305E+01   -1.293E+01   -1.281E+01   -1.269E+01   -1.258E+01   -1.246E+01   -1.234E+01
    -1.223E+01   -1.211E+01   -1.199E+01   -1.188E+01   -1.177E+01   -1.165E+01   -1.154E+01   -1.143E+01   -1.132E+01   -1.120E+01
    -1.109E+01   -1.098E+01   -1.087E+01   -1.077E+01   -1.066E+01   -1.055E+01   -1.044E+01   -1.034E+01   -1.023E+01   -1.013E+01
    -1.002E+01   -9.917E+00   -9.814E+00   -9.711E+00   -9.608E+00   -9.507E+00   -9.405E+00   -9.305E+00   -9.205E+00   -9.105E+00
    -9.006E+00   -8.908E+00   -8.810E+00   -8.713E+00   -8.616E+00   -8.520E+00   -8.424E+00   -8.329E+00   -8.235E+00   -8.141E+00
    -8.048E+00   -7.955E+00   -7.862E+00   -7.771E+00   -7.680E+00   -7.589E+00   -7.499E+00   -7.409E+00   -7.320E+00   -7.232E+00
    -7.144E+00   -7.057E+00   -6.970E+00   -6.884E+00   -6.799E+00   -6.714E+00   -6.629E+00   -6.546E+00   -6.463E+00   -6.380E+00
    -6.298E+00   -6.217E+00   -6.136E+00   -6.056E+00   -5.977E+00   -5.898E+00   -5.820E+00   -5.742E+00   -5.665E+00   -5.589E+00
    -5.513E+00   -5.438E+00   -5.364E+00   -5.290E+00   -5.217E+00   -5.145E+00   -5.073E+00   -5.002E+00   -4.932E+00   -4.862E+00
    -4.793E+00   -4.725E+00   -4.657E+00   -4.590E+00   -4.524E+00   -4.458E+00   -4.393E+00   -4.329E+00   -4.266E+00   -4.203E+00
    -4.141E+00   -4.079E+00   -4.019E+00   -3.959E+00   -3.899E+00   -3.841E+00   -3.783E+00   -3.726E+00   -3.669E+00   -3.613E+00
    -3.558E+00   -3.504E+00   -3.450E+00   -3.397E+00   -3.345E+00   -3.293E+00   -3.242E+00   -3.192E+00   -3.143E+00   -3.094E+00
    -3.046E+00   -2.998E+00   -2.952E+00   -2.906E+00   -2.860E+00   -2.816E+00   -2.772E+00   -2.729E+00   -2.686E+00   -2.644E+00
    -2.603E+00   -2.563E+00   -2.523E+00   -2.484E+00   -2.446E+00   -2.408E+00   -2.371E+00   -2.335E+00   -2.299E+00   -2.264E+00
    -2.230E+00   -2.197E+00   -2.164E+00   -2.132E+00   -2.100E+00   -2.069E+00   -2.039E+00   -2.010E+00   -1.980E+00   -1.952E+00
    -1.924E+00   -1.896E+00   -1.869E+00   -1.843E+00   -1.817E+00   -1.791E+00   -1.765E+00   -1.740E+00   -1.716E+00   -1.691E+00
    -1.667E+00   -1.643E+00   -1.620E+00   -1.596E+00   -1.573E+00   -1.550E+00   -1.527E+00   -1.504E+00   -1.481E+00   -1.459E+00
    -1.436E+00   -1.413E+00   -1.391E+00   -1.368E+00   -1.345E+00   -1.323E+00   -1.300E+00   -1.277E+00   -1.254E+00   -1.230E+00
    -1.207E+00   -1.183E+00   -1.159E+00   -1.135E+00   -1.111E+00   -1.086E+00   -1.061E+00   -1.036E+00   -1.010E+00   -9.836E-01
    -9.570E-01   -9.302E-01   -9.030E-01   -8.755E-01   -8.477E-01   -8.196E-01   -7.911E-01   -7.624E-01   -7.334E-01   -7.042E-01
    -6.746E-01   -6.448E-01   -6.148E-01   -5.845E-01   -5.540E-01   -5.233E-01   -4.924E-01   -4.612E-01   -4.299E-01   -3.984E-01
    -3.666E-01   -3.348E-01   -3.027E-01   -2.705E-01   -2.382E-01   -2.057E-01   -1.731E-01   -1.404E-01   -1.075E-01   -7.459E-02
    -4.155E-02   -8.421E-03    2.479E-02    5.806E-02    9.140E-02    1.248E-01    1.582E-01    1.917E-01    2.252E-01    2.587E-01
     2.923E-01    3.258E-01    3.593E-01    3.928E-01    4.263E-01    4.598E-01    4.933E-01    5.267E-01    5.600E-01    5.934E-01
     6.266E-01    6.599E-01    6.930E-01    7.261E-01    7.591E-01    7.920E-01    8.249E-01    8.577E-01    8.903E-01    9.229E-01
     9.554E-01    9.877E-01    1.020E+00    1.052E+00    1.084E+00    1.116E+00    1.148E+00    1.179E+00    1.211E+00    1.242E+00
     1.273E+00    1.304E+00    1.335E+00    1.365E+00    1.396E+00    1.426E+00    1.456E+00    1.486E+00    1.516E+00    1.545E+00
     1.574E+00    1.603E+00    1.632E+00    1.660E+00    1.689E+00    1.717E+00    1.745E+00    1.772E+00
 Ala      Conc. = 3.71E+01
