 LCModel (Version 6.3-1L) Copyright: S.W. Provencher.          Ref.: Magn. Reson. Med. 30:672-679 (1993).                
 Slice#1 Row#5 Col#1  K_02_press_1_raw_act
 36 lines in following concentration table = NCONC+1
    Conc.  %SD /Cr+PCr  Metabolite                                         
   11.597 419%   0.126 Ala                                                 
   13.471  50%   0.146 Asp                                                 
    0.000 999%   0.000 Cr                                                  
   92.363  28%   1.000 PCr                                                 
    7.790  52% 8.4E-02 GABA                                                
    7.895  51% 8.5E-02 Glc                                                 
  126.698  81%   1.372 Gln                                                 
  193.894  61%   2.099 Glu                                                 
   10.465  89%   0.113 GPC                                                 
    0.000 999%   0.000 PCh                                                 
   29.566 115%   0.320 GSH                                                 
   52.420 211%   0.568 Ins                                                 
  231.584  31%   2.507 Lac                                                 
   72.850  44%   0.789 NAA                                                 
   69.009  46%   0.747 NAAG                                                
    2.542  53% 2.8E-02 Scyllo                                              
   12.205  55%   0.132 Tau                                                 
    2.135 441% 2.3E-02 -CrCH2                                              
   10.465  89%   0.113 GPC+PCh                                             
  141.859  22%   1.536 NAA+NAAG                                            
   92.363  28%   1.000 Cr+PCr                                              
  320.592  51%   3.471 Glu+Gln                                             
  284.232 106%   3.077 Lip13a                                              
  276.720  55%   2.996 Lip13b                                              
  297.228  40%   3.218 Lip09                                               
  108.181  84%   1.171 MM09                                                
    0.000 999%   0.000 Lip20                                               
    0.000 999%   0.000 MM20                                                
   41.396 140%   0.448 MM12                                                
    0.000 999%   0.000 MM14                                                
  176.483  51%   1.911 MM17                                                
  560.952  33%   6.073 Lip13a+Lip13b                                       
  602.349  29%   6.522 MM14+Lip13a+Lip13b+MM12                             
  405.409  21%   4.389 MM09+Lip09                                          
    0.000 999%   0.000 MM20+Lip20                                          
   6 lines in following misc. output table
  FWHM = 0.023 ppm    S/N =   2                                            
  Data shift = 0.008 ppm                                                   
  Ph: 115 deg      17.9 deg/ppm                                            
  alphaB,S = 1.1E+00,   3.2E+00                                            
   14 spline knots.   Ns = 5(1)                                            
  ( 6) 4 infls.   ( 8) 3 extrs.                                            
  498 points on ppm-axis = NY
      4.000000     3.992357     3.984714     3.977070     3.969427     3.961784     3.954141     3.946497     3.938854     3.931211
      3.923568     3.915925     3.908281     3.900638     3.892995     3.885352     3.877708     3.870065     3.862422     3.854779
      3.847136     3.839492     3.831849     3.824206     3.816563     3.808919     3.801276     3.793633     3.785990     3.778347
      3.770703     3.763060     3.755417     3.747774     3.740130     3.732487     3.724844     3.717201     3.709558     3.701914
      3.694271     3.686628     3.678985     3.671341     3.663698     3.656055     3.648412     3.640769     3.633125     3.625482
      3.617839     3.610196     3.602552     3.594909     3.587266     3.579623     3.571980     3.564336     3.556693     3.549050
      3.541407     3.533763     3.526120     3.518477     3.510834     3.503191     3.495547     3.487904     3.480261     3.472618
      3.464974     3.457331     3.449688     3.442045     3.434402     3.426758     3.419115     3.411472     3.403829     3.396185
      3.388542     3.380899     3.373256     3.365613     3.357969     3.350326     3.342683     3.335040     3.327396     3.319753
      3.312110     3.304467     3.296824     3.289180     3.281537     3.273894     3.266251     3.258607     3.250964     3.243321
      3.235678     3.228034     3.220391     3.212748     3.205105     3.197462     3.189818     3.182175     3.174532     3.166889
      3.159245     3.151602     3.143959     3.136316     3.128673     3.121029     3.113386     3.105743     3.098100     3.090456
      3.082813     3.075170     3.067527     3.059884     3.052240     3.044597     3.036954     3.029311     3.021667     3.014024
      3.006381     2.998738     2.991095     2.983451     2.975808     2.968165     2.960522     2.952878     2.945235     2.937592
      2.929949     2.922306     2.914662     2.907019     2.899376     2.891733     2.884089     2.876446     2.868803     2.861160
      2.853517     2.845873     2.838230     2.830587     2.822944     2.815300     2.807657     2.800014     2.792371     2.784728
      2.777084     2.769441     2.761798     2.754155     2.746511     2.738868     2.731225     2.723582     2.715939     2.708295
      2.700652     2.693009     2.685366     2.677722     2.670079     2.662436     2.654793     2.647150     2.639506     2.631863
      2.624220     2.616577     2.608933     2.601290     2.593647     2.586004     2.578361     2.570717     2.563074     2.555431
      2.547788     2.540144     2.532501     2.524858     2.517215     2.509572     2.501928     2.494285     2.486642     2.478999
      2.471355     2.463712     2.456069     2.448426     2.440783     2.433139     2.425496     2.417853     2.410210     2.402566
      2.394923     2.387280     2.379637     2.371994     2.364350     2.356707     2.349064     2.341421     2.333777     2.326134
      2.318491     2.310848     2.303205     2.295561     2.287918     2.280275     2.272632     2.264988     2.257345     2.249702
      2.242059     2.234416     2.226772     2.219129     2.211486     2.203843     2.196199     2.188556     2.180913     2.173270
      2.165627     2.157983     2.150340     2.142697     2.135054     2.127410     2.119767     2.112124     2.104481     2.096838
      2.089194     2.081551     2.073908     2.066265     2.058621     2.050978     2.043335     2.035692     2.028049     2.020405
      2.012762     2.005119     1.997476     1.989833     1.982190     1.974546     1.966903     1.959260     1.951617     1.943974
      1.936331     1.928688     1.921045     1.913402     1.905759     1.898115     1.890472     1.882829     1.875186     1.867543
      1.859900     1.852257     1.844614     1.836971     1.829327     1.821684     1.814041     1.806398     1.798755     1.791112
      1.783469     1.775826     1.768183     1.760540     1.752896     1.745253     1.737610     1.729967     1.722324     1.714681
      1.707038     1.699395     1.691752     1.684108     1.676465     1.668822     1.661179     1.653536     1.645893     1.638250
      1.630607     1.622964     1.615321     1.607677     1.600034     1.592391     1.584748     1.577105     1.569462     1.561819
      1.554176     1.546533     1.538890     1.531246     1.523603     1.515960     1.508317     1.500674     1.493031     1.485388
      1.477745     1.470102     1.462458     1.454815     1.447172     1.439529     1.431886     1.424243     1.416600     1.408957
      1.401314     1.393671     1.386027     1.378384     1.370741     1.363098     1.355455     1.347812     1.340169     1.332526
      1.324883     1.317240     1.309596     1.301953     1.294310     1.286667     1.279024     1.271381     1.263738     1.256095
      1.248452     1.240808     1.233165     1.225522     1.217879     1.210236     1.202593     1.194950     1.187307     1.179664
      1.172021     1.164377     1.156734     1.149091     1.141448     1.133805     1.126162     1.118519     1.110876     1.103233
      1.095590     1.087946     1.080303     1.072660     1.065017     1.057374     1.049731     1.042088     1.034445     1.026802
      1.019158     1.011515     1.003872     0.996229     0.988586     0.980943     0.973300     0.965657     0.958014     0.950371
      0.942727     0.935084     0.927441     0.919798     0.912155     0.904512     0.896869     0.889226     0.881583     0.873940
      0.866296     0.858653     0.851010     0.843367     0.835724     0.828081     0.820438     0.812795     0.805152     0.797508
      0.789865     0.782222     0.774579     0.766936     0.759293     0.751650     0.744007     0.736364     0.728721     0.721077
      0.713434     0.705791     0.698148     0.690505     0.682862     0.675219     0.667576     0.659933     0.652290     0.644646
      0.637003     0.629360     0.621717     0.614074     0.606431     0.598788     0.591145     0.583502     0.575858     0.568215
      0.560572     0.552929     0.545286     0.537643     0.530000     0.522357     0.514714     0.507071     0.499427     0.491784
      0.484141     0.476498     0.468855     0.461212     0.453569     0.445925     0.438282     0.430639     0.422996     0.415353
      0.407710     0.400067     0.392424     0.384780     0.377137     0.369494     0.361851     0.354208     0.346565     0.338922
      0.331278     0.323635     0.315992     0.308349     0.300706     0.293063     0.285420     0.277777     0.270133     0.262490
      0.254847     0.247204     0.239561     0.231918     0.224275     0.216631     0.208988     0.201345
 NY phased data points follow
   2.12460E+01  1.90802E+01  1.80222E+01  1.98951E+01  2.20472E+01  2.03070E+01  1.83692E+01  1.85138E+01  1.99878E+01  2.17457E+01
   1.63193E+01  2.06043E+01  1.76492E+01  1.96997E+01  1.81239E+01  1.64197E+01  1.76517E+01  1.81823E+01  1.30636E+01  1.88613E+01
   1.49216E+01  2.03356E+01  1.75377E+01  1.36290E+01  1.62789E+01  1.48576E+01  1.41282E+01  1.51698E+01  1.61493E+01  1.55932E+01
   1.31640E+01  1.48746E+01  1.86894E+01  9.88353E+00  1.47448E+01  1.20076E+01  1.47881E+01  7.68689E+00  1.37660E+01  1.70103E+01
   1.17685E+01  1.23188E+01  1.37225E+01  1.19073E+01  9.81488E+00  1.50092E+01  1.21152E+01  1.46409E+01  1.35622E+01  1.24233E+01
   1.17770E+01  1.21767E+01  1.04699E+01  1.36800E+01  1.32272E+01  1.19989E+01  1.24698E+01  1.13867E+01  1.17361E+01  1.04163E+01
   1.44890E+01  9.85015E+00  7.55769E+00  1.11330E+01  8.77014E+00  7.78284E+00  1.10637E+01  9.52606E+00  8.39887E+00  1.20813E+01
   6.90633E+00  5.62548E+00  8.61137E+00  1.13031E+01  1.00469E+01  9.18398E+00  7.35608E+00  9.30988E+00  7.15813E+00  1.01800E+01
   9.75400E+00  8.03960E+00  7.75651E+00  9.47596E+00  9.34206E+00  9.84426E+00  6.42150E+00  1.03686E+01  1.07883E+01  4.98257E+00
   8.61288E+00  1.05381E+01  8.31519E+00  9.15150E+00  8.32594E+00  8.57112E+00  6.04041E+00  8.58449E+00  8.40150E+00  9.48752E+00
   9.01506E+00  1.09644E+01  7.52977E+00  1.00095E+01  9.98813E+00  7.03238E+00  6.55900E+00  6.17163E+00  5.53157E+00  7.92439E+00
   9.69712E+00  8.95323E+00  4.64927E+00  6.08232E+00  6.21805E+00  2.16263E+00  5.57879E+00  5.78593E+00  8.82715E+00  3.10825E+00
   5.31073E+00  7.03747E+00  6.21885E+00  6.99002E+00  5.18381E+00  7.17375E+00  8.62661E+00  9.89842E+00  1.03019E+01  7.14114E+00
   5.78829E+00  6.17104E+00  6.05472E+00  7.06392E+00  7.94064E+00  6.34806E+00  4.42093E+00  6.60715E+00  8.06875E+00  5.01438E+00
   1.00149E+01  7.71917E-01  4.04189E+00  2.77283E+00  4.60968E+00  2.52466E+00  8.23579E+00  9.10262E+00  4.71768E+00  5.49188E+00
   5.28173E+00  7.54566E+00  3.45136E+00  2.78811E+00  5.10669E+00  2.67557E+00  4.55793E+00  4.16937E+00  4.13092E+00  5.62522E+00
   2.62648E+00  3.98972E+00  2.98031E+00  5.48604E+00  3.27927E+00  3.47236E+00  5.28625E+00  3.11625E+00  5.25400E+00  1.36679E+00
   1.45724E+00  3.66058E+00  4.62609E+00  2.84421E+00  3.34746E+00  4.86341E+00  4.98978E+00  3.53115E+00  3.86769E+00  3.57995E+00
   1.98149E+00  4.14369E+00  7.97004E-01  4.81468E+00  3.88197E+00  1.77227E+00  4.20561E+00  3.51305E+00  7.38537E+00  3.26000E+00
   5.22637E+00  2.40359E+00  1.60315E+00  6.58101E+00  6.16222E+00  7.47714E+00  3.26254E+00  4.41370E+00  5.10523E-01 -7.29754E-01
   2.74541E+00  2.85402E+00  2.63840E+00  4.58842E+00  5.79305E-01  4.24206E+00  5.96627E+00  9.52939E-01  5.00921E+00 -4.31023E-01
   2.75951E+00  1.41105E+00 -1.63299E+00 -6.70203E-01  2.64840E+00  4.88098E+00  5.48181E+00  2.40301E+00  5.32776E+00  2.97110E+00
   2.96605E+00  1.03142E+00 -1.02997E+00  3.59925E+00  3.23391E+00  2.65360E+00  9.04496E-01  3.94233E+00  4.32122E+00  3.90406E+00
   3.63376E+00  8.19523E-01  2.66286E+00  1.18121E+00  2.56107E+00  2.81183E+00  3.43912E+00  8.42095E-04  8.24112E-01  1.25675E+00
   2.20320E+00  2.80344E+00  1.54992E+00  1.43326E+00  1.58245E+00  2.55319E+00  5.56831E+00  2.33901E-01  1.17457E+00  4.38789E+00
   3.43565E+00  4.21320E+00  5.06102E+00  5.60451E+00  4.37093E+00  4.29760E+00  3.89350E+00  2.97677E+00  2.80018E+00  6.52086E+00
   1.02895E+01  3.49229E+00  2.46003E-01  2.08509E+00 -3.13852E+00  2.48946E+00 -2.60411E+00  5.90634E-01 -2.68975E+00  2.22895E+00
  -1.18019E-02 -2.20697E+00  8.23336E-01 -1.24056E+00  2.32939E+00 -4.61433E-01 -2.35504E+00  6.78859E-01  1.99868E+00  2.76229E+00
  -3.91062E-01  6.88172E-01  2.30484E+00  3.07346E+00  8.21799E-01  1.95201E+00  4.15288E-01  3.66001E+00  2.81355E-01  1.65062E+00
   2.26481E+00  2.13291E+00 -3.26872E+00  1.41235E+00  8.63685E-01  4.50269E+00  1.38248E+00 -2.44341E-01  1.16527E+00  3.53410E+00
   7.07498E-01  3.10134E+00  3.11082E+00  2.20943E+00  1.44154E-03  3.13142E+00  1.70803E+00  3.98627E-01  2.90765E+00  1.58300E+00
   6.90568E-01  2.37946E+00 -7.53895E-01  2.15709E+00  2.47824E+00  1.40507E+00  2.62537E+00  3.95255E+00  3.30079E+00 -7.07169E-01
  -7.52892E-01 -1.20428E+00  2.80027E+00 -1.95327E+00  1.91118E+00  4.64815E+00  2.41225E+00  2.95765E+00  7.67695E-01  1.04335E+00
   2.56214E-01  2.50369E+00 -1.25200E+00 -1.64333E+00 -5.28361E+00 -1.58506E+00 -3.89955E+00 -2.81335E+00  2.29416E-01 -6.70941E-01
  -6.43388E-01  5.11818E+00  2.34469E+00  8.85106E+00  4.99843E+00  6.34774E+00  7.19301E+00  3.10663E+00  4.76123E-01  3.82584E-01
   3.75247E+00  1.96734E+00  3.52151E-01 -5.83277E-01  4.85486E+00  5.13152E+00  4.82886E+00  7.24164E+00  6.18764E+00  5.16503E+00
   1.00041E+00  4.86922E+00  3.06043E+00  3.40774E+00  1.37672E+00 -2.16251E+00 -1.05820E+00  2.27270E+00  3.25893E-01  1.26487E+00
   1.32143E+00  1.56094E+00  6.67830E-01 -7.20413E-01  4.31685E+00  1.88898E+00  2.92451E+00 -1.71942E+00  3.28208E+00 -2.52136E-02
   2.20315E+00  3.44898E+00  6.90950E+00 -1.01904E+00  3.75432E+00  1.17071E+00  1.94614E+00  2.62794E+00  5.99619E-01  1.59479E+00
   1.74924E+00 -3.42402E-01 -9.69863E-01  6.27290E+00  1.37583E+00  3.53745E+00  1.69364E-01  1.77096E+00 -2.03225E-01  2.58959E+00
   8.20085E-01 -2.54337E-01  8.09997E-01  1.69607E+00  2.57035E-01  2.24022E+00  2.22755E+00  1.17632E+00  2.00151E-01  4.90059E-01
   2.39170E+00  1.00048E+00  1.95370E+00 -1.69516E-02  1.46456E-03  5.53556E+00  1.53522E+00  1.50614E+00 -1.35567E+00  4.44668E-01
   2.18512E-01  1.31474E+00 -2.43735E+00  1.12671E+00  1.41492E+00 -6.45253E-01 -1.42262E+00  1.18407E+00  2.39538E-01  2.09127E+00
   1.22537E-01 -2.72326E+00  1.58054E+00  2.86308E+00  2.31703E-01  2.58922E-01 -1.15608E+00  1.02627E+00  1.46407E-01 -1.32513E+00
   1.37809E+00 -9.96825E-01  1.30479E+00 -1.90466E+00 -9.71407E-01 -4.62460E-01 -3.21200E+00 -3.49584E+00  2.38788E+00 -1.07376E+00
  -1.84647E+00 -3.41184E+00 -3.00987E+00 -2.20329E+00 -2.21062E+00 -6.78665E-02 -2.76058E+00 -2.42683E+00 -3.39818E+00 -1.53625E+00
  -3.92236E-01 -4.30781E+00 -1.35655E+00  1.52398E-01 -1.96325E+00 -3.12651E+00 -3.32488E+00  1.24393E+00  4.56175E-01 -1.64302E+00
  -3.24112E+00 -1.48686E+00 -2.05133E+00  1.12285E+00 -2.63532E+00 -1.14119E+00 -2.64050E+00 -5.48245E-01 -2.33601E+00  1.38837E-01
  -8.89854E-01  6.14693E-01 -2.99732E+00  3.13315E-01  2.46382E+00  1.09169E+00 -2.30509E+00  9.17843E-01 -2.20948E+00  8.72975E-01
   8.48178E-01 -2.93475E+00 -1.49838E+00 -5.45280E-01 -3.10836E+00  4.59268E-01 -1.57611E+00 -3.08005E+00
 NY points of the fit to the data follow
   1.59466E+01  1.58586E+01  1.58207E+01  1.59200E+01  1.62839E+01  1.64640E+01  1.61655E+01  1.66703E+01  1.80275E+01  1.82799E+01
   1.71990E+01  1.64479E+01  1.62165E+01  1.59930E+01  1.55861E+01  1.51086E+01  1.48896E+01  1.47590E+01  1.46682E+01  1.46225E+01
   1.46473E+01  1.46297E+01  1.44951E+01  1.43892E+01  1.44644E+01  1.44620E+01  1.39679E+01  1.36240E+01  1.40403E+01  1.45604E+01
   1.46614E+01  1.48039E+01  1.49522E+01  1.46749E+01  1.41568E+01  1.36091E+01  1.31238E+01  1.27376E+01  1.26843E+01  1.28549E+01
   1.28563E+01  1.28267E+01  1.28703E+01  1.28924E+01  1.28476E+01  1.28277E+01  1.29160E+01  1.29131E+01  1.26818E+01  1.23929E+01
   1.22040E+01  1.20782E+01  1.19318E+01  1.17715E+01  1.16795E+01  1.16315E+01  1.15553E+01  1.14921E+01  1.14888E+01  1.14848E+01
   1.14210E+01  1.13093E+01  1.11784E+01  1.10593E+01  1.09653E+01  1.08798E+01  1.08062E+01  1.07536E+01  1.06950E+01  1.06091E+01
   1.05724E+01  1.05696E+01  1.04842E+01  1.03882E+01  1.03532E+01  1.02999E+01  1.01824E+01  1.00564E+01  9.95195E+00  9.85906E+00
   9.79213E+00  9.75756E+00  9.67748E+00  9.57023E+00  9.55537E+00  9.56849E+00  9.43552E+00  9.22817E+00  9.10317E+00  9.05175E+00
   9.01460E+00  8.94855E+00  8.86268E+00  8.79024E+00  8.75288E+00  8.71338E+00  8.67362E+00  8.72754E+00  8.88314E+00  8.72546E+00
   8.65159E+00  9.21446E+00  9.71815E+00  9.36367E+00  8.78154E+00  8.55686E+00  8.45327E+00  8.30104E+00  7.99396E+00  7.78173E+00
   7.68719E+00  7.61851E+00  7.55768E+00  7.49546E+00  7.43423E+00  7.37150E+00  7.32106E+00  7.27524E+00  7.21173E+00  7.15867E+00
   7.16721E+00  7.32311E+00  7.91073E+00  8.03726E+00  7.71975E+00  8.94680E+00  1.10683E+01  1.10441E+01  9.35423E+00  8.44274E+00
   8.18875E+00  7.93198E+00  7.32691E+00  6.62482E+00  6.22905E+00  6.02024E+00  5.90468E+00  5.84653E+00  5.84089E+00  5.85761E+00
   5.88778E+00  5.88715E+00  5.82243E+00  5.76312E+00  5.72695E+00  5.66657E+00  5.57729E+00  5.48293E+00  5.41452E+00  5.33401E+00
   5.25724E+00  5.20624E+00  5.13019E+00  5.02389E+00  4.96048E+00  4.93582E+00  4.91154E+00  4.90628E+00  4.85961E+00  4.72203E+00
   4.60566E+00  4.55504E+00  4.53637E+00  4.52281E+00  4.46952E+00  4.37225E+00  4.32123E+00  4.29162E+00  4.20144E+00  4.11991E+00
   4.10428E+00  4.10494E+00  4.08233E+00  4.02049E+00  3.88025E+00  3.76811E+00  3.76824E+00  3.80282E+00  3.77576E+00  3.70328E+00
   3.59485E+00  3.52579E+00  3.56357E+00  3.65152E+00  3.65437E+00  3.57486E+00  3.55657E+00  3.63858E+00  3.71382E+00  3.71719E+00
   3.74990E+00  3.71935E+00  3.51297E+00  3.27809E+00  3.17617E+00  3.05971E+00  2.89421E+00  2.88666E+00  3.05886E+00  3.27018E+00
   3.52610E+00  3.76670E+00  3.77783E+00  3.71835E+00  3.67172E+00  3.30630E+00  2.89954E+00  2.62757E+00  1.94203E+00  1.26588E+00
   1.55622E+00  2.38731E+00  2.66496E+00  2.82027E+00  3.52175E+00  4.22093E+00  3.90897E+00  3.04063E+00  2.60167E+00  2.41932E+00
   1.90067E+00  9.93576E-01  8.42978E-01  1.58718E+00  2.20803E+00  2.37320E+00  2.45337E+00  2.65186E+00  2.86285E+00  2.80174E+00
   2.45341E+00  2.18820E+00  2.24285E+00  2.38280E+00  2.21256E+00  1.93986E+00  2.09336E+00  2.36928E+00  2.23356E+00  2.17490E+00
   2.22660E+00  1.91583E+00  1.44441E+00  1.48161E+00  1.66231E+00  1.56926E+00  1.50489E+00  1.57638E+00  1.67428E+00  1.67321E+00
   1.92918E+00  2.57586E+00  2.65485E+00  2.69976E+00  4.11156E+00  5.89528E+00  5.50745E+00  3.84951E+00  4.09847E+00  5.90892E+00
   6.16913E+00  4.30659E+00  3.12365E+00  2.91769E+00  2.67817E+00  2.15073E+00  1.58365E+00  1.34498E+00  1.22983E+00  1.16667E+00
   1.13178E+00  1.12920E+00  1.16295E+00  1.23091E+00  1.25593E+00  1.21769E+00  1.16457E+00  1.15118E+00  1.14820E+00  1.10876E+00
   1.06214E+00  1.06121E+00  1.08721E+00  1.09545E+00  1.09416E+00  1.10343E+00  1.11632E+00  1.13058E+00  1.14194E+00  1.14953E+00
   1.17800E+00  1.22801E+00  1.27264E+00  1.30607E+00  1.34005E+00  1.38325E+00  1.42775E+00  1.45609E+00  1.47982E+00  1.51500E+00
   1.55120E+00  1.57869E+00  1.59949E+00  1.61252E+00  1.61869E+00  1.61501E+00  1.60057E+00  1.57660E+00  1.54370E+00  1.50293E+00
   1.45582E+00  1.40342E+00  1.34665E+00  1.28702E+00  1.22662E+00  1.16711E+00  1.10960E+00  1.05526E+00  1.00555E+00  9.62375E-01
   9.28164E-01  9.07913E-01  9.02455E-01  8.62266E-01  8.32559E-01  8.90114E-01  9.12578E-01  7.82083E-01  6.44575E-01  6.22203E-01
   6.71496E-01  7.10305E-01  6.76310E-01  7.24693E-01  9.52353E-01  1.17259E+00  1.27152E+00  1.36560E+00  1.52472E+00  1.74411E+00
   2.02530E+00  2.45800E+00  3.15497E+00  3.11944E+00  2.97933E+00  4.58237E+00  5.73881E+00  3.58117E+00  6.91277E-01  1.40680E-01
   1.20284E+00  1.30005E+00 -2.97210E-02  7.82541E-01  4.44308E+00  6.45196E+00  5.96689E+00  5.43831E+00  5.36577E+00  5.34503E+00
   4.67105E+00  3.72884E+00  3.06015E+00  2.56894E+00  2.17495E+00  1.85031E+00  1.58207E+00  1.36097E+00  1.17879E+00  1.02815E+00
   9.02974E-01  7.98590E-01  7.11448E-01  6.38695E-01  5.78018E-01  5.27763E-01  4.87022E-01  4.55452E-01  4.32898E-01  4.19112E-01
   4.13800E-01  4.16838E-01  4.28383E-01  4.48711E-01  4.77961E-01  5.16026E-01  5.62687E-01  6.17773E-01  6.81169E-01  7.52604E-01
   8.31456E-01  9.16731E-01  1.00723E+00  1.10164E+00  1.19853E+00  1.29615E+00  1.39238E+00  1.48490E+00  1.57136E+00  1.64953E+00
   1.71731E+00  1.77263E+00  1.81356E+00  1.83849E+00  1.84634E+00  1.83657E+00  1.80908E+00  1.76418E+00  1.70255E+00  1.62535E+00
   1.53422E+00  1.43116E+00  1.31828E+00  1.19773E+00  1.07166E+00  9.42217E-01  8.11557E-01  6.81626E-01  5.54059E-01  4.30166E-01
   3.11011E-01  1.97485E-01  9.02848E-02 -1.01692E-02 -1.03751E-01 -1.90540E-01 -2.70698E-01 -3.44417E-01 -4.11958E-01 -4.73706E-01
  -5.30142E-01 -5.81757E-01 -6.28967E-01 -6.72121E-01 -7.11576E-01 -7.47734E-01 -7.81004E-01 -8.11727E-01 -8.40145E-01 -8.66453E-01
  -8.90867E-01 -9.13633E-01 -9.34981E-01 -9.55075E-01 -9.73997E-01 -9.91823E-01 -1.00868E+00 -1.02471E+00 -1.04004E+00 -1.05472E+00
  -1.06874E+00 -1.08216E+00 -1.09506E+00 -1.10753E+00 -1.11962E+00 -1.13133E+00 -1.14264E+00 -1.15359E+00 -1.16426E+00 -1.17469E+00
  -1.18490E+00 -1.19485E+00 -1.20455E+00 -1.21403E+00 -1.22334E+00 -1.23253E+00 -1.24155E+00 -1.25040E+00 -1.25908E+00 -1.26762E+00
  -1.27608E+00 -1.28445E+00 -1.29270E+00 -1.30082E+00 -1.30882E+00 -1.31675E+00 -1.32462E+00 -1.33243E+00 -1.34014E+00 -1.34775E+00
  -1.35529E+00 -1.36279E+00 -1.37026E+00 -1.37766E+00 -1.38498E+00 -1.39223E+00 -1.39944E+00 -1.40663E+00 -1.41379E+00 -1.42088E+00
  -1.42790E+00 -1.43488E+00 -1.44183E+00 -1.44876E+00 -1.45565E+00 -1.46248E+00 -1.46925E+00 -1.47598E+00
 NY background values follow
     1.581E+01    1.573E+01    1.565E+01    1.557E+01    1.549E+01    1.541E+01    1.533E+01    1.525E+01    1.517E+01    1.509E+01
     1.501E+01    1.493E+01    1.485E+01    1.477E+01    1.469E+01    1.461E+01    1.453E+01    1.445E+01    1.437E+01    1.429E+01
     1.421E+01    1.413E+01    1.405E+01    1.397E+01    1.389E+01    1.382E+01    1.374E+01    1.366E+01    1.358E+01    1.350E+01
     1.342E+01    1.334E+01    1.326E+01    1.318E+01    1.310E+01    1.303E+01    1.295E+01    1.287E+01    1.279E+01    1.271E+01
     1.263E+01    1.256E+01    1.248E+01    1.240E+01    1.232E+01    1.225E+01    1.217E+01    1.209E+01    1.201E+01    1.194E+01
     1.186E+01    1.178E+01    1.171E+01    1.163E+01    1.155E+01    1.148E+01    1.140E+01    1.132E+01    1.125E+01    1.117E+01
     1.110E+01    1.102E+01    1.095E+01    1.087E+01    1.080E+01    1.072E+01    1.065E+01    1.057E+01    1.050E+01    1.043E+01
     1.035E+01    1.028E+01    1.021E+01    1.013E+01    1.006E+01    9.987E+00    9.914E+00    9.842E+00    9.770E+00    9.698E+00
     9.627E+00    9.555E+00    9.484E+00    9.413E+00    9.343E+00    9.272E+00    9.202E+00    9.132E+00    9.062E+00    8.993E+00
     8.924E+00    8.855E+00    8.786E+00    8.718E+00    8.650E+00    8.582E+00    8.514E+00    8.447E+00    8.380E+00    8.313E+00
     8.246E+00    8.180E+00    8.114E+00    8.048E+00    7.983E+00    7.917E+00    7.853E+00    7.788E+00    7.724E+00    7.659E+00
     7.596E+00    7.532E+00    7.469E+00    7.406E+00    7.343E+00    7.281E+00    7.219E+00    7.157E+00    7.095E+00    7.034E+00
     6.973E+00    6.912E+00    6.852E+00    6.792E+00    6.732E+00    6.672E+00    6.613E+00    6.554E+00    6.496E+00    6.437E+00
     6.379E+00    6.321E+00    6.264E+00    6.207E+00    6.150E+00    6.093E+00    6.037E+00    5.981E+00    5.926E+00    5.870E+00
     5.815E+00    5.760E+00    5.706E+00    5.652E+00    5.598E+00    5.544E+00    5.491E+00    5.438E+00    5.386E+00    5.333E+00
     5.281E+00    5.229E+00    5.178E+00    5.127E+00    5.076E+00    5.025E+00    4.975E+00    4.925E+00    4.875E+00    4.826E+00
     4.777E+00    4.728E+00    4.679E+00    4.631E+00    4.583E+00    4.535E+00    4.488E+00    4.441E+00    4.394E+00    4.347E+00
     4.301E+00    4.255E+00    4.209E+00    4.164E+00    4.119E+00    4.074E+00    4.029E+00    3.985E+00    3.941E+00    3.897E+00
     3.853E+00    3.810E+00    3.767E+00    3.725E+00    3.682E+00    3.640E+00    3.598E+00    3.556E+00    3.515E+00    3.474E+00
     3.433E+00    3.393E+00    3.352E+00    3.312E+00    3.273E+00    3.233E+00    3.194E+00    3.155E+00    3.116E+00    3.078E+00
     3.039E+00    3.001E+00    2.964E+00    2.926E+00    2.889E+00    2.852E+00    2.815E+00    2.779E+00    2.743E+00    2.707E+00
     2.671E+00    2.636E+00    2.600E+00    2.565E+00    2.531E+00    2.496E+00    2.462E+00    2.428E+00    2.394E+00    2.360E+00
     2.327E+00    2.294E+00    2.261E+00    2.229E+00    2.196E+00    2.164E+00    2.132E+00    2.100E+00    2.069E+00    2.038E+00
     2.007E+00    1.976E+00    1.945E+00    1.915E+00    1.885E+00    1.855E+00    1.825E+00    1.796E+00    1.767E+00    1.738E+00
     1.709E+00    1.680E+00    1.652E+00    1.624E+00    1.596E+00    1.568E+00    1.541E+00    1.513E+00    1.486E+00    1.459E+00
     1.433E+00    1.406E+00    1.380E+00    1.354E+00    1.328E+00    1.303E+00    1.277E+00    1.252E+00    1.227E+00    1.202E+00
     1.178E+00    1.154E+00    1.129E+00    1.105E+00    1.082E+00    1.058E+00    1.035E+00    1.012E+00    9.887E-01    9.660E-01
     9.435E-01    9.211E-01    8.990E-01    8.770E-01    8.553E-01    8.337E-01    8.123E-01    7.912E-01    7.702E-01    7.494E-01
     7.288E-01    7.083E-01    6.881E-01    6.680E-01    6.481E-01    6.284E-01    6.089E-01    5.896E-01    5.704E-01    5.514E-01
     5.326E-01    5.139E-01    4.954E-01    4.771E-01    4.590E-01    4.410E-01    4.232E-01    4.055E-01    3.881E-01    3.707E-01
     3.536E-01    3.366E-01    3.197E-01    3.030E-01    2.865E-01    2.701E-01    2.539E-01    2.378E-01    2.219E-01    2.061E-01
     1.904E-01    1.749E-01    1.596E-01    1.444E-01    1.293E-01    1.144E-01    9.964E-02    8.499E-02    7.048E-02    5.611E-02
     4.187E-02    2.777E-02    1.379E-02   -5.753E-05   -1.378E-02   -2.737E-02   -4.084E-02   -5.418E-02   -6.740E-02   -8.050E-02
    -9.348E-02   -1.063E-01   -1.191E-01   -1.317E-01   -1.442E-01   -1.566E-01   -1.689E-01   -1.811E-01   -1.932E-01   -2.052E-01
    -2.170E-01   -2.288E-01   -2.404E-01   -2.520E-01   -2.634E-01   -2.748E-01   -2.860E-01   -2.972E-01   -3.083E-01   -3.192E-01
    -3.301E-01   -3.409E-01   -3.516E-01   -3.622E-01   -3.728E-01   -3.832E-01   -3.936E-01   -4.039E-01   -4.141E-01   -4.242E-01
    -4.342E-01   -4.442E-01   -4.541E-01   -4.639E-01   -4.737E-01   -4.833E-01   -4.929E-01   -5.025E-01   -5.119E-01   -5.213E-01
    -5.307E-01   -5.399E-01   -5.491E-01   -5.583E-01   -5.674E-01   -5.764E-01   -5.854E-01   -5.943E-01   -6.031E-01   -6.119E-01
    -6.207E-01   -6.293E-01   -6.380E-01   -6.466E-01   -6.551E-01   -6.636E-01   -6.720E-01   -6.804E-01   -6.887E-01   -6.970E-01
    -7.053E-01   -7.135E-01   -7.217E-01   -7.298E-01   -7.379E-01   -7.460E-01   -7.540E-01   -7.620E-01   -7.699E-01   -7.779E-01
    -7.858E-01   -7.936E-01   -8.014E-01   -8.092E-01   -8.170E-01   -8.248E-01   -8.325E-01   -8.402E-01   -8.478E-01   -8.555E-01
    -8.631E-01   -8.707E-01   -8.783E-01   -8.859E-01   -8.934E-01   -9.009E-01   -9.084E-01   -9.159E-01   -9.233E-01   -9.308E-01
    -9.382E-01   -9.456E-01   -9.529E-01   -9.603E-01   -9.676E-01   -9.749E-01   -9.822E-01   -9.894E-01   -9.967E-01   -1.004E+00
    -1.011E+00   -1.018E+00   -1.025E+00   -1.033E+00   -1.040E+00   -1.047E+00   -1.054E+00   -1.061E+00   -1.068E+00   -1.075E+00
    -1.082E+00   -1.089E+00   -1.096E+00   -1.103E+00   -1.110E+00   -1.117E+00   -1.124E+00   -1.131E+00   -1.138E+00   -1.145E+00
    -1.152E+00   -1.158E+00   -1.165E+00   -1.172E+00   -1.179E+00   -1.186E+00   -1.192E+00   -1.199E+00   -1.206E+00   -1.213E+00
    -1.219E+00   -1.226E+00   -1.233E+00   -1.240E+00   -1.246E+00   -1.253E+00   -1.260E+00   -1.266E+00   -1.273E+00   -1.280E+00
    -1.286E+00   -1.293E+00   -1.299E+00   -1.306E+00   -1.313E+00   -1.319E+00   -1.326E+00   -1.332E+00   -1.339E+00   -1.346E+00
    -1.352E+00   -1.359E+00   -1.365E+00   -1.372E+00   -1.378E+00   -1.385E+00   -1.391E+00   -1.398E+00   -1.405E+00   -1.411E+00
    -1.418E+00   -1.424E+00   -1.431E+00   -1.437E+00   -1.444E+00   -1.450E+00   -1.457E+00   -1.463E+00
 Ala      Conc. = 1.16E+01
