 LCModel (Version 6.3-1L) Copyright: S.W. Provencher.          Ref.: Magn. Reson. Med. 30:672-679 (1993).                
 Slice#2 Row#3 Col#6  K_02_press_1_raw_act
 36 lines in following concentration table = NCONC+1
    Conc.  %SD /Cr+PCr  Metabolite                                         
  283.988  46%   0.135 Ala                                                 
    0.000 999%   0.000 Asp                                                 
 1.58E+03  17%   0.754 Cr                                                  
  517.110  53%   0.246 PCr                                                 
    0.000 999%   0.000 GABA                                                
    0.000 999%   0.000 Glc                                                 
  534.237  50%   0.254 Gln                                                 
 1.71E+03  17%   0.813 Glu                                                 
  781.605   4%   0.372 GPC                                                 
    0.000 999%   0.000 PCh                                                 
  691.680  13%   0.329 GSH                                                 
 1.82E+03  17%   0.868 Ins                                                 
  231.967  67%   0.110 Lac                                                 
 2.67E+03   6%   1.269 NAA                                                 
  435.291  38%   0.207 NAAG                                                
   53.228  61% 2.5E-02 Scyllo                                              
    0.000 999%   0.000 Tau                                                 
  353.343  38%   0.168 -CrCH2                                              
  781.605   4%   0.372 GPC+PCh                                             
 3.10E+03   4%   1.476 NAA+NAAG                                            
 2.10E+03   4%   1.000 Cr+PCr                                              
 2.24E+03  19%   1.067 Glu+Gln                                             
 3.87E+03  16%   1.842 Lip13a                                              
    0.000 999%   0.000 Lip13b                                              
    0.000 999%   0.000 Lip09                                               
 4.13E+03   9%   1.967 MM09                                                
  812.941  55%   0.387 Lip20                                               
 5.28E+03  11%   2.516 MM20                                                
 2.68E+03  15%   1.275 MM12                                                
    0.000 999%   0.000 MM14                                                
 1.02E+03  28%   0.487 MM17                                                
 3.87E+03  16%   1.842 Lip13a+Lip13b                                       
 6.55E+03   8%   3.117 MM14+Lip13a+Lip13b+MM12                             
 4.13E+03   9%   1.967 MM09+Lip09                                          
 6.10E+03   9%   2.903 MM20+Lip20                                          
   6 lines in following misc. output table
  FWHM = 0.054 ppm    S/N =  14                                            
  Data shift = 0.023 ppm                                                   
  Ph:  19 deg       6.1 deg/ppm                                            
  alphaB,S = 1.7E+00,   9.3E+01                                            
   14 spline knots.   Ns = 7(1)                                            
  (11) 2 infls.   ( 3) 1 extrs.                                            
  498 points on ppm-axis = NY
      4.000000     3.992357     3.984714     3.977070     3.969427     3.961784     3.954141     3.946497     3.938854     3.931211
      3.923568     3.915925     3.908281     3.900638     3.892995     3.885352     3.877708     3.870065     3.862422     3.854779
      3.847136     3.839492     3.831849     3.824206     3.816563     3.808919     3.801276     3.793633     3.785990     3.778347
      3.770703     3.763060     3.755417     3.747774     3.740130     3.732487     3.724844     3.717201     3.709558     3.701914
      3.694271     3.686628     3.678985     3.671341     3.663698     3.656055     3.648412     3.640769     3.633125     3.625482
      3.617839     3.610196     3.602552     3.594909     3.587266     3.579623     3.571980     3.564336     3.556693     3.549050
      3.541407     3.533763     3.526120     3.518477     3.510834     3.503191     3.495547     3.487904     3.480261     3.472618
      3.464974     3.457331     3.449688     3.442045     3.434402     3.426758     3.419115     3.411472     3.403829     3.396185
      3.388542     3.380899     3.373256     3.365613     3.357969     3.350326     3.342683     3.335040     3.327396     3.319753
      3.312110     3.304467     3.296824     3.289180     3.281537     3.273894     3.266251     3.258607     3.250964     3.243321
      3.235678     3.228034     3.220391     3.212748     3.205105     3.197462     3.189818     3.182175     3.174532     3.166889
      3.159245     3.151602     3.143959     3.136316     3.128673     3.121029     3.113386     3.105743     3.098100     3.090456
      3.082813     3.075170     3.067527     3.059884     3.052240     3.044597     3.036954     3.029311     3.021667     3.014024
      3.006381     2.998738     2.991095     2.983451     2.975808     2.968165     2.960522     2.952878     2.945235     2.937592
      2.929949     2.922306     2.914662     2.907019     2.899376     2.891733     2.884089     2.876446     2.868803     2.861160
      2.853517     2.845873     2.838230     2.830587     2.822944     2.815300     2.807657     2.800014     2.792371     2.784728
      2.777084     2.769441     2.761798     2.754155     2.746511     2.738868     2.731225     2.723582     2.715939     2.708295
      2.700652     2.693009     2.685366     2.677722     2.670079     2.662436     2.654793     2.647150     2.639506     2.631863
      2.624220     2.616577     2.608933     2.601290     2.593647     2.586004     2.578361     2.570717     2.563074     2.555431
      2.547788     2.540144     2.532501     2.524858     2.517215     2.509572     2.501928     2.494285     2.486642     2.478999
      2.471355     2.463712     2.456069     2.448426     2.440783     2.433139     2.425496     2.417853     2.410210     2.402566
      2.394923     2.387280     2.379637     2.371994     2.364350     2.356707     2.349064     2.341421     2.333777     2.326134
      2.318491     2.310848     2.303205     2.295561     2.287918     2.280275     2.272632     2.264988     2.257345     2.249702
      2.242059     2.234416     2.226772     2.219129     2.211486     2.203843     2.196199     2.188556     2.180913     2.173270
      2.165627     2.157983     2.150340     2.142697     2.135054     2.127410     2.119767     2.112124     2.104481     2.096838
      2.089194     2.081551     2.073908     2.066265     2.058621     2.050978     2.043335     2.035692     2.028049     2.020405
      2.012762     2.005119     1.997476     1.989833     1.982190     1.974546     1.966903     1.959260     1.951617     1.943974
      1.936331     1.928688     1.921045     1.913402     1.905759     1.898115     1.890472     1.882829     1.875186     1.867543
      1.859900     1.852257     1.844614     1.836971     1.829327     1.821684     1.814041     1.806398     1.798755     1.791112
      1.783469     1.775826     1.768183     1.760540     1.752896     1.745253     1.737610     1.729967     1.722324     1.714681
      1.707038     1.699395     1.691752     1.684108     1.676465     1.668822     1.661179     1.653536     1.645893     1.638250
      1.630607     1.622964     1.615321     1.607677     1.600034     1.592391     1.584748     1.577105     1.569462     1.561819
      1.554176     1.546533     1.538890     1.531246     1.523603     1.515960     1.508317     1.500674     1.493031     1.485388
      1.477745     1.470102     1.462458     1.454815     1.447172     1.439529     1.431886     1.424243     1.416600     1.408957
      1.401314     1.393671     1.386027     1.378384     1.370741     1.363098     1.355455     1.347812     1.340169     1.332526
      1.324883     1.317240     1.309596     1.301953     1.294310     1.286667     1.279024     1.271381     1.263738     1.256095
      1.248452     1.240808     1.233165     1.225522     1.217879     1.210236     1.202593     1.194950     1.187307     1.179664
      1.172021     1.164377     1.156734     1.149091     1.141448     1.133805     1.126162     1.118519     1.110876     1.103233
      1.095590     1.087946     1.080303     1.072660     1.065017     1.057374     1.049731     1.042088     1.034445     1.026802
      1.019158     1.011515     1.003872     0.996229     0.988586     0.980943     0.973300     0.965657     0.958014     0.950371
      0.942727     0.935084     0.927441     0.919798     0.912155     0.904512     0.896869     0.889226     0.881583     0.873940
      0.866296     0.858653     0.851010     0.843367     0.835724     0.828081     0.820438     0.812795     0.805152     0.797508
      0.789865     0.782222     0.774579     0.766936     0.759293     0.751650     0.744007     0.736364     0.728721     0.721077
      0.713434     0.705791     0.698148     0.690505     0.682862     0.675219     0.667576     0.659933     0.652290     0.644646
      0.637003     0.629360     0.621717     0.614074     0.606431     0.598788     0.591145     0.583502     0.575858     0.568215
      0.560572     0.552929     0.545286     0.537643     0.530000     0.522357     0.514714     0.507071     0.499427     0.491784
      0.484141     0.476498     0.468855     0.461212     0.453569     0.445925     0.438282     0.430639     0.422996     0.415353
      0.407710     0.400067     0.392424     0.384780     0.377137     0.369494     0.361851     0.354208     0.346565     0.338922
      0.331278     0.323635     0.315992     0.308349     0.300706     0.293063     0.285420     0.277777     0.270133     0.262490
      0.254847     0.247204     0.239561     0.231918     0.224275     0.216631     0.208988     0.201345
 NY phased data points follow
   2.22868E+01  2.63164E+01  2.71842E+01  2.97804E+01  2.97016E+01  3.50373E+01  3.95152E+01  4.31632E+01  5.24578E+01  5.85034E+01
   6.49034E+01  6.86186E+01  6.43878E+01  5.88474E+01  5.40929E+01  4.50844E+01  4.24333E+01  3.30385E+01  2.90146E+01  3.06769E+01
   2.90314E+01  3.13846E+01  2.72037E+01  2.90980E+01  2.76496E+01  3.19100E+01  3.00221E+01  3.34477E+01  3.55175E+01  3.54352E+01
   3.72348E+01  3.46375E+01  3.44024E+01  3.73746E+01  3.46677E+01  3.11387E+01  3.28632E+01  3.03192E+01  3.14625E+01  3.11094E+01
   3.51665E+01  3.18542E+01  2.88759E+01  3.30838E+01  3.59041E+01  3.26098E+01  3.21302E+01  3.85071E+01  3.55611E+01  3.94434E+01
   3.10847E+01  2.46423E+01  2.61027E+01  2.95552E+01  2.40141E+01  2.25910E+01  2.33356E+01  2.20568E+01  2.59009E+01  2.08577E+01
   2.69657E+01  2.03494E+01  1.60659E+01  1.48705E+01  1.22237E+01  1.15409E+01  1.28926E+01  9.90538E+00  9.89078E+00  8.16954E+00
   9.03115E+00  1.54464E+01  1.58779E+01  1.39325E+01  1.45128E+01  1.63759E+01  1.39114E+01  1.37893E+01  1.71001E+01  1.21148E+01
   1.05553E+01  9.88281E+00  1.32187E+01  1.38793E+01  9.66843E+00  7.84873E+00  1.59762E+01  1.37646E+01  9.12059E+00  1.34648E+01
   1.33706E+01  9.70069E+00  1.61074E+01  1.15366E+01  1.59098E+01  1.50923E+01  2.18965E+01  2.02325E+01  2.86379E+01  3.45169E+01
   5.77119E+01  6.54968E+01  7.08821E+01  8.66389E+01  8.13619E+01  6.55542E+01  5.53838E+01  4.15619E+01  3.23776E+01  2.79004E+01
   2.24729E+01  1.60051E+01  1.46140E+01  1.31302E+01  1.28517E+01  1.26819E+01  1.46273E+01  1.59452E+01  1.76715E+01  1.61116E+01
   1.58647E+01  1.79911E+01  2.46331E+01  3.86690E+01  4.77942E+01  6.46879E+01  7.85844E+01  7.98360E+01  7.65784E+01  6.89811E+01
   5.35687E+01  4.93175E+01  3.65891E+01  2.30603E+01  2.07060E+01  1.37398E+01  1.52153E+01  9.84751E+00  8.75459E+00  4.03522E+00
   9.28500E+00  8.51312E+00  1.01597E+01  1.05758E+01  9.84145E+00  9.24704E+00  1.11506E+01  1.19778E+01  7.46411E+00  1.00751E+01
   9.23739E+00  5.19316E+00  7.84980E+00  9.06582E+00  5.30596E+00  4.64859E+00 -2.99966E-01  9.82276E-01  9.36549E+00  8.08231E+00
  -3.60716E+00  2.39825E+00  1.51982E+00 -1.90604E+00  2.82514E+00  5.80547E+00  7.63305E+00  3.09809E+00  3.26279E+00 -8.11208E-01
  -5.79756E+00 -4.86272E+00 -1.32248E+01 -8.15828E+00 -1.52004E+01 -1.30688E+01 -1.50628E+01 -1.37449E+01 -1.33956E+01 -1.23617E+01
  -1.14252E+01 -1.19551E+01 -8.53430E+00 -1.19984E+01 -1.17162E+01 -1.41163E+01 -7.30521E+00 -5.74612E+00 -3.02663E+00 -2.96558E+00
   2.94775E+00  2.31588E+00  1.14033E+00  3.49676E+00  3.97508E+00 -3.15122E+00 -3.13147E+00  2.23158E-01 -3.76662E+00 -2.27513E+00
  -1.79037E+00 -3.20881E+00 -3.10711E+00  7.01322E+00  1.37266E+00  2.58213E+00 -7.09498E+00 -4.70341E+00 -2.23224E+00 -3.31649E+00
  -6.80087E+00  6.89332E-01 -2.21093E+00  7.73355E+00  5.19817E+00  1.04800E+01  1.07016E+01  8.97364E+00  4.92299E+00  5.49901E+00
  -6.66570E+00 -1.08385E+00 -7.11585E+00 -9.51925E-02  4.42771E-01  2.42693E+00  4.92461E+00  3.95021E+00  1.42371E+01  1.30344E+01
   1.35850E+01  1.00391E+01  9.98403E+00  1.16949E+01  8.41835E+00  6.60105E+00  7.19416E+00  8.46384E+00  8.83447E+00  5.60046E+00
   1.09092E+01  5.81745E+00  6.48906E+00  8.71372E+00  1.28922E+01  1.05420E+01  1.38079E+01  1.97774E+01  2.36802E+01  2.52727E+01
   2.88083E+01  3.28587E+01  2.93458E+01  3.58391E+01  4.58982E+01  5.38931E+01  6.54347E+01  7.57823E+01  9.29130E+01  1.08251E+02
   1.16457E+02  1.12050E+02  9.02256E+01  7.67118E+01  5.13266E+01  2.92081E+01  2.05241E+01  1.18612E+01  1.21235E+01  1.72995E+00
   3.93840E+00  3.62547E+00  8.00488E+00  1.71903E+00  2.86521E+00  2.82832E+00  8.37637E-01  4.77185E-01 -7.43478E-01  2.57041E-01
   2.33087E+00  9.92280E-01  5.70992E-02 -3.41515E+00  1.60649E+00 -7.15457E+00 -5.34464E-01 -7.61596E-01  3.32264E+00  2.92197E+00
  -8.00806E-01  1.29240E+00 -8.26754E-03  2.40727E+00  2.36148E+00  3.69219E+00  1.94774E-01 -2.70534E+00 -5.33158E-01  1.43218E+00
  -1.18943E+00  8.09104E-01  4.70314E+00  5.17627E+00 -3.15034E+00  2.60199E+00  3.42287E+00  4.02391E+00 -2.39398E+00 -3.52371E-01
  -2.11228E+00 -1.25506E+00  2.46518E+00  7.84285E-01 -4.37798E+00  1.27992E+00  2.54594E-01 -5.76589E+00 -5.58808E-01 -5.26505E+00
  -9.76463E-01 -3.40205E+00 -4.84769E+00 -1.14739E+00 -7.75818E+00 -6.52056E+00 -8.71787E+00 -7.86903E+00 -1.36248E+01 -1.11147E+01
  -6.99655E+00 -5.01320E+00 -7.79322E+00 -7.53881E+00 -7.61886E+00 -1.86642E+00 -4.20151E+00 -2.71235E-01  3.64120E+00  8.03922E+00
   5.42756E+00  1.36479E+01  1.72614E+01  1.79418E+01  2.06305E+01  2.21781E+01  3.29603E+01  2.51433E+01  2.09722E+01  2.70351E+01
   2.91590E+01  2.87938E+01  2.84123E+01  3.03402E+01  3.37332E+01  3.05158E+01  2.79954E+01  2.82567E+01  3.11874E+01  2.89201E+01
   2.98192E+01  3.09087E+01  2.98665E+01  2.56147E+01  2.99814E+01  2.84929E+01  2.40996E+01  2.48411E+01  1.69109E+01  2.14502E+01
   1.93807E+01  1.82684E+01  1.87471E+01  2.15166E+01  1.87888E+01  2.38259E+01  1.56476E+01  1.86219E+01  2.03035E+01  1.95572E+01
   1.35017E+01  1.54180E+01  1.86010E+01  1.68311E+01  1.74064E+01  1.61363E+01  1.73712E+01  1.45199E+01  1.18165E+01  1.94641E+01
   1.83122E+01  1.79700E+01  1.76360E+01  1.48740E+01  1.77675E+01  1.64582E+01  1.80954E+01  1.81121E+01  1.78888E+01  2.01451E+01
   1.45305E+01  1.55674E+01  1.76644E+01  1.77898E+01  1.94924E+01  1.64288E+01  1.77657E+01  2.69523E+01  2.28293E+01  2.04683E+01
   1.73538E+01  1.47281E+01  1.58343E+01  1.81233E+01  1.08064E+01  9.38150E+00  1.17909E+01  1.12195E+01  1.27910E+01  1.27433E+01
   5.61703E+00  6.52473E+00  1.17813E+00  7.96691E+00  9.56471E+00  6.98168E+00  1.19321E+01  6.32734E+00  6.62764E+00  7.93405E+00
   5.25219E+00  6.48367E+00  2.33741E+00  9.05253E+00  1.40298E+00  2.82431E+00  5.48253E+00  3.79110E+00  1.35492E+00  1.51055E-01
   5.34323E+00  5.14974E+00  1.83999E+00  4.96512E+00  1.56611E+00  7.35722E+00  4.06160E+00  3.97564E+00  1.62893E+00  6.64207E+00
   6.16993E+00  1.45843E+00 -1.88121E+00  5.42051E+00  1.87571E+00  4.07831E+00  7.38717E+00  5.43111E+00  4.07607E+00  7.20926E+00
   1.69647E+00 -1.52551E-02 -1.63834E+00  9.48558E-01  9.82458E-01  5.44156E+00  1.96611E+00  4.89185E+00  3.50794E+00 -6.10142E-01
   8.03125E+00  5.97063E+00  5.16732E+00  3.47018E+00 -7.13002E-01  2.78556E+00 -1.82727E+00  4.27529E+00  5.03235E+00  5.48041E+00
   3.09613E-01  1.17246E+00  2.62541E+00  4.39714E-01  5.30949E+00  3.08460E+00  6.43563E+00  2.40041E+00  2.15605E+00  2.71662E+00
   5.25519E+00  4.77650E+00  7.65352E+00  4.04628E+00  2.44404E+00 -2.89995E+00  2.56623E+00 -5.23555E-01
 NY points of the fit to the data follow
   2.85772E+01  2.80791E+01  2.82328E+01  2.91593E+01  3.13594E+01  3.50854E+01  3.94897E+01  4.48198E+01  5.13444E+01  5.83521E+01
   6.42297E+01  6.70109E+01  6.54933E+01  6.02943E+01  5.33516E+01  4.63043E+01  4.01219E+01  3.53847E+01  3.21353E+01  2.98449E+01
   2.82643E+01  2.72871E+01  2.66205E+01  2.65723E+01  2.68375E+01  2.73475E+01  2.85933E+01  3.08924E+01  3.40699E+01  3.73873E+01
   3.98141E+01  4.05364E+01  3.95120E+01  3.72280E+01  3.40419E+01  3.06049E+01  2.77273E+01  2.55639E+01  2.39719E+01  2.33126E+01
   2.37428E+01  2.48837E+01  2.63702E+01  2.82175E+01  3.04282E+01  3.27158E+01  3.45414E+01  3.51067E+01  3.39349E+01  3.14064E+01
   2.82160E+01  2.50005E+01  2.24056E+01  2.07796E+01  2.00077E+01  1.98659E+01  2.02079E+01  2.08909E+01  2.16269E+01  2.20831E+01
   2.20045E+01  2.12965E+01  2.01110E+01  1.87162E+01  1.74875E+01  1.67595E+01  1.65508E+01  1.67399E+01  1.71909E+01  1.77390E+01
   1.82180E+01  1.84930E+01  1.84498E+01  1.80879E+01  1.75267E+01  1.68982E+01  1.62962E+01  1.57824E+01  1.53966E+01  1.51371E+01
   1.49265E+01  1.46651E+01  1.43628E+01  1.40451E+01  1.36369E+01  1.30387E+01  1.22212E+01  1.12974E+01  1.05127E+01  1.01527E+01
   1.02574E+01  1.07007E+01  1.13652E+01  1.21036E+01  1.28234E+01  1.40144E+01  1.75663E+01  2.32531E+01  2.99985E+01  3.91650E+01
   5.14453E+01  6.53382E+01  7.74254E+01  8.33766E+01  8.05412E+01  7.04753E+01  5.70918E+01  4.33800E+01  3.14629E+01  2.28197E+01
   1.71838E+01  1.33541E+01  1.12796E+01  1.06362E+01  1.04316E+01  1.03804E+01  1.04193E+01  1.05634E+01  1.09235E+01  1.20085E+01
   1.56149E+01  2.15935E+01  2.86423E+01  3.78183E+01  4.97433E+01  6.30735E+01  7.47498E+01  8.08029E+01  7.86056E+01  6.95266E+01
   5.72986E+01  4.46309E+01  3.33008E+01  2.45442E+01  1.80804E+01  1.30345E+01  9.75579E+00  8.38316E+00  8.11468E+00  8.58340E+00
   9.39290E+00  1.00943E+01  1.04190E+01  1.03076E+01  9.81963E+00  9.11583E+00  8.35227E+00  7.60526E+00  6.91916E+00  6.30871E+00
   5.74378E+00  5.24398E+00  4.81242E+00  4.42475E+00  4.02049E+00  3.70127E+00  3.44262E+00  3.12470E+00  2.71056E+00  2.09536E+00
   1.43889E+00  1.03962E+00  9.88920E-01  1.07742E+00  1.03310E+00  6.72505E-01 -3.11279E-02 -9.09987E-01 -1.78729E+00 -2.62067E+00
  -3.32150E+00 -3.82173E+00 -4.33839E+00 -4.97018E+00 -5.63596E+00 -6.11056E+00 -6.22266E+00 -6.03448E+00 -5.86332E+00 -5.93792E+00
  -6.22754E+00 -6.42823E+00 -6.42207E+00 -6.25258E+00 -5.89934E+00 -5.27557E+00 -4.25287E+00 -2.73343E+00 -8.25195E-01  1.09004E+00
   2.52853E+00  3.07999E+00  2.78819E+00  1.86800E+00  6.09228E-01 -6.62849E-01 -1.64326E+00 -1.98134E+00 -1.55029E+00 -4.06542E-01
   1.12911E+00  2.68682E+00  3.94996E+00  4.46912E+00  4.11297E+00  2.86155E+00  8.21244E-01 -1.54342E+00 -3.63448E+00 -4.79036E+00
  -4.80291E+00 -3.73086E+00 -1.61254E+00  1.30114E+00  4.34870E+00  6.48193E+00  6.88822E+00  5.55950E+00  2.98038E+00 -3.50022E-01
  -3.60283E+00 -5.87487E+00 -6.49138E+00 -5.22645E+00 -2.62350E+00  5.17609E-01  3.50659E+00  5.80237E+00  7.09810E+00  7.45619E+00
   7.39397E+00  7.36470E+00  7.59023E+00  8.24979E+00  9.33954E+00  1.05794E+01  1.15937E+01  1.21137E+01  1.19830E+01  1.13427E+01
   1.05025E+01  9.89469E+00  9.93919E+00  1.08827E+01  1.26257E+01  1.47178E+01  1.67389E+01  1.84211E+01  1.98164E+01  2.12750E+01
   2.27066E+01  2.44257E+01  2.74180E+01  3.46290E+01  4.48446E+01  5.51819E+01  6.67799E+01  8.06334E+01  9.56478E+01  1.08268E+02
   1.13200E+02  1.07052E+02  9.21175E+01  7.35061E+01  5.47091E+01  3.84140E+01  2.65417E+01  1.85460E+01  1.25928E+01  8.93128E+00
   7.25782E+00  6.15833E+00  5.31999E+00  4.64768E+00  4.03471E+00  3.39112E+00  2.72026E+00  2.04330E+00  1.38672E+00  7.85351E-01
   2.75399E-01 -1.28518E-01 -4.32277E-01 -6.55124E-01 -8.15199E-01 -9.21406E-01 -9.83364E-01 -9.99802E-01 -9.56304E-01 -8.39979E-01
  -6.50875E-01 -3.97667E-01 -9.94156E-02  2.21940E-01  5.43639E-01  8.47418E-01  1.12036E+00  1.35624E+00  1.55399E+00  1.71213E+00
   1.82586E+00  1.88798E+00  1.88961E+00  1.82463E+00  1.68955E+00  1.48541E+00  1.21922E+00  9.00485E-01  5.39457E-01  1.49739E-01
  -2.55498E-01 -6.64640E-01 -1.06657E+00 -1.45083E+00 -1.80741E+00 -2.12689E+00 -2.40011E+00 -2.61691E+00 -2.76166E+00 -2.80057E+00
  -2.67150E+00 -2.46824E+00 -2.29775E+00 -2.09857E+00 -1.91715E+00 -1.92565E+00 -2.32226E+00 -3.23075E+00 -4.45531E+00 -5.55257E+00
  -6.28896E+00 -6.50120E+00 -6.01804E+00 -4.75290E+00 -2.82641E+00 -5.33618E-01  1.79629E+00  3.90980E+00  5.76772E+00  7.50540E+00
   9.29534E+00  1.12575E+01  1.33605E+01  1.56160E+01  1.79831E+01  2.03337E+01  2.24030E+01  2.39713E+01  2.50836E+01  2.59755E+01
   2.68089E+01  2.77184E+01  2.88086E+01  3.01196E+01  3.15265E+01  3.27479E+01  3.35087E+01  3.36734E+01  3.32484E+01  3.23651E+01
   3.11772E+01  2.98621E+01  2.85427E+01  2.72438E+01  2.60062E+01  2.48808E+01  2.38486E+01  2.28939E+01  2.20062E+01  2.11750E+01
   2.03902E+01  1.96427E+01  1.89257E+01  1.82348E+01  1.75694E+01  1.69327E+01  1.63311E+01  1.57735E+01  1.52701E+01  1.48322E+01
   1.44709E+01  1.41964E+01  1.40171E+01  1.39389E+01  1.39646E+01  1.40938E+01  1.43232E+01  1.46466E+01  1.50545E+01  1.55348E+01
   1.60729E+01  1.66526E+01  1.72565E+01  1.78663E+01  1.84634E+01  1.90292E+01  1.95460E+01  1.99977E+01  2.03701E+01  2.06510E+01
   2.08309E+01  2.09029E+01  2.08632E+01  2.07112E+01  2.04494E+01  2.00827E+01  1.96184E+01  1.90659E+01  1.84362E+01  1.77418E+01
   1.69957E+01  1.62108E+01  1.54000E+01  1.45753E+01  1.37483E+01  1.29292E+01  1.21268E+01  1.13486E+01  1.06003E+01  9.88670E+00
   9.21118E+00  8.57594E+00  7.98209E+00  7.42966E+00  6.91809E+00  6.44631E+00  6.01294E+00  5.61608E+00  5.25364E+00  4.92321E+00
   4.62262E+00  4.34972E+00  4.10251E+00  3.87882E+00  3.67665E+00  3.49401E+00  3.32935E+00  3.18115E+00  3.04811E+00  2.92876E+00
   2.82188E+00  2.72629E+00  2.64119E+00  2.56572E+00  2.49916E+00  2.44058E+00  2.38930E+00  2.34472E+00  2.30647E+00  2.27407E+00
   2.24707E+00  2.22488E+00  2.20716E+00  2.19362E+00  2.18412E+00  2.17834E+00  2.17597E+00  2.17664E+00  2.18022E+00  2.18655E+00
   2.19560E+00  2.20709E+00  2.22081E+00  2.23652E+00  2.25424E+00  2.27387E+00  2.29540E+00  2.31856E+00  2.34323E+00  2.36926E+00
   2.39674E+00  2.42560E+00  2.45582E+00  2.48713E+00  2.51951E+00  2.55286E+00  2.58732E+00  2.62280E+00  2.65924E+00  2.69641E+00
   2.73434E+00  2.77301E+00  2.81255E+00  2.85282E+00  2.89376E+00  2.93520E+00  2.97721E+00  3.01982E+00  3.06310E+00  3.10689E+00
   3.15113E+00  3.19570E+00  3.24074E+00  3.28625E+00  3.33227E+00  3.37860E+00  3.42523E+00  3.47208E+00
 NY background values follow
     2.274E+01    2.259E+01    2.244E+01    2.229E+01    2.215E+01    2.200E+01    2.185E+01    2.171E+01    2.156E+01    2.141E+01
     2.126E+01    2.112E+01    2.097E+01    2.082E+01    2.067E+01    2.053E+01    2.038E+01    2.023E+01    2.008E+01    1.994E+01
     1.979E+01    1.964E+01    1.949E+01    1.935E+01    1.920E+01    1.905E+01    1.890E+01    1.876E+01    1.861E+01    1.846E+01
     1.831E+01    1.816E+01    1.802E+01    1.787E+01    1.772E+01    1.757E+01    1.743E+01    1.728E+01    1.713E+01    1.698E+01
     1.683E+01    1.669E+01    1.654E+01    1.639E+01    1.624E+01    1.610E+01    1.595E+01    1.580E+01    1.565E+01    1.551E+01
     1.536E+01    1.521E+01    1.506E+01    1.491E+01    1.477E+01    1.462E+01    1.447E+01    1.432E+01    1.418E+01    1.403E+01
     1.388E+01    1.374E+01    1.359E+01    1.344E+01    1.330E+01    1.315E+01    1.300E+01    1.286E+01    1.271E+01    1.256E+01
     1.242E+01    1.227E+01    1.213E+01    1.198E+01    1.184E+01    1.169E+01    1.155E+01    1.140E+01    1.126E+01    1.111E+01
     1.097E+01    1.082E+01    1.068E+01    1.054E+01    1.039E+01    1.025E+01    1.011E+01    9.967E+00    9.824E+00    9.683E+00
     9.541E+00    9.400E+00    9.259E+00    9.118E+00    8.977E+00    8.837E+00    8.697E+00    8.557E+00    8.418E+00    8.279E+00
     8.140E+00    8.002E+00    7.864E+00    7.726E+00    7.588E+00    7.451E+00    7.314E+00    7.178E+00    7.041E+00    6.906E+00
     6.770E+00    6.635E+00    6.500E+00    6.365E+00    6.231E+00    6.097E+00    5.963E+00    5.830E+00    5.697E+00    5.564E+00
     5.432E+00    5.300E+00    5.169E+00    5.037E+00    4.907E+00    4.776E+00    4.646E+00    4.516E+00    4.387E+00    4.258E+00
     4.129E+00    4.001E+00    3.873E+00    3.745E+00    3.618E+00    3.492E+00    3.365E+00    3.239E+00    3.114E+00    2.988E+00
     2.864E+00    2.739E+00    2.615E+00    2.492E+00    2.369E+00    2.246E+00    2.124E+00    2.003E+00    1.882E+00    1.761E+00
     1.641E+00    1.522E+00    1.403E+00    1.285E+00    1.167E+00    1.050E+00    9.333E-01    8.173E-01    7.019E-01    5.872E-01
     4.730E-01    3.595E-01    2.467E-01    1.345E-01    2.304E-02   -8.777E-02   -1.979E-01   -3.073E-01   -4.160E-01   -5.240E-01
    -6.312E-01   -7.377E-01   -8.434E-01   -9.484E-01   -1.053E+00   -1.156E+00   -1.259E+00   -1.360E+00   -1.461E+00   -1.561E+00
    -1.661E+00   -1.759E+00   -1.857E+00   -1.954E+00   -2.049E+00   -2.144E+00   -2.239E+00   -2.332E+00   -2.424E+00   -2.516E+00
    -2.607E+00   -2.697E+00   -2.786E+00   -2.874E+00   -2.961E+00   -3.048E+00   -3.134E+00   -3.218E+00   -3.303E+00   -3.386E+00
    -3.468E+00   -3.550E+00   -3.630E+00   -3.710E+00   -3.789E+00   -3.867E+00   -3.945E+00   -4.021E+00   -4.097E+00   -4.172E+00
    -4.246E+00   -4.319E+00   -4.392E+00   -4.463E+00   -4.534E+00   -4.604E+00   -4.673E+00   -4.741E+00   -4.809E+00   -4.876E+00
    -4.941E+00   -5.007E+00   -5.071E+00   -5.134E+00   -5.197E+00   -5.259E+00   -5.320E+00   -5.380E+00   -5.440E+00   -5.498E+00
    -5.556E+00   -5.613E+00   -5.670E+00   -5.725E+00   -5.780E+00   -5.833E+00   -5.886E+00   -5.939E+00   -5.990E+00   -6.040E+00
    -6.090E+00   -6.139E+00   -6.187E+00   -6.234E+00   -6.281E+00   -6.326E+00   -6.371E+00   -6.415E+00   -6.458E+00   -6.500E+00
    -6.542E+00   -6.582E+00   -6.622E+00   -6.661E+00   -6.699E+00   -6.736E+00   -6.773E+00   -6.808E+00   -6.843E+00   -6.876E+00
    -6.909E+00   -6.942E+00   -6.973E+00   -7.003E+00   -7.033E+00   -7.061E+00   -7.089E+00   -7.116E+00   -7.142E+00   -7.167E+00
    -7.192E+00   -7.215E+00   -7.238E+00   -7.259E+00   -7.280E+00   -7.300E+00   -7.319E+00   -7.337E+00   -7.355E+00   -7.371E+00
    -7.387E+00   -7.402E+00   -7.416E+00   -7.429E+00   -7.441E+00   -7.452E+00   -7.463E+00   -7.473E+00   -7.482E+00   -7.490E+00
    -7.497E+00   -7.503E+00   -7.509E+00   -7.513E+00   -7.517E+00   -7.520E+00   -7.522E+00   -7.523E+00   -7.524E+00   -7.524E+00
    -7.522E+00   -7.520E+00   -7.518E+00   -7.514E+00   -7.510E+00   -7.504E+00   -7.498E+00   -7.491E+00   -7.484E+00   -7.475E+00
    -7.466E+00   -7.456E+00   -7.445E+00   -7.433E+00   -7.421E+00   -7.407E+00   -7.393E+00   -7.378E+00   -7.363E+00   -7.346E+00
    -7.329E+00   -7.311E+00   -7.292E+00   -7.272E+00   -7.252E+00   -7.231E+00   -7.209E+00   -7.187E+00   -7.164E+00   -7.140E+00
    -7.115E+00   -7.090E+00   -7.064E+00   -7.037E+00   -7.009E+00   -6.981E+00   -6.953E+00   -6.923E+00   -6.893E+00   -6.862E+00
    -6.831E+00   -6.799E+00   -6.766E+00   -6.733E+00   -6.699E+00   -6.665E+00   -6.630E+00   -6.594E+00   -6.558E+00   -6.521E+00
    -6.483E+00   -6.445E+00   -6.407E+00   -6.368E+00   -6.328E+00   -6.288E+00   -6.247E+00   -6.206E+00   -6.164E+00   -6.122E+00
    -6.079E+00   -6.036E+00   -5.992E+00   -5.948E+00   -5.903E+00   -5.858E+00   -5.812E+00   -5.766E+00   -5.719E+00   -5.672E+00
    -5.625E+00   -5.577E+00   -5.528E+00   -5.479E+00   -5.430E+00   -5.380E+00   -5.330E+00   -5.280E+00   -5.229E+00   -5.178E+00
    -5.126E+00   -5.074E+00   -5.022E+00   -4.969E+00   -4.916E+00   -4.862E+00   -4.808E+00   -4.754E+00   -4.700E+00   -4.645E+00
    -4.590E+00   -4.534E+00   -4.478E+00   -4.422E+00   -4.366E+00   -4.309E+00   -4.252E+00   -4.195E+00   -4.137E+00   -4.079E+00
    -4.021E+00   -3.963E+00   -3.904E+00   -3.846E+00   -3.786E+00   -3.727E+00   -3.668E+00   -3.608E+00   -3.548E+00   -3.488E+00
    -3.427E+00   -3.367E+00   -3.306E+00   -3.245E+00   -3.184E+00   -3.122E+00   -3.061E+00   -2.999E+00   -2.937E+00   -2.875E+00
    -2.813E+00   -2.751E+00   -2.688E+00   -2.625E+00   -2.563E+00   -2.500E+00   -2.437E+00   -2.374E+00   -2.310E+00   -2.247E+00
    -2.183E+00   -2.120E+00   -2.056E+00   -1.992E+00   -1.929E+00   -1.865E+00   -1.801E+00   -1.736E+00   -1.672E+00   -1.608E+00
    -1.544E+00   -1.480E+00   -1.415E+00   -1.351E+00   -1.286E+00   -1.222E+00   -1.157E+00   -1.093E+00   -1.028E+00   -9.638E-01
    -8.992E-01   -8.347E-01   -7.701E-01   -7.056E-01   -6.411E-01   -5.766E-01   -5.120E-01   -4.475E-01   -3.830E-01   -3.186E-01
    -2.541E-01   -1.896E-01   -1.252E-01   -6.072E-02    3.716E-03    6.815E-02    1.326E-01    1.970E-01    2.614E-01    3.258E-01
     3.901E-01    4.545E-01    5.189E-01    5.832E-01    6.476E-01    7.119E-01    7.762E-01    8.406E-01    9.049E-01    9.692E-01
     1.033E+00    1.098E+00    1.162E+00    1.226E+00    1.290E+00    1.355E+00    1.419E+00    1.483E+00    1.547E+00    1.612E+00
     1.676E+00    1.740E+00    1.804E+00    1.868E+00    1.932E+00    1.997E+00    2.061E+00    2.125E+00
 Ala      Conc. = 2.84E+02
