 LCModel (Version 6.3-1L) Copyright: S.W. Provencher.          Ref.: Magn. Reson. Med. 30:672-679 (1993).                
 Slice#3 Row#4 Col#12  K_02_press_1_raw_act
 36 lines in following concentration table = NCONC+1
    Conc.  %SD /Cr+PCr  Metabolite                                         
  179.261  80%  84.360 Ala                                                 
    7.861 267%   3.699 Asp                                                 
    0.000 999%   0.000 Cr                                                  
    2.125 639%   1.000 PCr                                                 
   10.657 121%   5.015 GABA                                                
    8.942 142%   4.208 Glc                                                 
    0.000 999%   0.000 Gln                                                 
  207.095  75%  97.459 Glu                                                 
    0.000 999%   0.000 GPC                                                 
   16.455  59%   7.744 PCh                                                 
   17.013 130%   8.006 GSH                                                 
    0.000 999%   0.000 Ins                                                 
  524.324  60% 246.746 Lac                                                 
    0.000 999%   0.000 NAA                                                 
  199.486  57%  93.878 NAAG                                                
    6.394  65%   3.009 Scyllo                                              
    9.909 213%   4.663 Tau                                                 
    0.000 999%   0.000 -CrCH2                                              
   16.455  59%   7.744 GPC+PCh                                             
  199.486  57%  93.878 NAA+NAAG                                            
    2.125 639%   1.000 Cr+PCr                                              
  207.095  75%  97.459 Glu+Gln                                             
 1.29E+05  19% 6.0E+04 Lip13a                                              
 1.13E+05  23% 5.3E+04 Lip13b                                              
 7.14E+04  10% 3.4E+04 Lip09                                               
 2.14E+04  14% 1.0E+04 MM09                                                
 2.21E+04  14% 1.0E+04-Lip20                                               
 7.38E+03  21% 3.5E+03-MM20                                                
 6.74E+03  24% 3.2E+03 MM12                                                
 6.07E+04   8% 2.9E+04+MM14                                                
 2.53E+04  16% 1.2E+04+MM17                                                
 2.41E+05   7% 1.1E+05 Lip13a+Lip13b                                       
 3.09E+05   5% 1.5E+05 MM14+Lip13a+Lip13b+MM12                             
 9.28E+04   8% 4.4E+04 MM09+Lip09                                          
 2.95E+04  10% 1.4E+04 MM20+Lip20                                          
   6 lines in following misc. output table
  FWHM = 0.076 ppm    S/N =  93                                            
  Data shift = 0.161 ppm                                                   
  Ph:  35 deg      92.7 deg/ppm                                            
  alphaB,S = 1.6E+00,   6.1E+00                                            
    9 spline knots.   Ns = 9(2)                                            
  ( 7) 5 infls.   ( 2) 2 extrs.                                            
  498 points on ppm-axis = NY
      4.000000     3.992357     3.984714     3.977070     3.969427     3.961784     3.954141     3.946497     3.938854     3.931211
      3.923568     3.915925     3.908281     3.900638     3.892995     3.885352     3.877708     3.870065     3.862422     3.854779
      3.847136     3.839492     3.831849     3.824206     3.816563     3.808919     3.801276     3.793633     3.785990     3.778347
      3.770703     3.763060     3.755417     3.747774     3.740130     3.732487     3.724844     3.717201     3.709558     3.701914
      3.694271     3.686628     3.678985     3.671341     3.663698     3.656055     3.648412     3.640769     3.633125     3.625482
      3.617839     3.610196     3.602552     3.594909     3.587266     3.579623     3.571980     3.564336     3.556693     3.549050
      3.541407     3.533763     3.526120     3.518477     3.510834     3.503191     3.495547     3.487904     3.480261     3.472618
      3.464974     3.457331     3.449688     3.442045     3.434402     3.426758     3.419115     3.411472     3.403829     3.396185
      3.388542     3.380899     3.373256     3.365613     3.357969     3.350326     3.342683     3.335040     3.327396     3.319753
      3.312110     3.304467     3.296824     3.289180     3.281537     3.273894     3.266251     3.258607     3.250964     3.243321
      3.235678     3.228034     3.220391     3.212748     3.205105     3.197462     3.189818     3.182175     3.174532     3.166889
      3.159245     3.151602     3.143959     3.136316     3.128673     3.121029     3.113386     3.105743     3.098100     3.090456
      3.082813     3.075170     3.067527     3.059884     3.052240     3.044597     3.036954     3.029311     3.021667     3.014024
      3.006381     2.998738     2.991095     2.983451     2.975808     2.968165     2.960522     2.952878     2.945235     2.937592
      2.929949     2.922306     2.914662     2.907019     2.899376     2.891733     2.884089     2.876446     2.868803     2.861160
      2.853517     2.845873     2.838230     2.830587     2.822944     2.815300     2.807657     2.800014     2.792371     2.784728
      2.777084     2.769441     2.761798     2.754155     2.746511     2.738868     2.731225     2.723582     2.715939     2.708295
      2.700652     2.693009     2.685366     2.677722     2.670079     2.662436     2.654793     2.647150     2.639506     2.631863
      2.624220     2.616577     2.608933     2.601290     2.593647     2.586004     2.578361     2.570717     2.563074     2.555431
      2.547788     2.540144     2.532501     2.524858     2.517215     2.509572     2.501928     2.494285     2.486642     2.478999
      2.471355     2.463712     2.456069     2.448426     2.440783     2.433139     2.425496     2.417853     2.410210     2.402566
      2.394923     2.387280     2.379637     2.371994     2.364350     2.356707     2.349064     2.341421     2.333777     2.326134
      2.318491     2.310848     2.303205     2.295561     2.287918     2.280275     2.272632     2.264988     2.257345     2.249702
      2.242059     2.234416     2.226772     2.219129     2.211486     2.203843     2.196199     2.188556     2.180913     2.173270
      2.165627     2.157983     2.150340     2.142697     2.135054     2.127410     2.119767     2.112124     2.104481     2.096838
      2.089194     2.081551     2.073908     2.066265     2.058621     2.050978     2.043335     2.035692     2.028049     2.020405
      2.012762     2.005119     1.997476     1.989833     1.982190     1.974546     1.966903     1.959260     1.951617     1.943974
      1.936331     1.928688     1.921045     1.913402     1.905759     1.898115     1.890472     1.882829     1.875186     1.867543
      1.859900     1.852257     1.844614     1.836971     1.829327     1.821684     1.814041     1.806398     1.798755     1.791112
      1.783469     1.775826     1.768183     1.760540     1.752896     1.745253     1.737610     1.729967     1.722324     1.714681
      1.707038     1.699395     1.691752     1.684108     1.676465     1.668822     1.661179     1.653536     1.645893     1.638250
      1.630607     1.622964     1.615321     1.607677     1.600034     1.592391     1.584748     1.577105     1.569462     1.561819
      1.554176     1.546533     1.538890     1.531246     1.523603     1.515960     1.508317     1.500674     1.493031     1.485388
      1.477745     1.470102     1.462458     1.454815     1.447172     1.439529     1.431886     1.424243     1.416600     1.408957
      1.401314     1.393671     1.386027     1.378384     1.370741     1.363098     1.355455     1.347812     1.340169     1.332526
      1.324883     1.317240     1.309596     1.301953     1.294310     1.286667     1.279024     1.271381     1.263738     1.256095
      1.248452     1.240808     1.233165     1.225522     1.217879     1.210236     1.202593     1.194950     1.187307     1.179664
      1.172021     1.164377     1.156734     1.149091     1.141448     1.133805     1.126162     1.118519     1.110876     1.103233
      1.095590     1.087946     1.080303     1.072660     1.065017     1.057374     1.049731     1.042088     1.034445     1.026802
      1.019158     1.011515     1.003872     0.996229     0.988586     0.980943     0.973300     0.965657     0.958014     0.950371
      0.942727     0.935084     0.927441     0.919798     0.912155     0.904512     0.896869     0.889226     0.881583     0.873940
      0.866296     0.858653     0.851010     0.843367     0.835724     0.828081     0.820438     0.812795     0.805152     0.797508
      0.789865     0.782222     0.774579     0.766936     0.759293     0.751650     0.744007     0.736364     0.728721     0.721077
      0.713434     0.705791     0.698148     0.690505     0.682862     0.675219     0.667576     0.659933     0.652290     0.644646
      0.637003     0.629360     0.621717     0.614074     0.606431     0.598788     0.591145     0.583502     0.575858     0.568215
      0.560572     0.552929     0.545286     0.537643     0.530000     0.522357     0.514714     0.507071     0.499427     0.491784
      0.484141     0.476498     0.468855     0.461212     0.453569     0.445925     0.438282     0.430639     0.422996     0.415353
      0.407710     0.400067     0.392424     0.384780     0.377137     0.369494     0.361851     0.354208     0.346565     0.338922
      0.331278     0.323635     0.315992     0.308349     0.300706     0.293063     0.285420     0.277777     0.270133     0.262490
      0.254847     0.247204     0.239561     0.231918     0.224275     0.216631     0.208988     0.201345
 NY phased data points follow
   5.95868E+01  6.18678E+01  6.51470E+01  6.09923E+01  5.86457E+01  5.93691E+01  5.98381E+01  6.27156E+01  6.50764E+01  6.37356E+01
   6.05325E+01  6.12806E+01  6.31461E+01  6.40035E+01  6.11688E+01  6.31829E+01  6.57895E+01  6.61765E+01  6.58531E+01  6.37708E+01
   6.26884E+01  6.68566E+01  6.66465E+01  6.54373E+01  6.71189E+01  6.78761E+01  6.65568E+01  6.42840E+01  6.86159E+01  6.43697E+01
   6.58112E+01  6.90303E+01  6.84163E+01  6.67307E+01  6.53385E+01  6.62003E+01  6.61183E+01  6.82059E+01  6.41896E+01  6.92290E+01
   6.63679E+01  6.75053E+01  6.76217E+01  6.83308E+01  6.98111E+01  7.25219E+01  6.87203E+01  6.72836E+01  6.94136E+01  7.17310E+01
   7.22132E+01  6.84547E+01  6.87095E+01  7.15582E+01  7.25177E+01  7.10433E+01  6.88650E+01  6.99178E+01  7.08367E+01  7.08395E+01
   7.12427E+01  7.33397E+01  7.20223E+01  7.16394E+01  7.01781E+01  7.07690E+01  7.13683E+01  7.40363E+01  7.64490E+01  7.23454E+01
   6.85440E+01  7.45843E+01  7.37841E+01  7.14556E+01  7.30804E+01  7.12607E+01  6.92507E+01  7.22148E+01  7.10122E+01  6.91637E+01
   6.86094E+01  6.75295E+01  6.47401E+01  6.07642E+01  6.16045E+01  6.24014E+01  6.20117E+01  6.33203E+01  6.33180E+01  6.11865E+01
   6.13865E+01  6.03496E+01  6.08043E+01  6.38846E+01  5.68831E+01  6.32640E+01  6.08854E+01  6.11102E+01  5.86178E+01  5.88164E+01
   5.98515E+01  5.65766E+01  5.76112E+01  5.29710E+01  5.18028E+01  4.54945E+01  4.09685E+01  3.61407E+01  3.83189E+01  3.80273E+01
   3.47157E+01  3.55340E+01  3.64713E+01  3.47671E+01  3.90522E+01  3.73294E+01  3.45148E+01  3.35993E+01  3.14920E+01  3.13107E+01
   2.97650E+01  3.21215E+01  2.52244E+01  2.70481E+01  2.88127E+01  2.14676E+01  2.09929E+01  2.35325E+01  2.00033E+01  1.84426E+01
   1.95060E+01  2.03753E+01  1.42879E+01  1.26184E+01  1.41717E+01  1.07631E+01  1.18175E+01  1.06090E+01  8.24580E+00  6.16174E+00
   8.76727E+00  6.37523E+00  6.05847E+00  3.01724E+00  2.75380E+00  4.87149E-01  2.08484E+00 -1.55345E-01 -9.71828E-01 -5.11362E+00
  -3.58357E+00 -6.23596E+00 -7.16214E+00 -8.33196E+00 -1.29184E+01 -1.36613E+01 -1.63663E+01 -2.01375E+01 -2.03436E+01 -2.79058E+01
  -2.51323E+01 -2.83446E+01 -3.24863E+01 -3.45137E+01 -3.86382E+01 -4.22706E+01 -4.72891E+01 -5.01256E+01 -5.11433E+01 -5.62247E+01
  -5.70334E+01 -6.33042E+01 -6.75353E+01 -7.20703E+01 -7.58148E+01 -7.67811E+01 -8.32167E+01 -8.83478E+01 -9.44411E+01 -9.46040E+01
  -1.06384E+02 -1.06234E+02 -1.14392E+02 -1.17462E+02 -1.26042E+02 -1.24053E+02 -1.32155E+02 -1.34120E+02 -1.39414E+02 -1.45571E+02
  -1.47361E+02 -1.53771E+02 -1.55826E+02 -1.63816E+02 -1.67418E+02 -1.64596E+02 -1.69807E+02 -1.69645E+02 -1.71639E+02 -1.75880E+02
  -1.77185E+02 -1.79084E+02 -1.85318E+02 -1.88348E+02 -1.87175E+02 -1.95225E+02 -1.95141E+02 -1.99172E+02 -2.02706E+02 -2.06166E+02
  -2.04794E+02 -2.08794E+02 -2.08841E+02 -2.10928E+02 -2.15335E+02 -2.15654E+02 -2.15152E+02 -2.19579E+02 -2.17557E+02 -2.17909E+02
  -2.15205E+02 -2.14373E+02 -2.17752E+02 -2.15946E+02 -2.19053E+02 -2.17792E+02 -2.18908E+02 -2.14959E+02 -2.13945E+02 -2.15833E+02
  -2.20799E+02 -2.14384E+02 -2.20494E+02 -2.18843E+02 -2.16214E+02 -2.18536E+02 -2.22970E+02 -2.24282E+02 -2.25864E+02 -2.21838E+02
  -2.16022E+02 -2.10414E+02 -2.09186E+02 -2.10779E+02 -2.09205E+02 -2.11731E+02 -2.13859E+02 -2.16352E+02 -2.14738E+02 -2.21754E+02
  -2.24188E+02 -2.29492E+02 -2.31575E+02 -2.32222E+02 -2.33279E+02 -2.39761E+02 -2.39004E+02 -2.41095E+02 -2.44690E+02 -2.46615E+02
  -2.51824E+02 -2.54811E+02 -2.56659E+02 -2.65108E+02 -2.62834E+02 -2.67846E+02 -2.67052E+02 -2.74367E+02 -2.77511E+02 -2.77804E+02
  -2.83721E+02 -2.84894E+02 -2.88653E+02 -2.94874E+02 -2.94953E+02 -3.01903E+02 -3.02751E+02 -3.04512E+02 -3.10313E+02 -3.07902E+02
  -3.15909E+02 -3.14675E+02 -3.15627E+02 -3.18077E+02 -3.21140E+02 -3.21607E+02 -3.20197E+02 -3.17741E+02 -3.17057E+02 -3.08153E+02
  -3.07548E+02 -3.01370E+02 -2.92917E+02 -2.86790E+02 -2.73645E+02 -2.60419E+02 -2.45417E+02 -2.31647E+02 -2.11102E+02 -1.87825E+02
  -1.63971E+02 -1.35861E+02 -1.05625E+02 -6.92937E+01 -3.05671E+01  6.44845E+00  4.84698E+01  9.22040E+01  1.34000E+02  1.77145E+02
   2.21147E+02  2.61709E+02  3.02812E+02  3.41013E+02  3.69943E+02  4.02129E+02  4.26280E+02  4.50691E+02  4.68253E+02  4.85081E+02
   4.95285E+02  5.05394E+02  5.15119E+02  5.23544E+02  5.27414E+02  5.34287E+02  5.31611E+02  5.32831E+02  5.30572E+02  5.33960E+02
   5.32404E+02  5.28778E+02  5.21129E+02  5.18218E+02  5.14507E+02  5.04596E+02  4.92623E+02  4.83417E+02  4.72430E+02  4.60656E+02
   4.45310E+02  4.35964E+02  4.23415E+02  4.18831E+02  4.05346E+02  3.96065E+02  3.82802E+02  3.76147E+02  3.64925E+02  3.50708E+02
   3.46968E+02  3.36534E+02  3.25537E+02  3.20688E+02  3.09096E+02  3.01278E+02  2.95483E+02  2.87433E+02  2.79683E+02  2.74269E+02
   2.68107E+02  2.63340E+02  2.55093E+02  2.50796E+02  2.45784E+02  2.38297E+02  2.30047E+02  2.24046E+02  2.22191E+02  2.18119E+02
   2.07045E+02  2.03595E+02  2.01256E+02  1.97135E+02  1.86162E+02  1.87268E+02  1.81563E+02  1.78397E+02  1.72780E+02  1.70733E+02
   1.65583E+02  1.61694E+02  1.56528E+02  1.49126E+02  1.47097E+02  1.42101E+02  1.35562E+02  1.32517E+02  1.29447E+02  1.24242E+02
   1.19019E+02  1.16773E+02  1.09185E+02  1.05171E+02  1.03585E+02  9.93927E+01  9.42864E+01  8.99890E+01  8.42705E+01  8.16362E+01
   7.73838E+01  7.38063E+01  6.85091E+01  6.62975E+01  6.24130E+01  5.55885E+01  5.42014E+01  4.80068E+01  5.00942E+01  4.42339E+01
   4.35340E+01  3.61222E+01  3.48134E+01  3.16668E+01  2.84632E+01  2.51130E+01  2.81025E+01  1.78314E+01  1.74043E+01  1.65283E+01
   1.16402E+01  9.65806E+00  6.39550E+00  4.93942E+00  5.29713E+00  4.67182E+00 -2.03137E+00 -1.80887E+00 -7.01077E+00 -5.63637E+00
  -1.10207E+01 -8.37976E+00 -1.56996E+01 -1.35098E+01 -1.63029E+01 -1.96775E+01 -2.13393E+01 -2.23330E+01 -2.71278E+01 -2.70497E+01
  -2.66992E+01 -2.68588E+01 -3.01721E+01 -3.18891E+01 -3.37448E+01 -3.29806E+01 -3.59163E+01 -3.95515E+01 -3.81668E+01 -4.09113E+01
  -3.90857E+01 -4.16385E+01 -3.99768E+01 -4.37424E+01 -4.41712E+01 -4.34187E+01 -4.49702E+01 -4.57789E+01 -4.91083E+01 -5.05620E+01
  -5.21918E+01 -5.15643E+01 -5.40381E+01 -5.54453E+01 -5.44257E+01 -5.29600E+01 -5.58831E+01 -5.66612E+01 -5.76743E+01 -5.73581E+01
  -5.87029E+01 -5.91137E+01 -5.78804E+01 -5.84768E+01 -6.08333E+01 -6.14165E+01 -6.16003E+01 -6.26507E+01 -6.62345E+01 -6.56328E+01
  -6.52593E+01 -6.67002E+01 -6.41270E+01 -6.40547E+01 -6.91591E+01 -6.63321E+01 -6.52890E+01 -6.79600E+01 -6.75268E+01 -6.97023E+01
  -6.89975E+01 -6.31700E+01 -7.09323E+01 -6.73722E+01 -7.04384E+01 -6.76075E+01 -6.70498E+01 -6.69156E+01
 NY points of the fit to the data follow
   6.04231E+01  5.96157E+01  6.01251E+01  5.96895E+01  6.04181E+01  6.06591E+01  6.15051E+01  6.24943E+01  6.30621E+01  6.37010E+01
   6.36109E+01  6.40030E+01  6.36439E+01  6.38513E+01  6.31740E+01  6.38146E+01  6.37123E+01  6.43427E+01  6.45474E+01  6.50492E+01
   6.54454E+01  6.57991E+01  6.63929E+01  6.62672E+01  6.67328E+01  6.62642E+01  6.67904E+01  6.60582E+01  6.67070E+01  6.60521E+01
   6.67980E+01  6.63238E+01  6.70151E+01  6.66686E+01  6.71628E+01  6.70576E+01  6.74227E+01  6.75873E+01  6.78923E+01  6.82087E+01
   6.83884E+01  6.88264E+01  6.88248E+01  6.92794E+01  6.92618E+01  6.97490E+01  6.98936E+01  7.04040E+01  7.05484E+01  7.10322E+01
   7.11128E+01  7.13629E+01  7.13026E+01  7.13517E+01  7.12302E+01  7.13169E+01  7.13197E+01  7.14326E+01  7.14784E+01  7.15532E+01
   7.15276E+01  7.15543E+01  7.14934E+01  7.14441E+01  7.13831E+01  7.12635E+01  7.11721E+01  7.10750E+01  7.12052E+01  7.10040E+01
   7.11313E+01  7.08460E+01  7.10075E+01  7.05970E+01  7.06565E+01  7.00647E+01  6.98681E+01  6.91626E+01  6.87512E+01  6.79856E+01
   6.73605E+01  6.66437E+01  6.59006E+01  6.52619E+01  6.44854E+01  6.40207E+01  6.38086E+01  6.41706E+01  6.35923E+01  6.42154E+01
   6.34935E+01  6.44291E+01  6.31398E+01  6.39341E+01  6.19168E+01  6.21500E+01  5.98030E+01  5.94223E+01  5.68691E+01  5.57513E+01
   5.35542E+01  5.20308E+01  5.02633E+01  4.84226E+01  4.68842E+01  4.47463E+01  4.36256E+01  4.15005E+01  4.09642E+01  3.91027E+01
   3.88306E+01  3.71867E+01  3.70863E+01  3.57368E+01  3.56949E+01  3.46460E+01  3.43810E+01  3.33677E+01  3.28186E+01  3.17944E+01
   3.10008E+01  2.99660E+01  2.86914E+01  2.73622E+01  2.59009E+01  2.43907E+01  2.30936E+01  2.16564E+01  2.04162E+01  1.90084E+01
   1.78024E+01  1.64346E+01  1.52465E+01  1.39099E+01  1.27194E+01  1.13838E+01  1.01221E+01  8.93739E+00  7.71831E+00  6.68430E+00
   5.55523E+00  4.59287E+00  3.46862E+00  2.62361E+00  1.57047E+00  6.99925E-01 -3.69984E-01 -1.32627E+00 -2.46181E+00 -3.55912E+00
  -4.85930E+00 -6.27354E+00 -7.74258E+00 -9.23279E+00 -1.08847E+01 -1.26072E+01 -1.46060E+01 -1.67259E+01 -1.90561E+01 -2.15260E+01
  -2.42649E+01 -2.72157E+01 -3.03441E+01 -3.38108E+01 -3.73888E+01 -4.11442E+01 -4.49958E+01 -4.90214E+01 -5.31198E+01 -5.72448E+01
  -6.15327E+01 -6.57028E+01 -7.00049E+01 -7.41734E+01 -7.84678E+01 -8.28064E+01 -8.71591E+01 -9.16228E+01 -9.60376E+01 -1.00653E+02
  -1.05015E+02 -1.09500E+02 -1.13795E+02 -1.18186E+02 -1.22422E+02 -1.26612E+02 -1.30699E+02 -1.34504E+02 -1.38421E+02 -1.42197E+02
  -1.46142E+02 -1.49899E+02 -1.53878E+02 -1.57519E+02 -1.61438E+02 -1.64787E+02 -1.68440E+02 -1.71246E+02 -1.74016E+02 -1.76750E+02
  -1.79063E+02 -1.81838E+02 -1.83718E+02 -1.87044E+02 -1.89328E+02 -1.93169E+02 -1.95451E+02 -1.99059E+02 -2.01455E+02 -2.04599E+02
  -2.06759E+02 -2.08817E+02 -2.10452E+02 -2.11541E+02 -2.12850E+02 -2.13151E+02 -2.14126E+02 -2.13920E+02 -2.14829E+02 -2.14480E+02
  -2.15056E+02 -2.14632E+02 -2.15082E+02 -2.15054E+02 -2.15566E+02 -2.16012E+02 -2.16505E+02 -2.17462E+02 -2.17966E+02 -2.19419E+02
  -2.19841E+02 -2.21525E+02 -2.22110E+02 -2.24056E+02 -2.24859E+02 -2.26435E+02 -2.26343E+02 -2.23863E+02 -2.23012E+02 -2.20153E+02
  -2.19105E+02 -2.14887E+02 -2.13987E+02 -2.10537E+02 -2.10867E+02 -2.10011E+02 -2.11443E+02 -2.12537E+02 -2.14787E+02 -2.17986E+02
  -2.20462E+02 -2.23976E+02 -2.26310E+02 -2.29995E+02 -2.32511E+02 -2.36843E+02 -2.39435E+02 -2.43623E+02 -2.46099E+02 -2.49431E+02
  -2.51837E+02 -2.54949E+02 -2.57665E+02 -2.60650E+02 -2.63622E+02 -2.66257E+02 -2.69537E+02 -2.72375E+02 -2.75895E+02 -2.78806E+02
  -2.82302E+02 -2.84972E+02 -2.88747E+02 -2.92590E+02 -2.96536E+02 -3.00616E+02 -3.03930E+02 -3.06775E+02 -3.09207E+02 -3.11342E+02
  -3.13090E+02 -3.14534E+02 -3.15549E+02 -3.16216E+02 -3.16400E+02 -3.16201E+02 -3.15368E+02 -3.14052E+02 -3.11887E+02 -3.09037E+02
  -3.05039E+02 -3.00074E+02 -2.93567E+02 -2.85643E+02 -2.75709E+02 -2.63815E+02 -2.49420E+02 -2.32559E+02 -2.12786E+02 -1.90143E+02
  -1.64389E+02 -1.35605E+02 -1.03795E+02 -6.91647E+01 -3.19328E+01  7.53066E+00  4.88165E+01  9.15022E+01  1.35216E+02  1.79429E+02
   2.21385E+02  2.63083E+02  3.01343E+02  3.38640E+02  3.70618E+02  4.00939E+02  4.25309E+02  4.49221E+02  4.67708E+02  4.84571E+02
   4.97039E+02  5.07861E+02  5.16235E+02  5.22301E+02  5.27320E+02  5.29182E+02  5.31514E+02  5.30915E+02  5.33044E+02  5.33438E+02
   5.32269E+02  5.28946E+02  5.25539E+02  5.20193E+02  5.13376E+02  5.02804E+02  4.91978E+02  4.81468E+02  4.70296E+02  4.58950E+02
   4.46817E+02  4.36443E+02  4.25505E+02  4.17229E+02  4.06464E+02  3.97053E+02  3.86012E+02  3.75419E+02  3.65254E+02  3.53961E+02
   3.44317E+02  3.34618E+02  3.26258E+02  3.17428E+02  3.10206E+02  3.01575E+02  2.94826E+02  2.87174E+02  2.80807E+02  2.74101E+02
   2.68340E+02  2.62142E+02  2.56530E+02  2.50719E+02  2.44330E+02  2.37799E+02  2.31778E+02  2.25707E+02  2.20428E+02  2.15807E+02
   2.10596E+02  2.06869E+02  2.02061E+02  1.97212E+02  1.91947E+02  1.86012E+02  1.80480E+02  1.75295E+02  1.70408E+02  1.65800E+02
   1.61449E+02  1.57321E+02  1.53375E+02  1.49562E+02  1.45828E+02  1.42120E+02  1.38387E+02  1.34586E+02  1.30682E+02  1.26647E+02
   1.22469E+02  1.18142E+02  1.13674E+02  1.09081E+02  1.04389E+02  9.96261E+01  9.48288E+01  9.00334E+01  8.52763E+01  8.05928E+01
   7.60144E+01  7.15685E+01  6.72767E+01  6.31553E+01  5.92145E+01  5.54594E+01  5.18897E+01  4.85003E+01  4.52824E+01  4.22241E+01
   3.93116E+01  3.65296E+01  3.38619E+01  3.12922E+01  2.88046E+01  2.63843E+01  2.40180E+01  2.16940E+01  1.94021E+01  1.71337E+01
   1.48818E+01  1.26411E+01  1.04081E+01  8.18017E+00  5.95622E+00  3.73610E+00  1.52077E+00 -6.88047E-01 -2.88792E+00 -5.07603E+00
  -7.24928E+00 -9.40416E+00 -1.15371E+01 -1.36443E+01 -1.57222E+01 -1.77673E+01 -1.97764E+01 -2.17464E+01 -2.36742E+01 -2.55573E+01
  -2.73935E+01 -2.91807E+01 -3.09174E+01 -3.26021E+01 -3.42338E+01 -3.58116E+01 -3.73351E+01 -3.88040E+01 -4.02185E+01 -4.15786E+01
  -4.28849E+01 -4.41378E+01 -4.53384E+01 -4.64875E+01 -4.75863E+01 -4.86358E+01 -4.96374E+01 -5.05924E+01 -5.15024E+01 -5.23689E+01
  -5.31934E+01 -5.39773E+01 -5.47224E+01 -5.54304E+01 -5.61027E+01 -5.67411E+01 -5.73472E+01 -5.79224E+01 -5.84685E+01 -5.89871E+01
  -5.94796E+01 -5.99477E+01 -6.03926E+01 -6.08159E+01 -6.12191E+01 -6.16035E+01 -6.19706E+01 -6.23215E+01 -6.26576E+01 -6.29800E+01
  -6.32901E+01 -6.35891E+01 -6.38780E+01 -6.41579E+01 -6.44299E+01 -6.46951E+01 -6.49544E+01 -6.52088E+01 -6.54592E+01 -6.57066E+01
  -6.59518E+01 -6.61955E+01 -6.64388E+01 -6.66822E+01 -6.69266E+01 -6.71725E+01 -6.74205E+01 -6.76714E+01
 NY background values follow
     5.654E+01    5.662E+01    5.672E+01    5.683E+01    5.695E+01    5.708E+01    5.722E+01    5.738E+01    5.754E+01    5.771E+01
     5.789E+01    5.807E+01    5.826E+01    5.846E+01    5.867E+01    5.888E+01    5.910E+01    5.932E+01    5.955E+01    5.978E+01
     6.001E+01    6.024E+01    6.048E+01    6.072E+01    6.096E+01    6.120E+01    6.144E+01    6.168E+01    6.192E+01    6.216E+01
     6.239E+01    6.263E+01    6.286E+01    6.308E+01    6.331E+01    6.352E+01    6.374E+01    6.394E+01    6.414E+01    6.434E+01
     6.452E+01    6.470E+01    6.487E+01    6.504E+01    6.519E+01    6.533E+01    6.547E+01    6.559E+01    6.570E+01    6.580E+01
     6.589E+01    6.596E+01    6.602E+01    6.607E+01    6.610E+01    6.612E+01    6.612E+01    6.611E+01    6.608E+01    6.603E+01
     6.597E+01    6.588E+01    6.578E+01    6.566E+01    6.552E+01    6.536E+01    6.518E+01    6.498E+01    6.476E+01    6.452E+01
     6.425E+01    6.396E+01    6.364E+01    6.331E+01    6.294E+01    6.255E+01    6.214E+01    6.170E+01    6.123E+01    6.074E+01
     6.022E+01    5.967E+01    5.909E+01    5.848E+01    5.784E+01    5.718E+01    5.648E+01    5.575E+01    5.500E+01    5.421E+01
     5.340E+01    5.255E+01    5.168E+01    5.077E+01    4.984E+01    4.888E+01    4.789E+01    4.687E+01    4.582E+01    4.474E+01
     4.363E+01    4.249E+01    4.132E+01    4.012E+01    3.890E+01    3.764E+01    3.636E+01    3.505E+01    3.370E+01    3.233E+01
     3.093E+01    2.950E+01    2.805E+01    2.656E+01    2.504E+01    2.350E+01    2.193E+01    2.032E+01    1.869E+01    1.703E+01
     1.535E+01    1.363E+01    1.188E+01    1.011E+01    8.306E+00    6.475E+00    4.615E+00    2.727E+00    8.103E-01   -1.135E+00
    -3.108E+00   -5.110E+00   -7.141E+00   -9.199E+00   -1.129E+01   -1.340E+01   -1.555E+01   -1.772E+01   -1.992E+01   -2.214E+01
    -2.440E+01   -2.668E+01   -2.900E+01   -3.134E+01   -3.371E+01   -3.610E+01   -3.853E+01   -4.098E+01   -4.346E+01   -4.597E+01
    -4.850E+01   -5.107E+01   -5.366E+01   -5.628E+01   -5.892E+01   -6.160E+01   -6.430E+01   -6.703E+01   -6.979E+01   -7.257E+01
    -7.539E+01   -7.823E+01   -8.109E+01   -8.399E+01   -8.691E+01   -8.986E+01   -9.284E+01   -9.584E+01   -9.887E+01   -1.019E+02
    -1.050E+02   -1.081E+02   -1.112E+02   -1.144E+02   -1.176E+02   -1.207E+02   -1.240E+02   -1.272E+02   -1.304E+02   -1.337E+02
    -1.370E+02   -1.402E+02   -1.435E+02   -1.469E+02   -1.502E+02   -1.535E+02   -1.569E+02   -1.602E+02   -1.636E+02   -1.670E+02
    -1.703E+02   -1.737E+02   -1.771E+02   -1.805E+02   -1.839E+02   -1.873E+02   -1.907E+02   -1.941E+02   -1.975E+02   -2.009E+02
    -2.042E+02   -2.076E+02   -2.110E+02   -2.144E+02   -2.177E+02   -2.211E+02   -2.245E+02   -2.278E+02   -2.311E+02   -2.345E+02
    -2.378E+02   -2.411E+02   -2.443E+02   -2.476E+02   -2.509E+02   -2.541E+02   -2.573E+02   -2.605E+02   -2.637E+02   -2.669E+02
    -2.700E+02   -2.731E+02   -2.762E+02   -2.793E+02   -2.823E+02   -2.854E+02   -2.884E+02   -2.913E+02   -2.943E+02   -2.972E+02
    -3.001E+02   -3.029E+02   -3.057E+02   -3.085E+02   -3.113E+02   -3.140E+02   -3.167E+02   -3.193E+02   -3.219E+02   -3.245E+02
    -3.270E+02   -3.295E+02   -3.319E+02   -3.344E+02   -3.367E+02   -3.390E+02   -3.413E+02   -3.435E+02   -3.457E+02   -3.479E+02
    -3.499E+02   -3.520E+02   -3.540E+02   -3.559E+02   -3.578E+02   -3.597E+02   -3.615E+02   -3.632E+02   -3.650E+02   -3.666E+02
    -3.682E+02   -3.698E+02   -3.713E+02   -3.728E+02   -3.743E+02   -3.756E+02   -3.770E+02   -3.783E+02   -3.796E+02   -3.808E+02
    -3.819E+02   -3.831E+02   -3.841E+02   -3.852E+02   -3.862E+02   -3.871E+02   -3.880E+02   -3.889E+02   -3.897E+02   -3.905E+02
    -3.912E+02   -3.919E+02   -3.925E+02   -3.931E+02   -3.937E+02   -3.942E+02   -3.947E+02   -3.951E+02   -3.955E+02   -3.959E+02
    -3.962E+02   -3.965E+02   -3.967E+02   -3.969E+02   -3.970E+02   -3.972E+02   -3.972E+02   -3.973E+02   -3.972E+02   -3.972E+02
    -3.971E+02   -3.970E+02   -3.968E+02   -3.966E+02   -3.963E+02   -3.961E+02   -3.957E+02   -3.954E+02   -3.950E+02   -3.945E+02
    -3.941E+02   -3.935E+02   -3.930E+02   -3.924E+02   -3.918E+02   -3.911E+02   -3.904E+02   -3.897E+02   -3.889E+02   -3.881E+02
    -3.872E+02   -3.864E+02   -3.854E+02   -3.845E+02   -3.835E+02   -3.825E+02   -3.814E+02   -3.803E+02   -3.792E+02   -3.780E+02
    -3.768E+02   -3.756E+02   -3.743E+02   -3.730E+02   -3.717E+02   -3.703E+02   -3.689E+02   -3.675E+02   -3.660E+02   -3.645E+02
    -3.630E+02   -3.614E+02   -3.598E+02   -3.582E+02   -3.566E+02   -3.549E+02   -3.532E+02   -3.515E+02   -3.498E+02   -3.480E+02
    -3.462E+02   -3.444E+02   -3.426E+02   -3.407E+02   -3.389E+02   -3.370E+02   -3.351E+02   -3.331E+02   -3.312E+02   -3.292E+02
    -3.272E+02   -3.252E+02   -3.232E+02   -3.212E+02   -3.191E+02   -3.170E+02   -3.150E+02   -3.129E+02   -3.108E+02   -3.086E+02
    -3.065E+02   -3.044E+02   -3.022E+02   -3.001E+02   -2.979E+02   -2.957E+02   -2.935E+02   -2.913E+02   -2.891E+02   -2.869E+02
    -2.847E+02   -2.825E+02   -2.803E+02   -2.781E+02   -2.759E+02   -2.736E+02   -2.714E+02   -2.692E+02   -2.669E+02   -2.647E+02
    -2.625E+02   -2.603E+02   -2.580E+02   -2.558E+02   -2.536E+02   -2.514E+02   -2.492E+02   -2.470E+02   -2.448E+02   -2.426E+02
    -2.404E+02   -2.382E+02   -2.360E+02   -2.339E+02   -2.317E+02   -2.296E+02   -2.275E+02   -2.253E+02   -2.232E+02   -2.211E+02
    -2.191E+02   -2.170E+02   -2.149E+02   -2.129E+02   -2.109E+02   -2.089E+02   -2.069E+02   -2.049E+02   -2.029E+02   -2.010E+02
    -1.991E+02   -1.972E+02   -1.953E+02   -1.934E+02   -1.915E+02   -1.897E+02   -1.879E+02   -1.860E+02   -1.843E+02   -1.825E+02
    -1.807E+02   -1.790E+02   -1.773E+02   -1.756E+02   -1.739E+02   -1.722E+02   -1.705E+02   -1.689E+02   -1.673E+02   -1.657E+02
    -1.641E+02   -1.626E+02   -1.610E+02   -1.595E+02   -1.580E+02   -1.565E+02   -1.550E+02   -1.536E+02   -1.521E+02   -1.507E+02
    -1.493E+02   -1.479E+02   -1.466E+02   -1.452E+02   -1.439E+02   -1.426E+02   -1.413E+02   -1.400E+02   -1.388E+02   -1.376E+02
    -1.364E+02   -1.352E+02   -1.340E+02   -1.329E+02   -1.317E+02   -1.306E+02   -1.295E+02   -1.285E+02   -1.274E+02   -1.264E+02
    -1.254E+02   -1.244E+02   -1.234E+02   -1.225E+02   -1.215E+02   -1.206E+02   -1.197E+02   -1.189E+02   -1.180E+02   -1.172E+02
    -1.164E+02   -1.156E+02   -1.148E+02   -1.141E+02   -1.134E+02   -1.127E+02   -1.120E+02   -1.113E+02   -1.107E+02   -1.101E+02
    -1.095E+02   -1.089E+02   -1.083E+02   -1.078E+02   -1.073E+02   -1.068E+02   -1.064E+02   -1.059E+02
 Ala      Conc. = 1.79E+02
