 LCModel (Version 6.3-1L) Copyright: S.W. Provencher.          Ref.: Magn. Reson. Med. 30:672-679 (1993).                
 Slice#3 Row#6 Col#14  K_02_press_1_raw_act
 36 lines in following concentration table = NCONC+1
    Conc.  %SD /Cr+PCr  Metabolite                                         
 2.50E+04   6%   0.000 Ala                                                 
    0.000 999%   0.000 Asp                                                 
    0.000 999%   0.000 Cr                                                  
    0.000 999%   0.000 PCr                                                 
   15.194 616%   0.000 GABA                                                
   15.978 573%   0.000 Glc                                                 
    0.000 999%   0.000 Gln                                                 
 4.76E+03  19%   0.000 Glu                                                 
    0.000 999%   0.000 GPC                                                 
    0.000 999%   0.000 PCh                                                 
    0.000 999%   0.000 GSH                                                 
  625.212  49%   0.000 Ins                                                 
 1.41E+03  54%   0.000 Lac                                                 
    0.000 999%   0.000 NAA                                                 
    0.000 999%   0.000 NAAG                                                
   17.618 136%   0.000 Scyllo                                              
    0.000 999%   0.000 Tau                                                 
  402.218  48%   0.000 -CrCH2                                              
    0.000 999%   0.000 GPC+PCh                                             
    0.000 999%   0.000 NAA+NAAG                                            
    0.000 999%   0.000 Cr+PCr                                              
 4.76E+03  19%   0.000 Glu+Gln                                             
 5.85E+04   7%   0.000 Lip13a                                              
  352.245  50%   0.000 Lip13b                                              
    0.000 999%   0.000 Lip09                                               
  397.098  48%   0.000 MM09                                                
  507.922  77%   0.000 Lip20                                               
    0.000 999%   0.000 MM20                                                
    0.000 999%   0.000 MM12                                                
 8.82E+04   6%   0.000+MM14                                                
 1.02E+05   5%   0.000+MM17                                                
 5.88E+04   7%   0.000 Lip13a+Lip13b                                       
 1.47E+05   5%   0.000 MM14+Lip13a+Lip13b+MM12                             
  397.098  48%   0.000 MM09+Lip09                                          
  507.922  77%   0.000 MM20+Lip20                                          
   6 lines in following misc. output table
  FWHM = 0.153 ppm    S/N = 110                                            
  Data shift = 0.298 ppm                                                   
  Ph:  61 deg     122.1 deg/ppm                                            
  alphaB,S = 1.8E+00,   3.8E+02                                            
    8 spline knots.   Ns = 9(2)                                            
  ( 7) 2 infls.   ( 1) 1 extrs.                                            
  498 points on ppm-axis = NY
      4.000000     3.992357     3.984714     3.977070     3.969427     3.961784     3.954141     3.946497     3.938854     3.931211
      3.923568     3.915925     3.908281     3.900638     3.892995     3.885352     3.877708     3.870065     3.862422     3.854779
      3.847136     3.839492     3.831849     3.824206     3.816563     3.808919     3.801276     3.793633     3.785990     3.778347
      3.770703     3.763060     3.755417     3.747774     3.740130     3.732487     3.724844     3.717201     3.709558     3.701914
      3.694271     3.686628     3.678985     3.671341     3.663698     3.656055     3.648412     3.640769     3.633125     3.625482
      3.617839     3.610196     3.602552     3.594909     3.587266     3.579623     3.571980     3.564336     3.556693     3.549050
      3.541407     3.533763     3.526120     3.518477     3.510834     3.503191     3.495547     3.487904     3.480261     3.472618
      3.464974     3.457331     3.449688     3.442045     3.434402     3.426758     3.419115     3.411472     3.403829     3.396185
      3.388542     3.380899     3.373256     3.365613     3.357969     3.350326     3.342683     3.335040     3.327396     3.319753
      3.312110     3.304467     3.296824     3.289180     3.281537     3.273894     3.266251     3.258607     3.250964     3.243321
      3.235678     3.228034     3.220391     3.212748     3.205105     3.197462     3.189818     3.182175     3.174532     3.166889
      3.159245     3.151602     3.143959     3.136316     3.128673     3.121029     3.113386     3.105743     3.098100     3.090456
      3.082813     3.075170     3.067527     3.059884     3.052240     3.044597     3.036954     3.029311     3.021667     3.014024
      3.006381     2.998738     2.991095     2.983451     2.975808     2.968165     2.960522     2.952878     2.945235     2.937592
      2.929949     2.922306     2.914662     2.907019     2.899376     2.891733     2.884089     2.876446     2.868803     2.861160
      2.853517     2.845873     2.838230     2.830587     2.822944     2.815300     2.807657     2.800014     2.792371     2.784728
      2.777084     2.769441     2.761798     2.754155     2.746511     2.738868     2.731225     2.723582     2.715939     2.708295
      2.700652     2.693009     2.685366     2.677722     2.670079     2.662436     2.654793     2.647150     2.639506     2.631863
      2.624220     2.616577     2.608933     2.601290     2.593647     2.586004     2.578361     2.570717     2.563074     2.555431
      2.547788     2.540144     2.532501     2.524858     2.517215     2.509572     2.501928     2.494285     2.486642     2.478999
      2.471355     2.463712     2.456069     2.448426     2.440783     2.433139     2.425496     2.417853     2.410210     2.402566
      2.394923     2.387280     2.379637     2.371994     2.364350     2.356707     2.349064     2.341421     2.333777     2.326134
      2.318491     2.310848     2.303205     2.295561     2.287918     2.280275     2.272632     2.264988     2.257345     2.249702
      2.242059     2.234416     2.226772     2.219129     2.211486     2.203843     2.196199     2.188556     2.180913     2.173270
      2.165627     2.157983     2.150340     2.142697     2.135054     2.127410     2.119767     2.112124     2.104481     2.096838
      2.089194     2.081551     2.073908     2.066265     2.058621     2.050978     2.043335     2.035692     2.028049     2.020405
      2.012762     2.005119     1.997476     1.989833     1.982190     1.974546     1.966903     1.959260     1.951617     1.943974
      1.936331     1.928688     1.921045     1.913402     1.905759     1.898115     1.890472     1.882829     1.875186     1.867543
      1.859900     1.852257     1.844614     1.836971     1.829327     1.821684     1.814041     1.806398     1.798755     1.791112
      1.783469     1.775826     1.768183     1.760540     1.752896     1.745253     1.737610     1.729967     1.722324     1.714681
      1.707038     1.699395     1.691752     1.684108     1.676465     1.668822     1.661179     1.653536     1.645893     1.638250
      1.630607     1.622964     1.615321     1.607677     1.600034     1.592391     1.584748     1.577105     1.569462     1.561819
      1.554176     1.546533     1.538890     1.531246     1.523603     1.515960     1.508317     1.500674     1.493031     1.485388
      1.477745     1.470102     1.462458     1.454815     1.447172     1.439529     1.431886     1.424243     1.416600     1.408957
      1.401314     1.393671     1.386027     1.378384     1.370741     1.363098     1.355455     1.347812     1.340169     1.332526
      1.324883     1.317240     1.309596     1.301953     1.294310     1.286667     1.279024     1.271381     1.263738     1.256095
      1.248452     1.240808     1.233165     1.225522     1.217879     1.210236     1.202593     1.194950     1.187307     1.179664
      1.172021     1.164377     1.156734     1.149091     1.141448     1.133805     1.126162     1.118519     1.110876     1.103233
      1.095590     1.087946     1.080303     1.072660     1.065017     1.057374     1.049731     1.042088     1.034445     1.026802
      1.019158     1.011515     1.003872     0.996229     0.988586     0.980943     0.973300     0.965657     0.958014     0.950371
      0.942727     0.935084     0.927441     0.919798     0.912155     0.904512     0.896869     0.889226     0.881583     0.873940
      0.866296     0.858653     0.851010     0.843367     0.835724     0.828081     0.820438     0.812795     0.805152     0.797508
      0.789865     0.782222     0.774579     0.766936     0.759293     0.751650     0.744007     0.736364     0.728721     0.721077
      0.713434     0.705791     0.698148     0.690505     0.682862     0.675219     0.667576     0.659933     0.652290     0.644646
      0.637003     0.629360     0.621717     0.614074     0.606431     0.598788     0.591145     0.583502     0.575858     0.568215
      0.560572     0.552929     0.545286     0.537643     0.530000     0.522357     0.514714     0.507071     0.499427     0.491784
      0.484141     0.476498     0.468855     0.461212     0.453569     0.445925     0.438282     0.430639     0.422996     0.415353
      0.407710     0.400067     0.392424     0.384780     0.377137     0.369494     0.361851     0.354208     0.346565     0.338922
      0.331278     0.323635     0.315992     0.308349     0.300706     0.293063     0.285420     0.277777     0.270133     0.262490
      0.254847     0.247204     0.239561     0.231918     0.224275     0.216631     0.208988     0.201345
 NY phased data points follow
   2.73646E+01  2.69765E+01  2.88408E+01  2.76310E+01  2.72294E+01  2.77301E+01  2.65232E+01  2.69182E+01  2.73052E+01  3.06105E+01
   2.66524E+01  2.83486E+01  2.87179E+01  2.90407E+01  3.00177E+01  2.68046E+01  2.90093E+01  2.81209E+01  2.86947E+01  2.65656E+01
   3.00364E+01  2.79526E+01  2.64311E+01  2.90004E+01  2.88620E+01  2.80202E+01  2.88076E+01  2.75296E+01  2.72849E+01  3.04290E+01
   3.02929E+01  2.79384E+01  2.95005E+01  2.69079E+01  2.69997E+01  2.84038E+01  3.03628E+01  2.98907E+01  2.85104E+01  2.94478E+01
   2.84257E+01  2.92803E+01  2.90284E+01  2.95625E+01  2.99191E+01  2.75289E+01  2.80673E+01  2.97521E+01  3.04429E+01  2.79055E+01
   2.80972E+01  2.80731E+01  2.95848E+01  2.78790E+01  2.88121E+01  2.62612E+01  2.82164E+01  2.79434E+01  2.86037E+01  2.72535E+01
   2.87080E+01  3.08340E+01  2.77737E+01  2.74802E+01  2.75754E+01  2.65408E+01  2.83212E+01  2.76930E+01  2.61043E+01  2.72987E+01
   2.68450E+01  2.62650E+01  2.49500E+01  2.32103E+01  2.47838E+01  2.33728E+01  2.59021E+01  2.34187E+01  2.44099E+01  2.52676E+01
   2.42041E+01  2.06185E+01  2.52603E+01  2.26295E+01  2.37219E+01  2.20330E+01  2.04905E+01  2.11669E+01  2.02402E+01  2.04841E+01
   2.17140E+01  1.90431E+01  2.06606E+01  1.83213E+01  1.92309E+01  1.79179E+01  1.60346E+01  1.51815E+01  1.57717E+01  1.30490E+01
   1.17963E+01  1.20724E+01  1.46901E+01  1.34381E+01  1.09247E+01  1.23121E+01  1.18704E+01  1.06854E+01  9.98624E+00  1.11050E+01
   8.79227E+00  9.11190E+00  7.58000E+00  7.35016E+00  5.38093E+00  2.91284E+00  3.09550E+00  5.34279E+00  4.61108E+00  1.67426E+00
   2.76359E+00  2.54494E+00  1.72897E+00  9.18336E-01  1.10845E+00 -2.60888E+00 -1.02844E+00 -2.87557E+00 -1.76821E+00 -2.51814E+00
  -2.52308E+00 -4.65602E+00 -4.62082E+00 -6.17883E+00 -8.30673E+00 -9.22735E+00 -1.04430E+01 -1.03484E+01 -1.04198E+01 -1.06961E+01
  -1.15155E+01 -1.21973E+01 -1.45524E+01 -1.39991E+01 -1.38212E+01 -1.62409E+01 -1.63906E+01 -1.76009E+01 -1.63623E+01 -1.85744E+01
  -2.12656E+01 -1.93281E+01 -1.90438E+01 -2.17033E+01 -2.09138E+01 -2.41047E+01 -2.50489E+01 -2.36877E+01 -2.69198E+01 -2.75897E+01
  -2.74591E+01 -3.10094E+01 -2.95759E+01 -3.12670E+01 -3.02472E+01 -3.44529E+01 -3.34432E+01 -3.61024E+01 -3.57682E+01 -3.79792E+01
  -3.93483E+01 -4.06217E+01 -3.86010E+01 -4.27194E+01 -4.31295E+01 -4.42523E+01 -4.44928E+01 -4.74170E+01 -4.73167E+01 -4.79154E+01
  -5.16340E+01 -5.14173E+01 -5.50776E+01 -5.37483E+01 -5.54613E+01 -5.47967E+01 -5.85548E+01 -5.96258E+01 -6.03445E+01 -6.10166E+01
  -6.50620E+01 -6.42875E+01 -6.71107E+01 -6.87809E+01 -7.04637E+01 -7.27830E+01 -7.24911E+01 -7.65576E+01 -7.68098E+01 -7.83103E+01
  -7.86647E+01 -8.17941E+01 -8.46510E+01 -8.68493E+01 -8.80102E+01 -8.88775E+01 -9.01140E+01 -9.46934E+01 -9.48368E+01 -9.78769E+01
  -9.85485E+01 -9.84029E+01 -1.01393E+02 -1.02953E+02 -1.05452E+02 -1.04732E+02 -1.06213E+02 -1.07392E+02 -1.10157E+02 -1.10830E+02
  -1.08799E+02 -1.10512E+02 -1.13443E+02 -1.15804E+02 -1.19868E+02 -1.20387E+02 -1.20404E+02 -1.22273E+02 -1.21120E+02 -1.21048E+02
  -1.19841E+02 -1.23278E+02 -1.23265E+02 -1.22846E+02 -1.23529E+02 -1.22567E+02 -1.24370E+02 -1.25578E+02 -1.24981E+02 -1.23969E+02
  -1.27059E+02 -1.25269E+02 -1.25298E+02 -1.27025E+02 -1.28707E+02 -1.27769E+02 -1.28491E+02 -1.29069E+02 -1.27454E+02 -1.28860E+02
  -1.28045E+02 -1.27291E+02 -1.27064E+02 -1.26286E+02 -1.27172E+02 -1.27502E+02 -1.24864E+02 -1.25114E+02 -1.24357E+02 -1.23080E+02
  -1.20354E+02 -1.19866E+02 -1.15061E+02 -1.15495E+02 -1.13163E+02 -1.11891E+02 -1.04792E+02 -1.03469E+02 -9.85884E+01 -9.44366E+01
  -9.14992E+01 -8.23698E+01 -7.67674E+01 -7.04579E+01 -6.38470E+01 -5.58222E+01 -4.98691E+01 -3.87248E+01 -2.88865E+01 -1.87016E+01
  -8.89469E+00  3.86415E+00  1.99776E+01  2.90833E+01  4.48164E+01  6.01631E+01  7.54193E+01  9.16552E+01  1.04558E+02  1.24059E+02
   1.40873E+02  1.57668E+02  1.73245E+02  1.90699E+02  2.07243E+02  2.24385E+02  2.35530E+02  2.49797E+02  2.63911E+02  2.77195E+02
   2.85597E+02  2.96175E+02  3.02919E+02  3.12383E+02  3.24060E+02  3.28201E+02  3.37468E+02  3.43461E+02  3.50385E+02  3.52848E+02
   3.57617E+02  3.59324E+02  3.58118E+02  3.54523E+02  3.50724E+02  3.48249E+02  3.40124E+02  3.34208E+02  3.23492E+02  3.12304E+02
   3.03811E+02  2.93319E+02  2.80266E+02  2.67739E+02  2.59662E+02  2.47142E+02  2.36494E+02  2.25494E+02  2.17100E+02  2.07449E+02
   2.00380E+02  1.92505E+02  1.85285E+02  1.79098E+02  1.69959E+02  1.60258E+02  1.54378E+02  1.47665E+02  1.40950E+02  1.34947E+02
   1.28565E+02  1.22133E+02  1.15307E+02  1.10711E+02  1.03689E+02  9.72236E+01  8.99026E+01  8.47434E+01  7.73560E+01  6.99420E+01
   6.26142E+01  5.81748E+01  5.26618E+01  4.64669E+01  3.81519E+01  3.46308E+01  2.67074E+01  2.37954E+01  1.49237E+01  1.21868E+01
   6.19392E+00  8.89441E-01 -2.69866E+00 -6.31233E+00 -9.88978E+00 -1.74531E+01 -1.96998E+01 -2.37938E+01 -2.70451E+01 -3.16549E+01
  -3.47149E+01 -3.80770E+01 -4.21663E+01 -4.54318E+01 -4.85724E+01 -5.16083E+01 -5.39507E+01 -5.65520E+01 -5.95948E+01 -6.18901E+01
  -6.51455E+01 -6.70514E+01 -6.64402E+01 -7.10842E+01 -7.28402E+01 -7.40875E+01 -7.84680E+01 -7.59689E+01 -7.91734E+01 -8.17409E+01
  -8.15327E+01 -8.22777E+01 -8.39487E+01 -8.53129E+01 -8.74520E+01 -8.51222E+01 -8.61350E+01 -8.98709E+01 -9.00424E+01 -9.00981E+01
  -8.99206E+01 -9.10971E+01 -9.28258E+01 -9.19602E+01 -9.24159E+01 -9.24604E+01 -9.37145E+01 -9.26880E+01 -9.39859E+01 -9.21144E+01
  -9.25293E+01 -9.23464E+01 -9.21960E+01 -9.41536E+01 -9.29959E+01 -9.24135E+01 -9.25865E+01 -9.15571E+01 -8.97142E+01 -8.87269E+01
  -8.99359E+01 -8.88919E+01 -8.87844E+01 -8.65337E+01 -8.67384E+01 -8.62354E+01 -8.63700E+01 -8.59030E+01 -8.35599E+01 -8.39556E+01
  -8.32167E+01 -8.24331E+01 -8.12464E+01 -8.19396E+01 -7.84199E+01 -7.72490E+01 -7.75682E+01 -7.80399E+01 -7.65880E+01 -7.47393E+01
  -7.47275E+01 -7.43652E+01 -7.36578E+01 -7.15267E+01 -7.11920E+01 -6.91826E+01 -6.86209E+01 -6.85119E+01 -6.71937E+01 -6.52333E+01
  -6.53872E+01 -6.42122E+01 -6.26773E+01 -6.11215E+01 -6.12791E+01 -5.94695E+01 -5.85141E+01 -5.76087E+01 -5.52407E+01 -5.66093E+01
  -5.46118E+01 -5.40042E+01 -5.20032E+01 -5.26726E+01 -5.08262E+01 -4.90079E+01 -5.02072E+01 -4.90938E+01 -4.63399E+01 -4.52439E+01
  -4.39067E+01 -4.35512E+01 -4.33083E+01 -4.10937E+01 -4.04009E+01 -4.12445E+01 -3.91090E+01 -3.84061E+01 -3.76696E+01 -3.52118E+01
  -3.45173E+01 -3.28277E+01 -3.29991E+01 -3.32140E+01 -3.04284E+01 -3.07477E+01 -2.87113E+01 -2.73776E+01 -2.56012E+01 -2.73676E+01
  -2.55423E+01 -2.28003E+01 -2.48387E+01 -2.34097E+01 -2.25588E+01 -2.15501E+01 -1.86701E+01 -1.90306E+01
 NY points of the fit to the data follow
   2.88545E+01  2.83098E+01  2.73490E+01  2.70398E+01  2.65973E+01  2.68461E+01  2.73732E+01  2.87505E+01  2.88623E+01  2.99517E+01
   2.92589E+01  3.01039E+01  2.87100E+01  2.93230E+01  2.71000E+01  2.87364E+01  2.68635E+01  2.87560E+01  2.67862E+01  2.85610E+01
   2.64200E+01  2.82704E+01  2.62216E+01  2.77894E+01  2.63960E+01  2.76419E+01  2.69828E+01  2.78667E+01  2.78429E+01  2.81727E+01
   2.86950E+01  2.82439E+01  2.91767E+01  2.80540E+01  2.94042E+01  2.79807E+01  2.98118E+01  2.82595E+01  3.03880E+01  2.87114E+01
   3.07803E+01  2.90451E+01  3.08245E+01  2.90450E+01  3.05414E+01  2.89286E+01  3.02575E+01  2.89830E+01  2.99016E+01  2.87968E+01
   2.94088E+01  2.84648E+01  2.87729E+01  2.79787E+01  2.81227E+01  2.77586E+01  2.80247E+01  2.78001E+01  2.80097E+01  2.78258E+01
   2.79382E+01  2.77368E+01  2.77198E+01  2.74303E+01  2.73853E+01  2.70757E+01  2.70160E+01  2.67021E+01  2.66499E+01  2.63172E+01
   2.62444E+01  2.58716E+01  2.57676E+01  2.53648E+01  2.52448E+01  2.48161E+01  2.46845E+01  2.42257E+01  2.40846E+01  2.35986E+01
   2.34317E+01  2.29270E+01  2.27403E+01  2.22232E+01  2.20140E+01  2.14838E+01  2.12441E+01  2.07095E+01  2.04435E+01  1.99086E+01
   1.96162E+01  1.90831E+01  1.87634E+01  1.82355E+01  1.78944E+01  1.73735E+01  1.70131E+01  1.64976E+01  1.61182E+01  1.56045E+01
   1.52047E+01  1.46876E+01  1.42660E+01  1.37399E+01  1.32944E+01  1.27573E+01  1.22911E+01  1.17436E+01  1.12601E+01  1.06939E+01
   1.01848E+01  9.59811E+00  9.06600E+00  8.46030E+00  7.90297E+00  7.27785E+00  6.69578E+00  6.04997E+00  5.44394E+00  4.77528E+00
   4.14111E+00  3.44973E+00  2.78987E+00  2.07692E+00  1.39321E+00  6.59138E-01 -4.65884E-02 -7.99795E-01 -1.52522E+00 -2.29728E+00
  -3.04201E+00 -3.83242E+00 -4.59609E+00 -5.40415E+00 -6.18669E+00 -7.01223E+00 -7.81371E+00 -8.65672E+00 -9.47727E+00 -1.03380E+01
  -1.11778E+01 -1.20565E+01 -1.29162E+01 -1.38135E+01 -1.46935E+01 -1.56107E+01 -1.65120E+01 -1.74501E+01 -1.83739E+01 -1.93344E+01
  -2.02817E+01 -2.12657E+01 -2.22374E+01 -2.32465E+01 -2.42440E+01 -2.52793E+01 -2.63031E+01 -2.73641E+01 -2.84143E+01 -2.95018E+01
  -3.05786E+01 -3.16920E+01 -3.27953E+01 -3.39338E+01 -3.50611E+01 -3.62228E+01 -3.73727E+01 -3.85564E+01 -3.97279E+01 -4.09320E+01
  -4.21205E+01 -4.33418E+01 -4.45446E+01 -4.57817E+01 -4.69965E+01 -4.82464E+01 -4.94697E+01 -5.07299E+01 -5.19594E+01 -5.32246E+01
  -5.44537E+01 -5.57181E+01 -5.69478E+01 -5.82074E+01 -5.94310E+01 -6.06729E+01 -6.18713E+01 -6.30647E+01 -6.42245E+01 -6.54865E+01
  -6.66206E+01 -6.79893E+01 -6.92579E+01 -7.06927E+01 -7.20399E+01 -7.34492E+01 -7.46608E+01 -7.58030E+01 -7.64801E+01 -7.77934E+01
  -7.83189E+01 -7.99553E+01 -8.04157E+01 -8.25662E+01 -8.32423E+01 -8.59486E+01 -8.63865E+01 -8.93718E+01 -8.97099E+01 -9.28960E+01
  -9.32685E+01 -9.65955E+01 -9.69890E+01 -1.00310E+02 -1.00703E+02 -1.03764E+02 -1.04168E+02 -1.06817E+02 -1.07169E+02 -1.09358E+02
  -1.09701E+02 -1.11462E+02 -1.11976E+02 -1.13414E+02 -1.14153E+02 -1.15353E+02 -1.16107E+02 -1.16981E+02 -1.17711E+02 -1.18389E+02
  -1.19005E+02 -1.19661E+02 -1.20307E+02 -1.21135E+02 -1.21756E+02 -1.22643E+02 -1.23127E+02 -1.24042E+02 -1.24358E+02 -1.25395E+02
  -1.25744E+02 -1.26746E+02 -1.27041E+02 -1.27878E+02 -1.28179E+02 -1.28752E+02 -1.28901E+02 -1.29150E+02 -1.29183E+02 -1.29006E+02
  -1.28919E+02 -1.28349E+02 -1.28163E+02 -1.27295E+02 -1.27008E+02 -1.25795E+02 -1.25307E+02 -1.23735E+02 -1.22968E+02 -1.21050E+02
  -1.19938E+02 -1.17648E+02 -1.16133E+02 -1.13436E+02 -1.11381E+02 -1.08206E+02 -1.05463E+02 -1.01690E+02 -9.81469E+01 -9.36593E+01
  -8.91845E+01 -8.38470E+01 -7.83325E+01 -7.19842E+01 -6.52581E+01 -5.76881E+01 -4.95745E+01 -4.06222E+01 -3.09996E+01 -2.05499E+01
  -9.35491E+00  2.66562E+00  1.54714E+01  2.90599E+01  4.33906E+01  5.84061E+01  7.40602E+01  9.02149E+01  1.06832E+02  1.23731E+02
   1.40829E+02  1.57927E+02  1.74913E+02  1.91586E+02  2.07821E+02  2.23442E+02  2.38323E+02  2.52319E+02  2.65341E+02  2.77297E+02
   2.88149E+02  2.97876E+02  3.06509E+02  3.14114E+02  3.20823E+02  3.26825E+02  3.32447E+02  3.38246E+02  3.45298E+02  3.53320E+02
   3.56335E+02  3.60441E+02  3.58713E+02  3.59012E+02  3.52844E+02  3.49062E+02  3.37090E+02  3.33717E+02  3.21197E+02  3.16068E+02
   3.02225E+02  2.94631E+02  2.79556E+02  2.70887E+02  2.56877E+02  2.47849E+02  2.36274E+02  2.26741E+02  2.17788E+02  2.08408E+02
   2.01447E+02  1.91725E+02  1.86260E+02  1.75781E+02  1.71097E+02  1.59893E+02  1.55852E+02  1.45538E+02  1.41994E+02  1.32731E+02
   1.29276E+02  1.20959E+02  1.16954E+02  1.09238E+02  1.03666E+02  9.63194E+01  8.96767E+01  8.33419E+01  7.64387E+01  7.16044E+01
   6.36985E+01  5.92239E+01  5.11388E+01  4.67969E+01  3.85002E+01  3.40247E+01  2.58282E+01  2.23510E+01  1.55502E+01  1.22955E+01
   6.20661E+00  2.88716E+00 -2.61353E+00 -6.03608E+00 -1.10240E+01 -1.45339E+01 -1.90358E+01 -2.25766E+01 -2.66507E+01 -3.01558E+01
  -3.40036E+01 -3.74842E+01 -4.10990E+01 -4.45147E+01 -4.78955E+01 -5.11827E+01 -5.42865E+01 -5.72466E+01 -6.00650E+01 -6.27498E+01
  -6.52928E+01 -6.76996E+01 -6.99620E+01 -7.20864E+01 -7.40664E+01 -7.59100E+01 -7.76129E+01 -7.91851E+01 -8.06244E+01 -8.19426E+01
  -8.31396E+01 -8.42282E+01 -8.52098E+01 -8.60983E+01 -8.68956E+01 -8.76154E+01 -8.82596E+01 -8.88408E+01 -8.93599E+01 -8.98277E+01
  -9.02431E+01 -9.06147E+01 -9.09396E+01 -9.12242E+01 -9.14640E+01 -9.16639E+01 -9.18185E+01 -9.19315E+01 -9.19971E+01 -9.20191E+01
  -9.19917E+01 -9.19191E+01 -9.17964E+01 -9.16283E+01 -9.14108E+01 -9.11492E+01 -9.08405E+01 -9.04905E+01 -9.00969E+01 -8.96657E+01
  -8.91948E+01 -8.86906E+01 -8.81510E+01 -8.75821E+01 -8.69821E+01 -8.63565E+01 -8.57035E+01 -8.50283E+01 -8.43291E+01 -8.36106E+01
  -8.28709E+01 -8.21144E+01 -8.13390E+01 -8.05490E+01 -7.97422E+01 -7.89226E+01 -7.80879E+01 -7.72419E+01 -7.63824E+01 -7.55130E+01
  -7.46315E+01 -7.37411E+01 -7.28399E+01 -7.19308E+01 -7.10120E+01 -7.00863E+01 -6.91517E+01 -6.82111E+01 -6.72626E+01 -6.63088E+01
  -6.53478E+01 -6.43822E+01 -6.34102E+01 -6.24342E+01 -6.14525E+01 -6.04673E+01 -5.94771E+01 -5.84838E+01 -5.74862E+01 -5.64859E+01
  -5.54818E+01 -5.44755E+01 -5.34658E+01 -5.24544E+01 -5.14401E+01 -5.04244E+01 -4.94062E+01 -4.83870E+01 -4.73657E+01 -4.63436E+01
  -4.53199E+01 -4.42956E+01 -4.32701E+01 -4.22444E+01 -4.12177E+01 -4.01910E+01 -3.91637E+01 -3.81366E+01 -3.71091E+01 -3.60821E+01
  -3.50551E+01 -3.40287E+01 -3.30025E+01 -3.19770E+01 -3.09521E+01 -2.99280E+01 -2.89047E+01 -2.78823E+01 -2.68609E+01 -2.58406E+01
  -2.48213E+01 -2.38032E+01 -2.27863E+01 -2.17704E+01 -2.07557E+01 -1.97419E+01 -1.87291E+01 -1.77167E+01
 NY background values follow
     2.711E+01    2.700E+01    2.688E+01    2.677E+01    2.667E+01    2.657E+01    2.647E+01    2.638E+01    2.629E+01    2.620E+01
     2.612E+01    2.604E+01    2.596E+01    2.589E+01    2.582E+01    2.575E+01    2.569E+01    2.563E+01    2.556E+01    2.551E+01
     2.545E+01    2.539E+01    2.534E+01    2.528E+01    2.523E+01    2.518E+01    2.513E+01    2.508E+01    2.503E+01    2.498E+01
     2.493E+01    2.488E+01    2.483E+01    2.477E+01    2.472E+01    2.467E+01    2.462E+01    2.456E+01    2.450E+01    2.445E+01
     2.439E+01    2.432E+01    2.426E+01    2.419E+01    2.412E+01    2.405E+01    2.398E+01    2.390E+01    2.382E+01    2.374E+01
     2.365E+01    2.356E+01    2.347E+01    2.337E+01    2.326E+01    2.316E+01    2.305E+01    2.293E+01    2.281E+01    2.268E+01
     2.255E+01    2.241E+01    2.227E+01    2.212E+01    2.197E+01    2.181E+01    2.164E+01    2.147E+01    2.129E+01    2.110E+01
     2.091E+01    2.071E+01    2.050E+01    2.029E+01    2.007E+01    1.984E+01    1.960E+01    1.935E+01    1.910E+01    1.884E+01
     1.856E+01    1.828E+01    1.799E+01    1.769E+01    1.739E+01    1.707E+01    1.674E+01    1.640E+01    1.606E+01    1.570E+01
     1.533E+01    1.495E+01    1.457E+01    1.417E+01    1.375E+01    1.333E+01    1.290E+01    1.245E+01    1.200E+01    1.153E+01
     1.105E+01    1.055E+01    1.005E+01    9.532E+00    9.002E+00    8.461E+00    7.907E+00    7.341E+00    6.764E+00    6.174E+00
     5.572E+00    4.958E+00    4.332E+00    3.694E+00    3.044E+00    2.382E+00    1.708E+00    1.023E+00    3.249E-01   -3.848E-01
    -1.106E+00   -1.840E+00   -2.585E+00   -3.342E+00   -4.112E+00   -4.893E+00   -5.685E+00   -6.490E+00   -7.306E+00   -8.135E+00
    -8.975E+00   -9.826E+00   -1.069E+01   -1.157E+01   -1.245E+01   -1.335E+01   -1.426E+01   -1.518E+01   -1.612E+01   -1.706E+01
    -1.802E+01   -1.899E+01   -1.997E+01   -2.096E+01   -2.196E+01   -2.298E+01   -2.401E+01   -2.504E+01   -2.609E+01   -2.716E+01
    -2.823E+01   -2.931E+01   -3.041E+01   -3.152E+01   -3.264E+01   -3.377E+01   -3.491E+01   -3.606E+01   -3.723E+01   -3.840E+01
    -3.959E+01   -4.079E+01   -4.200E+01   -4.322E+01   -4.445E+01   -4.570E+01   -4.695E+01   -4.822E+01   -4.950E+01   -5.079E+01
    -5.209E+01   -5.340E+01   -5.472E+01   -5.606E+01   -5.740E+01   -5.876E+01   -6.013E+01   -6.151E+01   -6.290E+01   -6.430E+01
    -6.571E+01   -6.713E+01   -6.857E+01   -7.002E+01   -7.147E+01   -7.294E+01   -7.442E+01   -7.591E+01   -7.741E+01   -7.892E+01
    -8.045E+01   -8.198E+01   -8.353E+01   -8.508E+01   -8.665E+01   -8.823E+01   -8.982E+01   -9.142E+01   -9.303E+01   -9.465E+01
    -9.628E+01   -9.793E+01   -9.958E+01   -1.012E+02   -1.029E+02   -1.046E+02   -1.063E+02   -1.080E+02   -1.097E+02   -1.114E+02
    -1.131E+02   -1.148E+02   -1.165E+02   -1.183E+02   -1.200E+02   -1.217E+02   -1.235E+02   -1.252E+02   -1.270E+02   -1.287E+02
    -1.305E+02   -1.322E+02   -1.340E+02   -1.357E+02   -1.375E+02   -1.392E+02   -1.410E+02   -1.427E+02   -1.445E+02   -1.462E+02
    -1.479E+02   -1.497E+02   -1.514E+02   -1.531E+02   -1.548E+02   -1.565E+02   -1.582E+02   -1.599E+02   -1.616E+02   -1.633E+02
    -1.650E+02   -1.667E+02   -1.683E+02   -1.700E+02   -1.716E+02   -1.732E+02   -1.749E+02   -1.765E+02   -1.781E+02   -1.796E+02
    -1.812E+02   -1.828E+02   -1.843E+02   -1.858E+02   -1.873E+02   -1.888E+02   -1.903E+02   -1.918E+02   -1.932E+02   -1.947E+02
    -1.961E+02   -1.975E+02   -1.989E+02   -2.002E+02   -2.016E+02   -2.029E+02   -2.042E+02   -2.055E+02   -2.067E+02   -2.079E+02
    -2.092E+02   -2.103E+02   -2.115E+02   -2.127E+02   -2.138E+02   -2.149E+02   -2.159E+02   -2.170E+02   -2.180E+02   -2.190E+02
    -2.200E+02   -2.209E+02   -2.218E+02   -2.227E+02   -2.235E+02   -2.243E+02   -2.251E+02   -2.259E+02   -2.266E+02   -2.273E+02
    -2.280E+02   -2.286E+02   -2.292E+02   -2.298E+02   -2.303E+02   -2.308E+02   -2.313E+02   -2.317E+02   -2.321E+02   -2.325E+02
    -2.328E+02   -2.331E+02   -2.334E+02   -2.336E+02   -2.338E+02   -2.339E+02   -2.340E+02   -2.341E+02   -2.342E+02   -2.342E+02
    -2.342E+02   -2.341E+02   -2.340E+02   -2.339E+02   -2.338E+02   -2.336E+02   -2.334E+02   -2.332E+02   -2.329E+02   -2.327E+02
    -2.324E+02   -2.320E+02   -2.316E+02   -2.312E+02   -2.308E+02   -2.304E+02   -2.299E+02   -2.294E+02   -2.289E+02   -2.283E+02
    -2.277E+02   -2.271E+02   -2.265E+02   -2.259E+02   -2.252E+02   -2.245E+02   -2.238E+02   -2.230E+02   -2.223E+02   -2.215E+02
    -2.207E+02   -2.199E+02   -2.190E+02   -2.182E+02   -2.173E+02   -2.164E+02   -2.155E+02   -2.145E+02   -2.136E+02   -2.126E+02
    -2.116E+02   -2.106E+02   -2.096E+02   -2.086E+02   -2.075E+02   -2.064E+02   -2.054E+02   -2.043E+02   -2.031E+02   -2.020E+02
    -2.009E+02   -1.997E+02   -1.986E+02   -1.974E+02   -1.962E+02   -1.950E+02   -1.938E+02   -1.926E+02   -1.913E+02   -1.901E+02
    -1.888E+02   -1.876E+02   -1.863E+02   -1.850E+02   -1.837E+02   -1.824E+02   -1.811E+02   -1.798E+02   -1.785E+02   -1.772E+02
    -1.759E+02   -1.745E+02   -1.732E+02   -1.719E+02   -1.705E+02   -1.692E+02   -1.678E+02   -1.664E+02   -1.651E+02   -1.637E+02
    -1.624E+02   -1.610E+02   -1.596E+02   -1.583E+02   -1.569E+02   -1.555E+02   -1.541E+02   -1.528E+02   -1.514E+02   -1.500E+02
    -1.487E+02   -1.473E+02   -1.459E+02   -1.446E+02   -1.432E+02   -1.419E+02   -1.405E+02   -1.391E+02   -1.378E+02   -1.364E+02
    -1.351E+02   -1.337E+02   -1.324E+02   -1.310E+02   -1.297E+02   -1.283E+02   -1.270E+02   -1.257E+02   -1.243E+02   -1.230E+02
    -1.216E+02   -1.203E+02   -1.190E+02   -1.177E+02   -1.163E+02   -1.150E+02   -1.137E+02   -1.123E+02   -1.110E+02   -1.097E+02
    -1.084E+02   -1.071E+02   -1.058E+02   -1.045E+02   -1.031E+02   -1.018E+02   -1.005E+02   -9.923E+01   -9.793E+01   -9.663E+01
    -9.534E+01   -9.405E+01   -9.276E+01   -9.147E+01   -9.019E+01   -8.890E+01   -8.762E+01   -8.635E+01   -8.507E+01   -8.380E+01
    -8.253E+01   -8.126E+01   -8.000E+01   -7.874E+01   -7.748E+01   -7.622E+01   -7.497E+01   -7.372E+01   -7.247E+01   -7.123E+01
    -6.999E+01   -6.875E+01   -6.751E+01   -6.628E+01   -6.505E+01   -6.383E+01   -6.260E+01   -6.139E+01   -6.017E+01   -5.896E+01
    -5.775E+01   -5.654E+01   -5.534E+01   -5.413E+01   -5.294E+01   -5.174E+01   -5.055E+01   -4.937E+01   -4.819E+01   -4.701E+01
    -4.583E+01   -4.466E+01   -4.349E+01   -4.232E+01   -4.116E+01   -4.000E+01   -3.885E+01   -3.770E+01   -3.655E+01   -3.541E+01
    -3.427E+01   -3.314E+01   -3.201E+01   -3.088E+01   -2.976E+01   -2.864E+01   -2.752E+01   -2.641E+01
 Ala      Conc. = 2.50E+04
