 LCModel (Version 6.3-1L) Copyright: S.W. Provencher.          Ref.: Magn. Reson. Med. 30:672-679 (1993).                
 Slice#2 Row#8 Col#3  K_02_press_1_raw_act
 36 lines in following concentration table = NCONC+1
    Conc.  %SD /Cr+PCr  Metabolite                                         
   44.062 291% 2.3E-02 Ala                                                 
    0.000 999%   0.000 Asp                                                 
    0.784 999% 4.1E-04 Cr                                                  
 1.93E+03  15%   1.000 PCr                                                 
  160.308 116% 8.3E-02 GABA                                                
    0.000 999%   0.000 Glc                                                 
  578.136  48%   0.300 Gln                                                 
 1.92E+03  18%   0.994 Glu                                                 
  594.444   4%   0.308 GPC                                                 
    0.000 999%   0.000 PCh                                                 
  504.198  18%   0.261 GSH                                                 
  733.873  44%   0.380 Ins                                                 
    0.000 999%   0.000 Lac                                                 
 2.65E+03   5%   1.372 NAA                                                 
  727.041  20%   0.377 NAAG                                                
   75.439  44% 3.9E-02 Scyllo                                              
    0.000 999%   0.000 Tau                                                 
  233.093  59%   0.121 -CrCH2                                              
  594.444   4%   0.308 GPC+PCh                                             
 3.37E+03   3%   1.749 NAA+NAAG                                            
 1.93E+03   4%   1.000 Cr+PCr                                              
 2.50E+03  19%   1.294 Glu+Gln                                             
    0.000 999%   0.000 Lip13a                                              
    0.000 999%   0.000 Lip13b                                              
    0.000 999%   0.000 Lip09                                               
  857.558  20%   0.444 MM09                                                
   58.046 184% 3.0E-02 Lip20                                               
 1.71E+03  17%   0.884 MM20                                                
  281.486  27%   0.146 MM12                                                
    0.000 999%   0.000 MM14                                                
  408.622  37%   0.212 MM17                                                
    0.000 999%   0.000 Lip13a+Lip13b                                       
  281.486  27%   0.146 MM14+Lip13a+Lip13b+MM12                             
  857.558  20%   0.444 MM09+Lip09                                          
 1.76E+03  17%   0.914 MM20+Lip20                                          
   6 lines in following misc. output table
  FWHM = 0.054 ppm    S/N =  12                                            
  Data shift = 0.000 ppm                                                   
  Ph: -61 deg     -17.5 deg/ppm                                            
  alphaB,S = 5.4E-01,   1.7E+02                                            
   14 spline knots.   Ns = 7(1)                                            
  ( 7) 2 infls.   ( 1) 1 extrs.                                            
  498 points on ppm-axis = NY
      4.000000     3.992357     3.984714     3.977070     3.969427     3.961784     3.954141     3.946497     3.938854     3.931211
      3.923568     3.915925     3.908281     3.900638     3.892995     3.885352     3.877708     3.870065     3.862422     3.854779
      3.847136     3.839492     3.831849     3.824206     3.816563     3.808919     3.801276     3.793633     3.785990     3.778347
      3.770703     3.763060     3.755417     3.747774     3.740130     3.732487     3.724844     3.717201     3.709558     3.701914
      3.694271     3.686628     3.678985     3.671341     3.663698     3.656055     3.648412     3.640769     3.633125     3.625482
      3.617839     3.610196     3.602552     3.594909     3.587266     3.579623     3.571980     3.564336     3.556693     3.549050
      3.541407     3.533763     3.526120     3.518477     3.510834     3.503191     3.495547     3.487904     3.480261     3.472618
      3.464974     3.457331     3.449688     3.442045     3.434402     3.426758     3.419115     3.411472     3.403829     3.396185
      3.388542     3.380899     3.373256     3.365613     3.357969     3.350326     3.342683     3.335040     3.327396     3.319753
      3.312110     3.304467     3.296824     3.289180     3.281537     3.273894     3.266251     3.258607     3.250964     3.243321
      3.235678     3.228034     3.220391     3.212748     3.205105     3.197462     3.189818     3.182175     3.174532     3.166889
      3.159245     3.151602     3.143959     3.136316     3.128673     3.121029     3.113386     3.105743     3.098100     3.090456
      3.082813     3.075170     3.067527     3.059884     3.052240     3.044597     3.036954     3.029311     3.021667     3.014024
      3.006381     2.998738     2.991095     2.983451     2.975808     2.968165     2.960522     2.952878     2.945235     2.937592
      2.929949     2.922306     2.914662     2.907019     2.899376     2.891733     2.884089     2.876446     2.868803     2.861160
      2.853517     2.845873     2.838230     2.830587     2.822944     2.815300     2.807657     2.800014     2.792371     2.784728
      2.777084     2.769441     2.761798     2.754155     2.746511     2.738868     2.731225     2.723582     2.715939     2.708295
      2.700652     2.693009     2.685366     2.677722     2.670079     2.662436     2.654793     2.647150     2.639506     2.631863
      2.624220     2.616577     2.608933     2.601290     2.593647     2.586004     2.578361     2.570717     2.563074     2.555431
      2.547788     2.540144     2.532501     2.524858     2.517215     2.509572     2.501928     2.494285     2.486642     2.478999
      2.471355     2.463712     2.456069     2.448426     2.440783     2.433139     2.425496     2.417853     2.410210     2.402566
      2.394923     2.387280     2.379637     2.371994     2.364350     2.356707     2.349064     2.341421     2.333777     2.326134
      2.318491     2.310848     2.303205     2.295561     2.287918     2.280275     2.272632     2.264988     2.257345     2.249702
      2.242059     2.234416     2.226772     2.219129     2.211486     2.203843     2.196199     2.188556     2.180913     2.173270
      2.165627     2.157983     2.150340     2.142697     2.135054     2.127410     2.119767     2.112124     2.104481     2.096838
      2.089194     2.081551     2.073908     2.066265     2.058621     2.050978     2.043335     2.035692     2.028049     2.020405
      2.012762     2.005119     1.997476     1.989833     1.982190     1.974546     1.966903     1.959260     1.951617     1.943974
      1.936331     1.928688     1.921045     1.913402     1.905759     1.898115     1.890472     1.882829     1.875186     1.867543
      1.859900     1.852257     1.844614     1.836971     1.829327     1.821684     1.814041     1.806398     1.798755     1.791112
      1.783469     1.775826     1.768183     1.760540     1.752896     1.745253     1.737610     1.729967     1.722324     1.714681
      1.707038     1.699395     1.691752     1.684108     1.676465     1.668822     1.661179     1.653536     1.645893     1.638250
      1.630607     1.622964     1.615321     1.607677     1.600034     1.592391     1.584748     1.577105     1.569462     1.561819
      1.554176     1.546533     1.538890     1.531246     1.523603     1.515960     1.508317     1.500674     1.493031     1.485388
      1.477745     1.470102     1.462458     1.454815     1.447172     1.439529     1.431886     1.424243     1.416600     1.408957
      1.401314     1.393671     1.386027     1.378384     1.370741     1.363098     1.355455     1.347812     1.340169     1.332526
      1.324883     1.317240     1.309596     1.301953     1.294310     1.286667     1.279024     1.271381     1.263738     1.256095
      1.248452     1.240808     1.233165     1.225522     1.217879     1.210236     1.202593     1.194950     1.187307     1.179664
      1.172021     1.164377     1.156734     1.149091     1.141448     1.133805     1.126162     1.118519     1.110876     1.103233
      1.095590     1.087946     1.080303     1.072660     1.065017     1.057374     1.049731     1.042088     1.034445     1.026802
      1.019158     1.011515     1.003872     0.996229     0.988586     0.980943     0.973300     0.965657     0.958014     0.950371
      0.942727     0.935084     0.927441     0.919798     0.912155     0.904512     0.896869     0.889226     0.881583     0.873940
      0.866296     0.858653     0.851010     0.843367     0.835724     0.828081     0.820438     0.812795     0.805152     0.797508
      0.789865     0.782222     0.774579     0.766936     0.759293     0.751650     0.744007     0.736364     0.728721     0.721077
      0.713434     0.705791     0.698148     0.690505     0.682862     0.675219     0.667576     0.659933     0.652290     0.644646
      0.637003     0.629360     0.621717     0.614074     0.606431     0.598788     0.591145     0.583502     0.575858     0.568215
      0.560572     0.552929     0.545286     0.537643     0.530000     0.522357     0.514714     0.507071     0.499427     0.491784
      0.484141     0.476498     0.468855     0.461212     0.453569     0.445925     0.438282     0.430639     0.422996     0.415353
      0.407710     0.400067     0.392424     0.384780     0.377137     0.369494     0.361851     0.354208     0.346565     0.338922
      0.331278     0.323635     0.315992     0.308349     0.300706     0.293063     0.285420     0.277777     0.270133     0.262490
      0.254847     0.247204     0.239561     0.231918     0.224275     0.216631     0.208988     0.201345
 NY phased data points follow
  -8.92700E+00 -9.46968E+00 -9.63384E+00  1.22010E+00  3.84602E+00  9.84458E+00  1.54523E+01  2.46278E+01  2.61565E+01  2.60199E+01
   2.92932E+01  2.52275E+01  1.75948E+01  9.57024E+00  5.87339E+00  8.64154E-01 -6.81880E+00 -7.73490E+00 -7.19774E+00 -7.05420E+00
  -4.02790E+00 -1.83962E+00 -4.19615E+00  3.80906E-02  2.56804E-01  2.82586E+00 -1.30983E+00  7.26448E+00  2.20498E+00  5.00405E+00
   4.10630E+00  1.09740E+00 -1.08537E+00  3.75612E+00 -1.09910E+00  8.82412E-02  2.43194E-01  6.23460E-01 -5.31026E+00  4.29818E+00
   2.48469E+00  5.29554E+00  1.95827E+00  3.41533E+00  8.22868E+00  1.01117E+01  8.19910E+00  1.11603E+01 -5.39571E-01  8.14015E+00
   6.47443E-01 -9.25747E-03  2.05763E+00  3.89808E+00 -6.69805E-01 -8.04896E-01  5.62487E+00 -6.06960E-01 -8.51840E+00 -2.05408E+00
  -7.23249E+00 -6.91263E+00 -8.02648E+00 -1.07325E+01 -1.35985E+01 -1.11192E+01 -1.05751E+01 -3.75568E+00 -3.03842E+00 -6.51948E+00
  -3.07354E+00 -3.07926E+00 -4.32546E+00 -1.46368E+00 -5.01585E+00 -6.68963E+00 -6.23672E+00 -6.49902E+00 -1.03001E+01 -5.57254E+00
  -8.76221E+00 -4.35867E+00 -7.07105E+00 -2.41812E+00 -2.53239E+00  2.72016E+00 -2.62604E+00  5.96772E-01  3.21850E+00 -4.51477E+00
   2.59517E+00  3.82217E-01  4.04039E+00  8.40252E+00  2.91239E+00  7.48566E+00  1.07304E+01  1.18220E+01  2.12602E+01  2.95394E+01
   4.35789E+01  4.99840E+01  5.69944E+01  4.84313E+01  3.50467E+01  2.86152E+01  2.64563E+01  1.82990E+01  1.45822E+01  1.22319E+01
   8.87589E+00  4.70152E+00  7.66016E+00  7.86326E+00  7.07172E+00  2.17617E+00  8.53815E+00  7.77613E+00  9.12055E+00  9.01363E+00
   1.55671E+01  2.42647E+01  2.66824E+01  3.39044E+01  4.33710E+01  5.46528E+01  6.01195E+01  6.66151E+01  5.82391E+01  4.05032E+01
   3.33734E+01  2.56621E+01  1.94092E+01  8.45544E+00  9.12655E+00  3.80262E+00  5.59509E+00 -3.70746E-01  3.83948E+00  1.49986E+00
   2.97410E+00  4.18519E+00  4.17089E+00  8.00167E+00 -9.62389E-01  5.28364E+00  5.88260E+00  6.24481E+00  1.41275E+00  4.15709E+00
  -6.77915E-01 -1.58860E+00  2.85219E+00  3.09053E+00  9.86579E-01 -1.89765E+00  2.36505E+00  5.44404E+00 -1.05941E-01  1.78190E+00
  -1.01954E+00 -1.62530E+00 -7.32101E+00 -1.49277E+00 -2.39859E+00  2.83313E-01 -2.04394E+00 -3.10869E+00 -3.56814E+00 -5.33827E+00
  -8.74419E+00 -9.72069E+00 -9.59978E+00 -1.34978E+01 -1.21138E+01 -9.65971E+00 -1.09319E+01 -1.74465E+01 -1.53259E+01 -1.17780E+01
  -7.74466E+00 -1.10492E+01 -9.04167E+00 -1.26960E+01 -8.88481E+00 -6.73394E+00 -4.67844E+00 -4.06114E+00  1.88595E+00  3.40184E+00
   8.27405E+00  1.18985E+01  8.06143E+00  9.27210E+00  5.20643E+00  5.11221E+00  3.29151E+00  1.16847E+00  7.83866E-03  3.79284E-01
   1.83767E-01  7.44275E-01  4.58901E+00  6.56518E+00  6.55199E+00  4.97730E+00  7.49863E+00 -3.56790E+00 -5.18821E+00 -3.09898E+00
   3.77008E+00 -4.38964E-01  3.69456E+00  1.25569E+01  1.19353E+01  1.70845E+01  1.32272E+01  1.09092E+01  9.33625E+00  1.14534E+01
   5.37667E-01  4.69303E+00 -1.70818E+00  3.92735E+00  7.00850E+00  9.64887E+00  1.29401E+01  1.54604E+01  1.32171E+01  1.31979E+01
   1.61114E+01  1.58152E+01  1.53053E+01  1.21387E+01  1.21036E+01  1.69148E+01  9.22474E+00  9.93801E+00  1.19072E+01  1.30183E+01
   1.26693E+01  1.02131E+01  1.05591E+01  1.31448E+01  1.36351E+01  1.43365E+01  2.33891E+01  2.33508E+01  2.05584E+01  2.54240E+01
   3.09311E+01  3.28928E+01  3.74373E+01  4.17945E+01  5.15757E+01  6.31804E+01  7.34363E+01  8.23382E+01  9.09930E+01  1.07249E+02
   1.11161E+02  1.04401E+02  9.35545E+01  7.42671E+01  5.56578E+01  4.04713E+01  3.25278E+01  2.54427E+01  2.16869E+01  1.65994E+01
   1.07293E+01  2.21370E+01  1.60711E+01  1.65647E+01  1.98005E+01  1.89543E+01  1.56937E+01  2.50380E+01  1.69861E+01  1.56038E+01
   1.69273E+01  1.69379E+01  1.30153E+01  1.36950E+01  1.32017E+01  1.43431E+01  8.12566E+00  8.95029E+00  1.19385E+01  1.20834E+01
   1.15676E+01  1.16410E+01  1.14779E+01  1.59215E+01  8.68433E+00  1.04903E+01  1.28894E+01  1.26344E+01  1.42227E+01  1.05941E+01
   1.40457E+01  9.30245E+00  1.28234E+01  1.47879E+01  1.32208E+01  1.39294E+01  1.16261E+01  7.92209E+00  1.70215E+01  1.24641E+01
   1.14862E+01  1.60974E+01  1.43863E+01  1.67536E+01  1.12597E+01  1.40075E+01  1.36423E+01  1.26168E+01  1.21435E+01  9.86596E+00
   1.25336E+01  8.45274E+00  1.20808E+01  1.09202E+01  1.14607E+01  8.92770E+00  7.33061E+00  9.17935E+00  8.16854E+00  6.62426E+00
   7.52443E+00  5.31000E+00  1.13606E+01  7.87989E+00  1.05979E+01  8.78982E+00  8.33554E+00  8.89481E+00  1.46135E+01  9.34897E+00
   4.47056E+00  6.07862E+00  2.23457E+00  4.02546E+00  6.90578E+00  6.74262E+00  3.84144E+00  8.27875E+00  4.86321E+00  7.95661E+00
   6.34580E+00  8.67493E+00  9.61377E+00  4.05512E+00  8.48740E+00  1.17617E+01  7.47226E+00  9.53258E+00  1.02307E+01  1.05990E+01
   1.20145E+01  9.16368E+00  9.05992E+00  1.19318E+01  1.22320E+01  1.67193E+01  1.49403E+01  1.42482E+01  1.62599E+01  1.16576E+01
   1.09926E+01  1.79904E+01  1.02455E+01  1.20395E+01  9.93151E+00  9.34568E+00  1.55848E+01  1.07703E+01  8.42702E+00  1.01433E+01
   1.15906E+01  1.04615E+01  8.69407E+00  1.05614E+01  1.19542E+01  8.37392E+00  1.57813E+01  3.62690E+00  9.83958E+00  7.79059E+00
   6.38335E+00  1.44818E+01  9.58401E+00  7.91201E+00  1.52482E+01  9.66793E+00  1.35652E+01  1.19464E+01  9.39473E+00  1.37498E+01
   1.47526E+01  1.34171E+01  8.02287E+00  9.10447E+00  8.31567E+00  1.36256E+01  1.16653E+01  1.21946E+01  1.35568E+01  1.07492E+01
   1.02290E+01  6.68891E+00  9.71581E+00  1.01129E+01  6.09526E+00  8.74406E+00  3.04309E+00  6.93533E+00  2.50807E+00  6.90006E+00
   6.11171E+00  4.84716E+00  8.25360E+00  6.54657E+00  6.26760E+00  5.06299E+00  3.00290E+00  7.70184E+00  8.09945E+00  6.47238E+00
   8.06544E+00  6.89464E+00  6.00359E+00  6.74981E+00  6.02469E+00  6.56921E+00  1.05810E+01  8.56646E+00  1.01430E+01  6.73564E+00
   4.81966E+00  7.49136E+00  6.79417E+00  9.58866E+00  8.95021E+00  7.78522E+00  8.37448E+00  7.54005E+00  5.94750E+00  9.65083E+00
   6.37722E+00  8.93429E+00  8.84474E+00  9.28303E+00  5.92510E+00  8.20478E+00  6.16960E+00  6.19938E+00  9.33065E+00  5.43198E+00
   7.64919E+00  4.17197E+00  1.14659E+01  7.81340E+00  1.04283E+01  2.84808E+00  7.07816E+00  5.21128E+00  7.53710E+00  9.83452E+00
   7.93192E+00  8.06918E+00  6.78914E+00  2.82355E+00  1.18247E+01  7.26542E+00  7.13111E+00  1.51868E+00  1.13823E+01  6.84517E+00
   8.68067E+00  7.65200E+00  4.17377E+00  6.11893E+00  9.97699E+00  7.22137E+00  7.88392E+00  7.15704E+00  1.09937E+01  1.18006E+00
   6.01722E+00  6.97708E+00  7.93624E+00  5.56152E+00  5.76847E+00  9.24653E+00  1.16418E+01  4.63911E+00
 NY points of the fit to the data follow
  -9.70766E+00 -8.38687E+00 -4.95132E+00 -2.27518E-01  5.06316E+00  1.10393E+01  1.76212E+01  2.38062E+01  2.79114E+01  2.86432E+01
   2.58754E+01  2.07551E+01  1.50130E+01  9.91315E+00  5.85619E+00  2.63633E+00 -6.28348E-02 -2.10144E+00 -3.11399E+00 -3.60358E+00
  -3.93015E+00 -4.25925E+00 -4.27167E+00 -3.71512E+00 -2.93374E+00 -1.90180E+00 -3.87625E-01  1.58906E+00  3.70569E+00  5.44511E+00
   6.49398E+00  6.69152E+00  6.03496E+00  4.70755E+00  2.95431E+00  1.01530E+00 -8.77881E-01 -2.52110E+00 -3.43358E+00 -3.36192E+00
  -2.58781E+00 -1.45485E+00 -2.36334E-01  9.26282E-01  1.98129E+00  2.81805E+00  3.28061E+00  3.19400E+00  2.52221E+00  1.44285E+00
   2.30048E-01 -8.52684E-01 -1.64638E+00 -2.17655E+00 -2.46809E+00 -2.53816E+00 -2.43510E+00 -2.24625E+00 -2.07245E+00 -2.01117E+00
  -2.12630E+00 -2.42188E+00 -2.82066E+00 -3.20611E+00 -3.44209E+00 -3.47599E+00 -3.36043E+00 -3.15432E+00 -2.89413E+00 -2.62364E+00
  -2.38712E+00 -2.23231E+00 -2.18310E+00 -2.22722E+00 -2.32593E+00 -2.43145E+00 -2.50948E+00 -2.55084E+00 -2.55018E+00 -2.45078E+00
  -2.12598E+00 -1.71603E+00 -1.30805E+00 -8.63608E-01 -3.75138E-01  5.26120E-02  2.60835E-01  1.62320E-01 -1.91801E-01 -6.21774E-01
  -9.67652E-01 -1.15221E+00 -1.16760E+00 -9.83073E-01 -1.80124E-01  2.95458E+00  8.80969E+00  1.57316E+01  2.34021E+01  3.22019E+01
   4.14730E+01  4.89888E+01  5.21771E+01  4.98187E+01  4.28124E+01  3.36280E+01  2.47245E+01  1.73709E+01  1.16349E+01  7.06118E+00
   3.51127E+00  1.53095E+00  8.90481E-01  6.63096E-01  5.76534E-01  5.80978E-01  6.61599E-01  8.82216E-01  1.55319E+00  4.14775E+00
   1.01554E+01  1.78936E+01  2.64047E+01  3.60549E+01  4.66356E+01  5.61910E+01  6.17998E+01  6.13935E+01  5.51096E+01  4.53193E+01
   3.49717E+01  2.58674E+01  1.83920E+01  1.21054E+01  6.82142E+00  3.19840E+00  1.74057E+00  1.47570E+00  1.80730E+00  2.39817E+00
   2.95289E+00  3.30065E+00  3.40728E+00  3.27763E+00  2.98003E+00  2.62309E+00  2.24337E+00  1.82459E+00  1.40514E+00  1.02121E+00
   7.06556E-01  4.60361E-01  2.90957E-01  1.91226E-01  9.30284E-02 -4.78049E-02 -1.92794E-01 -3.71734E-01 -6.11301E-01 -9.47539E-01
  -1.37317E+00 -1.70517E+00 -1.80650E+00 -1.74462E+00 -1.68904E+00 -1.82324E+00 -2.21896E+00 -2.77976E+00 -3.35074E+00 -3.84964E+00
  -4.31850E+00 -4.70778E+00 -5.04225E+00 -5.40616E+00 -5.79395E+00 -6.10820E+00 -6.13801E+00 -5.84254E+00 -5.44955E+00 -5.18861E+00
  -5.13335E+00 -5.10835E+00 -4.76994E+00 -4.04023E+00 -3.04988E+00 -1.90995E+00 -6.39392E-01  8.50653E-01  2.50001E+00  3.99901E+00
   4.95955E+00  5.20485E+00  4.87345E+00  4.23652E+00  3.59236E+00  3.20316E+00  3.18826E+00  3.65732E+00  4.61237E+00  5.85073E+00
   7.13410E+00  8.24552E+00  9.01555E+00  9.11602E+00  8.47315E+00  7.17118E+00  5.25468E+00  3.05645E+00  1.23717E+00  5.27072E-01
   1.12157E+00  2.65899E+00  4.90357E+00  7.59666E+00  1.01552E+01  1.16646E+01  1.14309E+01  9.59509E+00  6.85632E+00  3.79495E+00
   1.14265E+00 -3.90047E-01 -4.17843E-01  1.02699E+00  3.46809E+00  6.29600E+00  8.85082E+00  1.06331E+01  1.16255E+01  1.20683E+01
   1.23688E+01  1.27062E+01  1.31176E+01  1.36728E+01  1.42862E+01  1.46951E+01  1.46287E+01  1.41887E+01  1.36280E+01  1.30519E+01
   1.24983E+01  1.22108E+01  1.24581E+01  1.32610E+01  1.44092E+01  1.56309E+01  1.67742E+01  1.78229E+01  1.93015E+01  2.19341E+01
   2.52734E+01  2.90871E+01  3.38088E+01  4.13074E+01  5.31896E+01  6.56843E+01  7.64413E+01  8.62999E+01  9.61929E+01  1.04571E+02
   1.07947E+02  1.03577E+02  9.15567E+01  7.50733E+01  5.86052E+01  4.50606E+01  3.46523E+01  2.65192E+01  2.00136E+01  1.56884E+01
   1.41116E+01  1.36765E+01  1.35795E+01  1.36278E+01  1.36718E+01  1.36058E+01  1.34405E+01  1.32015E+01  1.29268E+01  1.26625E+01
   1.24438E+01  1.22748E+01  1.21559E+01  1.20875E+01  1.20572E+01  1.20479E+01  1.20470E+01  1.20505E+01  1.20668E+01  1.21069E+01
   1.21713E+01  1.22534E+01  1.23381E+01  1.24107E+01  1.24654E+01  1.25060E+01  1.25384E+01  1.25700E+01  1.26074E+01  1.26533E+01
   1.27086E+01  1.27704E+01  1.28278E+01  1.28691E+01  1.28878E+01  1.28820E+01  1.28518E+01  1.27966E+01  1.27164E+01  1.26157E+01
   1.24973E+01  1.23638E+01  1.22187E+01  1.20656E+01  1.19080E+01  1.17492E+01  1.15927E+01  1.14424E+01  1.13034E+01  1.11843E+01
   1.10953E+01  1.10139E+01  1.09172E+01  1.08090E+01  1.06885E+01  1.05363E+01  1.03285E+01  1.00616E+01  9.78437E+00  9.55942E+00
   9.40957E+00  9.34047E+00  9.35204E+00  9.43540E+00  9.56532E+00  9.70488E+00  9.81706E+00  9.86764E+00  9.85415E+00  9.80349E+00
   9.74080E+00  9.67889E+00  9.61885E+00  9.55972E+00  9.51273E+00  9.48522E+00  9.47039E+00  9.46449E+00  9.46576E+00  9.47304E+00
   9.48554E+00  9.50275E+00  9.52415E+00  9.54901E+00  9.57634E+00  9.60507E+00  9.63421E+00  9.66289E+00  9.69010E+00  9.71466E+00
   9.73536E+00  9.75118E+00  9.76143E+00  9.76569E+00  9.76364E+00  9.75509E+00  9.74012E+00  9.71931E+00  9.69364E+00  9.66442E+00
   9.63304E+00  9.60104E+00  9.57022E+00  9.54274E+00  9.52093E+00  9.50707E+00  9.50329E+00  9.51167E+00  9.53428E+00  9.57321E+00
   9.63030E+00  9.70700E+00  9.80425E+00  9.92265E+00  1.00624E+01  1.02233E+01  1.04044E+01  1.06036E+01  1.08184E+01  1.10452E+01
   1.12801E+01  1.15182E+01  1.17540E+01  1.19812E+01  1.21934E+01  1.23841E+01  1.25473E+01  1.26771E+01  1.27684E+01  1.28171E+01
   1.28201E+01  1.27760E+01  1.26849E+01  1.25481E+01  1.23682E+01  1.21493E+01  1.18962E+01  1.16151E+01  1.13123E+01  1.09943E+01
   1.06675E+01  1.03381E+01  1.00117E+01  9.69353E+00  9.38779E+00  9.09774E+00  8.82578E+00  8.57359E+00  8.34218E+00  8.13192E+00
   7.94251E+00  7.77311E+00  7.62261E+00  7.48980E+00  7.37339E+00  7.27196E+00  7.18397E+00  7.10790E+00  7.04240E+00  6.98631E+00
   6.93862E+00  6.89829E+00  6.86434E+00  6.83589E+00  6.81227E+00  6.79301E+00  6.77762E+00  6.76558E+00  6.75642E+00  6.74974E+00
   6.74532E+00  6.74302E+00  6.74260E+00  6.74378E+00  6.74629E+00  6.74999E+00  6.75485E+00  6.76080E+00  6.76768E+00  6.77530E+00
   6.78351E+00  6.79230E+00  6.80169E+00  6.81164E+00  6.82201E+00  6.83269E+00  6.84365E+00  6.85495E+00  6.86663E+00  6.87863E+00
   6.89084E+00  6.90320E+00  6.91573E+00  6.92851E+00  6.94156E+00  6.95480E+00  6.96813E+00  6.98152E+00  6.99506E+00  7.00881E+00
   7.02275E+00  7.03679E+00  7.05087E+00  7.06500E+00  7.07929E+00  7.09377E+00  7.10839E+00  7.12304E+00  7.13772E+00  7.15248E+00
   7.16742E+00  7.18252E+00  7.19773E+00  7.21296E+00  7.22825E+00  7.24368E+00  7.25933E+00  7.27515E+00  7.29108E+00  7.30707E+00
   7.32321E+00  7.33960E+00  7.35628E+00  7.37318E+00  7.39027E+00  7.40757E+00  7.42522E+00  7.44332E+00
 NY background values follow
    -1.150E+01   -1.139E+01   -1.128E+01   -1.117E+01   -1.106E+01   -1.095E+01   -1.085E+01   -1.074E+01   -1.063E+01   -1.052E+01
    -1.041E+01   -1.030E+01   -1.019E+01   -1.009E+01   -9.978E+00   -9.871E+00   -9.763E+00   -9.656E+00   -9.549E+00   -9.442E+00
    -9.336E+00   -9.229E+00   -9.123E+00   -9.017E+00   -8.912E+00   -8.806E+00   -8.701E+00   -8.596E+00   -8.492E+00   -8.387E+00
    -8.283E+00   -8.179E+00   -8.076E+00   -7.972E+00   -7.869E+00   -7.767E+00   -7.664E+00   -7.562E+00   -7.460E+00   -7.359E+00
    -7.258E+00   -7.157E+00   -7.056E+00   -6.956E+00   -6.856E+00   -6.757E+00   -6.658E+00   -6.559E+00   -6.461E+00   -6.363E+00
    -6.265E+00   -6.168E+00   -6.071E+00   -5.974E+00   -5.878E+00   -5.783E+00   -5.688E+00   -5.593E+00   -5.499E+00   -5.405E+00
    -5.312E+00   -5.219E+00   -5.127E+00   -5.035E+00   -4.944E+00   -4.853E+00   -4.763E+00   -4.673E+00   -4.584E+00   -4.496E+00
    -4.408E+00   -4.320E+00   -4.234E+00   -4.148E+00   -4.062E+00   -3.977E+00   -3.893E+00   -3.809E+00   -3.726E+00   -3.644E+00
    -3.562E+00   -3.481E+00   -3.401E+00   -3.321E+00   -3.243E+00   -3.164E+00   -3.087E+00   -3.010E+00   -2.934E+00   -2.859E+00
    -2.785E+00   -2.711E+00   -2.638E+00   -2.566E+00   -2.495E+00   -2.425E+00   -2.355E+00   -2.287E+00   -2.219E+00   -2.152E+00
    -2.086E+00   -2.021E+00   -1.957E+00   -1.894E+00   -1.833E+00   -1.772E+00   -1.712E+00   -1.653E+00   -1.596E+00   -1.539E+00
    -1.484E+00   -1.430E+00   -1.377E+00   -1.325E+00   -1.274E+00   -1.225E+00   -1.176E+00   -1.130E+00   -1.084E+00   -1.040E+00
    -9.966E-01   -9.550E-01   -9.147E-01   -8.758E-01   -8.383E-01   -8.022E-01   -7.675E-01   -7.343E-01   -7.026E-01   -6.724E-01
    -6.437E-01   -6.165E-01   -5.908E-01   -5.668E-01   -5.443E-01   -5.234E-01   -5.042E-01   -4.866E-01   -4.704E-01   -4.555E-01
    -4.419E-01   -4.294E-01   -4.180E-01   -4.074E-01   -3.975E-01   -3.884E-01   -3.797E-01   -3.715E-01   -3.636E-01   -3.558E-01
    -3.482E-01   -3.405E-01   -3.326E-01   -3.244E-01   -3.158E-01   -3.068E-01   -2.971E-01   -2.866E-01   -2.753E-01   -2.630E-01
    -2.496E-01   -2.349E-01   -2.190E-01   -2.016E-01   -1.826E-01   -1.620E-01   -1.395E-01   -1.152E-01   -8.877E-02   -6.022E-02
    -2.941E-02    3.781E-03    3.947E-02    7.778E-02    1.188E-01    1.627E-01    2.096E-01    2.595E-01    3.126E-01    3.691E-01
     4.290E-01    4.924E-01    5.595E-01    6.300E-01    7.040E-01    7.812E-01    8.617E-01    9.453E-01    1.032E+00    1.122E+00
     1.214E+00    1.309E+00    1.407E+00    1.507E+00    1.610E+00    1.715E+00    1.822E+00    1.932E+00    2.044E+00    2.157E+00
     2.272E+00    2.390E+00    2.508E+00    2.629E+00    2.751E+00    2.874E+00    2.998E+00    3.124E+00    3.251E+00    3.379E+00
     3.507E+00    3.637E+00    3.767E+00    3.898E+00    4.029E+00    4.161E+00    4.293E+00    4.425E+00    4.557E+00    4.689E+00
     4.822E+00    4.954E+00    5.086E+00    5.217E+00    5.348E+00    5.478E+00    5.608E+00    5.737E+00    5.865E+00    5.993E+00
     6.119E+00    6.244E+00    6.369E+00    6.492E+00    6.615E+00    6.736E+00    6.856E+00    6.975E+00    7.092E+00    7.208E+00
     7.323E+00    7.436E+00    7.548E+00    7.658E+00    7.767E+00    7.874E+00    7.979E+00    8.083E+00    8.185E+00    8.285E+00
     8.383E+00    8.479E+00    8.573E+00    8.665E+00    8.755E+00    8.843E+00    8.929E+00    9.012E+00    9.094E+00    9.173E+00
     9.249E+00    9.323E+00    9.395E+00    9.464E+00    9.531E+00    9.595E+00    9.656E+00    9.715E+00    9.770E+00    9.823E+00
     9.874E+00    9.921E+00    9.965E+00    1.001E+01    1.004E+01    1.008E+01    1.011E+01    1.014E+01    1.017E+01    1.020E+01
     1.022E+01    1.024E+01    1.026E+01    1.027E+01    1.028E+01    1.030E+01    1.030E+01    1.031E+01    1.031E+01    1.032E+01
     1.032E+01    1.031E+01    1.031E+01    1.031E+01    1.030E+01    1.029E+01    1.028E+01    1.027E+01    1.025E+01    1.024E+01
     1.022E+01    1.020E+01    1.018E+01    1.016E+01    1.014E+01    1.012E+01    1.009E+01    1.007E+01    1.004E+01    1.002E+01
     9.987E+00    9.958E+00    9.928E+00    9.898E+00    9.867E+00    9.835E+00    9.803E+00    9.770E+00    9.736E+00    9.703E+00
     9.668E+00    9.634E+00    9.598E+00    9.563E+00    9.527E+00    9.491E+00    9.454E+00    9.417E+00    9.379E+00    9.342E+00
     9.304E+00    9.265E+00    9.227E+00    9.188E+00    9.149E+00    9.109E+00    9.070E+00    9.030E+00    8.990E+00    8.950E+00
     8.910E+00    8.869E+00    8.829E+00    8.788E+00    8.747E+00    8.707E+00    8.666E+00    8.625E+00    8.584E+00    8.543E+00
     8.502E+00    8.461E+00    8.420E+00    8.379E+00    8.338E+00    8.297E+00    8.256E+00    8.216E+00    8.175E+00    8.135E+00
     8.095E+00    8.055E+00    8.015E+00    7.975E+00    7.935E+00    7.896E+00    7.857E+00    7.818E+00    7.780E+00    7.742E+00
     7.704E+00    7.667E+00    7.630E+00    7.593E+00    7.557E+00    7.521E+00    7.486E+00    7.452E+00    7.417E+00    7.384E+00
     7.351E+00    7.318E+00    7.286E+00    7.255E+00    7.225E+00    7.195E+00    7.165E+00    7.137E+00    7.109E+00    7.082E+00
     7.056E+00    7.030E+00    7.006E+00    6.982E+00    6.959E+00    6.937E+00    6.916E+00    6.896E+00    6.877E+00    6.859E+00
     6.842E+00    6.825E+00    6.810E+00    6.796E+00    6.783E+00    6.771E+00    6.761E+00    6.751E+00    6.743E+00    6.735E+00
     6.729E+00    6.724E+00    6.720E+00    6.717E+00    6.715E+00    6.714E+00    6.714E+00    6.714E+00    6.716E+00    6.719E+00
     6.722E+00    6.726E+00    6.731E+00    6.737E+00    6.743E+00    6.750E+00    6.758E+00    6.767E+00    6.776E+00    6.785E+00
     6.796E+00    6.807E+00    6.818E+00    6.830E+00    6.842E+00    6.855E+00    6.868E+00    6.881E+00    6.895E+00    6.909E+00
     6.924E+00    6.939E+00    6.954E+00    6.969E+00    6.984E+00    7.000E+00    7.016E+00    7.032E+00    7.048E+00    7.064E+00
     7.080E+00    7.096E+00    7.112E+00    7.128E+00    7.144E+00    7.160E+00    7.176E+00    7.192E+00    7.208E+00    7.224E+00
     7.240E+00    7.255E+00    7.271E+00    7.287E+00    7.303E+00    7.318E+00    7.334E+00    7.349E+00    7.365E+00    7.380E+00
     7.396E+00    7.411E+00    7.427E+00    7.442E+00    7.457E+00    7.472E+00    7.488E+00    7.503E+00    7.518E+00    7.533E+00
     7.548E+00    7.563E+00    7.578E+00    7.593E+00    7.608E+00    7.622E+00    7.637E+00    7.652E+00    7.666E+00    7.681E+00
     7.696E+00    7.710E+00    7.725E+00    7.739E+00    7.753E+00    7.768E+00    7.782E+00    7.796E+00
 Ala      Conc. = 4.41E+01
