 LCModel (Version 6.3-1L) Copyright: S.W. Provencher.          Ref.: Magn. Reson. Med. 30:672-679 (1993).                
 Slice#3 Row#10 Col#7  K_02_press_1_raw_act
 36 lines in following concentration table = NCONC+1
    Conc.  %SD /Cr+PCr  Metabolite                                         
   24.419 577% 1.2E-02 Ala                                                 
    0.000 999%   0.000 Asp                                                 
 1.67E+03  16%   0.817 Cr                                                  
  372.843  72%   0.183 PCr                                                 
    0.000 999%   0.000 GABA                                                
    0.000 999%   0.000 Glc                                                 
 1.27E+03  25%   0.624 Gln                                                 
 1.90E+03  18%   0.932 Glu                                                 
  478.595   5%   0.235 GPC                                                 
    0.000 999%   0.000 PCh                                                 
  781.425  11%   0.383 GSH                                                 
 1.57E+03  17%   0.770 Ins                                                 
   85.716 212% 4.2E-02 Lac                                                 
 1.93E+03   7%   0.944 NAA                                                 
  386.423  40%   0.189 NAAG                                                
    0.000 999%   0.000 Scyllo                                              
    0.000 999%   0.000 Tau                                                 
    0.000 999%   0.000 -CrCH2                                              
  478.595   5%   0.235 GPC+PCh                                             
 2.31E+03   4%   1.134 NAA+NAAG                                            
 2.04E+03   3%   1.000 Cr+PCr                                              
 3.17E+03  17%   1.556 Glu+Gln                                             
    0.000 999%   0.000 Lip13a                                              
  397.806  50%   0.195 Lip13b                                              
   36.064 291% 1.8E-02 Lip09                                               
 1.38E+03  16%   0.678 MM09                                                
   81.978  85% 4.0E-02 Lip20                                               
 3.54E+03  11%   1.737 MM20                                                
  413.583  36%   0.203 MM12                                                
  996.348  30%   0.488 MM14                                                
  818.692  27%   0.401 MM17                                                
  397.806  50%   0.195 Lip13a+Lip13b                                       
 1.81E+03  19%   0.886 MM14+Lip13a+Lip13b+MM12                             
 1.42E+03  14%   0.695 MM09+Lip09                                          
 3.63E+03  10%   1.778 MM20+Lip20                                          
   6 lines in following misc. output table
  FWHM = 0.061 ppm    S/N =  11                                            
  Data shift = 0.038 ppm                                                   
  Ph:  27 deg       3.7 deg/ppm                                            
  alphaB,S = 1.3E+00,   5.1E+01                                            
   14 spline knots.   Ns = 8(1)                                            
  (13) 9 infls.   (11) 1 extrs.                                            
  498 points on ppm-axis = NY
      4.000000     3.992357     3.984714     3.977070     3.969427     3.961784     3.954141     3.946497     3.938854     3.931211
      3.923568     3.915925     3.908281     3.900638     3.892995     3.885352     3.877708     3.870065     3.862422     3.854779
      3.847136     3.839492     3.831849     3.824206     3.816563     3.808919     3.801276     3.793633     3.785990     3.778347
      3.770703     3.763060     3.755417     3.747774     3.740130     3.732487     3.724844     3.717201     3.709558     3.701914
      3.694271     3.686628     3.678985     3.671341     3.663698     3.656055     3.648412     3.640769     3.633125     3.625482
      3.617839     3.610196     3.602552     3.594909     3.587266     3.579623     3.571980     3.564336     3.556693     3.549050
      3.541407     3.533763     3.526120     3.518477     3.510834     3.503191     3.495547     3.487904     3.480261     3.472618
      3.464974     3.457331     3.449688     3.442045     3.434402     3.426758     3.419115     3.411472     3.403829     3.396185
      3.388542     3.380899     3.373256     3.365613     3.357969     3.350326     3.342683     3.335040     3.327396     3.319753
      3.312110     3.304467     3.296824     3.289180     3.281537     3.273894     3.266251     3.258607     3.250964     3.243321
      3.235678     3.228034     3.220391     3.212748     3.205105     3.197462     3.189818     3.182175     3.174532     3.166889
      3.159245     3.151602     3.143959     3.136316     3.128673     3.121029     3.113386     3.105743     3.098100     3.090456
      3.082813     3.075170     3.067527     3.059884     3.052240     3.044597     3.036954     3.029311     3.021667     3.014024
      3.006381     2.998738     2.991095     2.983451     2.975808     2.968165     2.960522     2.952878     2.945235     2.937592
      2.929949     2.922306     2.914662     2.907019     2.899376     2.891733     2.884089     2.876446     2.868803     2.861160
      2.853517     2.845873     2.838230     2.830587     2.822944     2.815300     2.807657     2.800014     2.792371     2.784728
      2.777084     2.769441     2.761798     2.754155     2.746511     2.738868     2.731225     2.723582     2.715939     2.708295
      2.700652     2.693009     2.685366     2.677722     2.670079     2.662436     2.654793     2.647150     2.639506     2.631863
      2.624220     2.616577     2.608933     2.601290     2.593647     2.586004     2.578361     2.570717     2.563074     2.555431
      2.547788     2.540144     2.532501     2.524858     2.517215     2.509572     2.501928     2.494285     2.486642     2.478999
      2.471355     2.463712     2.456069     2.448426     2.440783     2.433139     2.425496     2.417853     2.410210     2.402566
      2.394923     2.387280     2.379637     2.371994     2.364350     2.356707     2.349064     2.341421     2.333777     2.326134
      2.318491     2.310848     2.303205     2.295561     2.287918     2.280275     2.272632     2.264988     2.257345     2.249702
      2.242059     2.234416     2.226772     2.219129     2.211486     2.203843     2.196199     2.188556     2.180913     2.173270
      2.165627     2.157983     2.150340     2.142697     2.135054     2.127410     2.119767     2.112124     2.104481     2.096838
      2.089194     2.081551     2.073908     2.066265     2.058621     2.050978     2.043335     2.035692     2.028049     2.020405
      2.012762     2.005119     1.997476     1.989833     1.982190     1.974546     1.966903     1.959260     1.951617     1.943974
      1.936331     1.928688     1.921045     1.913402     1.905759     1.898115     1.890472     1.882829     1.875186     1.867543
      1.859900     1.852257     1.844614     1.836971     1.829327     1.821684     1.814041     1.806398     1.798755     1.791112
      1.783469     1.775826     1.768183     1.760540     1.752896     1.745253     1.737610     1.729967     1.722324     1.714681
      1.707038     1.699395     1.691752     1.684108     1.676465     1.668822     1.661179     1.653536     1.645893     1.638250
      1.630607     1.622964     1.615321     1.607677     1.600034     1.592391     1.584748     1.577105     1.569462     1.561819
      1.554176     1.546533     1.538890     1.531246     1.523603     1.515960     1.508317     1.500674     1.493031     1.485388
      1.477745     1.470102     1.462458     1.454815     1.447172     1.439529     1.431886     1.424243     1.416600     1.408957
      1.401314     1.393671     1.386027     1.378384     1.370741     1.363098     1.355455     1.347812     1.340169     1.332526
      1.324883     1.317240     1.309596     1.301953     1.294310     1.286667     1.279024     1.271381     1.263738     1.256095
      1.248452     1.240808     1.233165     1.225522     1.217879     1.210236     1.202593     1.194950     1.187307     1.179664
      1.172021     1.164377     1.156734     1.149091     1.141448     1.133805     1.126162     1.118519     1.110876     1.103233
      1.095590     1.087946     1.080303     1.072660     1.065017     1.057374     1.049731     1.042088     1.034445     1.026802
      1.019158     1.011515     1.003872     0.996229     0.988586     0.980943     0.973300     0.965657     0.958014     0.950371
      0.942727     0.935084     0.927441     0.919798     0.912155     0.904512     0.896869     0.889226     0.881583     0.873940
      0.866296     0.858653     0.851010     0.843367     0.835724     0.828081     0.820438     0.812795     0.805152     0.797508
      0.789865     0.782222     0.774579     0.766936     0.759293     0.751650     0.744007     0.736364     0.728721     0.721077
      0.713434     0.705791     0.698148     0.690505     0.682862     0.675219     0.667576     0.659933     0.652290     0.644646
      0.637003     0.629360     0.621717     0.614074     0.606431     0.598788     0.591145     0.583502     0.575858     0.568215
      0.560572     0.552929     0.545286     0.537643     0.530000     0.522357     0.514714     0.507071     0.499427     0.491784
      0.484141     0.476498     0.468855     0.461212     0.453569     0.445925     0.438282     0.430639     0.422996     0.415353
      0.407710     0.400067     0.392424     0.384780     0.377137     0.369494     0.361851     0.354208     0.346565     0.338922
      0.331278     0.323635     0.315992     0.308349     0.300706     0.293063     0.285420     0.277777     0.270133     0.262490
      0.254847     0.247204     0.239561     0.231918     0.224275     0.216631     0.208988     0.201345
 NY phased data points follow
   4.22197E+01  3.56377E+01  3.94033E+01  4.06125E+01  4.53849E+01  4.89656E+01  5.17040E+01  5.53586E+01  6.61584E+01  7.58987E+01
   6.91352E+01  7.66203E+01  7.59790E+01  7.21197E+01  6.91138E+01  6.40616E+01  5.82245E+01  5.37271E+01  4.33991E+01  3.99553E+01
   4.24769E+01  3.89670E+01  3.49903E+01  3.43757E+01  3.87403E+01  3.98688E+01  4.13397E+01  4.14195E+01  4.52835E+01  4.23395E+01
   4.58859E+01  4.84058E+01  4.98639E+01  4.74280E+01  4.31132E+01  4.31823E+01  3.85182E+01  3.48109E+01  3.68445E+01  3.90699E+01
   3.13866E+01  3.74436E+01  3.87697E+01  3.97070E+01  3.91870E+01  3.62666E+01  4.19717E+01  4.52688E+01  4.00311E+01  3.63144E+01
   3.29735E+01  3.43433E+01  3.41508E+01  3.02116E+01  2.86470E+01  2.86778E+01  3.17916E+01  2.87958E+01  2.95004E+01  2.84035E+01
   3.16833E+01  2.85015E+01  2.18330E+01  2.10546E+01  1.91890E+01  2.22115E+01  1.79692E+01  2.23207E+01  1.45082E+01  2.04507E+01
   1.89659E+01  1.98924E+01  2.17296E+01  1.46607E+01  1.48560E+01  1.70249E+01  2.14037E+01  1.65914E+01  1.45614E+01  2.23369E+01
   1.74700E+01  1.72478E+01  1.53092E+01  1.25195E+01  1.55425E+01  1.47774E+01  1.19915E+01  1.54164E+01  1.71786E+01  1.53707E+01
   1.39676E+01  1.69520E+01  1.86526E+01  1.21813E+01  1.51603E+01  1.64911E+01  1.60659E+01  1.93812E+01  2.29848E+01  2.87376E+01
   3.65487E+01  4.48945E+01  4.91045E+01  5.12424E+01  5.13985E+01  4.51855E+01  4.33030E+01  3.82916E+01  3.17871E+01  3.23408E+01
   2.00290E+01  2.30057E+01  2.09395E+01  1.47331E+01  1.83310E+01  1.90734E+01  1.83117E+01  1.84684E+01  1.73470E+01  1.72628E+01
   2.36326E+01  2.23168E+01  2.91733E+01  3.43804E+01  4.69452E+01  5.55165E+01  6.23451E+01  6.93197E+01  6.67320E+01  6.17417E+01
   5.39406E+01  5.29808E+01  4.13904E+01  3.79576E+01  2.89517E+01  2.71383E+01  2.33139E+01  2.07778E+01  1.77669E+01  1.49856E+01
   1.74019E+01  1.48426E+01  1.69339E+01  1.79843E+01  1.31005E+01  9.25179E+00  1.13740E+01  8.52171E+00  1.20520E+01  1.13263E+01
   9.97207E+00  8.08901E+00  9.26116E+00  1.04611E+01  1.02137E+01  5.95290E+00  7.34871E+00  8.34680E+00  7.30937E+00  6.71426E+00
   1.03832E+01  5.18294E+00  5.51730E+00  7.85327E+00  8.45917E+00  8.93090E+00  4.67132E+00  1.96880E+00  4.87004E+00  1.36153E+00
   3.90543E+00 -3.80288E+00  3.13800E+00 -1.38930E+00 -3.07482E+00 -2.66864E+00 -4.05660E+00 -1.21345E+00 -3.17319E+00 -6.04601E-01
  -7.18763E+00 -4.13615E+00 -5.88809E+00 -6.37997E+00 -9.52633E+00 -5.40725E+00 -4.98115E+00  2.17723E+00 -4.25214E+00  4.56031E+00
   1.49598E+00  3.84889E+00  1.00241E+01  1.06888E+01  6.28247E+00  6.27170E+00  6.36976E+00  5.63118E+00  3.89955E+00  7.00365E+00
   9.21439E+00  6.87625E+00  4.05490E+00  5.60113E+00  6.19741E+00  8.82799E-01  1.48650E+00  4.23939E+00 -1.87748E+00 -1.38292E+00
   3.97081E-01  2.83141E+00  7.29735E+00  8.45336E+00  8.21307E+00  1.55554E+01  8.82510E+00  4.30935E+00  8.26740E+00  3.51090E+00
   6.17845E+00  5.77238E+00 -2.66236E+00  1.36397E+00  7.83556E+00  8.54740E+00  1.17901E+01  1.29033E+01  1.08887E+01  8.40369E+00
   1.38825E+01  9.43129E+00  1.28844E+01  1.10248E+01  1.09056E+01  1.08978E+01  8.74970E+00  3.94393E+00  7.57825E+00  1.05980E+01
   7.95830E+00  9.20072E+00  1.08284E+01  8.40009E+00  5.81813E+00  1.44947E+01  9.69001E+00  1.80385E+01  1.90060E+01  1.82512E+01
   2.67025E+01  2.64849E+01  3.19321E+01  2.74009E+01  2.87153E+01  4.18059E+01  5.57142E+01  5.94558E+01  6.04218E+01  7.27414E+01
   7.29326E+01  7.23940E+01  6.11788E+01  5.83629E+01  3.79938E+01  3.80041E+01  2.85082E+01  2.12891E+01  1.74828E+01  1.25968E+01
   1.14314E+01  8.48884E+00  1.14964E+01  8.04990E+00  7.33549E+00  6.44079E+00  7.41281E+00  4.37038E+00  9.56961E+00  2.94491E+00
   9.61957E+00  6.23467E+00  5.11511E+00  2.99990E+00  2.29938E+00  8.68960E+00  2.67528E+00  2.68861E+00  4.25101E+00  1.78891E+00
   2.55622E+00 -1.32671E+00  2.94007E+00  3.50238E+00  1.31001E+00  4.84537E+00 -1.58996E+00  6.55924E-01  5.46056E+00  2.09330E+00
   3.40051E+00  5.02634E+00  3.59092E+00  5.69478E+00  3.42921E+00  4.36446E+00  4.61677E+00  8.13498E+00  8.52263E+00  7.79957E+00
   9.40145E+00  7.06219E+00  4.91120E+00  2.55832E+00  4.85735E+00  3.26086E+00  4.60446E+00  5.37760E+00  5.08829E+00  5.19433E+00
   7.07755E+00  6.05620E+00  1.32089E+00  5.93336E+00  4.92818E+00  2.85996E+00  2.47191E+00  7.76881E+00  4.35998E+00 -1.20724E+00
   8.57959E+00  3.55822E+00  3.00490E+00  5.98817E+00  3.03261E+00  7.07985E+00  4.79321E+00  5.84651E+00  2.37382E+00  4.74527E+00
   2.15566E+00  4.09219E+00  5.31476E+00  4.37581E+00  6.08484E+00  4.41366E+00  3.67092E+00  3.33830E+00  4.71206E+00  2.76385E+00
   2.88907E+00  6.07067E+00  9.56394E+00  6.37826E+00  5.85400E+00  7.40344E+00  1.01244E+01  7.44088E+00  9.98865E+00  8.35322E+00
   3.21937E+00  8.15100E+00  5.18623E+00  6.35467E-01  6.42120E+00  4.83068E+00  4.08771E+00  5.26035E+00  6.11432E+00  3.36273E+00
   1.83782E+00  7.17130E+00  5.83869E-01 -9.97278E-01 -1.22564E+00  2.13619E+00  3.52703E-02  2.01546E+00 -1.82952E+00 -2.53735E-01
   3.33335E+00  4.78130E+00  3.08070E+00 -7.60741E-01 -3.14739E+00  2.75317E+00  2.33808E+00  3.50989E+00  5.53960E+00  4.65319E+00
   4.15678E+00  2.48120E+00  5.83163E+00  6.74464E+00  3.78260E+00  2.61627E+00  6.83048E+00  9.08981E+00  6.89272E+00  8.59337E+00
   4.96508E+00  1.14237E+01  9.29166E+00  8.70624E+00  7.35457E+00  8.82061E+00  6.51027E+00  1.13116E+01  7.33501E+00  1.16196E+01
   2.76036E+00  3.75261E+00  8.06146E+00  5.32063E+00  5.31058E+00  6.72855E+00  7.66675E+00  5.95489E+00  2.31446E+00  6.78131E+00
   4.79831E+00  7.56417E+00  5.18753E+00  3.65787E+00  3.77198E+00  1.69803E-01  1.19817E+00 -1.22527E+00  2.83857E+00  1.33468E+00
   2.67343E+00  1.76936E+00  4.41576E+00  1.96336E+00 -2.63360E-01 -9.44634E-01  1.89342E+00  3.16081E+00  7.59894E+00 -1.97298E+00
   1.24181E-01 -6.06492E-01  3.14635E+00  3.61890E+00  5.84682E+00  9.93261E-01  5.37772E+00  1.75602E-01 -1.03237E+00  6.08558E+00
  -2.38242E-01 -3.06938E-01  1.27784E+00 -2.04604E+00  2.56973E+00  3.16690E+00  3.42099E-01  1.13733E+00  2.32600E+00  4.72360E+00
  -1.10024E+00  2.13626E+00 -8.31824E-02 -1.37020E+00  2.05794E+00  2.60269E+00  2.30091E+00 -4.99264E-01 -1.99909E+00  1.12888E-02
  -2.58606E+00  1.66779E+00  4.84065E+00 -1.34991E+00  5.75256E+00 -7.69489E-01  4.64658E+00  1.76799E+00  9.16021E-01 -2.26945E+00
   3.77166E+00  4.73362E+00  9.39681E-01  4.34118E+00  5.39729E-01  3.03876E-01 -8.02966E-02  1.03638E+00  3.74020E+00  3.15290E+00
  -1.62411E+00 -3.98938E-01  4.45236E+00  6.13712E+00  4.97908E+00 -3.09056E+00  1.55274E+00 -1.73935E+00
 NY points of the fit to the data follow
   3.93147E+01  3.89546E+01  3.90606E+01  4.02190E+01  4.30914E+01  4.60229E+01  4.99787E+01  5.58510E+01  6.19925E+01  6.65898E+01
   7.00345E+01  7.26157E+01  7.26005E+01  6.94479E+01  6.48611E+01  6.00623E+01  5.55811E+01  5.12553E+01  4.70125E+01  4.41509E+01
   4.17372E+01  3.84525E+01  3.65531E+01  3.60885E+01  3.56645E+01  3.62132E+01  3.84237E+01  4.11939E+01  4.39110E+01  4.69353E+01
   4.98325E+01  5.08767E+01  4.95839E+01  4.68967E+01  4.37377E+01  4.05368E+01  3.75194E+01  3.50435E+01  3.40544E+01  3.38602E+01
   3.31211E+01  3.31195E+01  3.43877E+01  3.60180E+01  3.71415E+01  3.78923E+01  3.85005E+01  3.83783E+01  3.70299E+01  3.48425E+01
   3.28759E+01  3.13900E+01  2.99246E+01  2.86807E+01  2.82278E+01  2.81664E+01  2.78295E+01  2.75674E+01  2.76751E+01  2.77202E+01
   2.73440E+01  2.66804E+01  2.58627E+01  2.51716E+01  2.45578E+01  2.40504E+01  2.39091E+01  2.39695E+01  2.39915E+01  2.39820E+01
   2.39534E+01  2.39136E+01  2.37303E+01  2.33914E+01  2.29989E+01  2.25741E+01  2.21189E+01  2.16290E+01  2.10950E+01  2.05946E+01
   1.99778E+01  1.92389E+01  1.83948E+01  1.74803E+01  1.65713E+01  1.57068E+01  1.49488E+01  1.44312E+01  1.42868E+01  1.44068E+01
   1.47128E+01  1.51259E+01  1.55361E+01  1.58152E+01  1.60956E+01  1.73578E+01  1.97718E+01  2.15048E+01  2.53168E+01  3.17588E+01
   3.80206E+01  4.28289E+01  4.76233E+01  5.17507E+01  5.20470E+01  4.84418E+01  4.35485E+01  3.85332E+01  3.35950E+01  2.85509E+01
   2.42382E+01  2.19823E+01  1.95008E+01  1.61043E+01  1.47468E+01  1.44069E+01  1.42959E+01  1.43697E+01  1.48687E+01  1.69361E+01
   2.06697E+01  2.40964E+01  3.03824E+01  4.00111E+01  4.93459E+01  5.67799E+01  6.40030E+01  6.98065E+01  7.02769E+01  6.56759E+01
   5.90490E+01  5.17604E+01  4.43231E+01  3.66825E+01  2.99167E+01  2.54403E+01  2.07959E+01  1.56430E+01  1.34532E+01  1.30022E+01
   1.30407E+01  1.33308E+01  1.35898E+01  1.34165E+01  1.30413E+01  1.27206E+01  1.22667E+01  1.17357E+01  1.11781E+01  1.05511E+01
   9.93288E+00  9.27970E+00  8.68399E+00  8.18541E+00  7.81011E+00  7.48585E+00  7.13320E+00  6.82318E+00  6.48732E+00  6.14452E+00
   5.85072E+00  5.58122E+00  5.33543E+00  5.16710E+00  5.00721E+00  4.67735E+00  4.20548E+00  3.72975E+00  3.19973E+00  2.72863E+00
   2.40775E+00  1.97803E+00  1.54855E+00  1.17068E+00  7.88555E-01  4.62350E-01  2.38999E-01  1.38605E-01  8.98144E-02  6.00226E-03
  -1.28069E-01 -2.76739E-01 -3.26012E-01 -1.67440E-01  2.13058E-01  7.87984E-01  1.53657E+00  2.53335E+00  3.62700E+00  4.57910E+00
   5.15771E+00  5.41087E+00  5.33770E+00  4.67790E+00  3.69286E+00  3.11759E+00  3.25767E+00  3.61627E+00  4.25156E+00  5.54344E+00
   7.14160E+00  8.01589E+00  8.20661E+00  8.03664E+00  6.93230E+00  4.87572E+00  2.75172E+00  1.31474E+00  3.30119E-01 -2.07265E-01
   8.78559E-01  3.21226E+00  5.56033E+00  7.33861E+00  8.69623E+00  9.57463E+00  9.02512E+00  6.80413E+00  4.61404E+00  3.01203E+00
   1.40611E+00  2.62059E-01  3.98230E-01  1.86414E+00  3.59679E+00  5.10275E+00  6.66033E+00  7.75073E+00  8.43250E+00  8.73326E+00
   8.69821E+00  8.77682E+00  9.08634E+00  9.69558E+00  1.02919E+01  1.09845E+01  1.17913E+01  1.23078E+01  1.22154E+01  1.16106E+01
   1.07702E+01  9.92420E+00  9.33538E+00  9.24907E+00  9.76535E+00  1.07104E+01  1.18604E+01  1.32064E+01  1.49787E+01  1.65426E+01
   1.83112E+01  2.14595E+01  2.64746E+01  3.13107E+01  3.57359E+01  4.37028E+01  5.31603E+01  5.99784E+01  6.48949E+01  7.00898E+01
   7.29344E+01  6.97376E+01  6.22702E+01  5.41555E+01  4.59776E+01  3.74355E+01  2.93056E+01  2.34492E+01  1.99524E+01  1.52013E+01
   1.05888E+01  8.91329E+00  8.11193E+00  7.52096E+00  7.08716E+00  6.62059E+00  6.11231E+00  5.63823E+00  5.20008E+00  4.77754E+00
   4.40172E+00  4.08927E+00  3.80809E+00  3.54545E+00  3.31276E+00  3.11622E+00  2.96254E+00  2.83792E+00  2.74513E+00  2.69787E+00
   2.69216E+00  2.72609E+00  2.79277E+00  2.88472E+00  3.00161E+00  3.13983E+00  3.30258E+00  3.48514E+00  3.67964E+00  3.89581E+00
   4.12948E+00  4.36251E+00  4.59266E+00  4.81335E+00  5.01676E+00  5.19614E+00  5.34237E+00  5.45451E+00  5.53319E+00  5.57137E+00
   5.57097E+00  5.53535E+00  5.46750E+00  5.37342E+00  5.25900E+00  5.13102E+00  4.99696E+00  4.86445E+00  4.74231E+00  4.63949E+00
   4.54591E+00  4.47201E+00  4.43039E+00  4.39737E+00  4.35731E+00  4.32068E+00  4.28955E+00  4.25513E+00  4.21227E+00  4.17330E+00
   4.17277E+00  4.21426E+00  4.27250E+00  4.33615E+00  4.42355E+00  4.51579E+00  4.56900E+00  4.59730E+00  4.62082E+00  4.64763E+00
   4.63660E+00  4.60081E+00  4.61344E+00  4.61898E+00  4.54599E+00  4.44604E+00  4.39192E+00  4.38609E+00  4.38564E+00  4.48664E+00
   4.82826E+00  5.38160E+00  6.02049E+00  6.68170E+00  7.37330E+00  7.95414E+00  8.22133E+00  8.21281E+00  7.99134E+00  7.54403E+00
   6.92016E+00  6.17662E+00  5.43066E+00  4.75295E+00  4.10116E+00  3.52871E+00  3.08752E+00  2.75388E+00  2.50571E+00  2.32369E+00
   2.19089E+00  2.09365E+00  2.02199E+00  1.96933E+00  1.93205E+00  1.90869E+00  1.89938E+00  1.90519E+00  1.92781E+00  1.96923E+00
   2.03159E+00  2.11707E+00  2.22781E+00  2.36582E+00  2.53287E+00  2.73045E+00  2.95972E+00  3.22134E+00  3.51538E+00  3.84119E+00
   4.19721E+00  4.58094E+00  4.98885E+00  5.41627E+00  5.85741E+00  6.30534E+00  6.75217E+00  7.18925E+00  7.60735E+00  7.99705E+00
   8.34900E+00  8.65434E+00  8.90511E+00  9.09462E+00  9.21775E+00  9.27118E+00  9.25359E+00  9.16566E+00  9.01009E+00  8.79144E+00
   8.51589E+00  8.19091E+00  7.82488E+00  7.42676E+00  7.00569E+00  6.57064E+00  6.13006E+00  5.69164E+00  5.26208E+00  4.84704E+00
   4.45106E+00  4.07755E+00  3.72886E+00  3.40636E+00  3.11055E+00  2.84128E+00  2.59782E+00  2.37900E+00  2.18337E+00  2.00926E+00
   1.85491E+00  1.71857E+00  1.59851E+00  1.49308E+00  1.40073E+00  1.32002E+00  1.24965E+00  1.18846E+00  1.13544E+00  1.08965E+00
   1.05027E+00  1.01658E+00  9.87951E-01  9.63851E-01  9.43800E-01  9.27369E-01  9.14173E-01  9.03885E-01  8.96228E-01  8.90961E-01
   8.87857E-01  8.86707E-01  8.87325E-01  8.89564E-01  8.93297E-01  8.98408E-01  9.04783E-01  9.12309E-01  9.20894E-01  9.30468E-01
   9.40971E-01  9.52336E-01  9.64493E-01  9.77380E-01  9.90948E-01  1.00516E+00  1.01999E+00  1.03538E+00  1.05129E+00  1.06768E+00
   1.08454E+00  1.10185E+00  1.11958E+00  1.13770E+00  1.15618E+00  1.17500E+00  1.19415E+00  1.21362E+00  1.23340E+00  1.25344E+00
   1.27374E+00  1.29429E+00  1.31509E+00  1.33613E+00  1.35738E+00  1.37883E+00  1.40048E+00  1.42232E+00  1.44435E+00  1.46657E+00
   1.48895E+00  1.51149E+00  1.53419E+00  1.55706E+00  1.58009E+00  1.60328E+00  1.62662E+00  1.65012E+00
 NY background values follow
     3.460E+01    3.438E+01    3.416E+01    3.394E+01    3.372E+01    3.350E+01    3.327E+01    3.305E+01    3.283E+01    3.261E+01
     3.239E+01    3.217E+01    3.194E+01    3.172E+01    3.150E+01    3.128E+01    3.106E+01    3.084E+01    3.062E+01    3.040E+01
     3.017E+01    2.995E+01    2.973E+01    2.951E+01    2.929E+01    2.907E+01    2.885E+01    2.863E+01    2.841E+01    2.819E+01
     2.797E+01    2.776E+01    2.754E+01    2.732E+01    2.710E+01    2.688E+01    2.667E+01    2.645E+01    2.623E+01    2.602E+01
     2.580E+01    2.559E+01    2.537E+01    2.516E+01    2.494E+01    2.473E+01    2.451E+01    2.430E+01    2.409E+01    2.388E+01
     2.367E+01    2.345E+01    2.324E+01    2.303E+01    2.283E+01    2.262E+01    2.241E+01    2.220E+01    2.199E+01    2.179E+01
     2.158E+01    2.138E+01    2.117E+01    2.097E+01    2.077E+01    2.057E+01    2.036E+01    2.016E+01    1.996E+01    1.977E+01
     1.957E+01    1.937E+01    1.917E+01    1.898E+01    1.878E+01    1.859E+01    1.840E+01    1.821E+01    1.802E+01    1.783E+01
     1.764E+01    1.745E+01    1.726E+01    1.708E+01    1.689E+01    1.671E+01    1.652E+01    1.634E+01    1.616E+01    1.598E+01
     1.581E+01    1.563E+01    1.545E+01    1.528E+01    1.510E+01    1.493E+01    1.476E+01    1.459E+01    1.442E+01    1.425E+01
     1.409E+01    1.392E+01    1.376E+01    1.359E+01    1.343E+01    1.327E+01    1.311E+01    1.295E+01    1.279E+01    1.263E+01
     1.248E+01    1.232E+01    1.217E+01    1.202E+01    1.187E+01    1.172E+01    1.157E+01    1.142E+01    1.127E+01    1.112E+01
     1.098E+01    1.083E+01    1.069E+01    1.055E+01    1.040E+01    1.026E+01    1.012E+01    9.986E+00    9.849E+00    9.712E+00
     9.576E+00    9.442E+00    9.308E+00    9.175E+00    9.043E+00    8.912E+00    8.782E+00    8.653E+00    8.525E+00    8.398E+00
     8.271E+00    8.146E+00    8.022E+00    7.898E+00    7.776E+00    7.654E+00    7.533E+00    7.414E+00    7.295E+00    7.177E+00
     7.061E+00    6.945E+00    6.830E+00    6.716E+00    6.603E+00    6.492E+00    6.381E+00    6.271E+00    6.162E+00    6.054E+00
     5.947E+00    5.841E+00    5.736E+00    5.633E+00    5.530E+00    5.428E+00    5.327E+00    5.227E+00    5.128E+00    5.031E+00
     4.934E+00    4.838E+00    4.744E+00    4.650E+00    4.557E+00    4.466E+00    4.375E+00    4.286E+00    4.198E+00    4.110E+00
     4.024E+00    3.939E+00    3.855E+00    3.772E+00    3.689E+00    3.608E+00    3.528E+00    3.449E+00    3.371E+00    3.294E+00
     3.218E+00    3.143E+00    3.069E+00    2.996E+00    2.923E+00    2.852E+00    2.781E+00    2.712E+00    2.643E+00    2.575E+00
     2.508E+00    2.442E+00    2.376E+00    2.312E+00    2.248E+00    2.185E+00    2.123E+00    2.061E+00    2.000E+00    1.940E+00
     1.881E+00    1.823E+00    1.765E+00    1.708E+00    1.651E+00    1.595E+00    1.540E+00    1.486E+00    1.432E+00    1.379E+00
     1.326E+00    1.274E+00    1.223E+00    1.172E+00    1.121E+00    1.072E+00    1.022E+00    9.738E-01    9.256E-01    8.780E-01
     8.309E-01    7.842E-01    7.382E-01    6.926E-01    6.475E-01    6.029E-01    5.588E-01    5.153E-01    4.722E-01    4.296E-01
     3.875E-01    3.459E-01    3.047E-01    2.641E-01    2.239E-01    1.843E-01    1.450E-01    1.063E-01    6.802E-02    3.021E-02
    -7.141E-03   -4.403E-02   -8.046E-02   -1.164E-01   -1.520E-01   -1.871E-01   -2.217E-01   -2.559E-01   -2.896E-01   -3.229E-01
    -3.558E-01   -3.883E-01   -4.203E-01   -4.519E-01   -4.831E-01   -5.138E-01   -5.442E-01   -5.741E-01   -6.036E-01   -6.327E-01
    -6.614E-01   -6.897E-01   -7.176E-01   -7.451E-01   -7.721E-01   -7.988E-01   -8.251E-01   -8.511E-01   -8.766E-01   -9.017E-01
    -9.264E-01   -9.507E-01   -9.747E-01   -9.982E-01   -1.021E+00   -1.044E+00   -1.067E+00   -1.089E+00   -1.110E+00   -1.131E+00
    -1.152E+00   -1.173E+00   -1.193E+00   -1.213E+00   -1.232E+00   -1.251E+00   -1.270E+00   -1.288E+00   -1.306E+00   -1.323E+00
    -1.340E+00   -1.357E+00   -1.373E+00   -1.389E+00   -1.405E+00   -1.420E+00   -1.435E+00   -1.450E+00   -1.464E+00   -1.478E+00
    -1.491E+00   -1.504E+00   -1.517E+00   -1.529E+00   -1.541E+00   -1.553E+00   -1.564E+00   -1.575E+00   -1.586E+00   -1.596E+00
    -1.606E+00   -1.615E+00   -1.624E+00   -1.633E+00   -1.642E+00   -1.650E+00   -1.658E+00   -1.665E+00   -1.672E+00   -1.679E+00
    -1.685E+00   -1.691E+00   -1.697E+00   -1.702E+00   -1.707E+00   -1.711E+00   -1.715E+00   -1.719E+00   -1.723E+00   -1.726E+00
    -1.729E+00   -1.731E+00   -1.733E+00   -1.735E+00   -1.736E+00   -1.737E+00   -1.738E+00   -1.738E+00   -1.738E+00   -1.738E+00
    -1.737E+00   -1.736E+00   -1.734E+00   -1.732E+00   -1.730E+00   -1.727E+00   -1.724E+00   -1.721E+00   -1.717E+00   -1.713E+00
    -1.709E+00   -1.704E+00   -1.699E+00   -1.694E+00   -1.688E+00   -1.681E+00   -1.675E+00   -1.668E+00   -1.661E+00   -1.653E+00
    -1.645E+00   -1.637E+00   -1.628E+00   -1.619E+00   -1.610E+00   -1.600E+00   -1.590E+00   -1.580E+00   -1.569E+00   -1.558E+00
    -1.546E+00   -1.535E+00   -1.523E+00   -1.510E+00   -1.497E+00   -1.484E+00   -1.471E+00   -1.457E+00   -1.443E+00   -1.428E+00
    -1.414E+00   -1.399E+00   -1.383E+00   -1.367E+00   -1.351E+00   -1.335E+00   -1.318E+00   -1.301E+00   -1.284E+00   -1.266E+00
    -1.248E+00   -1.230E+00   -1.211E+00   -1.192E+00   -1.173E+00   -1.153E+00   -1.133E+00   -1.113E+00   -1.092E+00   -1.072E+00
    -1.050E+00   -1.029E+00   -1.007E+00   -9.853E-01   -9.631E-01   -9.406E-01   -9.178E-01   -8.947E-01   -8.714E-01   -8.479E-01
    -8.242E-01   -8.002E-01   -7.760E-01   -7.516E-01   -7.270E-01   -7.021E-01   -6.771E-01   -6.519E-01   -6.265E-01   -6.010E-01
    -5.752E-01   -5.493E-01   -5.233E-01   -4.971E-01   -4.707E-01   -4.442E-01   -4.176E-01   -3.909E-01   -3.640E-01   -3.371E-01
    -3.100E-01   -2.828E-01   -2.556E-01   -2.282E-01   -2.008E-01   -1.733E-01   -1.457E-01   -1.181E-01   -9.039E-02   -6.266E-02
    -3.488E-02   -7.071E-03    2.077E-02    4.863E-02    7.652E-02    1.044E-01    1.324E-01    1.603E-01    1.883E-01    2.163E-01
     2.443E-01    2.723E-01    3.003E-01    3.284E-01    3.565E-01    3.846E-01    4.127E-01    4.408E-01    4.689E-01    4.970E-01
     5.252E-01    5.533E-01    5.815E-01    6.097E-01    6.379E-01    6.661E-01    6.943E-01    7.225E-01    7.507E-01    7.789E-01
     8.071E-01    8.354E-01    8.636E-01    8.918E-01    9.200E-01    9.483E-01    9.765E-01    1.005E+00    1.033E+00    1.061E+00
     1.089E+00    1.118E+00    1.146E+00    1.174E+00    1.202E+00    1.230E+00    1.259E+00    1.287E+00
 Ala      Conc. = 2.44E+01
