 LCModel (Version 6.3-1L) Copyright: S.W. Provencher.          Ref.: Magn. Reson. Med. 30:672-679 (1993).                
 Slice#1 Row#9 Col#14  K_02_press_1_raw_act
 36 lines in following concentration table = NCONC+1
    Conc.  %SD /Cr+PCr  Metabolite                                         
    3.387 402%   0.520 Ala                                                 
    4.821 104%   0.739 Asp                                                 
    6.519 132%   1.000 Cr                                                  
    0.000 999%   0.000 PCr                                                 
    2.970 101%   0.456 GABA                                                
    2.800 108%   0.430 Glc                                                 
    0.000 999%   0.000 Gln                                                 
   31.996  93%   4.908 Glu                                                 
    0.000 999%   0.000 GPC                                                 
    8.927  42%   1.369 PCh                                                 
    0.000 999%   0.000 GSH                                                 
   25.397 137%   3.896 Ins                                                 
    4.908 299%   0.753 Lac                                                 
   63.529  24%   9.746 NAA                                                 
    0.000 999%   0.000 NAAG                                                
    0.923 108%   0.142 Scyllo                                              
    5.128  98%   0.787 Tau                                                 
    0.778 404%   0.119 -CrCH2                                              
    8.927  42%   1.369 GPC+PCh                                             
   63.529  24%   9.746 NAA+NAAG                                            
    6.519 132%   1.000 Cr+PCr                                              
   31.996  93%   4.908 Glu+Gln                                             
 5.19E+03   6% 795.782 Lip13a                                              
    0.000 999%   0.000 Lip13b                                              
    0.000 999%   0.000-Lip09                                               
    0.000 999%   0.000 MM09                                                
  588.184  27%  90.231 Lip20                                               
    0.000 999%   0.000 MM20                                                
 1.14E-03 999% 1.7E-04 MM12                                                
    0.215 999% 3.3E-02 MM14                                                
    0.620 587% 9.5E-02 MM17                                                
 5.19E+03   6% 795.782 Lip13a+Lip13b                                       
 5.19E+03   6% 795.815 MM14+Lip13a+Lip13b+MM12                             
    0.000 999%   0.000 MM09+Lip09                                          
  588.184  27%  90.231 MM20+Lip20                                          
   6 lines in following misc. output table
  FWHM = 0.038 ppm    S/N =   5                                            
  Data shift =-0.015 ppm                                                   
  Ph: -26 deg      40.8 deg/ppm                                            
  alphaB,S = 3.0E-01,   4.8E+00                                            
   14 spline knots.   Ns = 5(1)                                            
   2 inflections.     1 extrema                                            
  498 points on ppm-axis = NY
      4.000000     3.992357     3.984714     3.977070     3.969427     3.961784     3.954141     3.946497     3.938854     3.931211
      3.923568     3.915925     3.908281     3.900638     3.892995     3.885352     3.877708     3.870065     3.862422     3.854779
      3.847136     3.839492     3.831849     3.824206     3.816563     3.808919     3.801276     3.793633     3.785990     3.778347
      3.770703     3.763060     3.755417     3.747774     3.740130     3.732487     3.724844     3.717201     3.709558     3.701914
      3.694271     3.686628     3.678985     3.671341     3.663698     3.656055     3.648412     3.640769     3.633125     3.625482
      3.617839     3.610196     3.602552     3.594909     3.587266     3.579623     3.571980     3.564336     3.556693     3.549050
      3.541407     3.533763     3.526120     3.518477     3.510834     3.503191     3.495547     3.487904     3.480261     3.472618
      3.464974     3.457331     3.449688     3.442045     3.434402     3.426758     3.419115     3.411472     3.403829     3.396185
      3.388542     3.380899     3.373256     3.365613     3.357969     3.350326     3.342683     3.335040     3.327396     3.319753
      3.312110     3.304467     3.296824     3.289180     3.281537     3.273894     3.266251     3.258607     3.250964     3.243321
      3.235678     3.228034     3.220391     3.212748     3.205105     3.197462     3.189818     3.182175     3.174532     3.166889
      3.159245     3.151602     3.143959     3.136316     3.128673     3.121029     3.113386     3.105743     3.098100     3.090456
      3.082813     3.075170     3.067527     3.059884     3.052240     3.044597     3.036954     3.029311     3.021667     3.014024
      3.006381     2.998738     2.991095     2.983451     2.975808     2.968165     2.960522     2.952878     2.945235     2.937592
      2.929949     2.922306     2.914662     2.907019     2.899376     2.891733     2.884089     2.876446     2.868803     2.861160
      2.853517     2.845873     2.838230     2.830587     2.822944     2.815300     2.807657     2.800014     2.792371     2.784728
      2.777084     2.769441     2.761798     2.754155     2.746511     2.738868     2.731225     2.723582     2.715939     2.708295
      2.700652     2.693009     2.685366     2.677722     2.670079     2.662436     2.654793     2.647150     2.639506     2.631863
      2.624220     2.616577     2.608933     2.601290     2.593647     2.586004     2.578361     2.570717     2.563074     2.555431
      2.547788     2.540144     2.532501     2.524858     2.517215     2.509572     2.501928     2.494285     2.486642     2.478999
      2.471355     2.463712     2.456069     2.448426     2.440783     2.433139     2.425496     2.417853     2.410210     2.402566
      2.394923     2.387280     2.379637     2.371994     2.364350     2.356707     2.349064     2.341421     2.333777     2.326134
      2.318491     2.310848     2.303205     2.295561     2.287918     2.280275     2.272632     2.264988     2.257345     2.249702
      2.242059     2.234416     2.226772     2.219129     2.211486     2.203843     2.196199     2.188556     2.180913     2.173270
      2.165627     2.157983     2.150340     2.142697     2.135054     2.127410     2.119767     2.112124     2.104481     2.096838
      2.089194     2.081551     2.073908     2.066265     2.058621     2.050978     2.043335     2.035692     2.028049     2.020405
      2.012762     2.005119     1.997476     1.989833     1.982190     1.974546     1.966903     1.959260     1.951617     1.943974
      1.936331     1.928688     1.921045     1.913402     1.905759     1.898115     1.890472     1.882829     1.875186     1.867543
      1.859900     1.852257     1.844614     1.836971     1.829327     1.821684     1.814041     1.806398     1.798755     1.791112
      1.783469     1.775826     1.768183     1.760540     1.752896     1.745253     1.737610     1.729967     1.722324     1.714681
      1.707038     1.699395     1.691752     1.684108     1.676465     1.668822     1.661179     1.653536     1.645893     1.638250
      1.630607     1.622964     1.615321     1.607677     1.600034     1.592391     1.584748     1.577105     1.569462     1.561819
      1.554176     1.546533     1.538890     1.531246     1.523603     1.515960     1.508317     1.500674     1.493031     1.485388
      1.477745     1.470102     1.462458     1.454815     1.447172     1.439529     1.431886     1.424243     1.416600     1.408957
      1.401314     1.393671     1.386027     1.378384     1.370741     1.363098     1.355455     1.347812     1.340169     1.332526
      1.324883     1.317240     1.309596     1.301953     1.294310     1.286667     1.279024     1.271381     1.263738     1.256095
      1.248452     1.240808     1.233165     1.225522     1.217879     1.210236     1.202593     1.194950     1.187307     1.179664
      1.172021     1.164377     1.156734     1.149091     1.141448     1.133805     1.126162     1.118519     1.110876     1.103233
      1.095590     1.087946     1.080303     1.072660     1.065017     1.057374     1.049731     1.042088     1.034445     1.026802
      1.019158     1.011515     1.003872     0.996229     0.988586     0.980943     0.973300     0.965657     0.958014     0.950371
      0.942727     0.935084     0.927441     0.919798     0.912155     0.904512     0.896869     0.889226     0.881583     0.873940
      0.866296     0.858653     0.851010     0.843367     0.835724     0.828081     0.820438     0.812795     0.805152     0.797508
      0.789865     0.782222     0.774579     0.766936     0.759293     0.751650     0.744007     0.736364     0.728721     0.721077
      0.713434     0.705791     0.698148     0.690505     0.682862     0.675219     0.667576     0.659933     0.652290     0.644646
      0.637003     0.629360     0.621717     0.614074     0.606431     0.598788     0.591145     0.583502     0.575858     0.568215
      0.560572     0.552929     0.545286     0.537643     0.530000     0.522357     0.514714     0.507071     0.499427     0.491784
      0.484141     0.476498     0.468855     0.461212     0.453569     0.445925     0.438282     0.430639     0.422996     0.415353
      0.407710     0.400067     0.392424     0.384780     0.377137     0.369494     0.361851     0.354208     0.346565     0.338922
      0.331278     0.323635     0.315992     0.308349     0.300706     0.293063     0.285420     0.277777     0.270133     0.262490
      0.254847     0.247204     0.239561     0.231918     0.224275     0.216631     0.208988     0.201345
 NY phased data points follow
  -3.61845E+00 -2.93529E+00 -1.85078E+00  3.29618E-01 -1.36521E+00 -5.41926E-01 -1.64282E+00 -2.34304E+00 -1.87447E+00  5.15083E-01
  -1.13336E+00 -7.03063E-01 -1.86521E+00 -4.46294E-01 -4.78082E-01 -2.54663E-01 -2.77321E+00 -1.65982E+00 -6.71853E-01 -1.51002E+00
  -1.85107E+00 -1.91495E+00 -5.90263E-01 -2.42264E+00 -1.05944E+00 -1.87507E+00 -2.77407E+00 -1.11816E+00 -1.32894E+00 -1.49139E+00
  -3.40740E+00 -2.99053E+00 -3.37662E-01 -1.25821E+00 -1.93420E+00  2.38988E-01 -3.14306E+00 -1.14048E+00 -1.27654E+00 -1.37325E+00
  -9.32857E-01 -1.29433E+00 -2.60231E+00 -1.70926E+00 -1.49847E+00 -1.23926E+00 -1.25855E+00 -2.13394E+00 -1.78313E+00 -2.23372E+00
  -1.71012E+00 -3.48281E+00 -1.12673E+00 -3.14497E+00 -1.50707E+00 -1.27629E+00 -5.02299E-01 -2.61192E+00 -1.16037E+00 -5.98167E-01
  -3.16183E+00 -1.20703E+00  2.63548E-01 -8.09971E-01 -3.19816E+00 -1.21143E+00 -1.14214E+00 -1.07527E+00 -1.97970E+00 -1.52126E+00
  -1.27099E+00 -1.39995E+00 -2.36961E+00  2.16720E-01 -1.29257E+00 -2.13394E+00 -2.09937E+00 -7.95436E-01 -2.30732E+00 -1.80560E+00
  -2.04804E+00 -3.29978E+00 -1.99321E+00 -2.10730E+00 -2.86523E+00 -9.23472E-01 -1.32859E+00 -1.68759E+00 -3.00845E+00 -3.80563E+00
  -2.07893E+00 -2.37370E+00 -3.35369E+00 -2.58409E+00 -1.22757E+00 -4.10600E-01 -2.82062E+00 -8.99381E-01 -2.20273E+00 -1.40987E+00
  -1.69740E+00 -7.63462E-01 -2.12767E+00 -4.36087E-02 -1.39035E+00 -9.33063E-02 -1.66904E-01 -4.84593E-01 -2.01040E+00 -2.86320E+00
  -2.87940E+00 -2.83749E+00 -2.13612E+00 -1.39739E+00 -2.30553E+00 -9.05535E-01 -2.14956E+00 -2.46013E+00 -3.31165E+00 -7.39652E-01
  -1.61038E+00 -1.68314E+00 -2.67193E+00 -2.55672E+00 -4.00224E+00 -2.86333E+00 -2.58615E+00 -2.44293E+00 -1.11644E+00 -2.94529E+00
  -7.31269E-01 -7.42266E-01 -3.50835E+00 -1.52009E+00 -2.83709E+00 -1.94000E+00 -3.89769E-01 -5.07484E-01 -7.03700E-01 -3.97046E+00
  -1.93611E+00 -1.84363E+00 -2.25930E+00 -1.99989E+00 -2.57705E+00 -4.23825E+00 -4.61063E+00 -2.07009E+00 -2.81393E+00 -2.23098E+00
  -2.34047E+00 -3.25337E+00 -2.23623E+00 -3.09435E+00 -2.54220E+00 -3.91835E+00 -2.85752E+00 -2.61048E+00 -1.40779E+00 -1.23781E+00
  -3.23444E+00 -2.21097E+00 -2.75046E+00 -3.57848E+00 -2.18296E+00 -2.15167E+00 -3.49609E+00 -1.79410E+00 -2.75920E+00 -2.09367E+00
  -2.46399E+00 -4.30756E+00 -4.35410E+00 -6.23671E+00 -3.63351E+00 -3.11223E+00 -2.18245E+00 -3.36086E+00 -3.39826E+00 -3.57426E+00
  -2.69494E+00 -3.25178E+00 -2.81423E+00 -4.48087E+00 -2.04828E+00 -2.45671E+00 -3.92658E+00 -3.64636E+00 -1.08374E+00 -9.36874E-01
  -2.25294E+00 -2.21030E+00 -3.79686E+00 -1.63417E+00 -2.70665E+00 -3.11035E+00 -5.98214E+00 -6.92484E-01 -1.40811E+00 -6.63530E+00
  -2.37458E+00 -5.21304E+00 -3.59062E+00 -1.10561E+00 -2.82243E+00 -2.61714E+00 -1.74869E+00 -2.29614E+00 -2.69698E+00 -3.33029E+00
  -4.08885E+00 -5.37688E-01 -2.12848E+00 -2.35138E+00 -2.63810E+00 -1.54407E+00 -2.27972E+00 -2.28453E+00 -2.28770E+00 -1.81406E+00
  -3.56697E+00 -2.63573E+00 -1.95117E+00 -4.50293E+00 -9.93431E-01 -4.10344E+00 -2.18081E+00 -3.02137E+00 -9.06594E-01 -3.18473E+00
  -2.64359E+00 -3.56140E+00 -2.78711E+00 -1.86843E+00 -2.78700E+00 -1.70169E-01 -2.99296E+00 -3.91460E+00 -3.19137E+00 -2.07818E+00
  -4.05498E+00 -3.46263E+00 -3.01544E+00 -2.98293E+00 -4.17072E+00 -2.79252E+00 -4.02415E+00 -1.96354E+00 -4.43518E+00 -9.57084E-01
  -3.40276E+00 -3.14098E+00 -2.82123E+00 -2.55458E+00 -2.71842E+00 -5.72677E+00 -3.90435E+00 -3.42017E+00 -3.71430E+00 -9.78286E-01
   4.31051E-01 -6.31088E-01  1.35164E+00 -5.81149E-01 -6.58032E-01 -6.56246E-01 -1.35704E+00 -3.42791E+00 -2.33446E+00 -3.15346E+00
  -3.94434E+00 -5.98891E+00 -4.87221E+00 -5.39130E+00 -5.34614E+00 -5.39357E+00 -2.97925E+00 -2.61441E+00 -5.65727E+00 -5.20015E+00
  -4.33074E+00 -5.60871E+00 -3.83239E+00 -4.87897E+00 -5.65861E+00 -5.32315E+00 -3.55981E+00 -4.54306E+00 -3.58617E+00 -2.48364E+00
  -5.37696E+00 -5.84918E+00 -3.48284E+00 -3.91971E+00 -5.61749E+00 -4.66725E+00 -3.91720E+00 -4.75102E+00 -6.27785E+00 -3.75264E+00
  -3.93935E+00 -5.11808E+00 -5.94493E+00 -4.92444E+00 -6.11144E+00 -3.16984E+00 -6.59062E+00 -4.04833E+00 -5.05678E+00 -5.36557E+00
  -4.45425E+00 -4.80055E+00 -6.04744E+00 -5.08966E+00 -4.68743E+00 -5.15748E+00 -5.89328E+00 -4.20243E+00 -5.02381E+00 -5.31139E+00
  -4.05210E+00 -3.60136E+00 -2.38325E+00 -3.39478E+00 -2.31995E+00 -4.51618E+00 -8.30053E-01 -3.48701E+00 -1.45665E+00 -2.85877E-01
  -2.01208E-01 -1.14275E+00 -3.18771E+00 -1.11066E+00  3.35763E-01 -1.72669E+00 -8.63042E-01 -1.31701E+00  1.43500E+00 -1.42174E+00
  -9.54122E-01 -7.12923E-01  2.25312E+00  6.81010E-01  2.51161E+00  9.68268E-01  8.67484E-01  1.91643E+00 -2.71131E-01  1.15467E+00
   1.21293E+00 -7.87265E-03  1.15422E-01 -1.04367E+00 -1.61664E+00 -1.57351E+00 -2.33331E+00 -3.27604E+00 -2.59549E+00 -3.56833E+00
  -3.45599E+00 -6.34388E+00 -5.15877E+00 -7.57956E+00 -6.18380E+00 -5.86605E+00 -7.48438E+00 -6.77351E+00 -7.43580E+00 -7.73381E+00
  -7.03772E+00 -8.63132E+00 -8.38589E+00 -8.83781E+00 -8.81468E+00 -8.23436E+00 -1.07105E+01 -9.34292E+00 -1.00784E+01 -9.84004E+00
  -9.67592E+00 -1.03305E+01 -1.07593E+01 -8.74126E+00 -1.06681E+01 -1.13771E+01 -1.16246E+01 -1.33833E+01 -1.10757E+01 -1.16502E+01
  -1.31962E+01 -1.07756E+01 -1.30389E+01 -1.40092E+01 -1.20194E+01 -1.23284E+01 -1.11119E+01 -1.27761E+01 -1.37450E+01 -1.42067E+01
  -1.25649E+01 -1.34498E+01 -1.25019E+01 -1.28136E+01 -1.40946E+01 -1.16476E+01 -1.23161E+01 -1.35099E+01 -1.24031E+01 -1.27430E+01
  -1.24608E+01 -1.39595E+01 -1.26936E+01 -1.11689E+01 -1.17157E+01 -1.17177E+01 -1.27876E+01 -1.33146E+01 -1.08959E+01 -1.05448E+01
  -9.25449E+00 -1.10022E+01 -1.18080E+01 -1.10640E+01 -1.11092E+01 -9.95438E+00 -9.42652E+00 -9.95652E+00 -9.28664E+00 -9.09676E+00
  -9.40910E+00 -1.07807E+01 -7.08048E+00 -1.02277E+01 -8.19179E+00 -4.38473E+00 -6.81626E+00 -6.60132E+00 -8.71196E+00 -6.54005E+00
  -6.21280E+00 -6.69171E+00 -6.81546E+00 -6.30739E+00 -4.23484E+00 -6.13366E+00 -4.86541E+00 -3.47188E+00 -5.17810E+00 -3.06853E+00
  -1.55776E+00 -2.26958E+00 -3.25660E+00 -2.67121E+00 -3.03638E+00 -1.51338E+00 -1.91279E+00  1.94990E-01 -9.66142E-01  1.18253E+00
   1.42652E-01  1.43102E+00  2.62166E+00  9.22162E-01  6.72723E-01  3.34769E+00  2.85622E+00  4.94462E+00  3.25548E+00  3.30941E+00
   5.39875E+00  4.71488E+00  4.46522E+00  3.78450E+00  5.66687E+00  3.44772E+00  5.20927E+00  6.72195E+00  5.12371E+00  7.61274E+00
   6.09078E+00  6.96708E+00  7.95021E+00  6.56784E+00  7.95866E+00  6.10858E+00  7.58977E+00  5.77065E+00  5.65710E+00  8.10596E+00
   7.99977E+00  8.70141E+00  8.51897E+00  8.31131E+00  7.55978E+00  6.94313E+00  9.17156E+00  8.58703E+00
 NY points of the fit to the data follow
  -1.00777E+00 -1.05132E+00 -1.06897E+00 -1.05751E+00 -1.05931E+00 -1.09188E+00 -1.13999E+00 -1.13943E+00 -1.08520E+00 -1.00779E+00
  -9.50677E-01 -9.44077E-01 -9.62568E-01 -9.84646E-01 -1.02394E+00 -1.12029E+00 -1.28298E+00 -1.41918E+00 -1.42590E+00 -1.39048E+00
  -1.36834E+00 -1.34850E+00 -1.31098E+00 -1.26609E+00 -1.25223E+00 -1.28393E+00 -1.35950E+00 -1.45385E+00 -1.52284E+00 -1.55129E+00
  -1.52998E+00 -1.47271E+00 -1.38711E+00 -1.28936E+00 -1.24969E+00 -1.29100E+00 -1.37098E+00 -1.47964E+00 -1.59821E+00 -1.68526E+00
  -1.71845E+00 -1.71549E+00 -1.71893E+00 -1.68073E+00 -1.57142E+00 -1.44621E+00 -1.36373E+00 -1.33589E+00 -1.36172E+00 -1.42460E+00
  -1.51306E+00 -1.63389E+00 -1.80642E+00 -1.96856E+00 -2.01052E+00 -1.94193E+00 -1.84988E+00 -1.77369E+00 -1.71800E+00 -1.67980E+00
  -1.66599E+00 -1.68440E+00 -1.72076E+00 -1.76122E+00 -1.82159E+00 -1.88510E+00 -1.92457E+00 -1.93453E+00 -1.90954E+00 -1.87162E+00
  -1.84208E+00 -1.82299E+00 -1.81468E+00 -1.81015E+00 -1.80907E+00 -1.81988E+00 -1.84292E+00 -1.89195E+00 -1.93447E+00 -1.95609E+00
  -1.98380E+00 -2.01040E+00 -1.99204E+00 -1.94712E+00 -1.91373E+00 -1.91053E+00 -1.94176E+00 -1.99046E+00 -2.02957E+00 -2.05160E+00
  -2.07265E+00 -2.10035E+00 -2.09742E+00 -2.04759E+00 -2.00566E+00 -1.99859E+00 -2.03531E+00 -2.13510E+00 -2.32282E+00 -2.31152E+00
  -1.97451E+00 -1.45133E+00 -9.38726E-01 -6.58735E-01 -6.26906E-01 -7.17722E-01 -9.02343E-01 -1.28168E+00 -1.97514E+00 -2.75543E+00
  -2.95697E+00 -2.75917E+00 -2.61218E+00 -2.52287E+00 -2.46065E+00 -2.41153E+00 -2.37691E+00 -2.35217E+00 -2.33326E+00 -2.32051E+00
  -2.31643E+00 -2.33280E+00 -2.36281E+00 -2.31885E+00 -2.19724E+00 -2.03486E+00 -1.89110E+00 -1.81616E+00 -1.79091E+00 -1.79445E+00
  -1.83604E+00 -1.94490E+00 -2.13643E+00 -2.30979E+00 -2.31538E+00 -2.26802E+00 -2.23585E+00 -2.20600E+00 -2.17787E+00 -2.15535E+00
  -2.14051E+00 -2.13348E+00 -2.12490E+00 -2.11252E+00 -2.10677E+00 -2.10828E+00 -2.11256E+00 -2.11639E+00 -2.12224E+00 -2.13797E+00
  -2.16097E+00 -2.18751E+00 -2.21210E+00 -2.22985E+00 -2.24712E+00 -2.26349E+00 -2.27541E+00 -2.30509E+00 -2.36278E+00 -2.44358E+00
  -2.53124E+00 -2.58470E+00 -2.60463E+00 -2.61049E+00 -2.61823E+00 -2.63072E+00 -2.62994E+00 -2.62423E+00 -2.66253E+00 -2.73746E+00
  -2.82414E+00 -2.89136E+00 -2.91814E+00 -2.95861E+00 -3.01059E+00 -3.04749E+00 -3.04766E+00 -3.03416E+00 -3.03579E+00 -3.04911E+00
  -3.05205E+00 -3.01691E+00 -2.96298E+00 -2.97663E+00 -3.05357E+00 -3.09594E+00 -3.07874E+00 -3.01436E+00 -2.96928E+00 -2.95505E+00
  -2.93922E+00 -2.90768E+00 -2.85436E+00 -2.79502E+00 -2.78354E+00 -2.79099E+00 -2.78531E+00 -2.78871E+00 -2.80813E+00 -2.84365E+00
  -2.87105E+00 -2.87985E+00 -2.86722E+00 -2.83328E+00 -2.76080E+00 -2.69405E+00 -2.66008E+00 -2.65268E+00 -2.68488E+00 -2.78851E+00
  -2.92727E+00 -3.01443E+00 -2.98604E+00 -2.86040E+00 -2.69475E+00 -2.52469E+00 -2.39833E+00 -2.32608E+00 -2.32547E+00 -2.44425E+00
  -2.70042E+00 -2.99161E+00 -3.15971E+00 -3.11761E+00 -3.00816E+00 -2.87538E+00 -2.70805E+00 -2.51584E+00 -2.36932E+00 -2.36902E+00
  -2.47633E+00 -2.57092E+00 -2.63019E+00 -2.67869E+00 -2.70476E+00 -2.70455E+00 -2.68908E+00 -2.67905E+00 -2.69976E+00 -2.75021E+00
  -2.80757E+00 -2.85803E+00 -2.89146E+00 -2.90476E+00 -2.89839E+00 -2.87302E+00 -2.83841E+00 -2.82784E+00 -2.84941E+00 -2.90878E+00
  -3.00508E+00 -3.09675E+00 -3.17618E+00 -3.28258E+00 -3.50113E+00 -3.99902E+00 -4.42967E+00 -4.11122E+00 -3.15231E+00 -1.85225E+00
  -7.80127E-01 -2.65758E-01 -1.29744E-01 -2.31780E-01 -6.98827E-01 -1.97053E+00 -4.04946E+00 -5.49640E+00 -5.57150E+00 -5.46085E+00
  -5.40376E+00 -5.36313E+00 -5.34229E+00 -5.33338E+00 -5.32207E+00 -5.30865E+00 -5.29824E+00 -5.29602E+00 -5.30573E+00 -5.33118E+00
  -5.36261E+00 -5.39086E+00 -5.41559E+00 -5.43417E+00 -5.44488E+00 -5.44969E+00 -5.44927E+00 -5.44674E+00 -5.44415E+00 -5.43996E+00
  -5.43520E+00 -5.43111E+00 -5.42606E+00 -5.41806E+00 -5.40741E+00 -5.39490E+00 -5.37958E+00 -5.36063E+00 -5.33879E+00 -5.31372E+00
  -5.28488E+00 -5.25263E+00 -5.21671E+00 -5.17692E+00 -5.13309E+00 -5.08497E+00 -5.03221E+00 -4.97449E+00 -4.91163E+00 -4.84340E+00
  -4.76931E+00 -4.68901E+00 -4.60217E+00 -4.50844E+00 -4.40754E+00 -4.29923E+00 -4.18321E+00 -4.05919E+00 -3.92694E+00 -3.78640E+00
  -3.63789E+00 -3.48244E+00 -3.31749E+00 -3.12492E+00 -2.90868E+00 -2.68344E+00 -2.46294E+00 -2.25586E+00 -2.05488E+00 -1.85484E+00
  -1.66961E+00 -1.49877E+00 -1.32563E+00 -1.11818E+00 -8.46839E-01 -5.61175E-01 -2.96019E-01 -4.82410E-02  1.84915E-01  3.98370E-01
   5.68031E-01  6.69832E-01  7.39548E-01  8.25641E-01  9.12474E-01  9.70918E-01  9.77111E-01  9.12951E-01  7.84958E-01  5.99516E-01
   3.40054E-01  1.94821E-02 -3.42657E-01 -7.01068E-01 -1.00313E+00 -1.30573E+00 -1.65799E+00 -2.04683E+00 -2.45941E+00 -2.89781E+00
  -3.39055E+00 -3.94679E+00 -4.49510E+00 -5.01714E+00 -5.52684E+00 -6.02556E+00 -6.51137E+00 -6.98185E+00 -7.43467E+00 -7.86784E+00
  -8.27974E+00 -8.66914E+00 -9.03514E+00 -9.37717E+00 -9.69503E+00 -9.98880E+00 -1.02588E+01 -1.05056E+01 -1.07298E+01 -1.09323E+01
  -1.11138E+01 -1.12755E+01 -1.14182E+01 -1.15432E+01 -1.16512E+01 -1.17432E+01 -1.18204E+01 -1.18835E+01 -1.19334E+01 -1.19710E+01
  -1.19969E+01 -1.20119E+01 -1.20166E+01 -1.20116E+01 -1.19975E+01 -1.19747E+01 -1.19437E+01 -1.19049E+01 -1.18587E+01 -1.18054E+01
  -1.17453E+01 -1.16786E+01 -1.16056E+01 -1.15264E+01 -1.14414E+01 -1.13506E+01 -1.12543E+01 -1.11524E+01 -1.10452E+01 -1.09328E+01
  -1.08155E+01 -1.06933E+01 -1.05665E+01 -1.04350E+01 -1.02992E+01 -1.01590E+01 -1.00147E+01 -9.86633E+00 -9.71393E+00 -9.55763E+00
  -9.39754E+00 -9.23376E+00 -9.06638E+00 -8.89544E+00 -8.72103E+00 -8.54322E+00 -8.36210E+00 -8.17776E+00 -7.99025E+00 -7.79962E+00
  -7.60592E+00 -7.40925E+00 -7.20967E+00 -7.00726E+00 -6.80203E+00 -6.59406E+00 -6.38339E+00 -6.17011E+00 -5.95428E+00 -5.73594E+00
  -5.51514E+00 -5.29192E+00 -5.06636E+00 -4.83851E+00 -4.60844E+00 -4.37618E+00 -4.14177E+00 -3.90527E+00 -3.66675E+00 -3.42628E+00
  -3.18388E+00 -2.93961E+00 -2.69350E+00 -2.44561E+00 -2.19603E+00 -1.94478E+00 -1.69190E+00 -1.43743E+00 -1.18142E+00 -9.23932E-01
  -6.65021E-01 -4.04731E-01 -1.43091E-01  1.19857E-01  3.84057E-01  6.49445E-01  9.15971E-01  1.18360E+00  1.45229E+00  1.72201E+00
   1.99268E+00  2.26426E+00  2.53668E+00  2.80993E+00  3.08397E+00  3.35873E+00  3.63415E+00  3.91018E+00  4.18679E+00  4.46393E+00
   4.74156E+00  5.01963E+00  5.29806E+00  5.57681E+00  5.85584E+00  6.13513E+00  6.41461E+00  6.69421E+00  6.97389E+00  7.25361E+00
   7.53331E+00  7.81297E+00  8.09252E+00  8.37190E+00  8.65105E+00  8.92995E+00  9.20854E+00  9.48679E+00
 NY background values follow
    -2.367E+00   -2.389E+00   -2.412E+00   -2.434E+00   -2.456E+00   -2.478E+00   -2.500E+00   -2.521E+00   -2.543E+00   -2.564E+00
    -2.585E+00   -2.606E+00   -2.627E+00   -2.648E+00   -2.668E+00   -2.688E+00   -2.709E+00   -2.729E+00   -2.749E+00   -2.768E+00
    -2.788E+00   -2.807E+00   -2.827E+00   -2.846E+00   -2.865E+00   -2.883E+00   -2.902E+00   -2.921E+00   -2.939E+00   -2.957E+00
    -2.975E+00   -2.993E+00   -3.011E+00   -3.029E+00   -3.046E+00   -3.064E+00   -3.081E+00   -3.098E+00   -3.115E+00   -3.132E+00
    -3.149E+00   -3.165E+00   -3.182E+00   -3.198E+00   -3.215E+00   -3.231E+00   -3.247E+00   -3.263E+00   -3.278E+00   -3.294E+00
    -3.310E+00   -3.325E+00   -3.340E+00   -3.355E+00   -3.371E+00   -3.386E+00   -3.400E+00   -3.415E+00   -3.430E+00   -3.445E+00
    -3.459E+00   -3.474E+00   -3.488E+00   -3.502E+00   -3.516E+00   -3.530E+00   -3.544E+00   -3.558E+00   -3.572E+00   -3.586E+00
    -3.600E+00   -3.613E+00   -3.627E+00   -3.640E+00   -3.654E+00   -3.667E+00   -3.680E+00   -3.694E+00   -3.707E+00   -3.720E+00
    -3.733E+00   -3.746E+00   -3.759E+00   -3.773E+00   -3.786E+00   -3.798E+00   -3.811E+00   -3.824E+00   -3.837E+00   -3.850E+00
    -3.863E+00   -3.876E+00   -3.889E+00   -3.901E+00   -3.914E+00   -3.927E+00   -3.940E+00   -3.953E+00   -3.965E+00   -3.978E+00
    -3.991E+00   -4.004E+00   -4.017E+00   -4.029E+00   -4.042E+00   -4.055E+00   -4.068E+00   -4.080E+00   -4.093E+00   -4.106E+00
    -4.119E+00   -4.131E+00   -4.144E+00   -4.157E+00   -4.170E+00   -4.183E+00   -4.195E+00   -4.208E+00   -4.221E+00   -4.234E+00
    -4.247E+00   -4.259E+00   -4.272E+00   -4.285E+00   -4.298E+00   -4.311E+00   -4.324E+00   -4.336E+00   -4.349E+00   -4.362E+00
    -4.375E+00   -4.388E+00   -4.401E+00   -4.414E+00   -4.427E+00   -4.440E+00   -4.453E+00   -4.466E+00   -4.478E+00   -4.491E+00
    -4.504E+00   -4.517E+00   -4.530E+00   -4.543E+00   -4.557E+00   -4.570E+00   -4.583E+00   -4.596E+00   -4.609E+00   -4.622E+00
    -4.636E+00   -4.649E+00   -4.662E+00   -4.676E+00   -4.689E+00   -4.703E+00   -4.716E+00   -4.730E+00   -4.744E+00   -4.757E+00
    -4.771E+00   -4.785E+00   -4.799E+00   -4.813E+00   -4.827E+00   -4.841E+00   -4.855E+00   -4.870E+00   -4.884E+00   -4.899E+00
    -4.913E+00   -4.928E+00   -4.943E+00   -4.958E+00   -4.973E+00   -4.988E+00   -5.003E+00   -5.019E+00   -5.034E+00   -5.050E+00
    -5.065E+00   -5.081E+00   -5.097E+00   -5.113E+00   -5.129E+00   -5.146E+00   -5.162E+00   -5.179E+00   -5.196E+00   -5.213E+00
    -5.230E+00   -5.247E+00   -5.265E+00   -5.283E+00   -5.301E+00   -5.319E+00   -5.337E+00   -5.356E+00   -5.375E+00   -5.394E+00
    -5.413E+00   -5.433E+00   -5.453E+00   -5.473E+00   -5.493E+00   -5.514E+00   -5.535E+00   -5.556E+00   -5.577E+00   -5.599E+00
    -5.621E+00   -5.644E+00   -5.667E+00   -5.690E+00   -5.713E+00   -5.737E+00   -5.761E+00   -5.786E+00   -5.811E+00   -5.836E+00
    -5.862E+00   -5.888E+00   -5.914E+00   -5.941E+00   -5.968E+00   -5.996E+00   -6.024E+00   -6.053E+00   -6.082E+00   -6.111E+00
    -6.141E+00   -6.172E+00   -6.203E+00   -6.234E+00   -6.266E+00   -6.299E+00   -6.331E+00   -6.365E+00   -6.399E+00   -6.433E+00
    -6.468E+00   -6.504E+00   -6.540E+00   -6.577E+00   -6.614E+00   -6.651E+00   -6.690E+00   -6.729E+00   -6.768E+00   -6.808E+00
    -6.849E+00   -6.890E+00   -6.932E+00   -6.975E+00   -7.018E+00   -7.062E+00   -7.106E+00   -7.152E+00   -7.197E+00   -7.244E+00
    -7.291E+00   -7.339E+00   -7.387E+00   -7.437E+00   -7.487E+00   -7.537E+00   -7.589E+00   -7.641E+00   -7.694E+00   -7.747E+00
    -7.802E+00   -7.857E+00   -7.913E+00   -7.969E+00   -8.026E+00   -8.085E+00   -8.143E+00   -8.203E+00   -8.263E+00   -8.323E+00
    -8.385E+00   -8.446E+00   -8.509E+00   -8.571E+00   -8.635E+00   -8.699E+00   -8.763E+00   -8.827E+00   -8.892E+00   -8.958E+00
    -9.023E+00   -9.089E+00   -9.156E+00   -9.222E+00   -9.289E+00   -9.356E+00   -9.423E+00   -9.490E+00   -9.558E+00   -9.625E+00
    -9.693E+00   -9.760E+00   -9.828E+00   -9.895E+00   -9.963E+00   -1.003E+01   -1.010E+01   -1.016E+01   -1.023E+01   -1.030E+01
    -1.036E+01   -1.043E+01   -1.050E+01   -1.056E+01   -1.063E+01   -1.069E+01   -1.076E+01   -1.082E+01   -1.088E+01   -1.095E+01
    -1.101E+01   -1.107E+01   -1.113E+01   -1.119E+01   -1.125E+01   -1.131E+01   -1.137E+01   -1.143E+01   -1.149E+01   -1.154E+01
    -1.160E+01   -1.165E+01   -1.171E+01   -1.176E+01   -1.181E+01   -1.186E+01   -1.191E+01   -1.196E+01   -1.201E+01   -1.205E+01
    -1.210E+01   -1.214E+01   -1.219E+01   -1.223E+01   -1.227E+01   -1.231E+01   -1.234E+01   -1.238E+01   -1.242E+01   -1.245E+01
    -1.248E+01   -1.251E+01   -1.254E+01   -1.257E+01   -1.260E+01   -1.262E+01   -1.264E+01   -1.266E+01   -1.268E+01   -1.270E+01
    -1.272E+01   -1.273E+01   -1.274E+01   -1.275E+01   -1.276E+01   -1.277E+01   -1.277E+01   -1.277E+01   -1.277E+01   -1.277E+01
    -1.277E+01   -1.276E+01   -1.275E+01   -1.274E+01   -1.273E+01   -1.271E+01   -1.269E+01   -1.267E+01   -1.265E+01   -1.262E+01
    -1.259E+01   -1.256E+01   -1.253E+01   -1.249E+01   -1.245E+01   -1.241E+01   -1.237E+01   -1.232E+01   -1.227E+01   -1.222E+01
    -1.216E+01   -1.210E+01   -1.204E+01   -1.197E+01   -1.190E+01   -1.183E+01   -1.176E+01   -1.168E+01   -1.160E+01   -1.151E+01
    -1.142E+01   -1.133E+01   -1.124E+01   -1.114E+01   -1.103E+01   -1.093E+01   -1.082E+01   -1.070E+01   -1.059E+01   -1.047E+01
    -1.034E+01   -1.021E+01   -1.008E+01   -9.945E+00   -9.806E+00   -9.663E+00   -9.518E+00   -9.368E+00   -9.216E+00   -9.060E+00
    -8.901E+00   -8.738E+00   -8.573E+00   -8.404E+00   -8.233E+00   -8.058E+00   -7.880E+00   -7.699E+00   -7.516E+00   -7.329E+00
    -7.140E+00   -6.947E+00   -6.752E+00   -6.555E+00   -6.354E+00   -6.151E+00   -5.946E+00   -5.738E+00   -5.527E+00   -5.314E+00
    -5.099E+00   -4.881E+00   -4.661E+00   -4.439E+00   -4.215E+00   -3.988E+00   -3.759E+00   -3.528E+00   -3.296E+00   -3.061E+00
    -2.824E+00   -2.585E+00   -2.345E+00   -2.103E+00   -1.859E+00   -1.613E+00   -1.366E+00   -1.117E+00   -8.665E-01   -6.145E-01
    -3.611E-01   -1.063E-01    1.499E-01    4.075E-01    6.663E-01    9.263E-01    1.188E+00    1.450E+00    1.713E+00    1.978E+00
     2.243E+00    2.510E+00    2.777E+00    3.046E+00    3.315E+00    3.584E+00    3.855E+00    4.126E+00    4.398E+00    4.670E+00
     4.943E+00    5.217E+00    5.490E+00    5.765E+00    6.039E+00    6.314E+00    6.589E+00    6.864E+00    7.139E+00    7.415E+00
     7.690E+00    7.965E+00    8.241E+00    8.516E+00    8.791E+00    9.066E+00    9.340E+00    9.614E+00
 Ala      Conc. = 3.39E+00
