 LCModel (Version 6.3-1L) Copyright: S.W. Provencher.          Ref.: Magn. Reson. Med. 30:672-679 (1993).                
 Slice#3 Row#13 Col#13  K_02_press_1_raw_act
 36 lines in following concentration table = NCONC+1
    Conc.  %SD /Cr+PCr  Metabolite                                         
 1.85E+03  40%   0.000 Ala                                                 
    0.000 999%   0.000 Asp                                                 
    0.000 999%   0.000 Cr                                                  
    0.000 999%   0.000 PCr                                                 
    0.000 999%   0.000 GABA                                                
    0.000 999%   0.000 Glc                                                 
    0.000 999%   0.000 Gln                                                 
    0.000 999%   0.000 Glu                                                 
    0.000 999%   0.000 GPC                                                 
    0.000 999%   0.000 PCh                                                 
   61.010 117%   0.000 GSH                                                 
    0.000 999%   0.000 Ins                                                 
    3.303 999%   0.000 Lac                                                 
    0.000 999%   0.000 NAA                                                 
    0.000 999%   0.000 NAAG                                                
    0.675 999%   0.000 Scyllo                                              
    0.000 999%   0.000 Tau                                                 
 6.26E-02 999%   0.000 -CrCH2                                              
    0.000 999%   0.000 GPC+PCh                                             
    0.000 999%   0.000 NAA+NAAG                                            
    0.000 999%   0.000 Cr+PCr                                              
    0.000 999%   0.000 Glu+Gln                                             
 1.37E+04   9%   0.000 Lip13a                                              
 3.44E+03  11%   0.000 Lip13b                                              
 5.27E+03  12%   0.000 Lip09                                               
 1.58E+03  10%   0.000 MM09                                                
    0.000 999%   0.000-Lip20                                               
 1.48E+03  16%   0.000-MM20                                                
  482.049  15%   0.000 MM12                                                
 2.58E+03   7%   0.000+MM14                                                
 1.42E+03  10%   0.000+MM17                                                
 1.72E+04   6%   0.000 Lip13a+Lip13b                                       
 2.02E+04   5%   0.000 MM14+Lip13a+Lip13b+MM12                             
 6.86E+03   9%   0.000 MM09+Lip09                                          
 1.48E+03  16%   0.000 MM20+Lip20                                          
   6 lines in following misc. output table
  FWHM = 0.138 ppm    S/N =  13                                            
  Data shift = 0.252 ppm                                                   
  Ph: 123 deg      11.3 deg/ppm                                            
  alphaB,S = 2.6E+00,   9.9E+01                                            
    8 spline knots.   Ns = 9(2)                                            
  (11) 4 infls.   ( 6) 2 extrs.                                            
  498 points on ppm-axis = NY
      4.000000     3.992357     3.984714     3.977070     3.969427     3.961784     3.954141     3.946497     3.938854     3.931211
      3.923568     3.915925     3.908281     3.900638     3.892995     3.885352     3.877708     3.870065     3.862422     3.854779
      3.847136     3.839492     3.831849     3.824206     3.816563     3.808919     3.801276     3.793633     3.785990     3.778347
      3.770703     3.763060     3.755417     3.747774     3.740130     3.732487     3.724844     3.717201     3.709558     3.701914
      3.694271     3.686628     3.678985     3.671341     3.663698     3.656055     3.648412     3.640769     3.633125     3.625482
      3.617839     3.610196     3.602552     3.594909     3.587266     3.579623     3.571980     3.564336     3.556693     3.549050
      3.541407     3.533763     3.526120     3.518477     3.510834     3.503191     3.495547     3.487904     3.480261     3.472618
      3.464974     3.457331     3.449688     3.442045     3.434402     3.426758     3.419115     3.411472     3.403829     3.396185
      3.388542     3.380899     3.373256     3.365613     3.357969     3.350326     3.342683     3.335040     3.327396     3.319753
      3.312110     3.304467     3.296824     3.289180     3.281537     3.273894     3.266251     3.258607     3.250964     3.243321
      3.235678     3.228034     3.220391     3.212748     3.205105     3.197462     3.189818     3.182175     3.174532     3.166889
      3.159245     3.151602     3.143959     3.136316     3.128673     3.121029     3.113386     3.105743     3.098100     3.090456
      3.082813     3.075170     3.067527     3.059884     3.052240     3.044597     3.036954     3.029311     3.021667     3.014024
      3.006381     2.998738     2.991095     2.983451     2.975808     2.968165     2.960522     2.952878     2.945235     2.937592
      2.929949     2.922306     2.914662     2.907019     2.899376     2.891733     2.884089     2.876446     2.868803     2.861160
      2.853517     2.845873     2.838230     2.830587     2.822944     2.815300     2.807657     2.800014     2.792371     2.784728
      2.777084     2.769441     2.761798     2.754155     2.746511     2.738868     2.731225     2.723582     2.715939     2.708295
      2.700652     2.693009     2.685366     2.677722     2.670079     2.662436     2.654793     2.647150     2.639506     2.631863
      2.624220     2.616577     2.608933     2.601290     2.593647     2.586004     2.578361     2.570717     2.563074     2.555431
      2.547788     2.540144     2.532501     2.524858     2.517215     2.509572     2.501928     2.494285     2.486642     2.478999
      2.471355     2.463712     2.456069     2.448426     2.440783     2.433139     2.425496     2.417853     2.410210     2.402566
      2.394923     2.387280     2.379637     2.371994     2.364350     2.356707     2.349064     2.341421     2.333777     2.326134
      2.318491     2.310848     2.303205     2.295561     2.287918     2.280275     2.272632     2.264988     2.257345     2.249702
      2.242059     2.234416     2.226772     2.219129     2.211486     2.203843     2.196199     2.188556     2.180913     2.173270
      2.165627     2.157983     2.150340     2.142697     2.135054     2.127410     2.119767     2.112124     2.104481     2.096838
      2.089194     2.081551     2.073908     2.066265     2.058621     2.050978     2.043335     2.035692     2.028049     2.020405
      2.012762     2.005119     1.997476     1.989833     1.982190     1.974546     1.966903     1.959260     1.951617     1.943974
      1.936331     1.928688     1.921045     1.913402     1.905759     1.898115     1.890472     1.882829     1.875186     1.867543
      1.859900     1.852257     1.844614     1.836971     1.829327     1.821684     1.814041     1.806398     1.798755     1.791112
      1.783469     1.775826     1.768183     1.760540     1.752896     1.745253     1.737610     1.729967     1.722324     1.714681
      1.707038     1.699395     1.691752     1.684108     1.676465     1.668822     1.661179     1.653536     1.645893     1.638250
      1.630607     1.622964     1.615321     1.607677     1.600034     1.592391     1.584748     1.577105     1.569462     1.561819
      1.554176     1.546533     1.538890     1.531246     1.523603     1.515960     1.508317     1.500674     1.493031     1.485388
      1.477745     1.470102     1.462458     1.454815     1.447172     1.439529     1.431886     1.424243     1.416600     1.408957
      1.401314     1.393671     1.386027     1.378384     1.370741     1.363098     1.355455     1.347812     1.340169     1.332526
      1.324883     1.317240     1.309596     1.301953     1.294310     1.286667     1.279024     1.271381     1.263738     1.256095
      1.248452     1.240808     1.233165     1.225522     1.217879     1.210236     1.202593     1.194950     1.187307     1.179664
      1.172021     1.164377     1.156734     1.149091     1.141448     1.133805     1.126162     1.118519     1.110876     1.103233
      1.095590     1.087946     1.080303     1.072660     1.065017     1.057374     1.049731     1.042088     1.034445     1.026802
      1.019158     1.011515     1.003872     0.996229     0.988586     0.980943     0.973300     0.965657     0.958014     0.950371
      0.942727     0.935084     0.927441     0.919798     0.912155     0.904512     0.896869     0.889226     0.881583     0.873940
      0.866296     0.858653     0.851010     0.843367     0.835724     0.828081     0.820438     0.812795     0.805152     0.797508
      0.789865     0.782222     0.774579     0.766936     0.759293     0.751650     0.744007     0.736364     0.728721     0.721077
      0.713434     0.705791     0.698148     0.690505     0.682862     0.675219     0.667576     0.659933     0.652290     0.644646
      0.637003     0.629360     0.621717     0.614074     0.606431     0.598788     0.591145     0.583502     0.575858     0.568215
      0.560572     0.552929     0.545286     0.537643     0.530000     0.522357     0.514714     0.507071     0.499427     0.491784
      0.484141     0.476498     0.468855     0.461212     0.453569     0.445925     0.438282     0.430639     0.422996     0.415353
      0.407710     0.400067     0.392424     0.384780     0.377137     0.369494     0.361851     0.354208     0.346565     0.338922
      0.331278     0.323635     0.315992     0.308349     0.300706     0.293063     0.285420     0.277777     0.270133     0.262490
      0.254847     0.247204     0.239561     0.231918     0.224275     0.216631     0.208988     0.201345
 NY phased data points follow
  -2.96030E+00 -2.40432E+00 -2.13855E+00 -2.24299E+00 -2.91086E+00 -3.98499E+00 -2.97945E+00 -3.66335E+00 -2.80025E+00 -3.59609E+00
  -4.09128E+00 -3.07030E+00 -2.61917E+00 -3.03899E+00 -1.66177E+00 -3.24497E+00 -2.65301E+00 -2.51498E+00 -3.05453E+00 -3.92022E+00
  -3.01596E+00 -2.61687E+00 -1.64962E+00 -2.86771E+00 -2.84261E+00 -1.90432E+00 -1.85502E+00 -3.24917E+00 -2.06369E+00 -4.08985E+00
  -2.85242E+00 -4.48644E+00 -1.87105E+00 -3.63260E+00 -2.63818E+00 -3.66339E+00 -3.76886E+00 -2.55550E+00 -3.84933E+00 -4.31979E+00
  -1.93300E+00 -3.47650E+00 -2.91554E+00 -3.50976E+00 -3.37249E+00 -4.28744E+00 -2.43630E+00 -4.46531E+00 -4.14150E+00 -4.03073E+00
  -3.11229E+00 -3.51523E+00 -3.34569E+00 -3.67792E+00 -3.56359E+00 -4.97414E+00 -4.10161E+00 -3.44421E+00 -3.98205E+00 -5.68288E+00
  -3.34140E+00 -4.66566E+00 -3.20448E+00 -3.25479E+00 -3.90915E+00 -3.83115E+00 -3.97781E+00 -4.50062E+00 -3.86153E+00 -4.07378E+00
  -4.33636E+00 -2.94843E+00 -4.18093E+00 -4.95442E+00 -4.88694E+00 -5.18821E+00 -4.17571E+00 -5.21448E+00 -5.43900E+00 -5.16612E+00
  -6.78807E+00 -5.03773E+00 -5.02324E+00 -4.79411E+00 -5.82866E+00 -5.95413E+00 -4.05483E+00 -4.29172E+00 -5.01874E+00 -5.94332E+00
  -5.75112E+00 -4.71752E+00 -4.29745E+00 -4.73256E+00 -6.20950E+00 -3.86614E+00 -4.18596E+00 -5.22564E+00 -5.27631E+00 -4.48776E+00
  -5.76329E+00 -5.79450E+00 -4.39129E+00 -5.09157E+00 -4.82271E+00 -5.18174E+00 -5.83498E+00 -5.25703E+00 -6.68980E+00 -7.04550E+00
  -5.51987E+00 -6.12646E+00 -5.66963E+00 -5.89210E+00 -4.85613E+00 -6.22781E+00 -6.25403E+00 -5.06932E+00 -4.41726E+00 -7.06414E+00
  -7.13020E+00 -4.36184E+00 -5.87303E+00 -4.95220E+00 -6.41732E+00 -6.65331E+00 -5.03861E+00 -6.61319E+00 -6.37358E+00 -7.04576E+00
  -7.19104E+00 -7.30290E+00 -7.47462E+00 -5.97992E+00 -7.95382E+00 -7.36559E+00 -6.48775E+00 -6.37854E+00 -6.35293E+00 -6.73971E+00
  -5.28651E+00 -6.02658E+00 -6.81410E+00 -6.76406E+00 -6.53230E+00 -6.58944E+00 -6.14189E+00 -7.24133E+00 -6.55766E+00 -6.77927E+00
  -7.44353E+00 -6.08400E+00 -7.06221E+00 -8.15632E+00 -5.62621E+00 -7.38906E+00 -6.46212E+00 -7.12072E+00 -7.96618E+00 -6.59388E+00
  -6.29947E+00 -7.58064E+00 -8.32241E+00 -7.73484E+00 -7.99993E+00 -8.06841E+00 -5.86397E+00 -7.42984E+00 -6.79952E+00 -8.08953E+00
  -7.55607E+00 -7.40216E+00 -8.65187E+00 -8.52316E+00 -8.77796E+00 -7.35613E+00 -7.42165E+00 -8.88643E+00 -8.42204E+00 -7.42729E+00
  -8.53267E+00 -8.70423E+00 -6.60191E+00 -1.10578E+01 -7.50689E+00 -1.00306E+01 -7.59831E+00 -9.27402E+00 -8.01625E+00 -8.45860E+00
  -8.44655E+00 -1.00964E+01 -9.84893E+00 -7.94321E+00 -1.00772E+01 -9.33244E+00 -1.03722E+01 -8.23342E+00 -1.10983E+01 -9.41374E+00
  -1.00396E+01 -9.04178E+00 -1.00943E+01 -1.03669E+01 -1.00749E+01 -9.73916E+00 -9.50385E+00 -9.25492E+00 -9.17583E+00 -1.06582E+01
  -9.85158E+00 -9.59595E+00 -9.81839E+00 -9.80480E+00 -9.83548E+00 -1.23561E+01 -1.06064E+01 -1.02580E+01 -1.01871E+01 -9.31055E+00
  -1.09925E+01 -1.11046E+01 -1.08124E+01 -1.07631E+01 -1.16180E+01 -9.89755E+00 -1.28444E+01 -1.21335E+01 -9.46765E+00 -8.29200E+00
  -7.78315E+00 -9.47618E+00 -8.66225E+00 -1.12557E+01 -9.28180E+00 -9.98445E+00 -8.77106E+00 -8.71329E+00 -9.66588E+00 -1.09974E+01
  -8.77562E+00 -8.26277E+00 -8.37187E+00 -8.27374E+00 -9.97390E+00 -9.31671E+00 -1.02400E+01 -8.38325E+00 -8.42445E+00 -7.83097E+00
  -9.48439E+00 -8.17319E+00 -8.64432E+00 -1.04342E+01 -9.26313E+00 -8.05209E+00 -7.18984E+00 -8.04558E+00 -8.73237E+00 -7.92430E+00
  -8.78811E+00 -7.16489E+00 -7.86159E+00 -8.46678E+00 -6.44575E+00 -9.20629E+00 -8.11787E+00 -7.92003E+00 -7.83901E+00 -8.43985E+00
  -9.26529E+00 -8.02397E+00 -8.24572E+00 -9.49677E+00 -7.25133E+00 -7.59005E+00 -8.31950E+00 -6.51986E+00 -7.65283E+00 -7.41132E+00
  -7.51687E+00 -7.77107E+00 -7.24261E+00 -5.74270E+00 -6.26137E+00 -5.49912E+00 -4.47082E+00 -4.21322E+00 -2.13347E+00  6.00339E-01
   1.86402E+00  6.27133E+00  9.48392E+00  1.29271E+01  1.49856E+01  1.85974E+01  2.25791E+01  2.54679E+01  2.76841E+01  2.83075E+01
   2.96908E+01  3.02901E+01  3.07027E+01  2.91825E+01  2.88112E+01  2.97366E+01  2.62197E+01  2.56709E+01  2.54033E+01  2.33734E+01
   2.47890E+01  2.26521E+01  2.15138E+01  2.12318E+01  2.23628E+01  2.21159E+01  2.20711E+01  2.42613E+01  2.61129E+01  2.44240E+01
   2.67150E+01  2.79137E+01  2.80592E+01  3.05738E+01  3.19007E+01  3.25317E+01  3.33077E+01  3.60361E+01  3.55508E+01  3.61031E+01
   3.91894E+01  3.90824E+01  3.99449E+01  4.06527E+01  4.01756E+01  4.07037E+01  4.15509E+01  4.11449E+01  4.24410E+01  4.30494E+01
   4.22193E+01  4.26203E+01  4.13167E+01  4.22040E+01  4.20770E+01  4.35561E+01  4.18490E+01  4.39395E+01  4.33815E+01  4.10413E+01
   4.20271E+01  4.16589E+01  4.04966E+01  4.24096E+01  4.15559E+01  4.01972E+01  3.96459E+01  3.98556E+01  3.70193E+01  3.59294E+01
   3.67837E+01  3.66111E+01  3.65280E+01  3.70804E+01  3.52763E+01  3.45926E+01  3.36564E+01  3.31196E+01  3.25271E+01  3.09786E+01
   3.00068E+01  3.08782E+01  2.77732E+01  3.12757E+01  2.84666E+01  2.83084E+01  2.57575E+01  2.71446E+01  2.65360E+01  2.70968E+01
   2.62577E+01  2.65883E+01  2.53041E+01  2.53438E+01  2.49132E+01  2.37779E+01  2.29122E+01  2.12383E+01  2.27933E+01  2.25466E+01
   2.01425E+01  2.02564E+01  2.30577E+01  2.18432E+01  1.83545E+01  2.05284E+01  1.95470E+01  1.87211E+01  1.83586E+01  1.81906E+01
   1.67915E+01  2.19862E+01  1.76531E+01  1.77751E+01  1.93853E+01  1.76929E+01  1.70591E+01  1.52519E+01  1.64535E+01  1.56462E+01
   1.73028E+01  1.66412E+01  1.49118E+01  1.46764E+01  1.45595E+01  1.49853E+01  1.35215E+01  1.37009E+01  1.38468E+01  1.26461E+01
   1.30172E+01  1.19461E+01  1.25481E+01  1.25323E+01  1.20046E+01  1.20975E+01  1.05723E+01  1.17261E+01  1.04538E+01  1.05349E+01
   1.32185E+01  1.22590E+01  1.05811E+01  1.04991E+01  1.19659E+01  1.03145E+01  9.99982E+00  1.16855E+01  9.89491E+00  1.06406E+01
   9.06639E+00  1.08823E+01  1.07460E+01  8.53007E+00  1.06646E+01  9.04928E+00  8.91673E+00  8.79009E+00  1.04330E+01  8.94894E+00
   9.30034E+00  1.03044E+01  9.03521E+00  9.67971E+00  9.38968E+00  1.00928E+01  8.41364E+00  9.28703E+00  8.80601E+00  7.66415E+00
   8.39709E+00  8.09519E+00  8.60782E+00  8.25167E+00  8.32097E+00  6.60956E+00  7.98555E+00  7.26000E+00  8.54234E+00  7.08140E+00
   7.45184E+00  7.78027E+00  6.64998E+00  6.26710E+00  6.74978E+00  6.35818E+00  5.95808E+00  5.63746E+00  4.52272E+00  6.22011E+00
   7.33655E+00  5.20866E+00  7.47543E+00  6.30913E+00  7.00141E+00  5.50698E+00  4.39435E+00  5.08416E+00  5.82868E+00  5.32763E+00
   5.13975E+00  5.62033E+00  4.65125E+00  4.61658E+00  5.47600E+00  6.14797E+00  5.15414E+00  4.91027E+00
 NY points of the fit to the data follow
  -2.46391E+00 -2.46828E+00 -2.44699E+00 -2.48627E+00 -2.49612E+00 -2.58510E+00 -2.66335E+00 -2.81104E+00 -2.87420E+00 -3.00020E+00
  -2.98581E+00 -3.02164E+00 -2.98103E+00 -2.90292E+00 -2.88594E+00 -2.77923E+00 -2.85553E+00 -2.74795E+00 -2.95704E+00 -2.79647E+00
  -3.10881E+00 -2.86664E+00 -3.20588E+00 -2.87894E+00 -3.22159E+00 -2.83838E+00 -3.22524E+00 -2.85058E+00 -3.23833E+00 -2.90885E+00
  -3.24267E+00 -2.99697E+00 -3.23689E+00 -3.08130E+00 -3.22168E+00 -3.18718E+00 -3.20678E+00 -3.29102E+00 -3.17539E+00 -3.43875E+00
  -3.27835E+00 -3.57179E+00 -3.33528E+00 -3.68336E+00 -3.39057E+00 -3.74271E+00 -3.28391E+00 -3.52542E+00 -3.28875E+00 -3.61533E+00
  -3.49939E+00 -3.81565E+00 -3.73414E+00 -4.13458E+00 -4.19651E+00 -4.35762E+00 -4.30217E+00 -4.37183E+00 -4.28887E+00 -4.29244E+00
  -4.19005E+00 -4.15040E+00 -4.15597E+00 -4.17522E+00 -4.19993E+00 -4.22736E+00 -4.25626E+00 -4.28620E+00 -4.31711E+00 -4.34811E+00
  -4.37993E+00 -4.41119E+00 -4.44286E+00 -4.47395E+00 -4.50499E+00 -4.53584E+00 -4.56633E+00 -4.59695E+00 -4.62683E+00 -4.65722E+00
  -4.68641E+00 -4.71662E+00 -4.74525E+00 -4.77539E+00 -4.80367E+00 -4.83378E+00 -4.86174E+00 -4.89191E+00 -4.91999E+00 -4.95029E+00
  -4.97864E+00 -5.00902E+00 -5.03779E+00 -5.06807E+00 -5.09701E+00 -5.12695E+00 -5.15595E+00 -5.18527E+00 -5.21406E+00 -5.24245E+00
  -5.27069E+00 -5.29737E+00 -5.32344E+00 -5.34798E+00 -5.37157E+00 -5.39402E+00 -5.41570E+00 -5.43595E+00 -5.45349E+00 -5.47172E+00
  -5.48710E+00 -5.50353E+00 -5.51748E+00 -5.53258E+00 -5.54743E+00 -5.56467E+00 -5.58196E+00 -5.59627E+00 -5.61243E+00 -5.61777E+00
  -5.63046E+00 -5.63137E+00 -5.64571E+00 -5.65180E+00 -5.67495E+00 -5.68658E+00 -5.71859E+00 -5.73337E+00 -5.77099E+00 -5.79160E+00
  -5.83416E+00 -5.86503E+00 -5.91176E+00 -5.95377E+00 -6.00275E+00 -6.05912E+00 -6.11025E+00 -6.18096E+00 -6.23379E+00 -6.31782E+00
  -6.36994E+00 -6.46481E+00 -6.51751E+00 -6.62276E+00 -6.67661E+00 -6.78988E+00 -6.84434E+00 -6.96003E+00 -7.01596E+00 -7.12768E+00
  -7.18481E+00 -7.29654E+00 -7.35910E+00 -7.46974E+00 -7.53502E+00 -7.62602E+00 -7.68950E+00 -7.78346E+00 -7.85585E+00 -7.95330E+00
  -8.03489E+00 -8.12376E+00 -8.20247E+00 -8.27552E+00 -8.34359E+00 -8.41048E+00 -8.47403E+00 -8.53592E+00 -8.59691E+00 -8.65504E+00
  -8.71405E+00 -8.77039E+00 -8.83123E+00 -8.89070E+00 -8.95478E+00 -9.01659E+00 -9.08055E+00 -9.14164E+00 -9.19745E+00 -9.25284E+00
  -9.29873E+00 -9.35384E+00 -9.39286E+00 -9.45249E+00 -9.48678E+00 -9.54956E+00 -9.57934E+00 -9.64075E+00 -9.66680E+00 -9.72422E+00
  -9.74808E+00 -9.80014E+00 -9.82462E+00 -9.86967E+00 -9.89638E+00 -9.93146E+00 -9.96171E+00 -9.98725E+00 -1.00219E+01 -1.00342E+01
  -1.00716E+01 -1.00730E+01 -1.01125E+01 -1.01040E+01 -1.01434E+01 -1.01256E+01 -1.01603E+01 -1.01382E+01 -1.01650E+01 -1.01395E+01
  -1.01585E+01 -1.01291E+01 -1.01313E+01 -1.00945E+01 -1.00805E+01 -1.00427E+01 -1.00202E+01 -9.98821E+00 -9.96500E+00 -9.95401E+00
  -9.93459E+00 -9.91386E+00 -9.88354E+00 -9.84799E+00 -9.80554E+00 -9.75593E+00 -9.70282E+00 -9.64508E+00 -9.58529E+00 -9.52091E+00
  -9.45392E+00 -9.38021E+00 -9.30338E+00 -9.21827E+00 -9.12813E+00 -9.03265E+00 -8.93042E+00 -8.82731E+00 -8.71377E+00 -8.60839E+00
  -8.48806E+00 -8.38356E+00 -8.26080E+00 -8.16167E+00 -8.04252E+00 -7.95211E+00 -7.84319E+00 -7.77096E+00 -7.68193E+00 -7.63014E+00
  -7.56523E+00 -7.53512E+00 -7.49906E+00 -7.49853E+00 -7.49624E+00 -7.51765E+00 -7.54327E+00 -7.58245E+00 -7.62759E+00 -7.66962E+00
  -7.72897E+00 -7.79012E+00 -7.86563E+00 -7.93799E+00 -8.01961E+00 -8.09670E+00 -8.17735E+00 -8.24057E+00 -8.30153E+00 -8.34623E+00
  -8.38296E+00 -8.40097E+00 -8.40244E+00 -8.38108E+00 -8.33310E+00 -8.25135E+00 -8.12707E+00 -7.95076E+00 -7.71091E+00 -7.39465E+00
  -6.98733E+00 -6.47316E+00 -5.83537E+00 -5.05701E+00 -4.12180E+00 -3.01522E+00 -1.72576E+00 -2.46309E-01  1.42459E+00  3.28125E+00
   5.31005E+00  7.48837E+00  9.78490E+00  1.21594E+01  1.45643E+01  1.69459E+01  1.92470E+01  2.14092E+01  2.33767E+01  2.50983E+01
   2.65315E+01  2.76442E+01  2.84170E+01  2.88438E+01  2.89326E+01  2.87027E+01  2.81827E+01  2.74009E+01  2.63635E+01  2.51181E+01
   2.40820E+01  2.29219E+01  2.23983E+01  2.18701E+01  2.19871E+01  2.22610E+01  2.29318E+01  2.36078E+01  2.44566E+01  2.53923E+01
   2.61646E+01  2.75130E+01  2.81983E+01  2.99750E+01  3.06189E+01  3.26238E+01  3.31434E+01  3.52159E+01  3.54601E+01  3.73717E+01
   3.74449E+01  3.90821E+01  3.90521E+01  4.02816E+01  4.02807E+01  4.11915E+01  4.13601E+01  4.18004E+01  4.21370E+01  4.20957E+01
   4.26417E+01  4.21526E+01  4.29997E+01  4.23815E+01  4.32721E+01  4.23347E+01  4.32192E+01  4.21387E+01  4.34530E+01  4.28846E+01
   4.33145E+01  4.23857E+01  4.23949E+01  4.13214E+01  4.09456E+01  3.95086E+01  3.85365E+01  3.80084E+01  3.76732E+01  3.74325E+01
   3.71974E+01  3.69312E+01  3.65817E+01  3.61381E+01  3.55763E+01  3.49097E+01  3.41408E+01  3.33006E+01  3.24114E+01  3.15091E+01
   3.06189E+01  2.97737E+01  2.89925E+01  2.82933E+01  2.76833E+01  2.71632E+01  2.67302E+01  2.63731E+01  2.60773E+01  2.58263E+01
   2.56024E+01  2.53886E+01  2.51694E+01  2.49318E+01  2.46656E+01  2.43640E+01  2.40234E+01  2.36437E+01  2.32274E+01  2.27796E+01
   2.23070E+01  2.18180E+01  2.13211E+01  2.08250E+01  2.03380E+01  1.98675E+01  1.94194E+01  1.89984E+01  1.86076E+01  1.82487E+01
   1.79220E+01  1.76266E+01  1.73603E+01  1.71206E+01  1.69041E+01  1.67072E+01  1.65259E+01  1.63566E+01  1.61956E+01  1.60395E+01
   1.58853E+01  1.57305E+01  1.55727E+01  1.54103E+01  1.52418E+01  1.50662E+01  1.48830E+01  1.46919E+01  1.44927E+01  1.42859E+01
   1.40718E+01  1.38511E+01  1.36245E+01  1.33929E+01  1.31571E+01  1.29183E+01  1.26774E+01  1.24354E+01  1.21932E+01  1.19519E+01
   1.17122E+01  1.14750E+01  1.12410E+01  1.10110E+01  1.07856E+01  1.05653E+01  1.03506E+01  1.01419E+01  9.93944E+00  9.74360E+00
   9.55454E+00  9.37242E+00  9.19731E+00  9.02927E+00  8.86830E+00  8.71438E+00  8.56743E+00  8.42736E+00  8.29405E+00  8.16738E+00
   8.04717E+00  7.93326E+00  7.82548E+00  7.72363E+00  7.62752E+00  7.53695E+00  7.45173E+00  7.37165E+00  7.29651E+00  7.22612E+00
   7.16029E+00  7.09881E+00  7.04150E+00  6.98819E+00  6.93868E+00  6.89281E+00  6.85041E+00  6.81132E+00  6.77537E+00  6.74243E+00
   6.71234E+00  6.68497E+00  6.66018E+00  6.63784E+00  6.61782E+00  6.60002E+00  6.58431E+00  6.57058E+00  6.55874E+00  6.54868E+00
   6.54030E+00  6.53352E+00  6.52825E+00  6.52440E+00  6.52190E+00  6.52066E+00  6.52061E+00  6.52169E+00  6.52383E+00  6.52696E+00
   6.53102E+00  6.53596E+00  6.54171E+00  6.54822E+00  6.55544E+00  6.56332E+00  6.57180E+00  6.58084E+00
 NY background values follow
    -2.864E+00   -2.890E+00   -2.916E+00   -2.942E+00   -2.967E+00   -2.993E+00   -3.019E+00   -3.044E+00   -3.070E+00   -3.095E+00
    -3.121E+00   -3.147E+00   -3.172E+00   -3.198E+00   -3.223E+00   -3.249E+00   -3.274E+00   -3.300E+00   -3.326E+00   -3.351E+00
    -3.377E+00   -3.403E+00   -3.429E+00   -3.454E+00   -3.480E+00   -3.506E+00   -3.532E+00   -3.559E+00   -3.585E+00   -3.611E+00
    -3.637E+00   -3.664E+00   -3.690E+00   -3.717E+00   -3.744E+00   -3.771E+00   -3.797E+00   -3.825E+00   -3.852E+00   -3.879E+00
    -3.906E+00   -3.934E+00   -3.962E+00   -3.990E+00   -4.018E+00   -4.046E+00   -4.074E+00   -4.103E+00   -4.131E+00   -4.160E+00
    -4.189E+00   -4.218E+00   -4.248E+00   -4.277E+00   -4.307E+00   -4.337E+00   -4.367E+00   -4.397E+00   -4.428E+00   -4.459E+00
    -4.490E+00   -4.521E+00   -4.552E+00   -4.584E+00   -4.616E+00   -4.648E+00   -4.681E+00   -4.713E+00   -4.746E+00   -4.779E+00
    -4.813E+00   -4.847E+00   -4.881E+00   -4.915E+00   -4.950E+00   -4.985E+00   -5.020E+00   -5.055E+00   -5.091E+00   -5.127E+00
    -5.164E+00   -5.200E+00   -5.238E+00   -5.275E+00   -5.313E+00   -5.351E+00   -5.389E+00   -5.428E+00   -5.467E+00   -5.507E+00
    -5.546E+00   -5.587E+00   -5.627E+00   -5.668E+00   -5.709E+00   -5.751E+00   -5.793E+00   -5.836E+00   -5.879E+00   -5.922E+00
    -5.966E+00   -6.010E+00   -6.054E+00   -6.099E+00   -6.145E+00   -6.190E+00   -6.236E+00   -6.283E+00   -6.330E+00   -6.377E+00
    -6.424E+00   -6.472E+00   -6.521E+00   -6.569E+00   -6.618E+00   -6.668E+00   -6.717E+00   -6.767E+00   -6.817E+00   -6.868E+00
    -6.919E+00   -6.970E+00   -7.022E+00   -7.074E+00   -7.126E+00   -7.178E+00   -7.231E+00   -7.284E+00   -7.338E+00   -7.391E+00
    -7.445E+00   -7.499E+00   -7.554E+00   -7.608E+00   -7.663E+00   -7.718E+00   -7.774E+00   -7.829E+00   -7.885E+00   -7.941E+00
    -7.997E+00   -8.054E+00   -8.111E+00   -8.168E+00   -8.225E+00   -8.282E+00   -8.340E+00   -8.398E+00   -8.455E+00   -8.514E+00
    -8.572E+00   -8.630E+00   -8.689E+00   -8.748E+00   -8.807E+00   -8.866E+00   -8.925E+00   -8.984E+00   -9.044E+00   -9.103E+00
    -9.163E+00   -9.223E+00   -9.283E+00   -9.343E+00   -9.404E+00   -9.464E+00   -9.524E+00   -9.585E+00   -9.646E+00   -9.706E+00
    -9.767E+00   -9.828E+00   -9.889E+00   -9.950E+00   -1.001E+01   -1.007E+01   -1.013E+01   -1.019E+01   -1.026E+01   -1.032E+01
    -1.038E+01   -1.044E+01   -1.050E+01   -1.056E+01   -1.062E+01   -1.069E+01   -1.075E+01   -1.081E+01   -1.087E+01   -1.093E+01
    -1.099E+01   -1.105E+01   -1.112E+01   -1.118E+01   -1.124E+01   -1.130E+01   -1.136E+01   -1.142E+01   -1.148E+01   -1.154E+01
    -1.161E+01   -1.167E+01   -1.173E+01   -1.179E+01   -1.185E+01   -1.191E+01   -1.197E+01   -1.203E+01   -1.209E+01   -1.215E+01
    -1.221E+01   -1.227E+01   -1.233E+01   -1.238E+01   -1.244E+01   -1.250E+01   -1.256E+01   -1.261E+01   -1.267E+01   -1.273E+01
    -1.278E+01   -1.284E+01   -1.289E+01   -1.295E+01   -1.300E+01   -1.305E+01   -1.311E+01   -1.316E+01   -1.321E+01   -1.326E+01
    -1.331E+01   -1.336E+01   -1.341E+01   -1.345E+01   -1.350E+01   -1.355E+01   -1.359E+01   -1.364E+01   -1.368E+01   -1.372E+01
    -1.377E+01   -1.381E+01   -1.385E+01   -1.389E+01   -1.392E+01   -1.396E+01   -1.400E+01   -1.403E+01   -1.407E+01   -1.410E+01
    -1.413E+01   -1.417E+01   -1.420E+01   -1.422E+01   -1.425E+01   -1.428E+01   -1.430E+01   -1.433E+01   -1.435E+01   -1.437E+01
    -1.439E+01   -1.441E+01   -1.443E+01   -1.445E+01   -1.446E+01   -1.448E+01   -1.449E+01   -1.450E+01   -1.451E+01   -1.452E+01
    -1.452E+01   -1.453E+01   -1.453E+01   -1.453E+01   -1.454E+01   -1.453E+01   -1.453E+01   -1.453E+01   -1.452E+01   -1.451E+01
    -1.450E+01   -1.449E+01   -1.448E+01   -1.447E+01   -1.445E+01   -1.443E+01   -1.441E+01   -1.439E+01   -1.437E+01   -1.434E+01
    -1.432E+01   -1.429E+01   -1.426E+01   -1.422E+01   -1.419E+01   -1.415E+01   -1.411E+01   -1.407E+01   -1.403E+01   -1.399E+01
    -1.394E+01   -1.389E+01   -1.384E+01   -1.379E+01   -1.373E+01   -1.368E+01   -1.362E+01   -1.356E+01   -1.349E+01   -1.343E+01
    -1.337E+01   -1.330E+01   -1.323E+01   -1.316E+01   -1.309E+01   -1.301E+01   -1.294E+01   -1.286E+01   -1.278E+01   -1.270E+01
    -1.262E+01   -1.253E+01   -1.245E+01   -1.236E+01   -1.228E+01   -1.219E+01   -1.210E+01   -1.200E+01   -1.191E+01   -1.182E+01
    -1.172E+01   -1.163E+01   -1.153E+01   -1.143E+01   -1.133E+01   -1.123E+01   -1.113E+01   -1.102E+01   -1.092E+01   -1.081E+01
    -1.071E+01   -1.060E+01   -1.049E+01   -1.038E+01   -1.028E+01   -1.016E+01   -1.005E+01   -9.942E+00   -9.829E+00   -9.716E+00
    -9.602E+00   -9.487E+00   -9.372E+00   -9.256E+00   -9.139E+00   -9.022E+00   -8.905E+00   -8.787E+00   -8.668E+00   -8.549E+00
    -8.430E+00   -8.310E+00   -8.190E+00   -8.070E+00   -7.949E+00   -7.828E+00   -7.707E+00   -7.586E+00   -7.464E+00   -7.342E+00
    -7.220E+00   -7.098E+00   -6.976E+00   -6.854E+00   -6.732E+00   -6.610E+00   -6.488E+00   -6.366E+00   -6.244E+00   -6.122E+00
    -6.000E+00   -5.878E+00   -5.757E+00   -5.636E+00   -5.515E+00   -5.394E+00   -5.274E+00   -5.154E+00   -5.034E+00   -4.915E+00
    -4.796E+00   -4.677E+00   -4.559E+00   -4.442E+00   -4.325E+00   -4.209E+00   -4.093E+00   -3.977E+00   -3.863E+00   -3.749E+00
    -3.635E+00   -3.523E+00   -3.411E+00   -3.299E+00   -3.188E+00   -3.078E+00   -2.969E+00   -2.860E+00   -2.752E+00   -2.644E+00
    -2.537E+00   -2.431E+00   -2.325E+00   -2.220E+00   -2.116E+00   -2.012E+00   -1.909E+00   -1.806E+00   -1.704E+00   -1.603E+00
    -1.503E+00   -1.403E+00   -1.304E+00   -1.205E+00   -1.107E+00   -1.010E+00   -9.129E-01   -8.168E-01   -7.214E-01   -6.266E-01
    -5.325E-01   -4.390E-01   -3.461E-01   -2.539E-01   -1.623E-01   -7.137E-02    1.893E-02    1.086E-01    1.976E-01    2.860E-01
     3.737E-01    4.608E-01    5.473E-01    6.331E-01    7.183E-01    8.029E-01    8.868E-01    9.701E-01    1.053E+00    1.135E+00
     1.216E+00    1.297E+00    1.377E+00    1.456E+00    1.535E+00    1.613E+00    1.691E+00    1.768E+00    1.844E+00    1.919E+00
     1.994E+00    2.069E+00    2.142E+00    2.216E+00    2.288E+00    2.360E+00    2.431E+00    2.501E+00    2.571E+00    2.640E+00
     2.709E+00    2.777E+00    2.844E+00    2.911E+00    2.977E+00    3.042E+00    3.107E+00    3.171E+00    3.235E+00    3.298E+00
     3.360E+00    3.422E+00    3.482E+00    3.543E+00    3.602E+00    3.662E+00    3.720E+00    3.778E+00    3.835E+00    3.891E+00
     3.947E+00    4.002E+00    4.057E+00    4.111E+00    4.164E+00    4.217E+00    4.269E+00    4.320E+00
 Ala      Conc. = 1.85E+03
