 LCModel (Version 6.3-1L) Copyright: S.W. Provencher.          Ref.: Magn. Reson. Med. 30:672-679 (1993).                
 Slice#2 Row#5 Col#8  K_02_press_1_raw_act
 36 lines in following concentration table = NCONC+1
    Conc.  %SD /Cr+PCr  Metabolite                                         
   26.691 552% 1.0E-02 Ala                                                 
    0.000 999%   0.000 Asp                                                 
 2.01E+03  14%   0.757 Cr                                                  
  645.758  43%   0.243 PCr                                                 
    0.000 999%   0.000 GABA                                                
    0.000 999%   0.000 Glc                                                 
  504.383  58%   0.190 Gln                                                 
 2.69E+03  13%   1.013 Glu                                                 
  867.043   4%   0.327 GPC                                                 
    0.000 999%   0.000 PCh                                                 
  794.039  13%   0.299 GSH                                                 
 2.77E+03  12%   1.044 Ins                                                 
  324.370  49%   0.122 Lac                                                 
 2.98E+03   5%   1.122 NAA                                                 
  519.807  32%   0.196 NAAG                                                
    0.000 999%   0.000 Scyllo                                              
    0.000 999%   0.000 Tau                                                 
    0.000 999%   0.000 -CrCH2                                              
  867.043   4%   0.327 GPC+PCh                                             
 3.50E+03   4%   1.318 NAA+NAAG                                            
 2.66E+03   3%   1.000 Cr+PCr                                              
 3.19E+03  14%   1.203 Glu+Gln                                             
 1.61E+04  15%   6.070 Lip13a                                              
    0.000 999%   0.000 Lip13b                                              
 4.46E+03  22%   1.681 Lip09                                               
 1.79E+03  51%   0.674 MM09                                                
 2.38E+03  25%   0.897 Lip20                                               
 2.84E+03  28%   1.069 MM20                                                
  670.222 120%   0.252 MM12                                                
 7.87E+03  18%   2.965 MM14                                                
 2.32E+03  31%   0.875 MM17                                                
 1.61E+04  15%   6.070 Lip13a+Lip13b                                       
 2.47E+04   7%   9.287 MM14+Lip13a+Lip13b+MM12                             
 6.25E+03  10%   2.355 MM09+Lip09                                          
 5.22E+03  13%   1.966 MM20+Lip20                                          
   6 lines in following misc. output table
  FWHM = 0.054 ppm    S/N =  13                                            
  Data shift = 0.015 ppm                                                   
  Ph:  16 deg       5.5 deg/ppm                                            
  alphaB,S = 1.8E+00,   8.2E+01                                            
   14 spline knots.   Ns = 6(1)                                            
  ( 7) 2 infls.   ( 5) 1 extrs.                                            
  498 points on ppm-axis = NY
      4.000000     3.992357     3.984714     3.977070     3.969427     3.961784     3.954141     3.946497     3.938854     3.931211
      3.923568     3.915925     3.908281     3.900638     3.892995     3.885352     3.877708     3.870065     3.862422     3.854779
      3.847136     3.839492     3.831849     3.824206     3.816563     3.808919     3.801276     3.793633     3.785990     3.778347
      3.770703     3.763060     3.755417     3.747774     3.740130     3.732487     3.724844     3.717201     3.709558     3.701914
      3.694271     3.686628     3.678985     3.671341     3.663698     3.656055     3.648412     3.640769     3.633125     3.625482
      3.617839     3.610196     3.602552     3.594909     3.587266     3.579623     3.571980     3.564336     3.556693     3.549050
      3.541407     3.533763     3.526120     3.518477     3.510834     3.503191     3.495547     3.487904     3.480261     3.472618
      3.464974     3.457331     3.449688     3.442045     3.434402     3.426758     3.419115     3.411472     3.403829     3.396185
      3.388542     3.380899     3.373256     3.365613     3.357969     3.350326     3.342683     3.335040     3.327396     3.319753
      3.312110     3.304467     3.296824     3.289180     3.281537     3.273894     3.266251     3.258607     3.250964     3.243321
      3.235678     3.228034     3.220391     3.212748     3.205105     3.197462     3.189818     3.182175     3.174532     3.166889
      3.159245     3.151602     3.143959     3.136316     3.128673     3.121029     3.113386     3.105743     3.098100     3.090456
      3.082813     3.075170     3.067527     3.059884     3.052240     3.044597     3.036954     3.029311     3.021667     3.014024
      3.006381     2.998738     2.991095     2.983451     2.975808     2.968165     2.960522     2.952878     2.945235     2.937592
      2.929949     2.922306     2.914662     2.907019     2.899376     2.891733     2.884089     2.876446     2.868803     2.861160
      2.853517     2.845873     2.838230     2.830587     2.822944     2.815300     2.807657     2.800014     2.792371     2.784728
      2.777084     2.769441     2.761798     2.754155     2.746511     2.738868     2.731225     2.723582     2.715939     2.708295
      2.700652     2.693009     2.685366     2.677722     2.670079     2.662436     2.654793     2.647150     2.639506     2.631863
      2.624220     2.616577     2.608933     2.601290     2.593647     2.586004     2.578361     2.570717     2.563074     2.555431
      2.547788     2.540144     2.532501     2.524858     2.517215     2.509572     2.501928     2.494285     2.486642     2.478999
      2.471355     2.463712     2.456069     2.448426     2.440783     2.433139     2.425496     2.417853     2.410210     2.402566
      2.394923     2.387280     2.379637     2.371994     2.364350     2.356707     2.349064     2.341421     2.333777     2.326134
      2.318491     2.310848     2.303205     2.295561     2.287918     2.280275     2.272632     2.264988     2.257345     2.249702
      2.242059     2.234416     2.226772     2.219129     2.211486     2.203843     2.196199     2.188556     2.180913     2.173270
      2.165627     2.157983     2.150340     2.142697     2.135054     2.127410     2.119767     2.112124     2.104481     2.096838
      2.089194     2.081551     2.073908     2.066265     2.058621     2.050978     2.043335     2.035692     2.028049     2.020405
      2.012762     2.005119     1.997476     1.989833     1.982190     1.974546     1.966903     1.959260     1.951617     1.943974
      1.936331     1.928688     1.921045     1.913402     1.905759     1.898115     1.890472     1.882829     1.875186     1.867543
      1.859900     1.852257     1.844614     1.836971     1.829327     1.821684     1.814041     1.806398     1.798755     1.791112
      1.783469     1.775826     1.768183     1.760540     1.752896     1.745253     1.737610     1.729967     1.722324     1.714681
      1.707038     1.699395     1.691752     1.684108     1.676465     1.668822     1.661179     1.653536     1.645893     1.638250
      1.630607     1.622964     1.615321     1.607677     1.600034     1.592391     1.584748     1.577105     1.569462     1.561819
      1.554176     1.546533     1.538890     1.531246     1.523603     1.515960     1.508317     1.500674     1.493031     1.485388
      1.477745     1.470102     1.462458     1.454815     1.447172     1.439529     1.431886     1.424243     1.416600     1.408957
      1.401314     1.393671     1.386027     1.378384     1.370741     1.363098     1.355455     1.347812     1.340169     1.332526
      1.324883     1.317240     1.309596     1.301953     1.294310     1.286667     1.279024     1.271381     1.263738     1.256095
      1.248452     1.240808     1.233165     1.225522     1.217879     1.210236     1.202593     1.194950     1.187307     1.179664
      1.172021     1.164377     1.156734     1.149091     1.141448     1.133805     1.126162     1.118519     1.110876     1.103233
      1.095590     1.087946     1.080303     1.072660     1.065017     1.057374     1.049731     1.042088     1.034445     1.026802
      1.019158     1.011515     1.003872     0.996229     0.988586     0.980943     0.973300     0.965657     0.958014     0.950371
      0.942727     0.935084     0.927441     0.919798     0.912155     0.904512     0.896869     0.889226     0.881583     0.873940
      0.866296     0.858653     0.851010     0.843367     0.835724     0.828081     0.820438     0.812795     0.805152     0.797508
      0.789865     0.782222     0.774579     0.766936     0.759293     0.751650     0.744007     0.736364     0.728721     0.721077
      0.713434     0.705791     0.698148     0.690505     0.682862     0.675219     0.667576     0.659933     0.652290     0.644646
      0.637003     0.629360     0.621717     0.614074     0.606431     0.598788     0.591145     0.583502     0.575858     0.568215
      0.560572     0.552929     0.545286     0.537643     0.530000     0.522357     0.514714     0.507071     0.499427     0.491784
      0.484141     0.476498     0.468855     0.461212     0.453569     0.445925     0.438282     0.430639     0.422996     0.415353
      0.407710     0.400067     0.392424     0.384780     0.377137     0.369494     0.361851     0.354208     0.346565     0.338922
      0.331278     0.323635     0.315992     0.308349     0.300706     0.293063     0.285420     0.277777     0.270133     0.262490
      0.254847     0.247204     0.239561     0.231918     0.224275     0.216631     0.208988     0.201345
 NY phased data points follow
   3.66587E+01  3.67693E+01  3.95136E+01  3.87717E+01  4.09770E+01  5.78849E+01  6.34542E+01  7.51361E+01  8.52185E+01  8.83321E+01
   9.25695E+01  9.02759E+01  9.13083E+01  6.90289E+01  6.54343E+01  5.33493E+01  5.36186E+01  2.84196E+01  2.89995E+01  3.76419E+01
   3.37385E+01  3.08346E+01  3.42528E+01  3.55013E+01  3.45675E+01  3.80187E+01  4.05120E+01  4.70355E+01  5.07394E+01  4.66269E+01
   4.63495E+01  4.29762E+01  4.35371E+01  4.59996E+01  3.68469E+01  4.35054E+01  3.90831E+01  4.21743E+01  3.22769E+01  3.91310E+01
   3.10465E+01  3.68304E+01  3.28908E+01  3.83724E+01  4.31103E+01  4.30767E+01  5.46200E+01  5.00429E+01  4.74346E+01  4.68366E+01
   3.88959E+01  3.63301E+01  3.43614E+01  3.26275E+01  3.29887E+01  3.12944E+01  3.37042E+01  3.86833E+01  3.95033E+01  2.81112E+01
   3.33940E+01  2.59884E+01  2.38042E+01  1.86038E+01  1.76292E+01  1.70393E+01  1.19099E+01  1.82734E+01  1.24938E+01  1.42749E+01
   1.43828E+01  1.79718E+01  1.40013E+01  2.38437E+01  1.81216E+01  1.73019E+01  1.69818E+01  1.22307E+01  2.26109E+01  1.08463E+01
   9.72612E+00  1.03186E+01  1.44042E+01  7.75187E+00  1.37047E+01  9.98337E+00  9.54665E+00  8.23700E+00  5.15463E+00  1.41841E+01
   1.45360E+01  1.91397E+01  1.43207E+01  2.11882E+01  1.81899E+01  2.03826E+01  2.34045E+01  3.34073E+01  3.79812E+01  5.62487E+01
   7.45177E+01  8.83928E+01  1.00457E+02  9.64180E+01  8.16587E+01  6.78193E+01  5.62691E+01  3.47622E+01  2.76589E+01  2.12812E+01
   8.04461E+00  1.21418E+01  1.42045E+01  1.29608E+01  1.33390E+01  1.15131E+01  1.53260E+01  1.39409E+01  2.06511E+01  1.97331E+01
   2.44877E+01  2.73048E+01  4.22997E+01  6.21723E+01  7.58755E+01  8.25565E+01  9.81964E+01  1.05098E+02  9.41942E+01  8.04211E+01
   5.86768E+01  4.28926E+01  2.56241E+01  2.07529E+01  1.83245E+01  1.43232E+01  7.17949E+00  1.37302E+01  1.70991E+01  8.81795E+00
   1.48748E+01  1.07376E+01  1.09337E+01  1.17841E+01  1.38719E+01  1.19555E+01  1.14236E+01  5.85171E+00  1.61528E+01  1.39678E+01
   1.06284E+01  3.34132E+00  5.22290E+00  6.80994E+00  1.10812E+01  1.08537E+01  9.71535E+00  1.49485E+01  1.37070E+01  1.17919E+01
   7.52197E+00 -5.31600E+00  1.40235E+00  4.86185E+00  9.40674E+00  6.58173E+00  6.94068E+00  7.08415E+00  5.31865E+00  3.63150E+00
  -5.04255E-01 -6.45838E+00 -1.04594E+01 -1.80414E+01 -1.60101E+01 -1.11060E+01 -1.30401E+01 -1.67499E+01 -1.10933E+01 -7.35265E+00
  -8.01729E+00 -1.43790E+01 -1.38599E+01 -1.55756E+01 -1.21208E+01 -8.29756E+00 -1.15237E+01 -2.34113E+00  6.53554E-01  1.05348E+01
   8.52144E-01  7.49862E+00  6.10219E+00  2.07150E+00  5.74768E+00 -3.72654E+00  4.99529E+00  1.67780E+00 -4.09361E+00 -3.91404E+00
  -1.28860E-01  2.00157E+00  7.85670E+00  9.09671E+00  1.04440E+01  7.37761E+00  3.67184E+00 -9.33359E+00 -5.38841E+00 -5.05916E+00
   2.60292E+00  1.47883E+00  2.08851E+01  1.49127E+01  1.48122E+01  2.06385E+01  2.17881E+01  1.99825E+01 -7.13210E-02 -4.78004E+00
  -1.16750E+01  5.72225E-01 -1.06239E+01 -3.08827E+00  7.83025E+00  1.74766E+01  1.06412E+01  1.69271E+01  1.03918E+01  2.00814E+01
   1.66375E+01  8.17622E+00  7.51544E+00  7.90682E+00  1.08709E+01  1.02134E+01  1.26713E+01  3.90646E+00  7.09215E+00  5.25765E+00
   9.54052E+00  9.26772E+00  6.93172E+00  6.30704E+00  1.35934E+01  1.81848E+01  1.93216E+01  2.79116E+01  2.05718E+01  2.76317E+01
   2.41676E+01  3.55759E+01  3.78566E+01  4.01053E+01  5.14251E+01  7.31238E+01  8.73131E+01  1.01043E+02  1.18220E+02  1.36007E+02
   1.37243E+02  1.27552E+02  9.39823E+01  6.39622E+01  4.35440E+01  2.34128E+01  8.63528E+00  9.41850E+00  7.63742E+00  9.57339E+00
   6.78805E+00  1.03912E+01  8.70440E+00  4.63112E+00  1.53359E+01  9.65058E+00  1.07450E+01  7.34282E+00  3.54903E+00  9.10353E+00
   4.66250E+00  1.50214E+01  1.71549E+00  9.41543E+00 -1.36264E+00  1.57574E+01  5.40919E+00  6.26882E+00  1.62500E-01  1.18171E+01
   7.69478E+00  8.24083E+00  5.89471E+00  1.06394E+01  9.93144E+00  1.06755E+01  1.29622E+01  8.75784E+00  1.57069E+01  1.47671E+01
   1.93378E+01  1.79119E+01  1.79752E+01  1.73270E+01  2.74358E+01  2.19842E+01  2.97655E+01  2.48176E+01  2.43485E+01  2.99928E+01
   1.70331E+01  1.93999E+01  2.80627E+01  2.41994E+01  2.28895E+01  3.50217E+01  3.29400E+01  3.09947E+01  3.25612E+01  3.32080E+01
   4.77236E+01  4.48823E+01  4.17619E+01  4.22861E+01  4.30580E+01  5.24331E+01  4.84626E+01  4.75158E+01  5.74576E+01  5.91361E+01
   5.58017E+01  5.91905E+01  5.69863E+01  5.98370E+01  5.60670E+01  6.65833E+01  5.69444E+01  5.99212E+01  6.26066E+01  5.58520E+01
   6.39043E+01  6.86845E+01  6.73341E+01  7.05208E+01  7.45691E+01  5.85437E+01  6.54762E+01  5.55021E+01  5.77030E+01  5.02981E+01
   5.75118E+01  5.06905E+01  6.02790E+01  5.81242E+01  5.53352E+01  5.84100E+01  5.65668E+01  4.94197E+01  5.41426E+01  5.71178E+01
   5.35808E+01  5.31427E+01  5.66857E+01  4.99114E+01  5.26820E+01  4.72138E+01  5.04225E+01  5.03558E+01  4.69257E+01  5.20063E+01
   4.69086E+01  4.32021E+01  4.34485E+01  3.76637E+01  3.72590E+01  3.63645E+01  3.43881E+01  4.04435E+01  3.57994E+01  3.35232E+01
   3.76788E+01  4.31540E+01  3.67915E+01  3.98989E+01  3.30126E+01  3.32559E+01  3.85118E+01  3.38644E+01  3.03615E+01  3.70331E+01
   4.03182E+01  3.14541E+01  3.83002E+01  4.16956E+01  4.07649E+01  4.15355E+01  4.00277E+01  3.84012E+01  3.96309E+01  4.74047E+01
   4.02925E+01  4.31460E+01  3.92507E+01  4.08873E+01  4.28833E+01  4.60051E+01  4.13495E+01  4.83915E+01  3.33743E+01  3.86025E+01
   3.93186E+01  3.57742E+01  3.34370E+01  3.36589E+01  3.58681E+01  2.86312E+01  2.83769E+01  2.18325E+01  1.97828E+01  2.43059E+01
   2.14127E+01  2.06641E+01  2.16858E+01  1.82030E+01  2.39576E+01  1.70602E+01  1.12687E+01  2.08977E+01  2.12552E+01  1.79864E+01
   1.60489E+01  1.37234E+01  1.32052E+01  9.22437E+00  1.40609E+01  1.83900E+01  1.64049E+01  1.78335E+01  1.66929E+01  1.41893E+01
   1.02937E+01  1.42984E+01  1.54643E+01  1.31624E+01  5.65818E+00  8.11692E+00  1.00719E+01  1.20597E+01  1.23063E+01  8.54062E+00
   5.14937E+00  1.22173E+01  1.46521E+01  9.79069E+00  6.79545E+00  4.40737E+00  9.45485E+00  1.72767E+01  1.02402E+01  1.57830E+01
   1.04653E+01  7.43575E+00  7.81729E+00  1.69072E+01  5.09337E+00  6.80884E+00  8.94353E+00  1.06532E+01  7.81823E+00  1.35791E+01
   6.89640E+00  7.38800E+00  5.91523E+00  1.17845E+01  7.21231E+00  1.49984E+01  3.18873E+00  7.09755E+00  6.37295E+00  3.67578E+00
   5.73260E+00  2.04136E+00  1.11434E+01  1.09792E+01  5.41023E+00  6.23057E+00  4.96323E+00  9.24708E+00  1.25688E+01  7.53502E+00
   3.41586E+00  3.16941E+00  8.56499E+00  7.37095E+00  2.27183E+00  1.91652E+00  1.06215E+01  1.43272E+00
 NY points of the fit to the data follow
   3.72737E+01  3.71664E+01  3.82881E+01  4.12869E+01  4.57139E+01  5.24401E+01  6.24888E+01  7.33132E+01  8.26981E+01  8.95202E+01
   9.29760E+01  9.18511E+01  8.52482E+01  7.43527E+01  6.23843E+01  5.21388E+01  4.45368E+01  3.93963E+01  3.63247E+01  3.47733E+01
   3.39706E+01  3.33192E+01  3.24867E+01  3.24836E+01  3.41744E+01  3.65778E+01  3.94086E+01  4.28927E+01  4.69009E+01  5.01455E+01
   5.11654E+01  4.98039E+01  4.68252E+01  4.28818E+01  3.85273E+01  3.43380E+01  3.11084E+01  2.92892E+01  2.85848E+01  2.85349E+01
   2.92114E+01  3.11808E+01  3.46006E+01  3.86226E+01  4.24093E+01  4.56420E+01  4.79135E+01  4.82060E+01  4.56447E+01  4.06296E+01
   3.46811E+01  2.92979E+01  2.52766E+01  2.31076E+01  2.29073E+01  2.41018E+01  2.59445E+01  2.77459E+01  2.91393E+01  2.98247E+01
   2.94728E+01  2.80424E+01  2.58953E+01  2.36244E+01  2.17963E+01  2.07916E+01  2.08916E+01  2.18363E+01  2.30875E+01  2.42086E+01
   2.49791E+01  2.53012E+01  2.50838E+01  2.43500E+01  2.33120E+01  2.22555E+01  2.13478E+01  2.06247E+01  2.00723E+01  1.96444E+01
   1.91956E+01  1.84201E+01  1.71941E+01  1.55486E+01  1.36786E+01  1.17641E+01  1.00399E+01  8.88502E+00  8.71232E+00  9.61677E+00
   1.13836E+01  1.35830E+01  1.56386E+01  1.72117E+01  1.82553E+01  1.91127E+01  2.14209E+01  2.97695E+01  4.35070E+01  5.85769E+01
   7.36347E+01  8.77783E+01  9.77663E+01  9.85882E+01  8.81979E+01  7.03147E+01  5.12665E+01  3.51368E+01  2.33369E+01  1.61659E+01
   1.29430E+01  1.19588E+01  1.17430E+01  1.17197E+01  1.17386E+01  1.17910E+01  1.19105E+01  1.21624E+01  1.27003E+01  1.38880E+01
   1.71491E+01  2.61904E+01  4.13510E+01  5.82834E+01  7.48411E+01  9.00533E+01  1.01280E+02  1.04002E+02  9.55146E+01  7.83650E+01
   5.86440E+01  4.09848E+01  2.70772E+01  1.73917E+01  1.15987E+01  8.76008E+00  7.78485E+00  8.06059E+00  9.19942E+00  1.07540E+01
   1.21927E+01  1.30561E+01  1.31949E+01  1.27754E+01  1.20823E+01  1.13639E+01  1.07647E+01  1.03127E+01  9.93135E+00  9.55422E+00
   9.20708E+00  8.91920E+00  8.72277E+00  8.64921E+00  8.61969E+00  8.37977E+00  7.95932E+00  7.42210E+00  6.81835E+00  6.28362E+00
   5.74305E+00  5.34706E+00  5.25885E+00  5.30724E+00  5.08383E+00  4.37847E+00  3.29398E+00  2.10919E+00  1.03787E+00  8.63739E-02
  -8.87640E-01 -1.80226E+00 -2.48094E+00 -3.06034E+00 -3.62816E+00 -4.18812E+00 -4.42906E+00 -4.23115E+00 -3.92240E+00 -3.93979E+00
  -4.30738E+00 -4.83626E+00 -5.05012E+00 -4.72051E+00 -3.89137E+00 -2.54648E+00 -6.09682E-01  1.77369E+00  4.19395E+00  6.12717E+00
   7.09171E+00  6.85015E+00  5.45088E+00  3.53327E+00  1.72585E+00  4.60907E-01 -5.45930E-02  3.80933E-01  1.85636E+00  3.97121E+00
   6.18816E+00  7.95932E+00  9.05095E+00  9.16985E+00  7.81946E+00  5.27260E+00  2.11791E+00 -1.19033E+00 -3.76441E+00 -4.63594E+00
  -2.80480E+00  1.02902E+00  5.71132E+00  1.04236E+01  1.42935E+01  1.59000E+01  1.37448E+01  8.09449E+00  1.18511E+00 -4.86926E+00
  -9.14522E+00 -1.08152E+01 -9.20276E+00 -4.48432E+00  1.80989E+00  7.54953E+00  1.15401E+01  1.36876E+01  1.42371E+01  1.36181E+01
   1.25813E+01  1.21349E+01  1.26143E+01  1.36227E+01  1.45752E+01  1.50978E+01  1.48774E+01  1.35243E+01  1.14356E+01  9.49393E+00
   8.35178E+00  8.24034E+00  9.36754E+00  1.16704E+01  1.45647E+01  1.71606E+01  1.89058E+01  1.98786E+01  2.04158E+01  2.13370E+01
   2.38604E+01  2.77002E+01  3.22698E+01  3.84551E+01  5.20257E+01  7.21249E+01  9.13324E+01  1.07747E+02  1.22288E+02  1.32887E+02
   1.33290E+02  1.19756E+02  9.61873E+01  7.06953E+01  4.85953E+01  3.16284E+01  2.04100E+01  1.45058E+01  1.18755E+01  1.04930E+01
   9.60659E+00  9.03297E+00  8.68806E+00  8.47220E+00  8.23151E+00  7.84350E+00  7.33245E+00  6.80247E+00  6.32970E+00  5.95004E+00
   5.70284E+00  5.61202E+00  5.65207E+00  5.76563E+00  5.90682E+00  6.06974E+00  6.27813E+00  6.54959E+00  6.90170E+00  7.35537E+00
   7.92291E+00  8.59778E+00  9.35412E+00  1.01593E+01  1.10008E+01  1.18757E+01  1.27814E+01  1.37179E+01  1.46880E+01  1.56926E+01
   1.67224E+01  1.77580E+01  1.87778E+01  1.97648E+01  2.07075E+01  2.16007E+01  2.24463E+01  2.32522E+01  2.40297E+01  2.47933E+01
   2.55605E+01  2.63505E+01  2.71833E+01  2.80797E+01  2.90604E+01  3.01448E+01  3.13489E+01  3.26841E+01  3.41571E+01  3.57698E+01
   3.75224E+01  3.94127E+01  4.14015E+01  4.34367E+01  4.54876E+01  4.75215E+01  4.94932E+01  5.13574E+01  5.30925E+01  5.47257E+01
   5.62877E+01  5.77548E+01  5.90946E+01  6.02891E+01  6.13229E+01  6.21661E+01  6.27898E+01  6.31965E+01  6.34314E+01  6.35721E+01
   6.37480E+01  6.41247E+01  6.44236E+01  6.43574E+01  6.39269E+01  6.31151E+01  6.17651E+01  5.97450E+01  5.73238E+01  5.53796E+01
   5.43763E+01  5.42340E+01  5.47970E+01  5.59593E+01  5.74346E+01  5.86778E+01  5.92281E+01  5.90147E+01  5.82617E+01  5.72036E+01
   5.60041E+01  5.47934E+01  5.36468E+01  5.25435E+01  5.14352E+01  5.02982E+01  4.91275E+01  4.79261E+01  4.67018E+01  4.54651E+01
   4.42283E+01  4.30047E+01  4.18081E+01  4.06519E+01  3.95495E+01  3.85137E+01  3.75569E+01  3.66901E+01  3.59237E+01  3.52663E+01
   3.47257E+01  3.43083E+01  3.40191E+01  3.38612E+01  3.38359E+01  3.39422E+01  3.41770E+01  3.45351E+01  3.50081E+01  3.55850E+01
   3.62516E+01  3.69906E+01  3.77826E+01  3.86053E+01  3.94347E+01  4.02449E+01  4.10095E+01  4.17025E+01  4.22988E+01  4.27756E+01
   4.31130E+01  4.32943E+01  4.33076E+01  4.31458E+01  4.28067E+01  4.22931E+01  4.16124E+01  4.07762E+01  3.97995E+01  3.87004E+01
   3.74991E+01  3.62164E+01  3.48734E+01  3.34907E+01  3.20880E+01  3.06832E+01  2.92922E+01  2.79287E+01  2.66038E+01  2.53264E+01
   2.41034E+01  2.29397E+01  2.18384E+01  2.08008E+01  1.98269E+01  1.89158E+01  1.80661E+01  1.72755E+01  1.65413E+01  1.58603E+01
   1.52293E+01  1.46453E+01  1.41051E+01  1.36058E+01  1.31442E+01  1.27174E+01  1.23227E+01  1.19578E+01  1.16203E+01  1.13082E+01
   1.10193E+01  1.07517E+01  1.05037E+01  1.02740E+01  1.00612E+01  9.86386E+00  9.68073E+00  9.51070E+00  9.35288E+00  9.20646E+00
   9.07060E+00  8.94445E+00  8.82723E+00  8.71835E+00  8.61735E+00  8.52376E+00  8.43703E+00  8.35660E+00  8.28202E+00  8.21300E+00
   8.14930E+00  8.09059E+00  8.03649E+00  7.98663E+00  7.94079E+00  7.89883E+00  7.86061E+00  7.82586E+00  7.79429E+00  7.76569E+00
   7.73996E+00  7.71706E+00  7.69687E+00  7.67916E+00  7.66372E+00  7.65044E+00  7.63930E+00  7.63029E+00  7.62326E+00  7.61802E+00
   7.61444E+00  7.61248E+00  7.61218E+00  7.61351E+00  7.61632E+00  7.62044E+00  7.62582E+00  7.63248E+00  7.64045E+00  7.64968E+00
   7.66001E+00  7.67133E+00  7.68363E+00  7.69698E+00  7.71139E+00  7.72677E+00  7.74297E+00  7.75994E+00
 NY background values follow
     2.752E+01    2.734E+01    2.716E+01    2.698E+01    2.679E+01    2.661E+01    2.643E+01    2.625E+01    2.607E+01    2.589E+01
     2.571E+01    2.553E+01    2.535E+01    2.516E+01    2.498E+01    2.480E+01    2.462E+01    2.444E+01    2.426E+01    2.408E+01
     2.390E+01    2.371E+01    2.353E+01    2.335E+01    2.317E+01    2.299E+01    2.281E+01    2.263E+01    2.245E+01    2.227E+01
     2.208E+01    2.190E+01    2.172E+01    2.154E+01    2.136E+01    2.118E+01    2.100E+01    2.082E+01    2.064E+01    2.046E+01
     2.028E+01    2.010E+01    1.991E+01    1.973E+01    1.955E+01    1.937E+01    1.919E+01    1.901E+01    1.883E+01    1.865E+01
     1.847E+01    1.829E+01    1.811E+01    1.793E+01    1.775E+01    1.757E+01    1.740E+01    1.722E+01    1.704E+01    1.686E+01
     1.668E+01    1.650E+01    1.633E+01    1.615E+01    1.597E+01    1.579E+01    1.562E+01    1.544E+01    1.527E+01    1.509E+01
     1.491E+01    1.474E+01    1.456E+01    1.439E+01    1.422E+01    1.404E+01    1.387E+01    1.370E+01    1.352E+01    1.335E+01
     1.318E+01    1.301E+01    1.284E+01    1.267E+01    1.250E+01    1.233E+01    1.216E+01    1.200E+01    1.183E+01    1.166E+01
     1.149E+01    1.133E+01    1.116E+01    1.100E+01    1.084E+01    1.067E+01    1.051E+01    1.035E+01    1.019E+01    1.002E+01
     9.864E+00    9.705E+00    9.545E+00    9.387E+00    9.229E+00    9.072E+00    8.915E+00    8.759E+00    8.603E+00    8.448E+00
     8.294E+00    8.140E+00    7.987E+00    7.835E+00    7.683E+00    7.532E+00    7.381E+00    7.231E+00    7.082E+00    6.934E+00
     6.785E+00    6.638E+00    6.491E+00    6.345E+00    6.200E+00    6.055E+00    5.911E+00    5.767E+00    5.624E+00    5.482E+00
     5.341E+00    5.200E+00    5.060E+00    4.920E+00    4.781E+00    4.643E+00    4.505E+00    4.368E+00    4.232E+00    4.096E+00
     3.962E+00    3.828E+00    3.694E+00    3.562E+00    3.430E+00    3.299E+00    3.168E+00    3.039E+00    2.910E+00    2.782E+00
     2.655E+00    2.529E+00    2.404E+00    2.280E+00    2.156E+00    2.034E+00    1.912E+00    1.791E+00    1.671E+00    1.553E+00
     1.435E+00    1.318E+00    1.202E+00    1.087E+00    9.733E-01    8.606E-01    7.488E-01    6.382E-01    5.286E-01    4.201E-01
     3.127E-01    2.064E-01    1.012E-01   -2.764E-03   -1.056E-01   -2.073E-01   -3.078E-01   -4.071E-01   -5.052E-01   -6.021E-01
    -6.977E-01   -7.921E-01   -8.853E-01   -9.771E-01   -1.068E+00   -1.157E+00   -1.245E+00   -1.332E+00   -1.418E+00   -1.503E+00
    -1.586E+00   -1.668E+00   -1.749E+00   -1.829E+00   -1.907E+00   -1.985E+00   -2.061E+00   -2.136E+00   -2.210E+00   -2.283E+00
    -2.355E+00   -2.425E+00   -2.495E+00   -2.563E+00   -2.630E+00   -2.696E+00   -2.761E+00   -2.825E+00   -2.888E+00   -2.950E+00
    -3.010E+00   -3.070E+00   -3.129E+00   -3.186E+00   -3.243E+00   -3.298E+00   -3.352E+00   -3.406E+00   -3.458E+00   -3.509E+00
    -3.560E+00   -3.609E+00   -3.658E+00   -3.705E+00   -3.751E+00   -3.797E+00   -3.841E+00   -3.885E+00   -3.927E+00   -3.969E+00
    -4.009E+00   -4.049E+00   -4.088E+00   -4.126E+00   -4.163E+00   -4.199E+00   -4.234E+00   -4.268E+00   -4.301E+00   -4.333E+00
    -4.364E+00   -4.395E+00   -4.424E+00   -4.452E+00   -4.480E+00   -4.507E+00   -4.532E+00   -4.557E+00   -4.581E+00   -4.604E+00
    -4.626E+00   -4.648E+00   -4.668E+00   -4.687E+00   -4.706E+00   -4.724E+00   -4.740E+00   -4.756E+00   -4.771E+00   -4.785E+00
    -4.799E+00   -4.811E+00   -4.823E+00   -4.833E+00   -4.843E+00   -4.852E+00   -4.860E+00   -4.867E+00   -4.873E+00   -4.879E+00
    -4.883E+00   -4.887E+00   -4.890E+00   -4.892E+00   -4.893E+00   -4.893E+00   -4.893E+00   -4.892E+00   -4.890E+00   -4.887E+00
    -4.883E+00   -4.878E+00   -4.873E+00   -4.867E+00   -4.860E+00   -4.853E+00   -4.844E+00   -4.835E+00   -4.825E+00   -4.815E+00
    -4.803E+00   -4.791E+00   -4.779E+00   -4.765E+00   -4.751E+00   -4.736E+00   -4.720E+00   -4.704E+00   -4.687E+00   -4.670E+00
    -4.651E+00   -4.632E+00   -4.613E+00   -4.593E+00   -4.572E+00   -4.550E+00   -4.528E+00   -4.505E+00   -4.482E+00   -4.458E+00
    -4.433E+00   -4.408E+00   -4.382E+00   -4.356E+00   -4.329E+00   -4.301E+00   -4.273E+00   -4.245E+00   -4.215E+00   -4.186E+00
    -4.155E+00   -4.125E+00   -4.093E+00   -4.061E+00   -4.029E+00   -3.996E+00   -3.963E+00   -3.929E+00   -3.894E+00   -3.860E+00
    -3.824E+00   -3.788E+00   -3.752E+00   -3.715E+00   -3.678E+00   -3.640E+00   -3.602E+00   -3.563E+00   -3.524E+00   -3.485E+00
    -3.445E+00   -3.405E+00   -3.364E+00   -3.323E+00   -3.281E+00   -3.239E+00   -3.197E+00   -3.154E+00   -3.111E+00   -3.067E+00
    -3.023E+00   -2.979E+00   -2.934E+00   -2.889E+00   -2.844E+00   -2.798E+00   -2.752E+00   -2.706E+00   -2.659E+00   -2.612E+00
    -2.565E+00   -2.517E+00   -2.469E+00   -2.420E+00   -2.372E+00   -2.323E+00   -2.274E+00   -2.224E+00   -2.174E+00   -2.124E+00
    -2.074E+00   -2.023E+00   -1.973E+00   -1.921E+00   -1.870E+00   -1.819E+00   -1.767E+00   -1.715E+00   -1.662E+00   -1.610E+00
    -1.557E+00   -1.504E+00   -1.451E+00   -1.397E+00   -1.344E+00   -1.290E+00   -1.236E+00   -1.182E+00   -1.127E+00   -1.073E+00
    -1.018E+00   -9.629E-01   -9.078E-01   -8.525E-01   -7.971E-01   -7.416E-01   -6.859E-01   -6.300E-01   -5.741E-01   -5.179E-01
    -4.617E-01   -4.053E-01   -3.489E-01   -2.923E-01   -2.356E-01   -1.788E-01   -1.219E-01   -6.492E-02   -7.842E-03    4.931E-02
     1.065E-01    1.639E-01    2.212E-01    2.787E-01    3.362E-01    3.937E-01    4.513E-01    5.090E-01    5.666E-01    6.244E-01
     6.821E-01    7.399E-01    7.977E-01    8.555E-01    9.133E-01    9.711E-01    1.029E+00    1.087E+00    1.145E+00    1.202E+00
     1.260E+00    1.318E+00    1.375E+00    1.433E+00    1.491E+00    1.548E+00    1.606E+00    1.663E+00    1.721E+00    1.778E+00
     1.835E+00    1.893E+00    1.950E+00    2.007E+00    2.064E+00    2.121E+00    2.178E+00    2.234E+00    2.291E+00    2.347E+00
     2.404E+00    2.460E+00    2.516E+00    2.572E+00    2.628E+00    2.683E+00    2.739E+00    2.794E+00    2.850E+00    2.905E+00
     2.960E+00    3.015E+00    3.070E+00    3.125E+00    3.179E+00    3.234E+00    3.288E+00    3.343E+00    3.397E+00    3.451E+00
     3.506E+00    3.560E+00    3.614E+00    3.668E+00    3.721E+00    3.775E+00    3.829E+00    3.883E+00    3.936E+00    3.990E+00
     4.043E+00    4.097E+00    4.150E+00    4.204E+00    4.257E+00    4.310E+00    4.363E+00    4.417E+00    4.470E+00    4.523E+00
     4.576E+00    4.629E+00    4.682E+00    4.735E+00    4.788E+00    4.842E+00    4.895E+00    4.948E+00
 Ala      Conc. = 2.67E+01
