 LCModel (Version 6.3-1L) Copyright: S.W. Provencher.          Ref.: Magn. Reson. Med. 30:672-679 (1993).                
 Slice#3 Row#9 Col#14  K_02_press_1_raw_act
 36 lines in following concentration table = NCONC+1
    Conc.  %SD /Cr+PCr  Metabolite                                         
    0.000 999%   0.000 Ala                                                 
    2.540 106%   0.179 Asp                                                 
    6.329 136%   0.445 Cr                                                  
    7.887 119%   0.555 PCr                                                 
    1.700  95%   0.120 GABA                                                
    1.653  98%   0.116 Glc                                                 
    2.688 543%   0.189 Gln                                                 
    8.107 210%   0.570 Glu                                                 
    4.359  65%   0.307 GPC                                                 
    0.000 999%   0.000 PCh                                                 
    4.378 147%   0.308 GSH                                                 
    0.000 999%   0.000 Ins                                                 
    6.031 145%   0.424 Lac                                                 
   22.973  51%   1.616 NAA                                                 
    4.866 147%   0.342 NAAG                                                
    0.493 109% 3.5E-02 Scyllo                                              
    2.849  95%   0.200 Tau                                                 
    2.591 148%   0.182 -CrCH2                                              
    4.359  65%   0.307 GPC+PCh                                             
   27.840  53%   1.958 NAA+NAAG                                            
   14.216  60%   1.000 Cr+PCr                                              
   10.795 187%   0.759 Glu+Gln                                             
 1.90E+04  14% 1.3E+03 Lip13a                                              
    0.000 999%   0.000 Lip13b                                              
 4.63E+03  20% 325.877 Lip09                                               
 3.13E+03  21% 220.344 MM09                                                
  152.070 111%  10.697 Lip20                                               
    0.000 999%   0.000 MM20                                                
 2.53E+03  20% 177.719 MM12                                                
 2.86E+03  30% 200.913 MM14                                                
 2.32E+03  24% 163.365 MM17                                                
 1.90E+04  14% 1.3E+03 Lip13a+Lip13b                                       
 2.44E+04   9% 1.7E+03 MM14+Lip13a+Lip13b+MM12                             
 7.76E+03  13% 546.220 MM09+Lip09                                          
  152.070 111%  10.697 MM20+Lip20                                          
   6 lines in following misc. output table
  FWHM = 0.031 ppm    S/N =  27                                            
  Data shift =-0.008 ppm                                                   
  Ph:   5 deg      -9.4 deg/ppm                                            
  alphaB,S = 1.5E+00,   2.8E+00                                            
   14 spline knots.   Ns = 5(1)                                            
  ( 4) 4 infls.   ( 5) 3 extrs.                                            
  498 points on ppm-axis = NY
      4.000000     3.992357     3.984714     3.977070     3.969427     3.961784     3.954141     3.946497     3.938854     3.931211
      3.923568     3.915925     3.908281     3.900638     3.892995     3.885352     3.877708     3.870065     3.862422     3.854779
      3.847136     3.839492     3.831849     3.824206     3.816563     3.808919     3.801276     3.793633     3.785990     3.778347
      3.770703     3.763060     3.755417     3.747774     3.740130     3.732487     3.724844     3.717201     3.709558     3.701914
      3.694271     3.686628     3.678985     3.671341     3.663698     3.656055     3.648412     3.640769     3.633125     3.625482
      3.617839     3.610196     3.602552     3.594909     3.587266     3.579623     3.571980     3.564336     3.556693     3.549050
      3.541407     3.533763     3.526120     3.518477     3.510834     3.503191     3.495547     3.487904     3.480261     3.472618
      3.464974     3.457331     3.449688     3.442045     3.434402     3.426758     3.419115     3.411472     3.403829     3.396185
      3.388542     3.380899     3.373256     3.365613     3.357969     3.350326     3.342683     3.335040     3.327396     3.319753
      3.312110     3.304467     3.296824     3.289180     3.281537     3.273894     3.266251     3.258607     3.250964     3.243321
      3.235678     3.228034     3.220391     3.212748     3.205105     3.197462     3.189818     3.182175     3.174532     3.166889
      3.159245     3.151602     3.143959     3.136316     3.128673     3.121029     3.113386     3.105743     3.098100     3.090456
      3.082813     3.075170     3.067527     3.059884     3.052240     3.044597     3.036954     3.029311     3.021667     3.014024
      3.006381     2.998738     2.991095     2.983451     2.975808     2.968165     2.960522     2.952878     2.945235     2.937592
      2.929949     2.922306     2.914662     2.907019     2.899376     2.891733     2.884089     2.876446     2.868803     2.861160
      2.853517     2.845873     2.838230     2.830587     2.822944     2.815300     2.807657     2.800014     2.792371     2.784728
      2.777084     2.769441     2.761798     2.754155     2.746511     2.738868     2.731225     2.723582     2.715939     2.708295
      2.700652     2.693009     2.685366     2.677722     2.670079     2.662436     2.654793     2.647150     2.639506     2.631863
      2.624220     2.616577     2.608933     2.601290     2.593647     2.586004     2.578361     2.570717     2.563074     2.555431
      2.547788     2.540144     2.532501     2.524858     2.517215     2.509572     2.501928     2.494285     2.486642     2.478999
      2.471355     2.463712     2.456069     2.448426     2.440783     2.433139     2.425496     2.417853     2.410210     2.402566
      2.394923     2.387280     2.379637     2.371994     2.364350     2.356707     2.349064     2.341421     2.333777     2.326134
      2.318491     2.310848     2.303205     2.295561     2.287918     2.280275     2.272632     2.264988     2.257345     2.249702
      2.242059     2.234416     2.226772     2.219129     2.211486     2.203843     2.196199     2.188556     2.180913     2.173270
      2.165627     2.157983     2.150340     2.142697     2.135054     2.127410     2.119767     2.112124     2.104481     2.096838
      2.089194     2.081551     2.073908     2.066265     2.058621     2.050978     2.043335     2.035692     2.028049     2.020405
      2.012762     2.005119     1.997476     1.989833     1.982190     1.974546     1.966903     1.959260     1.951617     1.943974
      1.936331     1.928688     1.921045     1.913402     1.905759     1.898115     1.890472     1.882829     1.875186     1.867543
      1.859900     1.852257     1.844614     1.836971     1.829327     1.821684     1.814041     1.806398     1.798755     1.791112
      1.783469     1.775826     1.768183     1.760540     1.752896     1.745253     1.737610     1.729967     1.722324     1.714681
      1.707038     1.699395     1.691752     1.684108     1.676465     1.668822     1.661179     1.653536     1.645893     1.638250
      1.630607     1.622964     1.615321     1.607677     1.600034     1.592391     1.584748     1.577105     1.569462     1.561819
      1.554176     1.546533     1.538890     1.531246     1.523603     1.515960     1.508317     1.500674     1.493031     1.485388
      1.477745     1.470102     1.462458     1.454815     1.447172     1.439529     1.431886     1.424243     1.416600     1.408957
      1.401314     1.393671     1.386027     1.378384     1.370741     1.363098     1.355455     1.347812     1.340169     1.332526
      1.324883     1.317240     1.309596     1.301953     1.294310     1.286667     1.279024     1.271381     1.263738     1.256095
      1.248452     1.240808     1.233165     1.225522     1.217879     1.210236     1.202593     1.194950     1.187307     1.179664
      1.172021     1.164377     1.156734     1.149091     1.141448     1.133805     1.126162     1.118519     1.110876     1.103233
      1.095590     1.087946     1.080303     1.072660     1.065017     1.057374     1.049731     1.042088     1.034445     1.026802
      1.019158     1.011515     1.003872     0.996229     0.988586     0.980943     0.973300     0.965657     0.958014     0.950371
      0.942727     0.935084     0.927441     0.919798     0.912155     0.904512     0.896869     0.889226     0.881583     0.873940
      0.866296     0.858653     0.851010     0.843367     0.835724     0.828081     0.820438     0.812795     0.805152     0.797508
      0.789865     0.782222     0.774579     0.766936     0.759293     0.751650     0.744007     0.736364     0.728721     0.721077
      0.713434     0.705791     0.698148     0.690505     0.682862     0.675219     0.667576     0.659933     0.652290     0.644646
      0.637003     0.629360     0.621717     0.614074     0.606431     0.598788     0.591145     0.583502     0.575858     0.568215
      0.560572     0.552929     0.545286     0.537643     0.530000     0.522357     0.514714     0.507071     0.499427     0.491784
      0.484141     0.476498     0.468855     0.461212     0.453569     0.445925     0.438282     0.430639     0.422996     0.415353
      0.407710     0.400067     0.392424     0.384780     0.377137     0.369494     0.361851     0.354208     0.346565     0.338922
      0.331278     0.323635     0.315992     0.308349     0.300706     0.293063     0.285420     0.277777     0.270133     0.262490
      0.254847     0.247204     0.239561     0.231918     0.224275     0.216631     0.208988     0.201345
 NY phased data points follow
   1.16035E+01  1.02267E+01  9.66454E+00  9.48287E+00  7.95019E+00  8.68429E+00  9.85837E+00  1.08830E+01  9.69426E+00  9.81267E+00
   9.92925E+00  1.00984E+01  1.11626E+01  8.70511E+00  1.02904E+01  1.12246E+01  8.82907E+00  1.06377E+01  1.05472E+01  9.47529E+00
   9.73499E+00  1.22548E+01  1.13100E+01  1.14331E+01  1.00363E+01  1.29669E+01  1.04887E+01  9.34781E+00  1.01768E+01  8.75243E+00
   1.14213E+01  8.98791E+00  1.05923E+01  9.71347E+00  9.37558E+00  1.08892E+01  9.42295E+00  8.56404E+00  9.46357E+00  9.23289E+00
   9.17444E+00  9.09010E+00  1.11401E+01  9.87616E+00  1.07778E+01  9.73430E+00  9.47439E+00  1.11667E+01  1.11714E+01  8.94993E+00
   9.54380E+00  9.48685E+00  9.27855E+00  9.03844E+00  8.86757E+00  7.53910E+00  1.05251E+01  9.62420E+00  1.06532E+01  9.09042E+00
   1.02016E+01  8.90364E+00  9.76254E+00  9.51595E+00  7.39864E+00  9.77069E+00  8.48001E+00  1.12492E+01  1.00009E+01  1.02622E+01
   1.03240E+01  9.09561E+00  9.42085E+00  9.07610E+00  8.77891E+00  7.64339E+00  9.65880E+00  9.06417E+00  9.85321E+00  8.71507E+00
   9.17510E+00  8.33693E+00  9.56131E+00  8.34864E+00  8.57996E+00  7.24357E+00  7.05127E+00  8.07632E+00  7.74219E+00  7.63507E+00
   6.87526E+00  9.29422E+00  1.01768E+01  7.34698E+00  8.48121E+00  8.42744E+00  8.62219E+00  7.25766E+00  7.96343E+00  9.32061E+00
   6.86085E+00  7.96801E+00  7.13377E+00  6.91797E+00  1.00695E+01  9.79403E+00  1.02622E+01  8.81886E+00  8.81063E+00  9.98432E+00
   9.70870E+00  8.26724E+00  9.10089E+00  9.89019E+00  9.70612E+00  1.01781E+01  9.05840E+00  9.64569E+00  8.37222E+00  1.01660E+01
   8.42524E+00  9.66870E+00  9.22774E+00  8.32545E+00  1.03357E+01  9.31345E+00  5.74874E+00  8.12260E+00  1.08242E+01  1.06515E+01
   9.47273E+00  1.00935E+01  1.07852E+01  1.07730E+01  1.00059E+01  9.62417E+00  9.65996E+00  9.27084E+00  9.73635E+00  9.75813E+00
   9.68432E+00  9.91843E+00  1.00225E+01  1.03858E+01  9.04928E+00  1.05181E+01  9.37362E+00  9.61583E+00  9.63286E+00  8.01971E+00
   9.27203E+00  8.44752E+00  9.58217E+00  9.91080E+00  9.46630E+00  8.87684E+00  1.02928E+01  1.15825E+01  9.20702E+00  8.49072E+00
   1.04611E+01  1.15596E+01  1.01991E+01  1.02984E+01  9.42667E+00  1.05783E+01  1.07088E+01  9.96936E+00  7.40608E+00  9.78360E+00
   1.03072E+01  8.45000E+00  8.80288E+00  8.55312E+00  9.14565E+00  9.94791E+00  9.39286E+00  9.81376E+00  7.83159E+00  1.00137E+01
   8.54725E+00  1.10274E+01  1.01029E+01  9.70004E+00  7.66402E+00  1.05739E+01  9.41921E+00  1.06850E+01  8.73083E+00  7.71707E+00
   8.59185E+00  9.15864E+00  9.21252E+00  9.33887E+00  7.41558E+00  9.27519E+00  8.77634E+00  8.63647E+00  9.84008E+00  1.03547E+01
   9.05801E+00  9.47819E+00  9.46141E+00  8.57700E+00  9.82562E+00  9.88085E+00  9.68122E+00  1.16153E+01  1.00974E+01  9.54823E+00
   9.57058E+00  1.01101E+01  7.87428E+00  1.12667E+01  8.95886E+00  8.79774E+00  7.83594E+00  8.84847E+00  9.57675E+00  9.82564E+00
   8.69258E+00  9.44497E+00  9.34991E+00  8.95892E+00  9.45252E+00  7.73596E+00  1.13635E+01  8.49866E+00  1.07793E+01  1.10803E+01
   8.57989E+00  9.03814E+00  1.13630E+01  1.02616E+01  1.01909E+01  1.03956E+01  8.99447E+00  1.12002E+01  1.11274E+01  9.32631E+00
   1.15891E+01  9.90879E+00  1.03557E+01  9.11320E+00  9.91172E+00  7.90321E+00  9.90472E+00  1.06385E+01  9.93552E+00  9.32204E+00
   9.35113E+00  9.40868E+00  1.04188E+01  1.15447E+01  9.97650E+00  9.82109E+00  1.19994E+01  1.22705E+01  1.13697E+01  1.10196E+01
   8.36040E+00  1.16365E+01  1.26401E+01  1.44066E+01  1.41736E+01  1.23340E+01  1.20517E+01  1.55783E+01  1.18389E+01  1.47987E+01
   1.55981E+01  1.36485E+01  1.51202E+01  1.39381E+01  1.38974E+01  1.44073E+01  1.54075E+01  1.58771E+01  1.57517E+01  1.44599E+01
   1.50724E+01  1.59685E+01  1.67961E+01  1.61045E+01  1.78078E+01  1.67063E+01  1.89879E+01  1.66228E+01  1.83521E+01  1.84083E+01
   1.69824E+01  1.83999E+01  1.88175E+01  1.96717E+01  1.84005E+01  1.93111E+01  2.22114E+01  2.14693E+01  2.20789E+01  2.14734E+01
   2.04974E+01  2.09499E+01  2.29547E+01  2.30605E+01  2.36987E+01  2.34264E+01  2.46536E+01  2.43693E+01  2.54467E+01  2.51942E+01
   2.53920E+01  2.78456E+01  2.76775E+01  2.82496E+01  2.66224E+01  2.78479E+01  2.79774E+01  2.87958E+01  2.98320E+01  2.97284E+01
   3.00622E+01  3.16088E+01  3.23659E+01  3.29342E+01  3.45316E+01  3.62085E+01  3.77465E+01  3.81092E+01  3.92359E+01  4.18049E+01
   4.13742E+01  4.30791E+01  4.26166E+01  4.42163E+01  4.51214E+01  4.59209E+01  4.65941E+01  4.90464E+01  4.86323E+01  4.87586E+01
   4.85324E+01  5.00080E+01  5.16766E+01  5.29848E+01  5.29350E+01  5.35111E+01  5.65312E+01  5.48444E+01  5.76166E+01  5.72842E+01
   5.97228E+01  6.02206E+01  5.86178E+01  6.15027E+01  6.29195E+01  6.17125E+01  6.44954E+01  6.49328E+01  6.54974E+01  6.69920E+01
   6.90650E+01  6.92361E+01  6.98052E+01  6.88565E+01  6.98955E+01  7.19074E+01  7.02867E+01  7.08877E+01  7.27366E+01  7.15732E+01
   7.15742E+01  7.08065E+01  6.91117E+01  7.07896E+01  6.98574E+01  6.84099E+01  6.67888E+01  6.63884E+01  6.62924E+01  6.43492E+01
   6.25047E+01  6.33416E+01  6.20824E+01  6.05391E+01  6.18062E+01  5.89853E+01  5.76900E+01  5.77895E+01  5.53693E+01  5.22064E+01
   5.42880E+01  5.28010E+01  5.18695E+01  5.02164E+01  4.96698E+01  4.88837E+01  4.85916E+01  4.85965E+01  4.52781E+01  4.51760E+01
   4.52287E+01  4.09942E+01  4.32007E+01  3.95112E+01  3.86399E+01  3.98177E+01  3.63881E+01  3.67629E+01  3.51083E+01  3.53474E+01
   3.32069E+01  3.25182E+01  3.20659E+01  3.09090E+01  3.02521E+01  2.95401E+01  2.66669E+01  2.90645E+01  2.50128E+01  2.56085E+01
   2.51749E+01  2.25958E+01  2.24105E+01  2.14181E+01  2.08767E+01  2.10180E+01  1.95183E+01  1.92694E+01  1.61306E+01  1.76326E+01
   1.68039E+01  1.46615E+01  1.55613E+01  1.46497E+01  1.56418E+01  1.38855E+01  1.34977E+01  1.39815E+01  1.15222E+01  1.22681E+01
   1.08835E+01  1.17990E+01  9.89433E+00  8.56959E+00  9.44510E+00  8.91819E+00  1.01169E+01  8.10530E+00  7.17954E+00  7.31863E+00
   6.61323E+00  5.69499E+00  7.19631E+00  6.48956E+00  7.16349E+00  4.68604E+00  5.77407E+00  4.78409E+00  3.67880E+00  4.23716E+00
   6.19605E+00  3.92384E+00  2.70521E+00  3.43407E+00  2.79989E+00  2.97235E+00  3.57743E+00  1.41630E+00  1.80081E+00  3.20448E+00
   2.26332E+00  2.73073E+00  2.12229E+00  1.13489E-03  8.95410E-01  2.45862E+00  1.25311E+00  2.54059E-01 -2.28024E-01  4.70640E-01
   9.52286E-04 -3.37631E-01  1.45840E+00  1.26393E+00  1.19057E+00  9.71150E-01  4.27260E-01  4.82901E-02  1.80057E-01 -3.74153E-01
  -4.10855E-01 -2.10500E-01 -1.48062E+00 -2.37799E+00 -1.50991E+00 -1.72819E+00 -5.39193E-01 -4.21647E-01
 NY points of the fit to the data follow
   1.01958E+01  1.01754E+01  1.01637E+01  1.01574E+01  1.01738E+01  1.01910E+01  1.01596E+01  1.00540E+01  9.89174E+00  9.78973E+00
   9.85167E+00  1.01051E+01  1.04595E+01  1.06939E+01  1.06840E+01  1.04785E+01  1.02752E+01  1.01461E+01  1.00662E+01  1.00228E+01
   9.96751E+00  9.91882E+00  9.90037E+00  9.89922E+00  9.90230E+00  9.92838E+00  9.94580E+00  9.86575E+00  9.67685E+00  9.52550E+00
   9.58568E+00  9.79235E+00  9.96670E+00  1.00352E+01  1.00377E+01  9.99733E+00  9.88607E+00  9.76633E+00  9.66499E+00  9.60114E+00
   9.58147E+00  9.58250E+00  9.59125E+00  9.60198E+00  9.60800E+00  9.60163E+00  9.59395E+00  9.58927E+00  9.55513E+00  9.49369E+00
   9.45741E+00  9.46175E+00  9.47357E+00  9.47286E+00  9.46054E+00  9.44447E+00  9.42735E+00  9.41171E+00  9.39059E+00  9.36551E+00
   9.34283E+00  9.32554E+00  9.31185E+00  9.29552E+00  9.27641E+00  9.25866E+00  9.24747E+00  9.24446E+00  9.24394E+00  9.24073E+00
   9.23205E+00  9.21669E+00  9.18967E+00  9.14864E+00  9.10804E+00  9.09378E+00  9.12542E+00  9.17538E+00  9.20170E+00  9.18810E+00
   9.14653E+00  9.10105E+00  9.07253E+00  9.05348E+00  9.02086E+00  8.98992E+00  9.00757E+00  9.07604E+00  9.13470E+00  9.14033E+00
   9.10621E+00  9.07376E+00  9.06065E+00  9.06596E+00  9.07118E+00  9.05052E+00  9.01108E+00  9.01176E+00  9.13697E+00  9.21562E+00
   8.92355E+00  8.31260E+00  7.97702E+00  8.50954E+00  9.56560E+00  1.03065E+01  1.03855E+01  1.00531E+01  9.65683E+00  9.27921E+00
   9.11113E+00  9.07389E+00  9.06118E+00  9.05650E+00  9.05302E+00  9.05075E+00  9.05053E+00  9.05667E+00  9.06966E+00  9.08372E+00
   9.09560E+00  9.13459E+00  9.27190E+00  9.35846E+00  9.06311E+00  8.39481E+00  7.93608E+00  8.37936E+00  9.52170E+00  1.04568E+01
   1.06609E+01  1.03287E+01  9.89146E+00  9.50455E+00  9.35751E+00  9.37687E+00  9.37312E+00  9.31499E+00  9.22633E+00  9.14972E+00
   9.12688E+00  9.17340E+00  9.25189E+00  9.31654E+00  9.35085E+00  9.36018E+00  9.36562E+00  9.37384E+00  9.37933E+00  9.38464E+00
   9.38775E+00  9.39383E+00  9.40506E+00  9.41785E+00  9.42062E+00  9.40419E+00  9.37809E+00  9.36448E+00  9.38724E+00  9.44556E+00
   9.50193E+00  9.49981E+00  9.42358E+00  9.33006E+00  9.28583E+00  9.31408E+00  9.38024E+00  9.43197E+00  9.44108E+00  9.41192E+00
   9.36545E+00  9.31574E+00  9.29307E+00  9.31682E+00  9.36696E+00  9.39202E+00  9.34448E+00  9.24305E+00  9.18218E+00  9.21660E+00
   9.29612E+00  9.32889E+00  9.28559E+00  9.22493E+00  9.21536E+00  9.26779E+00  9.31069E+00  9.28403E+00  9.20086E+00  9.13513E+00
   9.14345E+00  9.22446E+00  9.33164E+00  9.40958E+00  9.42973E+00  9.41160E+00  9.39329E+00  9.37422E+00  9.33614E+00  9.29967E+00
   9.28945E+00  9.29329E+00  9.28995E+00  9.28642E+00  9.32544E+00  9.39856E+00  9.47688E+00  9.53965E+00  9.57041E+00  9.56035E+00
   9.51151E+00  9.46936E+00  9.44319E+00  9.39359E+00  9.32299E+00  9.31135E+00  9.42344E+00  9.58818E+00  9.70894E+00  9.78072E+00
   9.82533E+00  9.82780E+00  9.74683E+00  9.62263E+00  9.54527E+00  9.56899E+00  9.66163E+00  9.76808E+00  9.87637E+00  9.98079E+00
   1.00496E+01  1.00488E+01  9.99522E+00  9.94462E+00  9.93660E+00  9.96469E+00  1.00170E+01  1.01070E+01  1.02216E+01  1.03202E+01
   1.03855E+01  1.04202E+01  1.04255E+01  1.03897E+01  1.03465E+01  1.03561E+01  1.04352E+01  1.05538E+01  1.06810E+01  1.07991E+01
   1.08939E+01  1.09872E+01  1.10422E+01  1.09778E+01  1.08350E+01  1.09180E+01  1.14465E+01  1.18353E+01  1.13691E+01  1.03777E+01
   1.01800E+01  1.15198E+01  1.33219E+01  1.43074E+01  1.42390E+01  1.36858E+01  1.30877E+01  1.26135E+01  1.25533E+01  1.26487E+01
   1.27729E+01  1.29108E+01  1.30644E+01  1.32382E+01  1.34410E+01  1.36738E+01  1.39297E+01  1.41971E+01  1.44723E+01  1.47573E+01
   1.50545E+01  1.53657E+01  1.56922E+01  1.60363E+01  1.63979E+01  1.67744E+01  1.71638E+01  1.75647E+01  1.79725E+01  1.83817E+01
   1.87884E+01  1.91912E+01  1.95905E+01  1.99869E+01  2.03762E+01  2.07532E+01  2.11159E+01  2.14637E+01  2.17946E+01  2.21076E+01
   2.24041E+01  2.26874E+01  2.29610E+01  2.32280E+01  2.34916E+01  2.37562E+01  2.40259E+01  2.43063E+01  2.46034E+01  2.49232E+01
   2.52721E+01  2.56557E+01  2.60795E+01  2.65482E+01  2.70657E+01  2.76352E+01  2.82589E+01  2.89377E+01  2.96714E+01  3.04585E+01
   3.12962E+01  3.21807E+01  3.31070E+01  3.40691E+01  3.50603E+01  3.60733E+01  3.71005E+01  3.81346E+01  3.91682E+01  4.01945E+01
   4.12075E+01  4.22021E+01  4.31747E+01  4.41226E+01  4.50447E+01  4.59410E+01  4.68127E+01  4.76623E+01  4.84932E+01  4.93097E+01
   5.01169E+01  5.09216E+01  5.17323E+01  5.25277E+01  5.32678E+01  5.39919E+01  5.48238E+01  5.58469E+01  5.69525E+01  5.79347E+01
   5.87714E+01  5.95831E+01  6.04100E+01  6.11842E+01  6.19322E+01  6.28131E+01  6.38908E+01  6.50697E+01  6.61913E+01  6.71840E+01
   6.80695E+01  6.88509E+01  6.95540E+01  7.01950E+01  7.07446E+01  7.11814E+01  7.14900E+01  7.16590E+01  7.16810E+01  7.15532E+01
   7.12772E+01  7.08594E+01  7.03107E+01  6.96457E+01  6.88822E+01  6.80400E+01  6.71396E+01  6.62010E+01  6.52425E+01  6.42798E+01
   6.33249E+01  6.23861E+01  6.14674E+01  6.05687E+01  5.96869E+01  5.88157E+01  5.79474E+01  5.70730E+01  5.61841E+01  5.52730E+01
   5.43335E+01  5.33619E+01  5.23568E+01  5.13190E+01  5.02519E+01  4.91606E+01  4.80515E+01  4.69319E+01  4.58095E+01  4.46916E+01
   4.35847E+01  4.24942E+01  4.14243E+01  4.03775E+01  3.93550E+01  3.83568E+01  3.73813E+01  3.64265E+01  3.54893E+01  3.45667E+01
   3.36553E+01  3.27519E+01  3.18538E+01  3.09588E+01  3.00651E+01  2.91720E+01  2.82789E+01  2.73864E+01  2.64952E+01  2.56069E+01
   2.47232E+01  2.38461E+01  2.29780E+01  2.21212E+01  2.12779E+01  2.04503E+01  1.96405E+01  1.88502E+01  1.80812E+01  1.73346E+01
   1.66115E+01  1.59125E+01  1.52383E+01  1.45890E+01  1.39646E+01  1.33649E+01  1.27895E+01  1.22379E+01  1.17095E+01  1.12036E+01
   1.07192E+01  1.02556E+01  9.81175E+00  9.38687E+00  8.98001E+00  8.59024E+00  8.21667E+00  7.85842E+00  7.51465E+00  7.18455E+00
   6.86736E+00  6.56232E+00  6.26873E+00  5.98592E+00  5.71328E+00  5.45021E+00  5.19618E+00  4.95065E+00  4.71313E+00  4.48317E+00
   4.26035E+00  4.04427E+00  3.83455E+00  3.63084E+00  3.43280E+00  3.24014E+00  3.05256E+00  2.86981E+00  2.69164E+00  2.51779E+00
   2.34805E+00  2.18221E+00  2.02009E+00  1.86151E+00  1.70629E+00  1.55425E+00  1.40527E+00  1.25919E+00  1.11590E+00  9.75260E-01
   8.37156E-01  7.01463E-01  5.68090E-01  4.36941E-01  3.07933E-01  1.80964E-01  5.59523E-02 -6.71890E-02 -1.88516E-01 -3.08100E-01
  -4.25996E-01 -5.42288E-01 -6.57029E-01 -7.70282E-01 -8.82077E-01 -9.92471E-01 -1.10150E+00 -1.20924E+00
 NY background values follow
     9.894E+00    9.878E+00    9.862E+00    9.846E+00    9.830E+00    9.814E+00    9.798E+00    9.782E+00    9.766E+00    9.750E+00
     9.734E+00    9.718E+00    9.701E+00    9.685E+00    9.669E+00    9.653E+00    9.636E+00    9.620E+00    9.604E+00    9.587E+00
     9.571E+00    9.554E+00    9.538E+00    9.521E+00    9.505E+00    9.488E+00    9.472E+00    9.455E+00    9.438E+00    9.422E+00
     9.405E+00    9.388E+00    9.371E+00    9.355E+00    9.338E+00    9.321E+00    9.304E+00    9.287E+00    9.270E+00    9.253E+00
     9.236E+00    9.219E+00    9.202E+00    9.184E+00    9.167E+00    9.150E+00    9.133E+00    9.116E+00    9.098E+00    9.081E+00
     9.064E+00    9.046E+00    9.029E+00    9.012E+00    8.995E+00    8.978E+00    8.961E+00    8.944E+00    8.927E+00    8.910E+00
     8.894E+00    8.877E+00    8.861E+00    8.844E+00    8.828E+00    8.812E+00    8.796E+00    8.781E+00    8.765E+00    8.750E+00
     8.735E+00    8.720E+00    8.706E+00    8.692E+00    8.678E+00    8.664E+00    8.650E+00    8.637E+00    8.624E+00    8.611E+00
     8.599E+00    8.587E+00    8.575E+00    8.564E+00    8.553E+00    8.542E+00    8.532E+00    8.522E+00    8.513E+00    8.504E+00
     8.495E+00    8.487E+00    8.479E+00    8.472E+00    8.465E+00    8.458E+00    8.452E+00    8.446E+00    8.440E+00    8.435E+00
     8.430E+00    8.426E+00    8.421E+00    8.417E+00    8.413E+00    8.410E+00    8.407E+00    8.404E+00    8.401E+00    8.398E+00
     8.396E+00    8.393E+00    8.391E+00    8.389E+00    8.387E+00    8.385E+00    8.384E+00    8.382E+00    8.381E+00    8.379E+00
     8.378E+00    8.377E+00    8.375E+00    8.374E+00    8.373E+00    8.371E+00    8.370E+00    8.369E+00    8.367E+00    8.366E+00
     8.364E+00    8.363E+00    8.361E+00    8.359E+00    8.357E+00    8.355E+00    8.353E+00    8.350E+00    8.348E+00    8.345E+00
     8.342E+00    8.339E+00    8.335E+00    8.332E+00    8.328E+00    8.324E+00    8.320E+00    8.316E+00    8.312E+00    8.307E+00
     8.302E+00    8.297E+00    8.292E+00    8.287E+00    8.282E+00    8.276E+00    8.270E+00    8.264E+00    8.258E+00    8.251E+00
     8.244E+00    8.238E+00    8.230E+00    8.223E+00    8.216E+00    8.208E+00    8.200E+00    8.192E+00    8.184E+00    8.175E+00
     8.166E+00    8.158E+00    8.148E+00    8.139E+00    8.129E+00    8.120E+00    8.110E+00    8.099E+00    8.089E+00    8.078E+00
     8.067E+00    8.056E+00    8.045E+00    8.033E+00    8.021E+00    8.009E+00    7.997E+00    7.984E+00    7.972E+00    7.959E+00
     7.946E+00    7.933E+00    7.919E+00    7.906E+00    7.892E+00    7.878E+00    7.864E+00    7.850E+00    7.836E+00    7.822E+00
     7.807E+00    7.792E+00    7.778E+00    7.763E+00    7.748E+00    7.733E+00    7.718E+00    7.703E+00    7.688E+00    7.672E+00
     7.657E+00    7.641E+00    7.626E+00    7.611E+00    7.595E+00    7.579E+00    7.564E+00    7.548E+00    7.533E+00    7.517E+00
     7.501E+00    7.486E+00    7.470E+00    7.454E+00    7.439E+00    7.423E+00    7.408E+00    7.392E+00    7.377E+00    7.361E+00
     7.346E+00    7.331E+00    7.315E+00    7.300E+00    7.285E+00    7.269E+00    7.254E+00    7.238E+00    7.223E+00    7.207E+00
     7.192E+00    7.176E+00    7.161E+00    7.145E+00    7.129E+00    7.113E+00    7.097E+00    7.081E+00    7.065E+00    7.049E+00
     7.032E+00    7.016E+00    6.999E+00    6.983E+00    6.966E+00    6.949E+00    6.932E+00    6.914E+00    6.897E+00    6.879E+00
     6.861E+00    6.843E+00    6.825E+00    6.806E+00    6.788E+00    6.769E+00    6.750E+00    6.731E+00    6.711E+00    6.691E+00
     6.671E+00    6.651E+00    6.631E+00    6.610E+00    6.589E+00    6.567E+00    6.546E+00    6.524E+00    6.502E+00    6.480E+00
     6.457E+00    6.434E+00    6.411E+00    6.388E+00    6.364E+00    6.340E+00    6.316E+00    6.292E+00    6.267E+00    6.243E+00
     6.217E+00    6.192E+00    6.166E+00    6.140E+00    6.114E+00    6.088E+00    6.061E+00    6.034E+00    6.007E+00    5.980E+00
     5.952E+00    5.924E+00    5.896E+00    5.868E+00    5.839E+00    5.810E+00    5.781E+00    5.751E+00    5.722E+00    5.692E+00
     5.662E+00    5.631E+00    5.601E+00    5.570E+00    5.539E+00    5.507E+00    5.475E+00    5.444E+00    5.411E+00    5.379E+00
     5.346E+00    5.313E+00    5.280E+00    5.247E+00    5.213E+00    5.179E+00    5.145E+00    5.111E+00    5.076E+00    5.041E+00
     5.006E+00    4.971E+00    4.935E+00    4.899E+00    4.863E+00    4.827E+00    4.791E+00    4.754E+00    4.717E+00    4.680E+00
     4.642E+00    4.604E+00    4.566E+00    4.528E+00    4.490E+00    4.451E+00    4.412E+00    4.373E+00    4.334E+00    4.294E+00
     4.255E+00    4.215E+00    4.174E+00    4.134E+00    4.093E+00    4.052E+00    4.011E+00    3.970E+00    3.928E+00    3.886E+00
     3.844E+00    3.802E+00    3.760E+00    3.717E+00    3.674E+00    3.631E+00    3.588E+00    3.544E+00    3.500E+00    3.456E+00
     3.412E+00    3.367E+00    3.323E+00    3.278E+00    3.233E+00    3.187E+00    3.142E+00    3.096E+00    3.050E+00    3.004E+00
     2.958E+00    2.911E+00    2.864E+00    2.817E+00    2.770E+00    2.722E+00    2.675E+00    2.627E+00    2.579E+00    2.530E+00
     2.482E+00    2.433E+00    2.384E+00    2.335E+00    2.286E+00    2.236E+00    2.186E+00    2.136E+00    2.086E+00    2.036E+00
     1.985E+00    1.934E+00    1.883E+00    1.832E+00    1.781E+00    1.729E+00    1.677E+00    1.625E+00    1.573E+00    1.520E+00
     1.468E+00    1.415E+00    1.362E+00    1.308E+00    1.255E+00    1.201E+00    1.147E+00    1.093E+00    1.039E+00    9.844E-01
     9.297E-01    8.748E-01    8.198E-01    7.645E-01    7.091E-01    6.535E-01    5.976E-01    5.416E-01    4.854E-01    4.291E-01
     3.725E-01    3.157E-01    2.588E-01    2.017E-01    1.444E-01    8.686E-02    2.919E-02   -2.866E-02   -8.670E-02   -1.449E-01
    -2.033E-01   -2.619E-01   -3.206E-01   -3.795E-01   -4.386E-01   -4.979E-01   -5.573E-01   -6.169E-01   -6.767E-01   -7.367E-01
    -7.968E-01   -8.571E-01   -9.175E-01   -9.782E-01   -1.039E+00   -1.100E+00   -1.161E+00   -1.222E+00   -1.284E+00   -1.345E+00
    -1.407E+00   -1.469E+00   -1.530E+00   -1.592E+00   -1.655E+00   -1.717E+00   -1.779E+00   -1.842E+00   -1.904E+00   -1.967E+00
    -2.029E+00   -2.092E+00   -2.155E+00   -2.218E+00   -2.281E+00   -2.344E+00   -2.407E+00   -2.470E+00   -2.533E+00   -2.597E+00
    -2.660E+00   -2.723E+00   -2.787E+00   -2.850E+00   -2.913E+00   -2.977E+00   -3.040E+00   -3.103E+00   -3.167E+00   -3.230E+00
    -3.293E+00   -3.357E+00   -3.420E+00   -3.483E+00   -3.547E+00   -3.610E+00   -3.673E+00   -3.736E+00
 Asp      Conc. = 2.54E+00
