 LCModel (Version 6.3-1L) Copyright: S.W. Provencher.          Ref.: Magn. Reson. Med. 30:672-679 (1993).                
 Slice#1 Row#11 Col#7  K_02_press_1_raw_act
 36 lines in following concentration table = NCONC+1
    Conc.  %SD /Cr+PCr  Metabolite                                         
    0.000 999%   0.000 Ala                                                 
    0.000 999%   0.000 Asp                                                 
  924.674  14%   0.677 Cr                                                  
  441.316  28%   0.323 PCr                                                 
    0.000 999%   0.000 GABA                                                
   50.193 257% 3.7E-02 Glc                                                 
  611.372  29%   0.448 Gln                                                 
 1.60E+03  13%   1.168 Glu                                                 
  317.126   6%   0.232 GPC                                                 
    0.000 999%   0.000 PCh                                                 
  341.022  19%   0.250 GSH                                                 
 1.30E+03  16%   0.949 Ins                                                 
   20.148 457% 1.5E-02 Lac                                                 
 2.02E+03   5%   1.478 NAA                                                 
  393.407  22%   0.288 NAAG                                                
    1.352 999% 9.9E-04 Scyllo                                              
    0.000 999%   0.000 Tau                                                 
    0.000 999%   0.000 -CrCH2                                              
  317.126   6%   0.232 GPC+PCh                                             
 2.41E+03   4%   1.766 NAA+NAAG                                            
 1.37E+03   4%   1.000 Cr+PCr                                              
 2.21E+03  12%   1.616 Glu+Gln                                             
 2.09E+03  32%   1.533 Lip13a                                              
    0.000 999%   0.000 Lip13b                                              
  338.044  87%   0.247 Lip09                                               
 1.49E+03  22%   1.089 MM09                                                
  270.141  74%   0.198 Lip20                                               
 2.34E+03  17%   1.714 MM20                                                
  608.724  36%   0.446 MM12                                                
 1.96E+03  23%   1.434 MM14                                                
 1.20E+03  21%   0.876 MM17                                                
 2.09E+03  32%   1.533 Lip13a+Lip13b                                       
 4.66E+03   9%   3.412 MM14+Lip13a+Lip13b+MM12                             
 1.83E+03  11%   1.336 MM09+Lip09                                          
 2.61E+03  14%   1.912 MM20+Lip20                                          
   6 lines in following misc. output table
  FWHM = 0.038 ppm    S/N =  13                                            
  Data shift = 0.008 ppm                                                   
  Ph:  14 deg      11.8 deg/ppm                                            
  alphaB,S = 3.8E+00,   1.3E+01                                            
   14 spline knots.   Ns = 5(1)                                            
  ( 4) 2 infls.   ( 1) 1 extrs.                                            
  498 points on ppm-axis = NY
      4.000000     3.992357     3.984714     3.977070     3.969427     3.961784     3.954141     3.946497     3.938854     3.931211
      3.923568     3.915925     3.908281     3.900638     3.892995     3.885352     3.877708     3.870065     3.862422     3.854779
      3.847136     3.839492     3.831849     3.824206     3.816563     3.808919     3.801276     3.793633     3.785990     3.778347
      3.770703     3.763060     3.755417     3.747774     3.740130     3.732487     3.724844     3.717201     3.709558     3.701914
      3.694271     3.686628     3.678985     3.671341     3.663698     3.656055     3.648412     3.640769     3.633125     3.625482
      3.617839     3.610196     3.602552     3.594909     3.587266     3.579623     3.571980     3.564336     3.556693     3.549050
      3.541407     3.533763     3.526120     3.518477     3.510834     3.503191     3.495547     3.487904     3.480261     3.472618
      3.464974     3.457331     3.449688     3.442045     3.434402     3.426758     3.419115     3.411472     3.403829     3.396185
      3.388542     3.380899     3.373256     3.365613     3.357969     3.350326     3.342683     3.335040     3.327396     3.319753
      3.312110     3.304467     3.296824     3.289180     3.281537     3.273894     3.266251     3.258607     3.250964     3.243321
      3.235678     3.228034     3.220391     3.212748     3.205105     3.197462     3.189818     3.182175     3.174532     3.166889
      3.159245     3.151602     3.143959     3.136316     3.128673     3.121029     3.113386     3.105743     3.098100     3.090456
      3.082813     3.075170     3.067527     3.059884     3.052240     3.044597     3.036954     3.029311     3.021667     3.014024
      3.006381     2.998738     2.991095     2.983451     2.975808     2.968165     2.960522     2.952878     2.945235     2.937592
      2.929949     2.922306     2.914662     2.907019     2.899376     2.891733     2.884089     2.876446     2.868803     2.861160
      2.853517     2.845873     2.838230     2.830587     2.822944     2.815300     2.807657     2.800014     2.792371     2.784728
      2.777084     2.769441     2.761798     2.754155     2.746511     2.738868     2.731225     2.723582     2.715939     2.708295
      2.700652     2.693009     2.685366     2.677722     2.670079     2.662436     2.654793     2.647150     2.639506     2.631863
      2.624220     2.616577     2.608933     2.601290     2.593647     2.586004     2.578361     2.570717     2.563074     2.555431
      2.547788     2.540144     2.532501     2.524858     2.517215     2.509572     2.501928     2.494285     2.486642     2.478999
      2.471355     2.463712     2.456069     2.448426     2.440783     2.433139     2.425496     2.417853     2.410210     2.402566
      2.394923     2.387280     2.379637     2.371994     2.364350     2.356707     2.349064     2.341421     2.333777     2.326134
      2.318491     2.310848     2.303205     2.295561     2.287918     2.280275     2.272632     2.264988     2.257345     2.249702
      2.242059     2.234416     2.226772     2.219129     2.211486     2.203843     2.196199     2.188556     2.180913     2.173270
      2.165627     2.157983     2.150340     2.142697     2.135054     2.127410     2.119767     2.112124     2.104481     2.096838
      2.089194     2.081551     2.073908     2.066265     2.058621     2.050978     2.043335     2.035692     2.028049     2.020405
      2.012762     2.005119     1.997476     1.989833     1.982190     1.974546     1.966903     1.959260     1.951617     1.943974
      1.936331     1.928688     1.921045     1.913402     1.905759     1.898115     1.890472     1.882829     1.875186     1.867543
      1.859900     1.852257     1.844614     1.836971     1.829327     1.821684     1.814041     1.806398     1.798755     1.791112
      1.783469     1.775826     1.768183     1.760540     1.752896     1.745253     1.737610     1.729967     1.722324     1.714681
      1.707038     1.699395     1.691752     1.684108     1.676465     1.668822     1.661179     1.653536     1.645893     1.638250
      1.630607     1.622964     1.615321     1.607677     1.600034     1.592391     1.584748     1.577105     1.569462     1.561819
      1.554176     1.546533     1.538890     1.531246     1.523603     1.515960     1.508317     1.500674     1.493031     1.485388
      1.477745     1.470102     1.462458     1.454815     1.447172     1.439529     1.431886     1.424243     1.416600     1.408957
      1.401314     1.393671     1.386027     1.378384     1.370741     1.363098     1.355455     1.347812     1.340169     1.332526
      1.324883     1.317240     1.309596     1.301953     1.294310     1.286667     1.279024     1.271381     1.263738     1.256095
      1.248452     1.240808     1.233165     1.225522     1.217879     1.210236     1.202593     1.194950     1.187307     1.179664
      1.172021     1.164377     1.156734     1.149091     1.141448     1.133805     1.126162     1.118519     1.110876     1.103233
      1.095590     1.087946     1.080303     1.072660     1.065017     1.057374     1.049731     1.042088     1.034445     1.026802
      1.019158     1.011515     1.003872     0.996229     0.988586     0.980943     0.973300     0.965657     0.958014     0.950371
      0.942727     0.935084     0.927441     0.919798     0.912155     0.904512     0.896869     0.889226     0.881583     0.873940
      0.866296     0.858653     0.851010     0.843367     0.835724     0.828081     0.820438     0.812795     0.805152     0.797508
      0.789865     0.782222     0.774579     0.766936     0.759293     0.751650     0.744007     0.736364     0.728721     0.721077
      0.713434     0.705791     0.698148     0.690505     0.682862     0.675219     0.667576     0.659933     0.652290     0.644646
      0.637003     0.629360     0.621717     0.614074     0.606431     0.598788     0.591145     0.583502     0.575858     0.568215
      0.560572     0.552929     0.545286     0.537643     0.530000     0.522357     0.514714     0.507071     0.499427     0.491784
      0.484141     0.476498     0.468855     0.461212     0.453569     0.445925     0.438282     0.430639     0.422996     0.415353
      0.407710     0.400067     0.392424     0.384780     0.377137     0.369494     0.361851     0.354208     0.346565     0.338922
      0.331278     0.323635     0.315992     0.308349     0.300706     0.293063     0.285420     0.277777     0.270133     0.262490
      0.254847     0.247204     0.239561     0.231918     0.224275     0.216631     0.208988     0.201345
 NY phased data points follow
   1.38839E+01  8.87192E+00  7.12124E+00  1.49907E+01  1.16894E+01  9.75254E+00  1.84669E+01  1.97356E+01  3.14528E+01  3.07469E+01
   3.62399E+01  3.65481E+01  3.52392E+01  3.06039E+01  2.48142E+01  2.08461E+01  1.65917E+01  1.36404E+01  1.13379E+01  5.15742E+00
   1.18769E+01  6.23163E+00  9.38268E+00  4.95868E+00  9.08574E+00  8.51090E+00  1.12359E+01  7.33101E+00  1.30066E+01  1.19546E+01
   1.51650E+01  1.26736E+01  1.83324E+01  1.56926E+01  6.90605E+00  1.11229E+01  8.84222E+00  1.00379E+01  3.68313E+00  8.82994E+00
   1.17088E+01  4.38741E+00  1.33973E+01  6.28452E+00  8.35166E+00  1.05840E+01  1.18932E+01  1.49287E+01  2.06211E+01  1.11182E+01
   7.38049E+00  4.62701E+00  6.24349E+00  3.79224E+00  4.12503E+00  7.34139E+00  8.67524E+00  7.78294E+00  1.46204E+01  1.21563E+01
   9.94917E+00  6.08656E+00  5.96146E+00  2.72970E-01  3.22039E-01 -3.88134E-01 -1.10518E+00 -2.90357E+00 -4.70808E-01 -1.32342E+00
   1.26867E+00  4.78593E+00 -9.72763E-01 -4.45439E-01  9.22121E-01  3.04133E-01 -3.45385E-02  2.80928E+00  1.05828E+00  1.74887E+00
  -2.12184E+00  1.07076E+00 -2.22209E+00 -3.12276E+00 -4.83791E+00 -4.86718E+00 -4.77365E-01  2.55423E+00 -2.73875E+00 -7.25406E+00
   1.54484E-01  1.19474E+00  4.76233E+00  1.84673E+00  4.76211E+00  4.06117E+00  2.48116E+00  5.18693E+00  4.40015E+00  8.09551E+00
   1.70752E+01  2.88287E+01  3.38257E+01  3.71673E+01  3.10664E+01  2.35013E+01  1.22441E+01  5.17807E+00  6.67136E+00  8.38662E+00
   1.78147E-01 -3.65051E+00 -3.23631E+00  1.22189E+00  4.33466E-01  1.01165E+00 -3.55912E+00 -4.39130E+00  8.62701E-01  1.80442E+00
   4.36518E+00  8.48043E-01  3.45229E+00  1.03940E+01  2.88442E+01  4.52231E+01  4.67117E+01  5.26269E+01  5.17960E+01  3.51523E+01
   2.95386E+01  2.13178E+01  1.57524E+01  3.92809E+00  2.36054E+00  2.81426E+00  1.05814E+00 -7.26325E-01  1.69571E+00 -9.32655E-01
   2.32443E+00  2.24667E+00  2.84181E+00 -1.40267E+00  3.58287E+00 -3.77658E+00  2.04450E+00 -1.64498E+00 -1.22192E+00 -5.22960E-02
  -1.16164E+00 -3.64748E+00 -4.19694E+00 -4.77927E+00 -1.19118E+01  1.03949E+00 -8.50373E-01 -5.22098E+00  4.47523E+00 -4.55786E+00
  -7.79510E-01  1.70218E+00  4.24893E+00 -3.31251E+00  4.46886E+00  6.88841E-01 -1.19121E+01 -6.41790E+00 -1.13894E+01 -8.24448E+00
  -7.36586E+00 -1.43471E+01 -1.29095E+01 -1.01470E+01 -1.57539E+01 -1.64249E+01 -1.78984E+01 -1.38449E+01 -1.19992E+01 -1.96205E+01
  -1.31835E+01 -1.56093E+01 -9.64096E+00 -9.85888E+00 -6.85566E+00 -1.33325E+01 -1.63392E+01 -6.85576E+00 -7.50983E+00 -7.70140E+00
  -5.35271E+00 -4.87792E+00 -8.48694E+00 -5.79881E+00 -8.59831E+00 -1.24506E+01 -1.46152E+01 -4.49203E+00 -1.00095E+01 -1.22147E+01
  -7.18569E+00 -6.78889E+00 -2.07802E+00  7.16005E-01  5.05041E-01 -4.78211E+00 -7.54439E+00 -1.18939E+01 -6.22088E+00 -5.87491E+00
  -8.40422E+00 -1.28761E+01 -5.69606E+00  4.35116E+00  9.72694E+00  8.21254E+00  6.87408E+00  7.69137E+00  1.62646E+00 -6.08742E+00
  -1.45862E+01 -1.78848E+01 -1.04908E+01 -7.85763E+00 -2.16733E+00 -6.57175E-01  6.18518E+00  2.70664E+00  4.87562E+00  7.14519E+00
   3.21579E+00  5.82342E+00  4.64486E+00 -7.59809E-01 -1.30159E+00  1.59265E+00  2.14158E+00 -6.58260E+00  4.37758E+00  1.11456E+00
  -7.13000E-01 -5.90322E+00  2.02786E+00 -4.73310E+00  2.23528E+00  1.73432E+00  5.99328E+00  6.31050E+00  6.05893E+00  9.76046E+00
   1.26432E+01  1.33027E+01  1.54862E+01  1.86084E+01  2.69445E+01  2.84506E+01  3.21061E+01  5.52626E+01  7.64706E+01  9.50754E+01
   9.81346E+01  8.76708E+01  6.55773E+01  3.63649E+01  2.05025E+01  1.01190E+01  1.34538E-01 -4.40228E+00 -1.71596E+00 -2.22172E+00
  -2.54886E+00  8.49836E-01 -6.87152E+00  5.58142E+00  3.02786E+00 -3.96620E+00 -6.25477E+00 -1.55519E-02  1.49099E+00 -2.31981E+00
  -7.64919E+00 -5.58510E-01  5.56525E-01 -4.97942E+00 -3.21492E+00 -2.71883E+00 -6.35007E+00 -2.28096E+00 -2.97940E+00 -7.05167E+00
   5.25820E+00 -1.17086E+00 -6.09566E-01  9.47872E-01 -2.65888E+00 -5.42726E+00  1.66608E+00 -4.63664E+00 -1.72660E+00  2.85226E+00
  -1.60868E+00 -1.94083E+00  1.28166E+00  6.89811E-01 -2.24566E-01  2.99266E+00  8.06407E-01  2.79008E+00  5.17265E+00  6.01785E+00
   5.92168E-01  4.57494E+00  8.00024E+00  3.32032E+00  7.43765E+00  7.13219E+00  4.29583E+00  9.03213E-01  1.79931E+00  2.59677E+00
  -3.77360E+00  2.62211E-01  1.38410E+00 -2.61658E+00  1.37787E+00 -8.44114E-01  3.50856E-01 -2.31590E+00  2.78269E+00  3.32481E+00
   6.83208E+00  3.19592E+00  4.42461E+00  8.96740E+00  1.25821E+01  8.04223E+00  5.19243E+00  9.47188E+00  9.44992E+00  6.26194E+00
   1.22742E+01  8.47034E+00  8.51193E+00  5.35756E+00  1.13475E+01  1.27465E+01  1.21885E+01  1.03726E+01  5.26922E+00  1.20824E+01
   7.25626E+00  2.11246E+00  1.01138E+01  4.51356E+00  9.01724E-01  2.65173E+00  8.56978E-01  3.42912E+00  7.10483E-01  4.02276E+00
   5.77268E+00  1.07176E+01  4.31539E+00  6.56159E+00  5.62046E+00  5.00256E+00  6.46779E+00  4.72575E+00  5.30335E+00  1.13091E+01
   3.73404E+00  3.85459E+00  6.16448E+00  7.82815E+00  3.47250E+00  5.04518E+00  6.35401E-01  8.13676E-01 -3.71024E+00 -1.60037E+00
  -3.12291E+00 -5.74278E+00 -2.49425E+00 -6.28890E+00  3.46792E-01 -1.94642E+00 -2.08060E+00 -5.17395E+00  5.36101E-01  1.58955E+00
   4.09053E-01  4.18705E-01  1.89756E+00  5.44683E+00  3.59093E+00 -1.05070E+00  3.96183E+00  7.47967E+00  9.81892E+00  4.55098E+00
   3.86963E+00  7.85820E-01  2.69481E+00  6.36687E+00  3.44041E+00  8.92687E+00  1.69512E+01  2.90888E+00  6.76027E+00  7.21009E+00
   9.80735E+00  3.61148E+00  4.61548E+00  3.65926E+00  2.69780E+00  1.16479E+00  5.75397E+00  1.12195E+00 -3.02877E+00 -5.04051E+00
  -4.25710E+00 -4.21484E+00 -3.01102E+00 -3.05258E+00 -1.15285E+01 -3.00653E+00 -5.63943E+00 -9.69734E+00 -3.48519E+00 -4.68044E+00
  -9.41475E+00 -1.06532E+01 -4.16697E+00 -4.61524E+00 -4.39679E+00 -4.28130E+00 -5.76969E+00 -1.72561E+00 -7.58605E+00 -1.13041E+01
  -6.45977E+00 -2.85340E+00 -9.13893E+00 -5.72737E+00 -5.53118E+00 -1.95791E+00 -6.18814E+00 -1.11216E+01 -7.78118E+00 -9.61459E+00
  -4.94883E+00 -5.27074E+00 -4.61549E+00 -1.00602E+01 -1.16148E+01 -3.27161E+00 -6.24262E+00 -9.07725E+00 -4.26655E+00 -8.00095E+00
  -6.13912E+00 -8.78588E+00 -1.12110E+01 -8.76103E+00 -5.28466E+00 -6.06207E+00 -1.19075E+01 -8.01826E+00 -6.27725E+00 -3.98214E+00
  -1.42367E+00  1.60213E+00 -4.84808E+00 -7.97967E+00 -1.38309E+00 -8.32786E+00 -6.42305E+00 -8.33753E+00 -9.18859E-01 -2.03304E+00
  -1.02429E+01 -5.11288E+00 -9.32054E+00 -8.01881E+00 -5.91206E+00 -9.11724E+00 -1.95197E+00 -5.12641E+00 -4.60232E+00 -5.41115E+00
  -9.97447E+00 -1.78953E+00 -1.10659E+01 -7.26227E+00 -5.66925E+00 -4.59003E+00 -2.80606E+00 -7.63979E+00
 NY points of the fit to the data follow
   6.74903E+00  6.53856E+00  6.66044E+00  7.41163E+00  9.32759E+00  1.27678E+01  1.72681E+01  2.19058E+01  2.67004E+01  3.19421E+01
   3.62079E+01  3.71800E+01  3.48306E+01  3.00170E+01  2.31299E+01  1.64236E+01  1.23597E+01  1.00193E+01  8.21671E+00  7.24074E+00
   6.92031E+00  6.79360E+00  6.69710E+00  6.44670E+00  5.98124E+00  5.69937E+00  6.46378E+00  8.57299E+00  1.14362E+01  1.43221E+01
   1.66172E+01  1.74510E+01  1.61212E+01  1.36173E+01  1.05493E+01  7.12729E+00  4.51632E+00  3.27434E+00  3.14901E+00  3.66086E+00
   4.37885E+00  5.15658E+00  5.94791E+00  7.31437E+00  9.90465E+00  1.31895E+01  1.57836E+01  1.65516E+01  1.50585E+01  1.17479E+01
   7.83450E+00  4.71002E+00  2.91534E+00  2.08280E+00  1.87778E+00  2.24435E+00  3.15983E+00  4.47591E+00  5.82457E+00  6.75366E+00
   6.90590E+00  6.12582E+00  4.60245E+00  3.01893E+00  1.89726E+00  1.42555E+00  1.57668E+00  2.11722E+00  2.86239E+00  3.68257E+00
   4.34517E+00  4.69097E+00  4.65192E+00  4.32171E+00  3.78411E+00  3.22127E+00  2.83407E+00  2.55876E+00  2.31277E+00  2.10032E+00
   1.90995E+00  1.71194E+00  1.42470E+00  8.99614E-01 -3.09090E-02 -1.32053E+00 -2.66182E+00 -3.62445E+00 -3.93162E+00 -3.48257E+00
  -2.47346E+00 -1.24275E+00 -6.12260E-02  8.89388E-01  1.46960E+00  1.56545E+00  1.28989E+00  1.21425E+00  2.82479E+00  8.16611E+00
   1.79989E+01  2.91462E+01  3.64130E+01  3.71300E+01  3.20373E+01  2.29808E+01  1.33918E+01  7.28164E+00  3.82133E+00  1.18253E+00
  -1.55588E-01 -4.41784E-01 -4.48336E-01 -3.88351E-01 -3.10211E-01 -2.34567E-01 -1.72102E-01 -1.05205E-01  2.68865E-02  3.13376E-01
   9.26183E-01  2.43023E+00  6.07250E+00  1.36069E+01  2.56372E+01  3.98597E+01  5.11782E+01  5.51379E+01  5.07520E+01  4.05530E+01
   2.84462E+01  1.78797E+01  1.06285E+01  5.43747E+00  1.31175E+00 -1.24336E+00 -2.26371E+00 -2.14687E+00 -1.35146E+00 -4.26775E-01
   3.06197E-01  5.86414E-01  4.12033E-01 -2.64798E-02 -5.53742E-01 -9.82582E-01 -1.29625E+00 -1.56919E+00 -1.81382E+00 -2.06322E+00
  -2.36442E+00 -2.71112E+00 -3.00351E+00 -3.13462E+00 -3.06978E+00 -2.86047E+00 -2.70726E+00 -2.93906E+00 -3.73621E+00 -4.75436E+00
  -5.40871E+00 -5.35613E+00 -4.69803E+00 -3.91501E+00 -3.64872E+00 -4.18050E+00 -5.11751E+00 -6.09226E+00 -6.75058E+00 -6.92308E+00
  -6.97999E+00 -7.23083E+00 -7.77950E+00 -8.62415E+00 -9.34700E+00 -9.39929E+00 -8.85721E+00 -8.22408E+00 -7.94322E+00 -8.03074E+00
  -8.33016E+00 -8.42778E+00 -8.24059E+00 -8.08600E+00 -8.04477E+00 -7.79604E+00 -6.80723E+00 -4.94787E+00 -2.78105E+00 -9.48262E-01
  -3.77264E-02 -3.51496E-01 -1.39276E+00 -2.65728E+00 -3.92529E+00 -4.86973E+00 -5.17455E+00 -4.85007E+00 -3.90959E+00 -2.47073E+00
  -6.59810E-01  1.22595E+00  2.65234E+00  3.16614E+00  2.37565E+00  1.43312E-01 -3.33539E+00 -7.24826E+00 -1.03258E+01 -1.17920E+01
  -1.14029E+01 -9.04313E+00 -4.55335E+00  9.79611E-01  5.46195E+00  7.74636E+00  7.11886E+00  3.59072E+00 -1.98276E+00 -8.08286E+00
  -1.28251E+01 -1.50698E+01 -1.42759E+01 -1.07980E+01 -5.92545E+00 -1.23277E+00  1.90771E+00  3.11805E+00  3.06646E+00  2.26468E+00
   1.17835E+00  4.55212E-01  3.29906E-01  7.96393E-01  1.74581E+00  2.72418E+00  3.40712E+00  3.63461E+00  3.25475E+00  2.07154E+00
   4.54378E-01 -5.77728E-01 -5.47871E-01  4.15382E-01  1.93343E+00  3.65930E+00  4.88942E+00  5.24353E+00  5.18745E+00  5.29246E+00
   6.05991E+00  8.38181E+00  1.29042E+01  1.87374E+01  2.37477E+01  2.83749E+01  3.74733E+01  5.54169E+01  7.79501E+01  9.42403E+01
   9.69657E+01  8.56380E+01  6.43270E+01  3.97272E+01  2.32091E+01  1.43750E+01  6.96045E+00  2.28055E+00  6.34467E-01 -2.01536E-01
  -7.42324E-01 -9.32627E-01 -9.26500E-01 -9.34815E-01 -1.04795E+00 -1.30435E+00 -1.70205E+00 -2.15420E+00 -2.55640E+00 -2.86648E+00
  -3.08387E+00 -3.21280E+00 -3.27152E+00 -3.29766E+00 -3.34099E+00 -3.41777E+00 -3.49156E+00 -3.52981E+00 -3.51404E+00 -3.41613E+00
  -3.22581E+00 -2.96428E+00 -2.65796E+00 -2.32866E+00 -1.99565E+00 -1.65488E+00 -1.29412E+00 -9.05267E-01 -4.80245E-01 -1.86049E-02
   4.68141E-01  9.62934E-01  1.43601E+00  1.86631E+00  2.24600E+00  2.56281E+00  2.80854E+00  2.98307E+00  3.08594E+00  3.11760E+00
   3.08181E+00  2.98542E+00  2.83873E+00  2.65483E+00  2.44797E+00  2.23299E+00  2.02511E+00  1.83926E+00  1.68959E+00  1.58841E+00
   1.54513E+00  1.56627E+00  1.65599E+00  1.81626E+00  2.04642E+00  2.34274E+00  2.69860E+00  3.10539E+00  3.55333E+00  4.03188E+00
   4.52957E+00  5.03408E+00  5.53294E+00  6.01455E+00  6.46882E+00  6.88726E+00  7.26270E+00  7.58948E+00  7.86402E+00  8.08555E+00
   8.25641E+00  8.38282E+00  8.47701E+00  8.54862E+00  8.58507E+00  8.54492E+00  8.39676E+00  8.15680E+00  7.86989E+00  7.57460E+00
   7.31677E+00  7.14549E+00  7.05953E+00  7.02988E+00  7.01951E+00  6.97412E+00  6.86142E+00  6.66749E+00  6.40976E+00  6.13438E+00
   5.84701E+00  5.53592E+00  5.20826E+00  4.86674E+00  4.50771E+00  4.13048E+00  3.73651E+00  3.32879E+00  2.91139E+00  2.48893E+00
   2.06612E+00  1.64780E+00  1.23915E+00  8.45667E-01  4.72846E-01  1.25758E-01 -1.91034E-01 -4.73228E-01 -7.16504E-01 -9.16560E-01
  -1.06942E+00 -1.17164E+00 -1.22021E+00 -1.21227E+00 -1.14498E+00 -1.01583E+00 -8.23099E-01 -5.66104E-01 -2.45201E-01  1.38251E-01
   5.81634E-01  1.08056E+00  1.62843E+00  2.21637E+00  2.83348E+00  3.46710E+00  4.10290E+00  4.72497E+00  5.31619E+00  5.85906E+00
   6.33670E+00  6.73366E+00  7.03641E+00  7.23382E+00  7.31776E+00  7.28373E+00  7.13136E+00  6.86421E+00  6.48935E+00  6.01682E+00
   5.45918E+00  4.83107E+00  4.14858E+00  3.42823E+00  2.68605E+00  1.93693E+00  1.19432E+00  4.70060E-01 -2.25902E-01 -8.85854E-01
  -1.50443E+00 -2.07836E+00 -2.60603E+00 -3.08712E+00 -3.52246E+00 -3.91401E+00 -4.26461E+00 -4.57752E+00 -4.85607E+00 -5.10345E+00
  -5.32280E+00 -5.51734E+00 -5.69020E+00 -5.84416E+00 -5.98153E+00 -6.10423E+00 -6.21408E+00 -6.31284E+00 -6.40211E+00 -6.48312E+00
  -6.55674E+00 -6.62372E+00 -6.68486E+00 -6.74101E+00 -6.79286E+00 -6.84084E+00 -6.88518E+00 -6.92617E+00 -6.96424E+00 -6.99986E+00
  -7.03331E+00 -7.06466E+00 -7.09394E+00 -7.12131E+00 -7.14708E+00 -7.17153E+00 -7.19472E+00 -7.21661E+00 -7.23717E+00 -7.25659E+00
  -7.27513E+00 -7.29290E+00 -7.30985E+00 -7.32588E+00 -7.34100E+00 -7.35543E+00 -7.36936E+00 -7.38281E+00 -7.39565E+00 -7.40780E+00
  -7.41934E+00 -7.43049E+00 -7.44134E+00 -7.45181E+00 -7.46178E+00 -7.47121E+00 -7.48026E+00 -7.48911E+00 -7.49776E+00 -7.50610E+00
  -7.51400E+00 -7.52151E+00 -7.52881E+00 -7.53602E+00 -7.54306E+00 -7.54979E+00 -7.55614E+00 -7.56224E+00 -7.56824E+00 -7.57420E+00
  -7.57998E+00 -7.58544E+00 -7.59059E+00 -7.59561E+00 -7.60060E+00 -7.60552E+00 -7.61022E+00 -7.61459E+00
 NY background values follow
     3.016E+00    2.968E+00    2.921E+00    2.874E+00    2.826E+00    2.779E+00    2.732E+00    2.684E+00    2.637E+00    2.589E+00
     2.542E+00    2.495E+00    2.447E+00    2.400E+00    2.352E+00    2.305E+00    2.258E+00    2.210E+00    2.163E+00    2.116E+00
     2.068E+00    2.021E+00    1.974E+00    1.926E+00    1.879E+00    1.832E+00    1.784E+00    1.737E+00    1.690E+00    1.643E+00
     1.595E+00    1.548E+00    1.501E+00    1.454E+00    1.407E+00    1.360E+00    1.312E+00    1.265E+00    1.218E+00    1.171E+00
     1.124E+00    1.077E+00    1.030E+00    9.831E-01    9.361E-01    8.892E-01    8.423E-01    7.954E-01    7.486E-01    7.018E-01
     6.550E-01    6.082E-01    5.615E-01    5.148E-01    4.682E-01    4.215E-01    3.750E-01    3.284E-01    2.819E-01    2.355E-01
     1.891E-01    1.427E-01    9.639E-02    5.012E-02    3.894E-03   -4.228E-02   -8.840E-02   -1.345E-01   -1.805E-01   -2.264E-01
    -2.723E-01   -3.182E-01   -3.640E-01   -4.097E-01   -4.553E-01   -5.009E-01   -5.465E-01   -5.919E-01   -6.373E-01   -6.826E-01
    -7.279E-01   -7.731E-01   -8.182E-01   -8.632E-01   -9.082E-01   -9.531E-01   -9.979E-01   -1.043E+00   -1.087E+00   -1.132E+00
    -1.176E+00   -1.221E+00   -1.265E+00   -1.309E+00   -1.353E+00   -1.397E+00   -1.441E+00   -1.485E+00   -1.529E+00   -1.573E+00
    -1.616E+00   -1.660E+00   -1.703E+00   -1.747E+00   -1.790E+00   -1.833E+00   -1.876E+00   -1.919E+00   -1.962E+00   -2.004E+00
    -2.047E+00   -2.089E+00   -2.132E+00   -2.174E+00   -2.216E+00   -2.258E+00   -2.300E+00   -2.342E+00   -2.384E+00   -2.426E+00
    -2.467E+00   -2.508E+00   -2.550E+00   -2.591E+00   -2.632E+00   -2.673E+00   -2.714E+00   -2.754E+00   -2.795E+00   -2.836E+00
    -2.876E+00   -2.916E+00   -2.956E+00   -2.996E+00   -3.036E+00   -3.076E+00   -3.115E+00   -3.155E+00   -3.194E+00   -3.233E+00
    -3.272E+00   -3.311E+00   -3.350E+00   -3.389E+00   -3.427E+00   -3.466E+00   -3.504E+00   -3.542E+00   -3.580E+00   -3.618E+00
    -3.655E+00   -3.693E+00   -3.730E+00   -3.767E+00   -3.804E+00   -3.841E+00   -3.878E+00   -3.914E+00   -3.951E+00   -3.987E+00
    -4.023E+00   -4.059E+00   -4.094E+00   -4.130E+00   -4.165E+00   -4.200E+00   -4.235E+00   -4.270E+00   -4.305E+00   -4.339E+00
    -4.373E+00   -4.408E+00   -4.441E+00   -4.475E+00   -4.509E+00   -4.542E+00   -4.575E+00   -4.608E+00   -4.641E+00   -4.673E+00
    -4.705E+00   -4.738E+00   -4.769E+00   -4.801E+00   -4.833E+00   -4.864E+00   -4.895E+00   -4.926E+00   -4.957E+00   -4.987E+00
    -5.017E+00   -5.047E+00   -5.077E+00   -5.107E+00   -5.136E+00   -5.166E+00   -5.195E+00   -5.224E+00   -5.252E+00   -5.281E+00
    -5.309E+00   -5.337E+00   -5.365E+00   -5.393E+00   -5.420E+00   -5.448E+00   -5.475E+00   -5.502E+00   -5.529E+00   -5.555E+00
    -5.582E+00   -5.608E+00   -5.634E+00   -5.660E+00   -5.685E+00   -5.711E+00   -5.736E+00   -5.761E+00   -5.786E+00   -5.811E+00
    -5.835E+00   -5.859E+00   -5.884E+00   -5.908E+00   -5.931E+00   -5.955E+00   -5.978E+00   -6.002E+00   -6.025E+00   -6.047E+00
    -6.070E+00   -6.093E+00   -6.115E+00   -6.137E+00   -6.159E+00   -6.181E+00   -6.203E+00   -6.224E+00   -6.245E+00   -6.266E+00
    -6.287E+00   -6.308E+00   -6.329E+00   -6.349E+00   -6.369E+00   -6.390E+00   -6.409E+00   -6.429E+00   -6.449E+00   -6.468E+00
    -6.488E+00   -6.507E+00   -6.526E+00   -6.544E+00   -6.563E+00   -6.581E+00   -6.600E+00   -6.618E+00   -6.636E+00   -6.654E+00
    -6.671E+00   -6.689E+00   -6.706E+00   -6.723E+00   -6.740E+00   -6.757E+00   -6.774E+00   -6.790E+00   -6.807E+00   -6.823E+00
    -6.839E+00   -6.855E+00   -6.871E+00   -6.887E+00   -6.902E+00   -6.917E+00   -6.933E+00   -6.948E+00   -6.963E+00   -6.977E+00
    -6.992E+00   -7.007E+00   -7.021E+00   -7.035E+00   -7.049E+00   -7.063E+00   -7.077E+00   -7.091E+00   -7.104E+00   -7.118E+00
    -7.131E+00   -7.144E+00   -7.157E+00   -7.170E+00   -7.182E+00   -7.195E+00   -7.207E+00   -7.220E+00   -7.232E+00   -7.244E+00
    -7.256E+00   -7.268E+00   -7.279E+00   -7.291E+00   -7.302E+00   -7.314E+00   -7.325E+00   -7.336E+00   -7.347E+00   -7.357E+00
    -7.368E+00   -7.379E+00   -7.389E+00   -7.399E+00   -7.410E+00   -7.420E+00   -7.430E+00   -7.440E+00   -7.449E+00   -7.459E+00
    -7.468E+00   -7.478E+00   -7.487E+00   -7.496E+00   -7.505E+00   -7.514E+00   -7.523E+00   -7.532E+00   -7.540E+00   -7.549E+00
    -7.557E+00   -7.566E+00   -7.574E+00   -7.582E+00   -7.590E+00   -7.598E+00   -7.606E+00   -7.613E+00   -7.621E+00   -7.628E+00
    -7.636E+00   -7.643E+00   -7.650E+00   -7.657E+00   -7.664E+00   -7.671E+00   -7.678E+00   -7.685E+00   -7.691E+00   -7.698E+00
    -7.704E+00   -7.711E+00   -7.717E+00   -7.723E+00   -7.729E+00   -7.735E+00   -7.741E+00   -7.747E+00   -7.753E+00   -7.758E+00
    -7.764E+00   -7.769E+00   -7.775E+00   -7.780E+00   -7.785E+00   -7.790E+00   -7.795E+00   -7.800E+00   -7.805E+00   -7.810E+00
    -7.815E+00   -7.819E+00   -7.824E+00   -7.829E+00   -7.833E+00   -7.837E+00   -7.842E+00   -7.846E+00   -7.850E+00   -7.854E+00
    -7.858E+00   -7.862E+00   -7.866E+00   -7.870E+00   -7.873E+00   -7.877E+00   -7.880E+00   -7.884E+00   -7.887E+00   -7.891E+00
    -7.894E+00   -7.897E+00   -7.900E+00   -7.903E+00   -7.906E+00   -7.909E+00   -7.912E+00   -7.915E+00   -7.918E+00   -7.920E+00
    -7.923E+00   -7.926E+00   -7.928E+00   -7.930E+00   -7.933E+00   -7.935E+00   -7.937E+00   -7.939E+00   -7.942E+00   -7.944E+00
    -7.946E+00   -7.948E+00   -7.950E+00   -7.951E+00   -7.953E+00   -7.955E+00   -7.956E+00   -7.958E+00   -7.960E+00   -7.961E+00
    -7.963E+00   -7.964E+00   -7.965E+00   -7.967E+00   -7.968E+00   -7.969E+00   -7.970E+00   -7.972E+00   -7.973E+00   -7.974E+00
    -7.975E+00   -7.976E+00   -7.977E+00   -7.977E+00   -7.978E+00   -7.979E+00   -7.980E+00   -7.981E+00   -7.981E+00   -7.982E+00
    -7.983E+00   -7.983E+00   -7.984E+00   -7.984E+00   -7.985E+00   -7.985E+00   -7.986E+00   -7.986E+00   -7.986E+00   -7.987E+00
    -7.987E+00   -7.987E+00   -7.988E+00   -7.988E+00   -7.988E+00   -7.988E+00   -7.989E+00   -7.989E+00   -7.989E+00   -7.989E+00
    -7.989E+00   -7.989E+00   -7.989E+00   -7.989E+00   -7.989E+00   -7.989E+00   -7.989E+00   -7.989E+00   -7.989E+00   -7.989E+00
    -7.989E+00   -7.989E+00   -7.989E+00   -7.989E+00   -7.989E+00   -7.989E+00   -7.988E+00   -7.988E+00   -7.988E+00   -7.988E+00
    -7.988E+00   -7.988E+00   -7.988E+00   -7.987E+00   -7.987E+00   -7.987E+00   -7.987E+00   -7.987E+00   -7.987E+00   -7.986E+00
    -7.986E+00   -7.986E+00   -7.986E+00   -7.986E+00   -7.985E+00   -7.985E+00   -7.985E+00   -7.985E+00
 Cr       Conc. = 9.25E+02
