 LCModel (Version 6.3-1L) Copyright: S.W. Provencher.          Ref.: Magn. Reson. Med. 30:672-679 (1993).                
 Slice#2 Row#9 Col#7  K_02_press_1_raw_act
 36 lines in following concentration table = NCONC+1
    Conc.  %SD /Cr+PCr  Metabolite                                         
  145.417  84% 6.4E-02 Ala                                                 
    0.000 999%   0.000 Asp                                                 
 1.47E+03  15%   0.647 Cr                                                  
  803.542  27%   0.353 PCr                                                 
    0.000 999%   0.000 GABA                                                
    0.000 999%   0.000 Glc                                                 
  814.978  31%   0.358 Gln                                                 
 2.21E+03  13%   0.968 Glu                                                 
  621.701   5%   0.273 GPC                                                 
    0.000 999%   0.000 PCh                                                 
  656.362  13%   0.288 GSH                                                 
 1.76E+03  16%   0.774 Ins                                                 
   30.739 430% 1.3E-02 Lac                                                 
 3.11E+03   5%   1.364 NAA                                                 
  354.058  42%   0.155 NAAG                                                
   37.907  85% 1.7E-02 Scyllo                                              
    0.000 999%   0.000 Tau                                                 
    0.000 999%   0.000 -CrCH2                                              
  621.701   5%   0.273 GPC+PCh                                             
 3.46E+03   3%   1.519 NAA+NAAG                                            
 2.28E+03   3%   1.000 Cr+PCr                                              
 3.02E+03  13%   1.326 Glu+Gln                                             
 1.36E+03  41%   0.597 Lip13a                                              
    0.000 999%   0.000 Lip13b                                              
  219.229 124% 9.6E-02 Lip09                                               
 1.90E+03  17%   0.836 MM09                                                
  195.002  94% 8.6E-02 Lip20                                               
 4.15E+03  11%   1.822 MM20                                                
  644.685  38%   0.283 MM12                                                
  709.427  55%   0.311 MM14                                                
  940.384  26%   0.413 MM17                                                
 1.36E+03  41%   0.597 Lip13a+Lip13b                                       
 2.71E+03  14%   1.191 MM14+Lip13a+Lip13b+MM12                             
 2.12E+03  11%   0.932 MM09+Lip09                                          
 4.35E+03  10%   1.907 MM20+Lip20                                          
   6 lines in following misc. output table
  FWHM = 0.038 ppm    S/N =  14                                            
  Data shift = 0.015 ppm                                                   
  Ph: -12 deg      -5.6 deg/ppm                                            
  alphaB,S = 2.5E+01,   2.5E+01                                            
   14 spline knots.   Ns = 6(1)                                            
  ( 7) 5 infls.   ( 5) 3 extrs.                                            
  498 points on ppm-axis = NY
      4.000000     3.992357     3.984714     3.977070     3.969427     3.961784     3.954141     3.946497     3.938854     3.931211
      3.923568     3.915925     3.908281     3.900638     3.892995     3.885352     3.877708     3.870065     3.862422     3.854779
      3.847136     3.839492     3.831849     3.824206     3.816563     3.808919     3.801276     3.793633     3.785990     3.778347
      3.770703     3.763060     3.755417     3.747774     3.740130     3.732487     3.724844     3.717201     3.709558     3.701914
      3.694271     3.686628     3.678985     3.671341     3.663698     3.656055     3.648412     3.640769     3.633125     3.625482
      3.617839     3.610196     3.602552     3.594909     3.587266     3.579623     3.571980     3.564336     3.556693     3.549050
      3.541407     3.533763     3.526120     3.518477     3.510834     3.503191     3.495547     3.487904     3.480261     3.472618
      3.464974     3.457331     3.449688     3.442045     3.434402     3.426758     3.419115     3.411472     3.403829     3.396185
      3.388542     3.380899     3.373256     3.365613     3.357969     3.350326     3.342683     3.335040     3.327396     3.319753
      3.312110     3.304467     3.296824     3.289180     3.281537     3.273894     3.266251     3.258607     3.250964     3.243321
      3.235678     3.228034     3.220391     3.212748     3.205105     3.197462     3.189818     3.182175     3.174532     3.166889
      3.159245     3.151602     3.143959     3.136316     3.128673     3.121029     3.113386     3.105743     3.098100     3.090456
      3.082813     3.075170     3.067527     3.059884     3.052240     3.044597     3.036954     3.029311     3.021667     3.014024
      3.006381     2.998738     2.991095     2.983451     2.975808     2.968165     2.960522     2.952878     2.945235     2.937592
      2.929949     2.922306     2.914662     2.907019     2.899376     2.891733     2.884089     2.876446     2.868803     2.861160
      2.853517     2.845873     2.838230     2.830587     2.822944     2.815300     2.807657     2.800014     2.792371     2.784728
      2.777084     2.769441     2.761798     2.754155     2.746511     2.738868     2.731225     2.723582     2.715939     2.708295
      2.700652     2.693009     2.685366     2.677722     2.670079     2.662436     2.654793     2.647150     2.639506     2.631863
      2.624220     2.616577     2.608933     2.601290     2.593647     2.586004     2.578361     2.570717     2.563074     2.555431
      2.547788     2.540144     2.532501     2.524858     2.517215     2.509572     2.501928     2.494285     2.486642     2.478999
      2.471355     2.463712     2.456069     2.448426     2.440783     2.433139     2.425496     2.417853     2.410210     2.402566
      2.394923     2.387280     2.379637     2.371994     2.364350     2.356707     2.349064     2.341421     2.333777     2.326134
      2.318491     2.310848     2.303205     2.295561     2.287918     2.280275     2.272632     2.264988     2.257345     2.249702
      2.242059     2.234416     2.226772     2.219129     2.211486     2.203843     2.196199     2.188556     2.180913     2.173270
      2.165627     2.157983     2.150340     2.142697     2.135054     2.127410     2.119767     2.112124     2.104481     2.096838
      2.089194     2.081551     2.073908     2.066265     2.058621     2.050978     2.043335     2.035692     2.028049     2.020405
      2.012762     2.005119     1.997476     1.989833     1.982190     1.974546     1.966903     1.959260     1.951617     1.943974
      1.936331     1.928688     1.921045     1.913402     1.905759     1.898115     1.890472     1.882829     1.875186     1.867543
      1.859900     1.852257     1.844614     1.836971     1.829327     1.821684     1.814041     1.806398     1.798755     1.791112
      1.783469     1.775826     1.768183     1.760540     1.752896     1.745253     1.737610     1.729967     1.722324     1.714681
      1.707038     1.699395     1.691752     1.684108     1.676465     1.668822     1.661179     1.653536     1.645893     1.638250
      1.630607     1.622964     1.615321     1.607677     1.600034     1.592391     1.584748     1.577105     1.569462     1.561819
      1.554176     1.546533     1.538890     1.531246     1.523603     1.515960     1.508317     1.500674     1.493031     1.485388
      1.477745     1.470102     1.462458     1.454815     1.447172     1.439529     1.431886     1.424243     1.416600     1.408957
      1.401314     1.393671     1.386027     1.378384     1.370741     1.363098     1.355455     1.347812     1.340169     1.332526
      1.324883     1.317240     1.309596     1.301953     1.294310     1.286667     1.279024     1.271381     1.263738     1.256095
      1.248452     1.240808     1.233165     1.225522     1.217879     1.210236     1.202593     1.194950     1.187307     1.179664
      1.172021     1.164377     1.156734     1.149091     1.141448     1.133805     1.126162     1.118519     1.110876     1.103233
      1.095590     1.087946     1.080303     1.072660     1.065017     1.057374     1.049731     1.042088     1.034445     1.026802
      1.019158     1.011515     1.003872     0.996229     0.988586     0.980943     0.973300     0.965657     0.958014     0.950371
      0.942727     0.935084     0.927441     0.919798     0.912155     0.904512     0.896869     0.889226     0.881583     0.873940
      0.866296     0.858653     0.851010     0.843367     0.835724     0.828081     0.820438     0.812795     0.805152     0.797508
      0.789865     0.782222     0.774579     0.766936     0.759293     0.751650     0.744007     0.736364     0.728721     0.721077
      0.713434     0.705791     0.698148     0.690505     0.682862     0.675219     0.667576     0.659933     0.652290     0.644646
      0.637003     0.629360     0.621717     0.614074     0.606431     0.598788     0.591145     0.583502     0.575858     0.568215
      0.560572     0.552929     0.545286     0.537643     0.530000     0.522357     0.514714     0.507071     0.499427     0.491784
      0.484141     0.476498     0.468855     0.461212     0.453569     0.445925     0.438282     0.430639     0.422996     0.415353
      0.407710     0.400067     0.392424     0.384780     0.377137     0.369494     0.361851     0.354208     0.346565     0.338922
      0.331278     0.323635     0.315992     0.308349     0.300706     0.293063     0.285420     0.277777     0.270133     0.262490
      0.254847     0.247204     0.239561     0.231918     0.224275     0.216631     0.208988     0.201345
 NY phased data points follow
   2.17340E+01  1.64020E+01  3.31536E+01  2.86296E+01  3.25257E+01  3.79992E+01  4.54939E+01  5.16447E+01  6.29369E+01  7.72210E+01
   7.52175E+01  8.61891E+01  7.87141E+01  6.99878E+01  5.39000E+01  5.24027E+01  4.52055E+01  3.32760E+01  3.84184E+01  3.28472E+01
   2.26046E+01  2.83945E+01  2.57453E+01  2.98337E+01  3.95613E+01  3.20163E+01  3.02129E+01  3.65179E+01  3.49069E+01  4.21492E+01
   3.91006E+01  3.96261E+01  4.18219E+01  4.25102E+01  3.46189E+01  3.48722E+01  2.84482E+01  3.03320E+01  3.15952E+01  2.71116E+01
   3.78117E+01  3.46180E+01  3.47274E+01  3.38738E+01  2.96450E+01  3.11135E+01  4.37925E+01  5.05051E+01  4.62412E+01  3.85343E+01
   3.62029E+01  2.98749E+01  2.50681E+01  2.87618E+01  2.53681E+01  3.49280E+01  3.13014E+01  2.92918E+01  3.49096E+01  3.60839E+01
   3.01124E+01  2.58919E+01  2.10864E+01  2.60072E+01  1.68793E+01  1.76435E+01  1.84812E+01  2.30631E+01  1.95391E+01  1.53731E+01
   2.11524E+01  1.85247E+01  2.23237E+01  2.10079E+01  2.56092E+01  2.04193E+01  2.81015E+01  2.37393E+01  2.01577E+01  2.02184E+01
   2.41996E+01  2.25788E+01  2.71875E+01  2.22140E+01  2.18829E+01  1.42405E+01  1.90746E+01  2.35778E+01  2.44052E+01  1.68660E+01
   2.81952E+01  2.07225E+01  2.12657E+01  2.94439E+01  2.46029E+01  2.60742E+01  2.80399E+01  3.19057E+01  2.92392E+01  3.25309E+01
   5.06009E+01  6.57981E+01  8.37817E+01  8.61265E+01  8.38226E+01  6.69373E+01  6.52141E+01  4.79730E+01  4.03273E+01  3.60763E+01
   3.33254E+01  2.66785E+01  3.98566E+01  3.29270E+01  2.86186E+01  2.16175E+01  2.55452E+01  3.52644E+01  3.17555E+01  2.88334E+01
   3.16773E+01  3.34717E+01  3.24617E+01  4.30854E+01  6.03385E+01  7.25911E+01  1.05062E+02  1.08648E+02  1.07473E+02  9.09212E+01
   7.70828E+01  6.04646E+01  4.52380E+01  3.79906E+01  3.79134E+01  3.74063E+01  2.31821E+01  2.94889E+01  2.13752E+01  1.99100E+01
   2.87339E+01  2.25425E+01  2.58748E+01  2.09513E+01  2.61260E+01  2.67812E+01  2.44937E+01  2.59138E+01  2.10752E+01  2.14268E+01
   2.36676E+01  2.23409E+01  2.54235E+01  2.17955E+01  1.87338E+01  1.91855E+01  2.17936E+01  2.23987E+01  1.97074E+01  2.35564E+01
   2.55040E+01  2.26080E+01  1.77576E+01  1.45856E+01  2.31475E+01  2.46049E+01  2.56160E+01  2.56810E+01  1.97955E+01  1.95320E+01
   1.26139E+01  1.86795E+01  1.30572E+01 -2.89338E+00  1.44563E+00  3.56910E+00  1.32001E+00  5.90096E+00  2.04168E+00  3.52450E+00
   2.00427E+00  4.71565E+00  6.21200E+00  3.18057E+00  1.24955E+01  1.17975E+01  8.84792E+00  6.10948E+00  1.85658E+01  1.89812E+01
   2.04470E+01  2.24936E+01  2.45584E+01  3.03553E+01  1.91790E+01  2.08127E+01  1.68158E+01  1.03740E+01  1.19138E+01  7.56678E+00
   1.62025E+01  2.29790E+01  2.88137E+01  2.69935E+01  2.75788E+01  2.14580E+01  2.02589E+01  2.15931E+01  1.76192E+01  2.30662E+01
   9.05931E+00  1.41816E+01  1.11722E+01  2.62864E+01  2.67555E+01  4.49878E+01  4.00975E+01  3.71394E+01  3.21128E+01  1.86690E+01
   1.90877E+01  7.89981E+00  1.33242E+01  1.77893E+01  2.01390E+01  1.87283E+01  2.86938E+01  3.10932E+01  3.07319E+01  3.18428E+01
   2.99335E+01  3.16596E+01  2.57321E+01  3.26859E+01  2.94249E+01  3.02707E+01  2.77311E+01  3.04727E+01  2.71734E+01  2.71109E+01
   2.70552E+01  2.58029E+01  2.77132E+01  2.43649E+01  2.75569E+01  3.12519E+01  3.58695E+01  4.25161E+01  4.30882E+01  3.74618E+01
   3.96731E+01  4.24926E+01  4.73504E+01  5.09324E+01  6.35848E+01  6.90994E+01  6.35930E+01  7.92586E+01  1.11151E+02  1.44197E+02
   1.64206E+02  1.55747E+02  1.46286E+02  1.08393E+02  8.58466E+01  6.09954E+01  4.83386E+01  3.72003E+01  3.56115E+01  3.51132E+01
   3.09520E+01  3.05610E+01  2.99047E+01  3.24646E+01  2.35704E+01  2.33751E+01  3.20998E+01  2.51124E+01  1.79310E+01  2.35728E+01
   2.41228E+01  2.62512E+01  2.90641E+01  2.56914E+01  2.26525E+01  2.25200E+01  2.38649E+01  2.38011E+01  2.51488E+01  2.35060E+01
   2.63002E+01  1.78171E+01  1.70118E+01  2.30053E+01  2.23892E+01  1.94018E+01  1.91665E+01  1.87954E+01  3.08358E+01  1.79924E+01
   3.07051E+01  2.04977E+01  2.15015E+01  3.14445E+01  3.17946E+01  2.21210E+01  2.70406E+01  3.23135E+01  2.91953E+01  2.11937E+01
   1.99483E+01  2.77504E+01  3.07726E+01  2.93981E+01  2.44666E+01  3.11625E+01  2.76544E+01  2.51722E+01  2.17993E+01  2.37040E+01
   2.69845E+01  1.86777E+01  2.93174E+01  2.23459E+01  1.93151E+01  2.36888E+01  1.86457E+01  2.25311E+01  1.99038E+01  1.90299E+01
   1.61719E+01  2.09822E+01  2.31309E+01  2.24181E+01  2.08880E+01  3.00528E+01  2.46199E+01  2.46983E+01  2.70235E+01  2.66084E+01
   2.86902E+01  2.69614E+01  2.42566E+01  2.94910E+01  2.68991E+01  3.24017E+01  2.79664E+01  2.60301E+01  3.25168E+01  2.68288E+01
   2.33607E+01  2.65059E+01  2.99900E+01  2.59003E+01  3.24798E+01  2.77006E+01  2.99409E+01  2.07542E+01  2.77156E+01  2.62983E+01
   2.71671E+01  2.09841E+01  3.08442E+01  2.32082E+01  3.22824E+01  3.01622E+01  2.52268E+01  2.76965E+01  2.75730E+01  3.18268E+01
   2.32929E+01  2.75176E+01  2.12598E+01  3.30577E+01  3.52189E+01  1.91149E+01  2.58073E+01  2.16593E+01  2.54732E+01  2.76453E+01
   2.24281E+01  2.57706E+01  2.61248E+01  1.81958E+01  2.06936E+01  2.31241E+01  1.53802E+01  1.94742E+01  2.47880E+01  2.21588E+01
   2.24157E+01  2.95029E+01  2.17055E+01  2.49159E+01  2.50452E+01  3.18400E+01  3.24243E+01  3.04051E+01  3.16316E+01  2.99883E+01
   3.21118E+01  3.35996E+01  2.60898E+01  2.78864E+01  3.88010E+01  3.54783E+01  3.50050E+01  3.69704E+01  4.25544E+01  2.94210E+01
   2.82979E+01  3.57769E+01  2.79079E+01  2.66794E+01  3.16519E+01  2.81080E+01  2.41158E+01  2.64598E+01  2.33462E+01  2.37498E+01
   1.99349E+01  2.32970E+01  2.27763E+01  2.81100E+01  2.68647E+01  2.39298E+01  2.56339E+01  2.18217E+01  1.60795E+01  1.93525E+01
   2.36161E+01  2.33200E+01  2.45945E+01  2.18717E+01  2.12216E+01  2.12642E+01  1.51189E+01  1.61052E+01  1.65351E+01  2.35825E+01
   2.17065E+01  2.29208E+01  1.82308E+01  2.23583E+01  2.42363E+01  2.16897E+01  1.61347E+01  1.66296E+01  1.81524E+01  1.42478E+01
   2.67064E+01  1.57076E+01  2.19911E+01  1.64034E+01  1.77853E+01  2.22022E+01  2.24628E+01  2.04191E+01  1.98539E+01  1.90692E+01
   1.73763E+01  1.75722E+01  2.24995E+01  2.42294E+01  1.15204E+01  1.74675E+01  1.42831E+01  2.00249E+01  1.40362E+01  2.12519E+01
   1.48614E+01  1.91127E+01  1.97980E+01  1.05684E+01  2.24619E+01  1.96290E+01  1.56859E+01  1.76131E+01  1.98433E+01  1.95551E+01
   1.89272E+01  1.53326E+01  1.41827E+01  1.45715E+01  1.89583E+01  2.37392E+01  2.02738E+01  1.56798E+01  2.11582E+01  1.47339E+01
   1.79683E+01  1.80332E+01  2.41849E+01  1.31922E+01  1.06576E+01  1.53769E+01  1.37164E+01  1.63414E+01
 NY points of the fit to the data follow
   2.74816E+01  2.72804E+01  2.81595E+01  3.01991E+01  3.16628E+01  3.59635E+01  4.33937E+01  5.04145E+01  5.99386E+01  7.04942E+01
   7.85931E+01  8.07938E+01  7.58241E+01  6.64336E+01  5.63627E+01  4.77906E+01  4.00549E+01  3.55757E+01  3.31591E+01  3.07166E+01
   2.96900E+01  2.89836E+01  2.83940E+01  2.91142E+01  2.99911E+01  2.86553E+01  2.86951E+01  3.14777E+01  3.59045E+01  4.03005E+01
   4.33154E+01  4.53464E+01  4.52420E+01  4.26892E+01  3.85565E+01  3.41599E+01  3.03142E+01  2.67801E+01  2.52227E+01  2.52016E+01
   2.63582E+01  2.82321E+01  2.95585E+01  3.07424E+01  3.31106E+01  3.70803E+01  4.10031E+01  4.22945E+01  4.07739E+01  3.74722E+01
   3.33445E+01  2.92988E+01  2.65029E+01  2.54341E+01  2.49480E+01  2.47276E+01  2.52650E+01  2.64400E+01  2.80148E+01  2.92770E+01
   2.96537E+01  2.90612E+01  2.75848E+01  2.57502E+01  2.41643E+01  2.35226E+01  2.36269E+01  2.40094E+01  2.47122E+01  2.55779E+01
   2.65043E+01  2.70940E+01  2.71469E+01  2.68103E+01  2.62164E+01  2.56230E+01  2.50468E+01  2.46910E+01  2.45063E+01  2.43077E+01
   2.41920E+01  2.39568E+01  2.36459E+01  2.35675E+01  2.34728E+01  2.28923E+01  2.17455E+01  2.04575E+01  1.95831E+01  1.93334E+01
   1.98357E+01  2.07269E+01  2.18673E+01  2.30339E+01  2.39481E+01  2.47136E+01  2.63131E+01  3.07386E+01  3.21599E+01  3.48571E+01
   4.71137E+01  6.59364E+01  8.32155E+01  9.01539E+01  8.56977E+01  7.41413E+01  6.02424E+01  4.67790E+01  3.67750E+01  3.21005E+01
   2.77485E+01  2.44715E+01  2.36205E+01  2.34059E+01  2.33887E+01  2.34934E+01  2.36446E+01  2.38246E+01  2.41338E+01  2.48455E+01
   2.73514E+01  3.37567E+01  3.76909E+01  4.18421E+01  5.69245E+01  8.05623E+01  1.02801E+02  1.13010E+02  1.08405E+02  9.42627E+01
   7.72759E+01  6.09547E+01  4.80426E+01  4.06977E+01  3.34551E+01  2.67486E+01  2.35673E+01  2.22998E+01  2.26112E+01  2.39973E+01
   2.54653E+01  2.63277E+01  2.66314E+01  2.63091E+01  2.55692E+01  2.48350E+01  2.41160E+01  2.35972E+01  2.30884E+01  2.25860E+01
   2.22055E+01  2.17807E+01  2.13473E+01  2.10139E+01  2.07979E+01  2.05807E+01  2.07620E+01  2.09611E+01  2.05624E+01  1.96621E+01
   1.82432E+01  1.75235E+01  1.80484E+01  1.90577E+01  1.97601E+01  1.97322E+01  1.89677E+01  1.77318E+01  1.67155E+01  1.59096E+01
   1.53343E+01  1.52293E+01  1.50622E+01  1.41424E+01  1.29205E+01  1.19654E+01  1.21753E+01  1.32819E+01  1.39756E+01  1.38895E+01
   1.34945E+01  1.31838E+01  1.34174E+01  1.39132E+01  1.40326E+01  1.40087E+01  1.47205E+01  1.64521E+01  1.92470E+01  2.23633E+01
   2.46822E+01  2.55966E+01  2.50703E+01  2.37842E+01  2.22087E+01  2.05311E+01  1.91769E+01  1.87471E+01  1.94611E+01  2.07338E+01
   2.27168E+01  2.50688E+01  2.76173E+01  2.94448E+01  2.93533E+01  2.83827E+01  2.61021E+01  2.19206E+01  1.75224E+01  1.42044E+01
   1.32060E+01  1.33812E+01  1.59965E+01  2.15732E+01  2.82908E+01  3.32004E+01  3.37446E+01  3.16479E+01  2.78974E+01  2.19061E+01
   1.48856E+01  9.82014E+00  8.78833E+00  1.09987E+01  1.56504E+01  2.08817E+01  2.57020E+01  2.92346E+01  3.04931E+01  3.01019E+01
   2.91197E+01  2.84804E+01  2.83206E+01  2.87067E+01  2.96300E+01  3.10468E+01  3.23256E+01  3.22869E+01  3.20863E+01  3.16450E+01
   3.04107E+01  2.89643E+01  2.83654E+01  2.92881E+01  3.10289E+01  3.30238E+01  3.48800E+01  3.63285E+01  3.68413E+01  3.68541E+01
   3.77679E+01  3.84270E+01  4.04263E+01  4.59378E+01  5.89305E+01  6.85866E+01  6.90905E+01  8.30978E+01  1.12699E+02  1.44812E+02
   1.62432E+02  1.58339E+02  1.39329E+02  1.13064E+02  8.65384E+01  6.42363E+01  5.26247E+01  4.46734E+01  3.54043E+01  3.18182E+01
   3.01738E+01  2.90939E+01  2.85208E+01  2.83005E+01  2.79930E+01  2.75616E+01  2.70511E+01  2.64526E+01  2.57645E+01  2.51142E+01
   2.45808E+01  2.41623E+01  2.38410E+01  2.35963E+01  2.33990E+01  2.32217E+01  2.30441E+01  2.28674E+01  2.27363E+01  2.26667E+01
   2.26712E+01  2.27539E+01  2.28986E+01  2.30784E+01  2.32895E+01  2.35149E+01  2.37411E+01  2.39794E+01  2.42412E+01  2.45241E+01
   2.48271E+01  2.51391E+01  2.54441E+01  2.57263E+01  2.59673E+01  2.61561E+01  2.62942E+01  2.63720E+01  2.63904E+01  2.63542E+01
   2.62646E+01  2.61253E+01  2.59435E+01  2.57283E+01  2.54907E+01  2.52420E+01  2.49933E+01  2.47563E+01  2.45453E+01  2.43794E+01
   2.42950E+01  2.43173E+01  2.42177E+01  2.42200E+01  2.45474E+01  2.48429E+01  2.47539E+01  2.41320E+01  2.32046E+01  2.24675E+01
   2.19474E+01  2.14568E+01  2.14190E+01  2.20646E+01  2.31074E+01  2.42871E+01  2.53054E+01  2.59567E+01  2.62908E+01  2.63947E+01
   2.63658E+01  2.64470E+01  2.65482E+01  2.65882E+01  2.67675E+01  2.69942E+01  2.71616E+01  2.72171E+01  2.71951E+01  2.72024E+01
   2.72184E+01  2.72414E+01  2.73603E+01  2.76087E+01  2.79091E+01  2.81786E+01  2.83771E+01  2.84645E+01  2.84540E+01  2.83606E+01
   2.82101E+01  2.80485E+01  2.78487E+01  2.76098E+01  2.73564E+01  2.70852E+01  2.67962E+01  2.64918E+01  2.61764E+01  2.58549E+01
   2.55328E+01  2.52149E+01  2.49056E+01  2.46095E+01  2.43314E+01  2.40762E+01  2.38484E+01  2.36516E+01  2.34891E+01  2.33646E+01
   2.32820E+01  2.32451E+01  2.32572E+01  2.33211E+01  2.34395E+01  2.36154E+01  2.38517E+01  2.41505E+01  2.45126E+01  2.49375E+01
   2.54239E+01  2.59693E+01  2.65693E+01  2.72173E+01  2.79040E+01  2.86180E+01  2.93461E+01  3.00737E+01  3.07847E+01  3.14612E+01
   3.20852E+01  3.26391E+01  3.31069E+01  3.34748E+01  3.37312E+01  3.38675E+01  3.38783E+01  3.37629E+01  3.35245E+01  3.31701E+01
   3.27095E+01  3.21549E+01  3.15209E+01  3.08237E+01  3.00804E+01  2.93076E+01  2.85208E+01  2.77340E+01  2.69597E+01  2.62090E+01
   2.54908E+01  2.48113E+01  2.41747E+01  2.35832E+01  2.30379E+01  2.25390E+01  2.20850E+01  2.16737E+01  2.13019E+01  2.09664E+01
   2.06643E+01  2.03927E+01  2.01486E+01  1.99286E+01  1.97297E+01  1.95494E+01  1.93860E+01  1.92376E+01  1.91022E+01  1.89780E+01
   1.88635E+01  1.87578E+01  1.86601E+01  1.85697E+01  1.84855E+01  1.84065E+01  1.83321E+01  1.82623E+01  1.81967E+01  1.81350E+01
   1.80763E+01  1.80203E+01  1.79669E+01  1.79161E+01  1.78679E+01  1.78218E+01  1.77774E+01  1.77344E+01  1.76931E+01  1.76536E+01
   1.76157E+01  1.75789E+01  1.75431E+01  1.75082E+01  1.74745E+01  1.74420E+01  1.74106E+01  1.73798E+01  1.73495E+01  1.73199E+01
   1.72913E+01  1.72636E+01  1.72364E+01  1.72095E+01  1.71830E+01  1.71571E+01  1.71321E+01  1.71076E+01  1.70833E+01  1.70592E+01
   1.70354E+01  1.70122E+01  1.69895E+01  1.69672E+01  1.69450E+01  1.69228E+01  1.69009E+01  1.68796E+01  1.68587E+01  1.68378E+01
   1.68169E+01  1.67961E+01  1.67756E+01  1.67556E+01  1.67357E+01  1.67158E+01  1.66957E+01  1.66758E+01
 NY background values follow
     2.187E+01    2.186E+01    2.184E+01    2.183E+01    2.181E+01    2.180E+01    2.178E+01    2.177E+01    2.175E+01    2.174E+01
     2.172E+01    2.171E+01    2.169E+01    2.168E+01    2.166E+01    2.165E+01    2.163E+01    2.162E+01    2.160E+01    2.159E+01
     2.157E+01    2.156E+01    2.154E+01    2.153E+01    2.151E+01    2.150E+01    2.148E+01    2.146E+01    2.145E+01    2.143E+01
     2.142E+01    2.140E+01    2.139E+01    2.137E+01    2.136E+01    2.134E+01    2.133E+01    2.131E+01    2.130E+01    2.128E+01
     2.127E+01    2.125E+01    2.124E+01    2.122E+01    2.121E+01    2.119E+01    2.118E+01    2.116E+01    2.115E+01    2.113E+01
     2.112E+01    2.110E+01    2.109E+01    2.107E+01    2.106E+01    2.104E+01    2.103E+01    2.101E+01    2.100E+01    2.098E+01
     2.097E+01    2.095E+01    2.094E+01    2.092E+01    2.091E+01    2.089E+01    2.088E+01    2.086E+01    2.085E+01    2.083E+01
     2.082E+01    2.080E+01    2.079E+01    2.077E+01    2.076E+01    2.074E+01    2.073E+01    2.071E+01    2.070E+01    2.068E+01
     2.067E+01    2.065E+01    2.064E+01    2.062E+01    2.061E+01    2.059E+01    2.058E+01    2.056E+01    2.055E+01    2.053E+01
     2.052E+01    2.050E+01    2.049E+01    2.047E+01    2.046E+01    2.044E+01    2.043E+01    2.041E+01    2.040E+01    2.038E+01
     2.037E+01    2.035E+01    2.034E+01    2.032E+01    2.031E+01    2.029E+01    2.028E+01    2.026E+01    2.025E+01    2.023E+01
     2.022E+01    2.020E+01    2.019E+01    2.018E+01    2.016E+01    2.015E+01    2.013E+01    2.012E+01    2.010E+01    2.009E+01
     2.007E+01    2.006E+01    2.004E+01    2.003E+01    2.001E+01    2.000E+01    1.998E+01    1.997E+01    1.996E+01    1.994E+01
     1.993E+01    1.991E+01    1.990E+01    1.988E+01    1.987E+01    1.985E+01    1.984E+01    1.982E+01    1.981E+01    1.980E+01
     1.978E+01    1.977E+01    1.975E+01    1.974E+01    1.972E+01    1.971E+01    1.970E+01    1.968E+01    1.967E+01    1.965E+01
     1.964E+01    1.962E+01    1.961E+01    1.960E+01    1.958E+01    1.957E+01    1.955E+01    1.954E+01    1.952E+01    1.951E+01
     1.950E+01    1.948E+01    1.947E+01    1.945E+01    1.944E+01    1.943E+01    1.941E+01    1.940E+01    1.938E+01    1.937E+01
     1.936E+01    1.934E+01    1.933E+01    1.932E+01    1.930E+01    1.929E+01    1.927E+01    1.926E+01    1.925E+01    1.923E+01
     1.922E+01    1.921E+01    1.919E+01    1.918E+01    1.917E+01    1.915E+01    1.914E+01    1.912E+01    1.911E+01    1.910E+01
     1.908E+01    1.907E+01    1.906E+01    1.904E+01    1.903E+01    1.902E+01    1.900E+01    1.899E+01    1.898E+01    1.897E+01
     1.895E+01    1.894E+01    1.893E+01    1.891E+01    1.890E+01    1.889E+01    1.887E+01    1.886E+01    1.885E+01    1.884E+01
     1.882E+01    1.881E+01    1.880E+01    1.878E+01    1.877E+01    1.876E+01    1.875E+01    1.873E+01    1.872E+01    1.871E+01
     1.869E+01    1.868E+01    1.867E+01    1.866E+01    1.864E+01    1.863E+01    1.862E+01    1.861E+01    1.859E+01    1.858E+01
     1.857E+01    1.856E+01    1.854E+01    1.853E+01    1.852E+01    1.851E+01    1.850E+01    1.848E+01    1.847E+01    1.846E+01
     1.845E+01    1.843E+01    1.842E+01    1.841E+01    1.840E+01    1.839E+01    1.837E+01    1.836E+01    1.835E+01    1.834E+01
     1.833E+01    1.831E+01    1.830E+01    1.829E+01    1.828E+01    1.827E+01    1.825E+01    1.824E+01    1.823E+01    1.822E+01
     1.821E+01    1.819E+01    1.818E+01    1.817E+01    1.816E+01    1.815E+01    1.814E+01    1.812E+01    1.811E+01    1.810E+01
     1.809E+01    1.808E+01    1.807E+01    1.806E+01    1.804E+01    1.803E+01    1.802E+01    1.801E+01    1.800E+01    1.799E+01
     1.798E+01    1.796E+01    1.795E+01    1.794E+01    1.793E+01    1.792E+01    1.791E+01    1.790E+01    1.788E+01    1.787E+01
     1.786E+01    1.785E+01    1.784E+01    1.783E+01    1.782E+01    1.781E+01    1.780E+01    1.778E+01    1.777E+01    1.776E+01
     1.775E+01    1.774E+01    1.773E+01    1.772E+01    1.771E+01    1.770E+01    1.769E+01    1.767E+01    1.766E+01    1.765E+01
     1.764E+01    1.763E+01    1.762E+01    1.761E+01    1.760E+01    1.759E+01    1.758E+01    1.757E+01    1.756E+01    1.754E+01
     1.753E+01    1.752E+01    1.751E+01    1.750E+01    1.749E+01    1.748E+01    1.747E+01    1.746E+01    1.745E+01    1.744E+01
     1.743E+01    1.742E+01    1.741E+01    1.740E+01    1.739E+01    1.738E+01    1.736E+01    1.735E+01    1.734E+01    1.733E+01
     1.732E+01    1.731E+01    1.730E+01    1.729E+01    1.728E+01    1.727E+01    1.726E+01    1.725E+01    1.724E+01    1.723E+01
     1.722E+01    1.721E+01    1.720E+01    1.719E+01    1.718E+01    1.717E+01    1.716E+01    1.715E+01    1.714E+01    1.713E+01
     1.712E+01    1.711E+01    1.710E+01    1.709E+01    1.708E+01    1.707E+01    1.706E+01    1.705E+01    1.704E+01    1.703E+01
     1.702E+01    1.701E+01    1.700E+01    1.699E+01    1.698E+01    1.697E+01    1.696E+01    1.695E+01    1.694E+01    1.693E+01
     1.692E+01    1.691E+01    1.690E+01    1.689E+01    1.688E+01    1.687E+01    1.686E+01    1.685E+01    1.684E+01    1.683E+01
     1.682E+01    1.681E+01    1.680E+01    1.679E+01    1.678E+01    1.677E+01    1.676E+01    1.675E+01    1.674E+01    1.673E+01
     1.672E+01    1.671E+01    1.670E+01    1.669E+01    1.668E+01    1.667E+01    1.666E+01    1.665E+01    1.664E+01    1.663E+01
     1.662E+01    1.661E+01    1.660E+01    1.659E+01    1.658E+01    1.657E+01    1.656E+01    1.655E+01    1.654E+01    1.653E+01
     1.652E+01    1.651E+01    1.650E+01    1.649E+01    1.649E+01    1.648E+01    1.647E+01    1.646E+01    1.645E+01    1.644E+01
     1.643E+01    1.642E+01    1.641E+01    1.640E+01    1.639E+01    1.638E+01    1.637E+01    1.636E+01    1.635E+01    1.634E+01
     1.633E+01    1.632E+01    1.631E+01    1.630E+01    1.629E+01    1.628E+01    1.627E+01    1.626E+01    1.625E+01    1.624E+01
     1.623E+01    1.623E+01    1.622E+01    1.621E+01    1.620E+01    1.619E+01    1.618E+01    1.617E+01    1.616E+01    1.615E+01
     1.614E+01    1.613E+01    1.612E+01    1.611E+01    1.610E+01    1.609E+01    1.608E+01    1.607E+01    1.606E+01    1.605E+01
     1.604E+01    1.603E+01    1.602E+01    1.601E+01    1.600E+01    1.599E+01    1.598E+01    1.598E+01    1.597E+01    1.596E+01
     1.595E+01    1.594E+01    1.593E+01    1.592E+01    1.591E+01    1.590E+01    1.589E+01    1.588E+01    1.587E+01    1.586E+01
     1.585E+01    1.584E+01    1.583E+01    1.582E+01    1.581E+01    1.580E+01    1.579E+01    1.578E+01
 Ala      Conc. = 1.45E+02
